version,3.0
numOfCh,1
type,point
parent_name,714af_3dot0-0dot01
ch_type,1_1
kcount,1
numberNandB,1
brightnessNandB,1
carpet pos,0
pc,0
Time (ms),CH1 Auto-Correlation
1.0,0.026936205103993416
2.0,0.02263474278151989
3.0,0.01972421631217003
4.0,0.017439134418964386
5.0,0.016387492418289185
6.0,0.015147915109992027
7.0,0.01384529285132885
8.0,0.012994807213544846
9.0,0.012075135484337807
10.0,0.011418129317462444
11.0,0.010756175965070724
12.0,0.01011134684085846
13.0,0.009657487273216248
14.0,0.009084885939955711
15.0,0.00857414398342371
16.0,0.008314358070492744
18.0,0.007718509063124657
20.0,0.007111986167728901
22.0,0.006795964203774929
24.0,0.006320779677480459
26.0,0.0061829593032598495
28.0,0.006106745917350054
30.0,0.005782539956271648
32.0,0.005503865424543619
36.0,0.004694605711847544
40.0,0.004608501680195332
44.0,0.004279462154954672
48.0,0.00391081627458334
52.0,0.0034480420872569084
56.0,0.0030692487489432096
60.0,0.0027874342631548643
64.0,0.0028649598825722933
72.0,0.0036665755324065685
80.0,0.0032111064065247774
88.0,0.002801097696647048
96.0,0.003238347126170993
104.0,0.003831610083580017
112.0,0.0044415839947760105
120.0,0.004332960117608309
128.0,0.0038366231601685286
144.0,0.0036973755341023207
160.0,0.003047832753509283
176.0,0.0024506174959242344
192.0,0.0032475371845066547
208.0,0.0030871552880853415
224.0,0.0029761057812720537
240.0,0.0027090366929769516
256.0,0.0014801188372075558
288.0,0.0011645398335531354
320.0,0.0013237693347036839
352.0,0.0020615840330719948
384.0,0.0019730462227016687
416.0,0.0017840041546151042
448.0,0.0013590467860922217
480.0,0.0011323996586725116
512.0,0.002012687735259533
576.0,0.0017379429191350937
640.0,0.0019144018879160285
704.0,0.0008915230864658952
768.0,0.00030550529481843114
832.0,0.000675760384183377
896.0,0.00019989654538221657
960.0,-0.00015818144311197102
1024.0,0.00013042229693382978
1152.0,0.0002857274084817618
1280.0,0.00026488627190701663
1408.0,3.481739622657187e-05
1536.0,-0.0002546686737332493
1664.0,-0.0006403625011444092
1792.0,0.0008844714029692113
1920.0,0.0006018155254423618
2048.0,-0.0006947278161533177
2304.0,-0.00021314420155249536
2560.0,-0.0016891742125153542
2816.0,-0.001883569173514843
3072.0,-0.0015975479036569595
3328.0,-0.0006956997676752508
3584.0,0.00021272384037729353
3840.0,0.000724016863387078
4096.0,0.0005857802461832762
end
