version,3.0
numOfCh,1
type,point
parent_name,714af_3dot0-0dot01
ch_type,1_1
kcount,1
numberNandB,1
brightnessNandB,1
carpet pos,0
pc,0
Time (ms),CH1 Auto-Correlation
1.0,0.03156302869319916
2.0,0.027302995324134827
3.0,0.024241771548986435
4.0,0.02206534333527088
5.0,0.020318586379289627
6.0,0.01897686906158924
7.0,0.018075577914714813
8.0,0.017321066930890083
9.0,0.01672787219285965
10.0,0.01601794920861721
11.0,0.015280399471521378
12.0,0.014785846695303917
13.0,0.01430960651487112
14.0,0.013577315956354141
15.0,0.013103245757520199
16.0,0.012815901078283787
18.0,0.012476082891225815
20.0,0.011988420970737934
22.0,0.011483078822493553
24.0,0.011231416836380959
26.0,0.011081068776547909
28.0,0.010698727332055569
30.0,0.01057265605777502
32.0,0.0105330441147089
36.0,0.010122469626367092
40.0,0.009559734724462032
44.0,0.009546286426484585
48.0,0.008973075076937675
52.0,0.008826341480016708
56.0,0.008310294710099697
60.0,0.007197821978479624
64.0,0.006670565344393253
72.0,0.005980193614959717
80.0,0.005946560762822628
88.0,0.005644168704748154
96.0,0.0051976884715259075
104.0,0.004690974485129118
112.0,0.004242998082190752
120.0,0.003717843210324645
128.0,0.0032176822423934937
144.0,0.003186668734997511
160.0,0.004269490018486977
176.0,0.003649727674201131
192.0,0.003539507742971182
208.0,0.0033669439144432545
224.0,0.003288264386355877
240.0,0.003395617241039872
256.0,0.0035327645018696785
288.0,0.0032317095901817083
320.0,0.002884102053940296
352.0,0.0022678698878735304
384.0,0.0028341254219412804
416.0,0.0024216955062001944
448.0,0.0022216474171727896
480.0,0.0008647161303088069
512.0,0.00023806634999345988
576.0,0.0016714964294806123
640.0,0.00270577659830451
704.0,0.0033330556470900774
768.0,0.0032003067899495363
832.0,0.0031503436621278524
896.0,0.0020220919977873564
960.0,0.00042602361645549536
1024.0,0.0024846054147928953
1152.0,0.0021744214463979006
1280.0,0.0022268237080425024
1408.0,0.0023479615338146687
1536.0,0.0016456490848213434
1664.0,0.0006612221477553248
1792.0,0.0004745370242744684
1920.0,0.0006990554975345731
2048.0,-0.0010061791399493814
2304.0,-0.0006471416563726962
2560.0,0.0003757482918445021
2816.0,-0.0014028936857357621
3072.0,-0.0011696378933265805
3328.0,-0.0023704839404672384
3584.0,-0.004038441926240921
3840.0,-0.0022679665125906467
4096.0,-0.0012219635536894202
4608.0,-0.005320786964148283
5120.0,-0.001499426201917231
5632.0,-0.002249656245112419
6144.0,-0.00494101969525218
6656.0,0.0017186241457238793
7168.0,0.0007387226796709001
7680.0,-1.441259610146517e-05
8192.0,0.014001313596963882
end
