version,3.0
numOfCh,1
type,point
parent_name,714af_3dot0-0dot01
ch_type,1_1
kcount,1
numberNandB,1
brightnessNandB,1
carpet pos,0
pc,0
Time (ms),CH1 Auto-Correlation
1.0,0.03247317299246788
2.0,0.0281706303358078
3.0,0.025267114862799644
4.0,0.0233245100826025
5.0,0.021725427359342575
6.0,0.020148644223809242
7.0,0.018961522728204727
8.0,0.018087778240442276
9.0,0.017253786325454712
10.0,0.016495877876877785
11.0,0.01561782881617546
12.0,0.014980614185333252
13.0,0.014698990620672703
14.0,0.014562043361365795
15.0,0.014295581728219986
16.0,0.013638176023960114
18.0,0.012957766652107239
20.0,0.012759558856487274
22.0,0.012002190575003624
24.0,0.011375486850738525
26.0,0.01088255550712347
28.0,0.010449633933603764
30.0,0.00991449411958456
32.0,0.009586704894900322
36.0,0.009092481806874275
40.0,0.008330457843840122
44.0,0.008124914951622486
48.0,0.00782180204987526
52.0,0.007761541288346052
56.0,0.007351613137871027
60.0,0.006956786382943392
64.0,0.006497952155768871
72.0,0.006863809190690517
80.0,0.006357939913868904
88.0,0.007102304603904486
96.0,0.007081666961312294
104.0,0.006588654592633247
112.0,0.003929805476218462
120.0,0.0037424599286168814
128.0,0.004457816015928984
144.0,0.00406949408352375
160.0,0.002096639247611165
176.0,0.0007995450287126005
192.0,0.001808255328796804
208.0,0.001232579001225531
224.0,0.0014631828526034951
240.0,0.001501450315117836
256.0,0.0016417399747297168
288.0,0.0016793678514659405
320.0,0.0003797014360316098
352.0,0.00033549274667166173
384.0,0.00016600835078861564
416.0,0.0016525168903172016
448.0,0.0010397101286798716
480.0,0.001515764626674354
512.0,0.0019708904437720776
576.0,0.0007138513028621674
640.0,-0.0014755650190636516
704.0,-0.0022582574747502804
768.0,-0.0018144052010029554
832.0,-0.0007306097541004419
896.0,-0.0011968787293881178
960.0,0.0009725643903948367
1024.0,0.001220973557792604
1152.0,-0.0029516166541725397
1280.0,-0.0016568811843171716
1408.0,0.0011455790372565389
1536.0,0.004416372627019882
1664.0,0.003044682089239359
1792.0,-3.9752403608872555e-06
1920.0,0.00028952385764569044
2048.0,0.0008636144921183586
2304.0,0.0003166590759065002
2560.0,-0.0027389151509851217
2816.0,-0.0039022574201226234
3072.0,-0.0002078582620015368
3328.0,-0.0014045414282009006
3584.0,-0.0038444730453193188
3840.0,-0.006156177259981632
4096.0,-0.01297986600548029
end
