version,3.0
numOfCh,1
type,point
parent_name,714af_3dot0-0dot01
ch_type,1_1
kcount,1
numberNandB,1
brightnessNandB,1
carpet pos,0
pc,0
Time (ms),CH1 Auto-Correlation
1.0,0.046735141426324844
2.0,0.04182475432753563
3.0,0.03844943642616272
4.0,0.03589234501123428
5.0,0.03380979597568512
6.0,0.03218124061822891
7.0,0.030750999227166176
8.0,0.02945355884730816
9.0,0.028256947174668312
10.0,0.027420107275247574
11.0,0.02650926634669304
12.0,0.02559218555688858
13.0,0.024749426171183586
14.0,0.02420971542596817
15.0,0.02356014773249626
16.0,0.022974546998739243
18.0,0.02162271738052368
20.0,0.020896434783935547
22.0,0.02041548117995262
24.0,0.019475096836686134
26.0,0.01838860474526882
28.0,0.017617277801036835
30.0,0.017129620537161827
32.0,0.016810892149806023
36.0,0.015622751787304878
40.0,0.015043504536151886
44.0,0.014648557640612125
48.0,0.014004205353558064
52.0,0.013333795592188835
56.0,0.01278709527105093
60.0,0.011802726425230503
64.0,0.010865327902138233
72.0,0.007954912260174751
80.0,0.00647400040179491
88.0,0.00648152269423008
96.0,0.006893398240208626
104.0,0.006990398745983839
112.0,0.00758128659799695
120.0,0.007783731911331415
128.0,0.007430329918861389
144.0,0.006938068196177483
160.0,0.008675985969603062
176.0,0.008042657747864723
192.0,0.006114145275205374
208.0,0.005303427577018738
224.0,0.004777414258569479
240.0,0.00271725095808506
256.0,0.0013747470220550895
288.0,0.0030479510314762592
320.0,0.0035213944502174854
352.0,0.0027359863743185997
384.0,0.0031742400024086237
416.0,0.0018561584874987602
448.0,0.0022072691936045885
480.0,0.00195369403809309
512.0,0.002012921730056405
576.0,0.0006289332523010671
640.0,-0.0008940873085521162
704.0,-0.00015304249245673418
768.0,-0.0007301007281057537
832.0,-0.001528212334960699
896.0,0.00010692096839193255
960.0,-0.0013174018822610378
1024.0,-0.0008988305926322937
1152.0,5.578018317464739e-05
1280.0,0.0009375039371661842
1408.0,0.0006035752012394369
1536.0,0.0003379077243153006
1664.0,0.00012242657248862088
1792.0,4.108528173674131e-06
1920.0,-0.00023021327797323465
2048.0,0.0007164530106820166
2304.0,-5.063654316472821e-05
2560.0,0.0004965075640939176
2816.0,-0.0008915686048567295
3072.0,-0.0006262073293328285
3328.0,-0.0005499559338204563
3584.0,-0.0007215911755338311
3840.0,0.0004850089899264276
4096.0,0.000541694404091686
4608.0,-9.486822091275826e-05
5120.0,0.0008782292134128511
5632.0,-0.0003870240179821849
6144.0,0.000871762284077704
6656.0,-0.0005187451606616378
7168.0,0.0003233013267163187
7680.0,0.0011843966785818338
8192.0,0.0006840514834038913
end
