version,3.0
numOfCh,1
type,point
parent_name,714af_3dot0-0dot01
ch_type,1_1
kcount,1
numberNandB,1
brightnessNandB,1
carpet pos,0
pc,0
Time (ms),CH1 Auto-Correlation
1.0,0.026719987392425537
2.0,0.021834727376699448
3.0,0.018448570743203163
4.0,0.015986165031790733
5.0,0.014016780070960522
6.0,0.012612606398761272
7.0,0.011516171507537365
8.0,0.010451585985720158
9.0,0.009647918865084648
10.0,0.008732644841074944
11.0,0.008063305169343948
12.0,0.007623171899467707
13.0,0.007255867123603821
14.0,0.0068826619535684586
15.0,0.006545451004058123
16.0,0.006286020390689373
18.0,0.005775793455541134
20.0,0.005457209888845682
22.0,0.005256501492112875
24.0,0.005073188338428736
26.0,0.004845711402595043
28.0,0.004456958267837763
30.0,0.004195379093289375
32.0,0.0038353551644831896
36.0,0.003116376930847764
40.0,0.0031983766239136457
44.0,0.002847934141755104
48.0,0.002336234785616398
52.0,0.0023280608002096415
56.0,0.0028656318318098783
60.0,0.0029409683775156736
64.0,0.002644487889483571
72.0,0.002443235367536545
80.0,0.002158069284632802
88.0,0.0017143493751063943
96.0,0.0014523601857945323
104.0,0.0019369086949154735
112.0,0.00165363191626966
120.0,0.0015645313542336226
128.0,0.0016024013748392463
144.0,0.001737142214551568
160.0,0.0006931483512744308
176.0,0.0011294004507362843
192.0,0.0009697597706690431
208.0,0.0002794198808260262
224.0,0.0002967381151393056
240.0,0.001134927268140018
256.0,0.000987935229204595
288.0,0.0009472949313931167
320.0,0.0009334280621260405
352.0,0.0006314720376394689
384.0,0.0010968652786687016
416.0,0.0013993775937706232
448.0,0.001073789200745523
480.0,0.0010317234555259347
512.0,0.00045546996989287436
576.0,0.001768205314874649
640.0,0.0007484540110453963
704.0,0.00026524325949139893
768.0,7.176693179644644e-05
832.0,2.6078938390128314e-05
896.0,0.0005218540318310261
960.0,0.0008327647228725255
1024.0,-0.0007085729157552123
1152.0,-0.00017557844694238156
1280.0,-5.701328700524755e-05
1408.0,-0.0002609651710372418
1536.0,-0.0006029618089087307
1664.0,-0.0007563647232018411
1792.0,1.1295419426460285e-05
1920.0,-0.0010257946560159326
2048.0,-0.0007899592164903879
2304.0,-0.0006272816099226475
2560.0,-0.00038335868157446384
2816.0,0.00035587907768785954
3072.0,0.0004457897157408297
3328.0,0.0006031663506291807
3584.0,0.00031623305403627455
3840.0,0.0003605799574870616
4096.0,0.00035310638486407697
4608.0,-0.0002567453193478286
5120.0,-0.0008109042537398636
5632.0,-0.0003233768220525235
6144.0,9.452258382225409e-05
6656.0,0.00018981602624990046
7168.0,0.0010909774573519826
7680.0,0.0005029244930483401
8192.0,-0.0006438788841478527
end
