version,3.0
numOfCh,1
type,point
parent_name,714af_3dot0-0dot01
ch_type,1_1
kcount,1
numberNandB,1
brightnessNandB,1
carpet pos,0
pc,0
Time (ms),CH1 Auto-Correlation
1.0,0.027281425893306732
2.0,0.02252214029431343
3.0,0.019260019063949585
4.0,0.01681334897875786
5.0,0.014820054173469543
6.0,0.013216659426689148
7.0,0.011981536634266376
8.0,0.010920942761003971
9.0,0.010108064860105515
10.0,0.009355399757623672
11.0,0.008723258972167969
12.0,0.008172322995960712
13.0,0.007757291197776794
14.0,0.007453290279954672
15.0,0.007081178016960621
16.0,0.0068184249103069305
18.0,0.0061708372086286545
20.0,0.005536106415092945
22.0,0.005036727525293827
24.0,0.004458135459572077
26.0,0.004024307709187269
28.0,0.003902063239365816
30.0,0.003752387361600995
32.0,0.003327131737023592
36.0,0.0030089952051639557
40.0,0.003040309064090252
44.0,0.00324725522659719
48.0,0.0032672162633389235
52.0,0.003363807685673237
56.0,0.0030362780671566725
60.0,0.0029254350811243057
64.0,0.002677771495655179
72.0,0.0028037952724844217
80.0,0.0021055915858596563
88.0,0.0017993395449593663
96.0,0.00147185695823282
104.0,0.0008827425772324204
112.0,0.001134135527536273
120.0,0.0015152195701375604
128.0,0.0012168206740170717
144.0,0.0005165616748854518
160.0,0.0006267653661780059
176.0,0.0010629880707710981
192.0,0.00138562242500484
208.0,0.0002708903339225799
224.0,-9.549530659569427e-05
240.0,-0.0002576578699517995
256.0,-0.0001592898479430005
288.0,0.00011817459744634107
320.0,7.62069903430529e-05
352.0,-0.0002683424681890756
384.0,-0.00015983717457856983
416.0,0.00019342383893672377
448.0,0.00029891490703448653
480.0,-0.0005354374879971147
512.0,-0.0004281466535758227
576.0,-6.81392994010821e-05
640.0,0.0008079217514023185
704.0,0.00016701201093383133
768.0,0.0006749412859790027
832.0,0.00017643434694036841
896.0,-0.0005370418657548726
960.0,0.0007777810678817332
1024.0,0.00029841228388249874
1152.0,-0.00011906932923011482
1280.0,0.00019494396110530943
1408.0,0.0002932641073130071
1536.0,0.00040804367745295167
1664.0,0.001160361454822123
1792.0,0.0007356592104770243
1920.0,0.0008695376454852521
2048.0,-0.0001416153972968459
2304.0,0.0007221976411528885
2560.0,-0.00010390621173428372
2816.0,-0.00019397720461711287
3072.0,0.000380761397536844
3328.0,-0.000309018068946898
3584.0,-0.0008059534593485296
3840.0,-0.00036630217800848186
4096.0,0.0004145198327023536
4608.0,-0.00021187640959396958
5120.0,-0.0007870287518016994
5632.0,-0.000939416466280818
6144.0,-0.00034378646523691714
6656.0,-0.00026194582460448146
7168.0,-0.0005381610244512558
7680.0,-0.0010086405090987682
8192.0,9.2874193796888e-05
end
