version,3.0
numOfCh,1
type,point
parent_name,714af_3dot0-0dot01
ch_type,1_1
kcount,1
numberNandB,1
brightnessNandB,1
carpet pos,0
pc,0
Time (ms),CH1 Auto-Correlation
1.0,0.024963509291410446
2.0,0.02030068077147007
3.0,0.017130758613348007
4.0,0.014667632058262825
5.0,0.012699163518846035
6.0,0.0110379159450531
7.0,0.009822633117437363
8.0,0.008863022550940514
9.0,0.007858145982027054
10.0,0.007164314389228821
11.0,0.0065586743876338005
12.0,0.006176760420203209
13.0,0.005723861046135426
14.0,0.005308458581566811
15.0,0.005148433614522219
16.0,0.00482367305085063
18.0,0.0041313208639621735
20.0,0.0033101707231253386
22.0,0.0028998595662415028
24.0,0.002650380367413163
26.0,0.0024088937789201736
28.0,0.002178120194002986
30.0,0.002251383848488331
32.0,0.0020682024769484997
36.0,0.002079917350783944
40.0,0.0021946527995169163
44.0,0.0019397834548726678
48.0,0.0013086481485515833
52.0,0.0016942002112045884
56.0,0.0018583546625450253
60.0,0.0014214046532288194
64.0,0.0008350495481863618
72.0,0.0006040401058271527
80.0,0.00036202752380631864
88.0,1.8200898921350017e-05
96.0,-0.0002917870879173279
104.0,0.00016881784540601075
112.0,-5.4567553888773546e-05
120.0,-0.001053058193065226
128.0,-0.001154834870249033
144.0,-0.000938038807362318
160.0,-0.0011939259711652994
176.0,-0.00045853882329538465
192.0,-0.0003451741358730942
208.0,-0.0005264435312710702
224.0,0.0004896346945315599
240.0,0.0008836061460897326
256.0,0.0010712483199313283
288.0,0.00022963339870329946
320.0,-0.00017342589853797108
352.0,-0.0007082002703100443
384.0,-0.0001430911652278155
416.0,0.00015346944564953446
448.0,0.0005801322404295206
480.0,0.0003819475241471082
512.0,0.0004493223677854985
576.0,-7.50317340134643e-05
640.0,-0.0004784002958331257
704.0,0.0004139358061365783
768.0,-5.602617238764651e-05
832.0,-0.00028796432889066637
896.0,-0.0002434289053780958
960.0,-0.00011322130012558773
1024.0,0.00014204227773007005
1152.0,0.00026189169147983193
1280.0,0.0007413268322125077
1408.0,-0.00105168460868299
1536.0,-7.308300700969994e-05
1664.0,3.956268847105093e-05
1792.0,0.00013101421063765883
1920.0,-0.00010378304432379082
2048.0,-0.0007123092073015869
2304.0,7.558753168268595e-06
2560.0,-0.0003308831655886024
2816.0,0.00018855425878427923
3072.0,0.00019556182087399065
3328.0,0.00015714338223915547
3584.0,0.0002091614151140675
3840.0,-0.0001487160479882732
4096.0,0.0008893059566617012
4608.0,-0.0001346875651506707
5120.0,-0.00021000398555770516
5632.0,-0.00015833981160540134
6144.0,-0.00017726248188409954
6656.0,-0.00012064135808032006
7168.0,-1.75008117366815e-05
7680.0,-3.169934279867448e-05
8192.0,-0.00015351256297435611
end
