version,3.0
numOfCh,1
type,point
parent_name,714af_3dot0-0dot01
ch_type,1_1
kcount,1
numberNandB,1
brightnessNandB,1
carpet pos,0
pc,0
Time (ms),CH1 Auto-Correlation
1.0,0.028025180101394653
2.0,0.02324654906988144
3.0,0.020098600536584854
4.0,0.01769298128783703
5.0,0.01575065404176712
6.0,0.014390789903700352
7.0,0.013080570846796036
8.0,0.011991250328719616
9.0,0.010880793444812298
10.0,0.009966469369828701
11.0,0.009177908301353455
12.0,0.008458892814815044
13.0,0.007831895723938942
14.0,0.007485979702323675
15.0,0.007111764047294855
16.0,0.006770184729248285
18.0,0.006377664860337973
20.0,0.006165254395455122
22.0,0.005871243309229612
24.0,0.005308294668793678
26.0,0.0049112397246062756
28.0,0.004804243333637714
30.0,0.004705450963228941
32.0,0.004317187238484621
36.0,0.004213246051222086
40.0,0.003968442790210247
44.0,0.0037445547059178352
48.0,0.003226861357688904
52.0,0.002663440303876996
56.0,0.002638350473716855
60.0,0.0022515906020998955
64.0,0.0018394902581349015
72.0,0.0014903390547260642
80.0,0.00134424795396626
88.0,0.0013235376682132483
96.0,0.0010701101273298264
104.0,0.001417522202245891
112.0,0.0016023903153836727
120.0,0.0017453799955546856
128.0,0.0014045004500076175
144.0,0.0010292851366102695
160.0,0.0015177237801253796
176.0,0.0018808679888024926
192.0,0.0013985063415020704
208.0,0.0012119164457544684
224.0,0.0013530687429010868
240.0,0.00133325916249305
256.0,0.000993359019048512
288.0,-6.573462451342493e-05
320.0,-5.204930857871659e-05
352.0,0.0006398105178959668
384.0,0.0004291327786631882
416.0,0.0003354368673171848
448.0,0.0006410793284885585
480.0,0.0008672067197039723
512.0,0.00021401823323685676
576.0,8.66555783431977e-05
640.0,0.0003160426567774266
704.0,0.00044726478517986834
768.0,-0.0002678651362657547
832.0,0.00014826537517365068
896.0,4.210549013805576e-05
960.0,0.0008917029481381178
1024.0,0.00022683411953039467
1152.0,-0.00017747982928995043
1280.0,-8.13663427834399e-05
1408.0,-0.0005341091309674084
1536.0,-0.00034118135226890445
1664.0,0.00046031485544517636
1792.0,0.0001532952592242509
1920.0,-0.00012670864816755056
2048.0,4.665309461415745e-05
2304.0,0.0002957633987534791
2560.0,9.174091246677563e-05
2816.0,-0.0007248922483995557
3072.0,0.00010966360423481092
3328.0,-0.00010878193279495463
3584.0,0.0004245344316586852
3840.0,0.0006040824227966368
4096.0,0.0007447005482390523
4608.0,-0.000553990772459656
5120.0,-0.001215534983202815
5632.0,-0.0001580515963723883
6144.0,-0.00011615205585258082
6656.0,-0.0002367335109738633
7168.0,-0.0007772314129397273
7680.0,0.0007875870796851814
8192.0,2.516626591386739e-05
end
