version,3.0
numOfCh,1
type,point
parent_name,714af_3dot0-0dot01
ch_type,1_1
kcount,1
numberNandB,1
brightnessNandB,1
carpet pos,0
pc,0
Time (ms),CH1 Auto-Correlation
1.0,0.027895992621779442
2.0,0.023118160665035248
3.0,0.01987781561911106
4.0,0.017375262454152107
5.0,0.01569107547402382
6.0,0.014280615374445915
7.0,0.013222863897681236
8.0,0.012322131544351578
9.0,0.011392583139240742
10.0,0.010703456588089466
11.0,0.01017517689615488
12.0,0.009766537696123123
13.0,0.00929971318691969
14.0,0.008902380242943764
15.0,0.008552399463951588
16.0,0.008120691403746605
18.0,0.007046388927847147
20.0,0.006324689835309982
22.0,0.006017225794494152
24.0,0.005810877308249474
26.0,0.005465391092002392
28.0,0.005135734099894762
30.0,0.004717782139778137
32.0,0.004446680191904306
36.0,0.004468489903956652
40.0,0.004151365254074335
44.0,0.004063870757818222
48.0,0.003345879027619958
52.0,0.003004584228619933
56.0,0.002814309438690543
60.0,0.002603534609079361
64.0,0.002671749098226428
72.0,0.002435098635032773
80.0,0.0023891697637736797
88.0,0.0017090699402615428
96.0,0.0014061295660212636
104.0,0.001147461705841124
112.0,0.0011649449588730931
120.0,0.00022411011741496623
128.0,0.0003985317889600992
144.0,0.0005648386431857944
160.0,0.0008068264578469098
176.0,0.0011334156151860952
192.0,0.0009844419546425343
208.0,0.0007882524514570832
224.0,0.00100066012237221
240.0,0.0007922170916572213
256.0,0.000803791859652847
288.0,0.0002897953090723604
320.0,-4.022529174108058e-05
352.0,-0.00030308091663755476
384.0,0.00020981543639209121
416.0,0.0003632367879617959
448.0,0.0007464087684638798
480.0,0.0012731760507449508
512.0,0.0021693205926567316
576.0,0.0026704231277108192
640.0,0.0019062537467107177
704.0,0.00106590345967561
768.0,-0.00022604728292208165
832.0,0.00020091138139832765
896.0,-0.00012463568418752402
960.0,0.00048424641136080027
1024.0,0.00015546911163255572
1152.0,0.0006631066789850593
1280.0,0.0005229024100117385
1408.0,-0.0002342639782000333
1536.0,-0.00018929324869532138
1664.0,0.0003022772434633225
1792.0,0.0005508502945303917
1920.0,-0.00035857557668350637
2048.0,0.000105799495941028
2304.0,0.00019959290511906147
2560.0,-0.0007722740992903709
2816.0,-0.00017604909953661263
3072.0,-0.0007613099296577275
3328.0,-0.0010036904131993651
3584.0,0.0001857000752352178
3840.0,-0.0006538383313454688
4096.0,-7.353935416176682e-06
4608.0,-8.569718920625746e-05
5120.0,-0.00014827342238277197
5632.0,0.0004008274991065264
6144.0,0.000744110846426338
6656.0,0.0011462236288934946
7168.0,0.0003883022873196751
7680.0,1.2104531379009131e-05
8192.0,-0.0007660974515601993
end
