version,3.0
numOfCh,1
type,point
parent_name,714af_3dot0-0dot01
ch_type,1_1
kcount,1
numberNandB,1
brightnessNandB,1
carpet pos,0
pc,0
Time (ms),CH1 Auto-Correlation
1.0,0.028591593727469444
2.0,0.024560831487178802
3.0,0.02173236571252346
4.0,0.019640542566776276
5.0,0.018008986487984657
6.0,0.016906166449189186
7.0,0.015783464536070824
8.0,0.014738351106643677
9.0,0.013872670941054821
10.0,0.013232799246907234
11.0,0.012883260846138
12.0,0.012686687521636486
13.0,0.012321624904870987
14.0,0.011892466805875301
15.0,0.011379132978618145
16.0,0.010943633504211903
18.0,0.010338096879422665
20.0,0.009456826373934746
22.0,0.008821786381304264
24.0,0.008695702999830246
26.0,0.008456985466182232
28.0,0.008063079789280891
30.0,0.007880687713623047
32.0,0.007323318161070347
36.0,0.006325804628431797
40.0,0.00619814358651638
44.0,0.006277956999838352
48.0,0.006512886844575405
52.0,0.006340969353914261
56.0,0.006046270485967398
60.0,0.006126164458692074
64.0,0.0055855740793049335
72.0,0.0039846403524279594
80.0,0.004239241126924753
88.0,0.004488389473408461
96.0,0.004567764699459076
104.0,0.00443120114505291
112.0,0.003883260302245617
120.0,0.003913096617907286
128.0,0.0038330324459820986
144.0,0.003345014061778784
160.0,0.003522478276863694
176.0,0.0038739375304430723
192.0,0.004163017030805349
208.0,0.0037631939630955458
224.0,0.0030210157856345177
240.0,0.002511447062715888
256.0,0.0016889071557670832
288.0,0.0028120919596403837
320.0,0.002981959842145443
352.0,0.0023875648621469736
384.0,0.002595847938209772
416.0,0.002814671490341425
448.0,0.003186768852174282
480.0,0.0039441995322704315
512.0,0.0030467198230326176
576.0,0.002455475740134716
640.0,0.0035630089696496725
704.0,0.0023262149188667536
768.0,0.0003802215214818716
832.0,0.0005580956931225955
896.0,9.586243686499074e-05
960.0,0.00014174618991091847
1024.0,-0.0005927378660999238
1152.0,-0.0018338499357923865
1280.0,-0.0005230228416621685
1408.0,-0.002554318169131875
1536.0,-0.0012667708797380328
1664.0,-0.002143322257325053
1792.0,-0.003425778355449438
1920.0,-0.0014115354279056191
2048.0,-0.0030142725445330143
2304.0,-0.0021607792004942894
2560.0,-0.001825085375458002
2816.0,-0.0002806191041599959
3072.0,0.00100691057741642
3328.0,0.0003838848788291216
3584.0,0.0017738435417413712
3840.0,-4.058974809595384e-05
4096.0,-7.998108776519075e-05
4608.0,-0.0016883891075849533
5120.0,-0.0002969267370644957
5632.0,-0.00043316182564012706
6144.0,-0.0008197544957511127
6656.0,7.995116902748123e-05
7168.0,0.0003071520186495036
7680.0,0.0009833453223109245
8192.0,0.002787942299619317
end
