version,3.0
numOfCh,1
type,point
parent_name,714af_3dot0-0dot01
ch_type,1_1
kcount,1
numberNandB,1
brightnessNandB,1
carpet pos,0
pc,0
Time (ms),CH1 Auto-Correlation
1.0,0.02648446522653103
2.0,0.021659988909959793
3.0,0.01819177344441414
4.0,0.015576329082250595
5.0,0.013444854877889156
6.0,0.011681001633405685
7.0,0.010311635211110115
8.0,0.00927739031612873
9.0,0.008492100052535534
10.0,0.007774317637085915
11.0,0.00702871335670352
12.0,0.0065948511473834515
13.0,0.006312900688499212
14.0,0.005852965172380209
15.0,0.005425482057034969
16.0,0.005013138521462679
18.0,0.0043169064447283745
20.0,0.0037244753912091255
22.0,0.0034274132922291756
24.0,0.003061166498810053
26.0,0.002806758740916848
28.0,0.002416327828541398
30.0,0.002223053714260459
32.0,0.0020459035877138376
36.0,0.0019777824636548758
40.0,0.0019890337716788054
44.0,0.0018880130955949426
48.0,0.002465539611876011
52.0,0.0030412061605602503
56.0,0.0027068965137004852
60.0,0.0023791510611772537
64.0,0.002358413999900222
72.0,0.0019996650516986847
80.0,0.0012194323353469372
88.0,0.0014824370155110955
96.0,0.0012071107048541307
104.0,0.0014846529811620712
112.0,0.0011122545693069696
120.0,0.00036879832623526454
128.0,0.000272255449090153
144.0,-0.00018997443839907646
160.0,0.0004723640449810773
176.0,0.0009410605998709798
192.0,0.0008221659809350967
208.0,0.0003381636634003371
224.0,-0.00042585705523379147
240.0,-0.00010318488057237118
256.0,-0.00033412090851925313
288.0,-0.00037807461922056973
320.0,0.000379030971089378
352.0,0.0003982869384344667
384.0,0.0006507554790005088
416.0,-0.00028025434585288167
448.0,-1.7356353055220097e-05
480.0,-0.00011082756100222468
512.0,-0.0002647785295266658
576.0,-0.00046954688150435686
640.0,-0.0007118647918105125
704.0,-0.0006208157283253968
768.0,-0.00032336352160200477
832.0,-0.00018077740969602019
896.0,7.60047696530819e-05
960.0,-0.00041391130071133375
1024.0,-0.00021156192815396935
1152.0,2.7553211111808196e-05
1280.0,-0.0003458115679677576
1408.0,0.00010759550787042826
1536.0,0.0001443449582438916
1664.0,-2.1916137484367937e-05
1792.0,-0.000398676231270656
1920.0,-0.0003225738473702222
2048.0,0.0005168914794921875
2304.0,0.000808841607067734
2560.0,-0.0004903766675852239
2816.0,-0.00018707948038354516
3072.0,0.00023148316540755332
3328.0,0.0001918582565849647
3584.0,-0.0002840340603142977
3840.0,-0.00043727410957217216
4096.0,-0.0003195760946255177
4608.0,-0.00025807844940572977
5120.0,-0.00019334402168169618
5632.0,-0.00020148737530689687
6144.0,-7.724256283836439e-05
6656.0,0.00020156099344603717
7168.0,-0.0004045504319947213
7680.0,8.75805999385193e-05
8192.0,0.000503815186675638
end
