version,3.0
numOfCh,1
type,point
parent_name,714af_3dot0-0dot01
ch_type,1_1
kcount,1
numberNandB,1
brightnessNandB,1
carpet pos,0
pc,0
Time (ms),CH1 Auto-Correlation
1.0,0.029369158670306206
2.0,0.024528710171580315
3.0,0.02123401127755642
4.0,0.01882191374897957
5.0,0.016854925081133842
6.0,0.015510063618421555
7.0,0.014353911392390728
8.0,0.013216922990977764
9.0,0.012201876379549503
10.0,0.011335451155900955
11.0,0.010435900650918484
12.0,0.009813563898205757
13.0,0.009259245358407497
14.0,0.00876620039343834
15.0,0.008242513053119183
16.0,0.007970212027430534
18.0,0.007540357299149036
20.0,0.007236204110085964
22.0,0.006638870108872652
24.0,0.006042963359504938
26.0,0.005558769218623638
28.0,0.005365313030779362
30.0,0.00511567760258913
32.0,0.004806700628250837
36.0,0.004277646541595459
40.0,0.0041537294164299965
44.0,0.004089780151844025
48.0,0.0037768990732729435
52.0,0.003714220365509391
56.0,0.0032021834049373865
60.0,0.003057886613532901
64.0,0.0026374580338597298
72.0,0.0022392342798411846
80.0,0.0019061500206589699
88.0,0.0018093071412295103
96.0,0.002737098839133978
104.0,0.003261864185333252
112.0,0.002593289129436016
120.0,0.0016639729728922248
128.0,0.00198102998547256
144.0,0.001713226898573339
160.0,0.0006518805748783052
176.0,-0.00028807262424379587
192.0,0.0005834808689542115
208.0,0.001142285531386733
224.0,0.0005589326610788703
240.0,0.0009025725303217769
256.0,0.001301608164794743
288.0,0.0004977423814125359
320.0,-0.0003661254304461181
352.0,-0.0005242329789325595
384.0,0.0003328976163174957
416.0,0.0008285290678031743
448.0,-0.0005833810428157449
480.0,-0.0009706378332339227
512.0,-0.0002566991315688938
576.0,-0.00082165322965011
640.0,-0.0005130466888658702
704.0,-0.0008975999662652612
768.0,-0.0007724866736680269
832.0,0.0005947808385826647
896.0,-0.00010855451546376571
960.0,-0.0002210909005952999
1024.0,-0.000870136427693069
1152.0,-0.0005928138270974159
1280.0,0.00043070741230621934
1408.0,0.0002944803854916245
1536.0,0.0002450972096994519
1664.0,0.0010305953910574317
1792.0,-0.0001939678331837058
1920.0,-0.0006416402175091207
2048.0,0.0003692852333188057
2304.0,0.0004218827816657722
2560.0,0.00030982267344370484
2816.0,0.0008432916947640479
3072.0,0.0005092282663099468
3328.0,-0.0003144645888824016
3584.0,-0.0007627852610312402
3840.0,-0.0007816589786671102
4096.0,-0.00010849772661458701
4608.0,-4.9112195483758114e-06
5120.0,-0.00029078603256493807
5632.0,0.00012405561574269086
6144.0,-0.0013563776155933738
6656.0,-0.00035898596979677677
7168.0,0.000664079503621906
7680.0,0.00034699816023930907
8192.0,-0.000593117845710367
9216.0,-0.00019864339265041053
10240.0,8.757186878938228e-05
11264.0,0.00011146484030177817
12288.0,-8.856573549564928e-05
13312.0,-0.000520320434588939
14336.0,0.0002535803650971502
end
