version,3.0
numOfCh,1
type,point
parent_name,714af_3dot0-0dot01
ch_type,1_1
kcount,1
numberNandB,1
brightnessNandB,1
carpet pos,0
pc,0
Time (ms),CH1 Auto-Correlation
1.0,0.027348466217517853
2.0,0.022435517981648445
3.0,0.019032970070838928
4.0,0.016771288588643074
5.0,0.014984311535954475
6.0,0.013603092171251774
7.0,0.012411514297127724
8.0,0.011278902180492878
9.0,0.010314986109733582
10.0,0.00979647971689701
11.0,0.00912582315504551
12.0,0.008517622947692871
13.0,0.00802595354616642
14.0,0.007500192150473595
15.0,0.007100306451320648
16.0,0.006884654518216848
18.0,0.00642978772521019
20.0,0.006166297476738691
22.0,0.005910086911171675
24.0,0.00540683651342988
26.0,0.005015129689127207
28.0,0.00480659119784832
30.0,0.004507154691964388
32.0,0.004390493500977755
36.0,0.003722863970324397
40.0,0.0034641821403056383
44.0,0.0028232201002538204
48.0,0.002224177122116089
52.0,0.0017656979616731405
56.0,0.0014306915691122413
60.0,0.0012271774467080832
64.0,0.0009651398868300021
72.0,0.0008060146938078105
80.0,0.0006244429387152195
88.0,0.0001105930277844891
96.0,0.00028068985557183623
104.0,0.000516253465320915
112.0,0.0006462534074671566
120.0,0.0010643149726092815
128.0,0.001705856528133154
144.0,0.0015883328160271049
160.0,0.0011908033629879355
176.0,0.001733268378302455
192.0,0.000499124638736248
208.0,-0.000634011987131089
224.0,-0.0010798050789162517
240.0,-0.0008998923003673553
256.0,-0.0004280660068616271
288.0,1.4261544492910616e-05
320.0,-0.0007630300824530423
352.0,-0.0007754434482194483
384.0,-0.00040237174835056067
416.0,0.0006847507320344448
448.0,0.001103378483094275
480.0,0.0015230566496029496
512.0,0.0007360082818195224
576.0,0.0008013397455215454
640.0,-0.0006318790838122368
704.0,0.00019418781448621303
768.0,0.00021051095973234624
832.0,-0.0004801231261808425
896.0,0.0011035507777705789
960.0,0.000946417567320168
1024.0,0.00020475676865316927
1152.0,-0.0006932912510819733
1280.0,-0.0003960458270739764
1408.0,0.0006202788790687919
1536.0,0.00038694243994541466
1664.0,-0.0013474570587277412
1792.0,-0.0011547866743057966
1920.0,-0.0004227179742883891
2048.0,0.00035570276668295264
2304.0,-0.00017212731472682208
2560.0,-0.0009311551693826914
2816.0,-0.0007443636422976851
3072.0,-0.0002458649396430701
3328.0,-0.00032526598079130054
3584.0,0.0009180799825116992
3840.0,-0.0002828370488714427
4096.0,0.00022988991986494511
4608.0,-0.00027603103080764413
5120.0,-0.0002757451729848981
5632.0,0.00029843486845493317
6144.0,-0.0010147715220227838
6656.0,-4.339116458140779e-06
7168.0,-6.1622733483091e-05
7680.0,0.0007209899486042559
8192.0,-4.242545037413947e-05
end
