version,3.0
numOfCh,1
type,point
parent_name,714af_3dot0-0dot01
ch_type,1_1
kcount,1
numberNandB,1
brightnessNandB,1
carpet pos,0
pc,0
Time (ms),CH1 Auto-Correlation
1.0,0.05873582884669304
2.0,0.05526404082775116
3.0,0.05271613597869873
4.0,0.05069813132286072
5.0,0.049014125019311905
6.0,0.04754936695098877
7.0,0.04618871957063675
8.0,0.04465780407190323
9.0,0.04368064925074577
10.0,0.042849186807870865
11.0,0.042076870799064636
12.0,0.04103150963783264
13.0,0.04030139744281769
14.0,0.03967668116092682
15.0,0.03925251588225365
16.0,0.03826948627829552
18.0,0.03725826367735863
20.0,0.035902418196201324
22.0,0.03536883369088173
24.0,0.034774165600538254
26.0,0.03402220457792282
28.0,0.033135704696178436
30.0,0.03195915371179581
32.0,0.03103756159543991
36.0,0.030111875385046005
40.0,0.029754802584648132
44.0,0.02892572619020939
48.0,0.02843284420669079
52.0,0.02696343883872032
56.0,0.025932596996426582
60.0,0.02531616948544979
64.0,0.024797381833195686
72.0,0.022236017510294914
80.0,0.021119944751262665
88.0,0.02058829553425312
96.0,0.018054433166980743
104.0,0.016650298610329628
112.0,0.017684264108538628
120.0,0.018688132986426353
128.0,0.02024729922413826
144.0,0.02148749865591526
160.0,0.02169087715446949
176.0,0.02324814163148403
192.0,0.025382978841662407
208.0,0.025418054312467575
224.0,0.022893456742167473
240.0,0.021671228110790253
256.0,0.019602494314312935
288.0,0.015832504257559776
320.0,0.013235989958047867
352.0,0.011971982195973396
384.0,0.012173952534794807
416.0,0.012184368446469307
448.0,0.00943892914801836
480.0,0.008080142550170422
512.0,0.009001499973237514
576.0,0.007146160583943129
640.0,0.004398987628519535
704.0,0.0009646752732805908
768.0,0.0037189635913819075
832.0,0.0028160405345261097
896.0,0.00577519740909338
960.0,0.005957890767604113
1024.0,-0.0011227091308683157
1152.0,-0.001097216852940619
1280.0,-0.005601933225989342
1408.0,-0.012171134352684021
1536.0,-0.014782918617129326
1664.0,-0.015330782160162926
1792.0,-0.021249225363135338
1920.0,-0.026204463094472885
2048.0,-0.036750733852386475
end
