version,3.0
numOfCh,1
type,point
parent_name,714af_3dot0-0dot01
ch_type,1_1
kcount,1
numberNandB,1
brightnessNandB,1
carpet pos,0
pc,0
Time (ms),CH1 Auto-Correlation
1.0,0.027635136619210243
2.0,0.02344134822487831
3.0,0.020369956269860268
4.0,0.018467454239726067
5.0,0.016975784674286842
6.0,0.01590585894882679
7.0,0.014832236804068089
8.0,0.014042334631085396
9.0,0.01325276494026184
10.0,0.012635118328034878
11.0,0.012151189148426056
12.0,0.01194516196846962
13.0,0.011597421951591969
14.0,0.01100230310112238
15.0,0.010537886060774326
16.0,0.010115598328411579
18.0,0.009607772342860699
20.0,0.009305658750236034
22.0,0.008946188725531101
24.0,0.008796037174761295
26.0,0.00843478087335825
28.0,0.008239797316491604
30.0,0.00771897891536355
32.0,0.007440069690346718
36.0,0.00727785425260663
40.0,0.0068803406320512295
44.0,0.005937401670962572
48.0,0.005661302711814642
52.0,0.005782030522823334
56.0,0.005553710740059614
60.0,0.004797501023858786
64.0,0.004721752367913723
72.0,0.004303880967199802
80.0,0.0028983321972191334
88.0,0.002763823140412569
96.0,0.003298211609944701
104.0,0.0034130325075238943
112.0,0.00294918823055923
120.0,0.0025864732451736927
128.0,0.001954303588718176
144.0,0.0012656879844143987
160.0,0.0015212700236588717
176.0,0.002689977874979377
192.0,0.0018820916302502155
208.0,0.0021013536024838686
224.0,0.0021615929435938597
240.0,0.0019173240289092064
256.0,0.0007315286202356219
288.0,0.0003487831854727119
320.0,-0.0015786465955898166
352.0,-0.0009152080165222287
384.0,-0.00022653712949249893
416.0,0.00011738451576093212
448.0,0.0010742803569883108
480.0,2.7192121706320904e-05
512.0,-0.0013471920974552631
576.0,-0.0006852863007225096
640.0,-0.0010263592703267932
704.0,0.0003318182425573468
768.0,-0.0005334141897037625
832.0,-0.00037334230728447437
896.0,0.00024871830828487873
960.0,0.00017153643420897424
1024.0,0.0004250371712259948
1152.0,-0.0004250387428328395
1280.0,0.0009259596699848771
1408.0,0.001800525700673461
1536.0,0.00040660396916791797
1664.0,-0.00034439750015735626
1792.0,9.776255319593474e-05
1920.0,0.00023970601614564657
2048.0,-0.0001356924622086808
2304.0,0.0006094859563745558
2560.0,-0.0006504831253550947
2816.0,-0.0010324771283194423
3072.0,-0.002275684382766485
3328.0,0.0010268052574247122
3584.0,0.0008011030149646103
3840.0,-0.0010381899774074554
4096.0,0.0009632947039790452
end
