version,3.0
numOfCh,1
type,point
parent_name,714af_3dot0-0dot01
ch_type,1_1
kcount,1
numberNandB,1
brightnessNandB,1
carpet pos,0
pc,0
Time (ms),CH1 Auto-Correlation
1.0,0.030581865459680557
2.0,0.026660354807972908
3.0,0.023690354079008102
4.0,0.02162153087556362
5.0,0.020000889897346497
6.0,0.01879720762372017
7.0,0.017677178606390953
8.0,0.01677427999675274
9.0,0.01607612334191799
10.0,0.015423160046339035
11.0,0.014854333363473415
12.0,0.014137860387563705
13.0,0.013621989637613297
14.0,0.013062497600913048
15.0,0.012533317320048809
16.0,0.01208904106169939
18.0,0.011300649493932724
20.0,0.010916835628449917
22.0,0.010648387484252453
24.0,0.010325414128601551
26.0,0.009781599044799805
28.0,0.009274780750274658
30.0,0.008978326804935932
32.0,0.008550896309316158
36.0,0.007704960647970438
40.0,0.006914319936186075
44.0,0.006615162827074528
48.0,0.0065316385589540005
52.0,0.0060402448289096355
56.0,0.005839874502271414
60.0,0.006077962927520275
64.0,0.005814781412482262
72.0,0.0054306709207594395
80.0,0.0053848749957978725
88.0,0.006350441370159388
96.0,0.0071813808754086494
104.0,0.006984939333051443
112.0,0.007218373008072376
120.0,0.00705588748678565
128.0,0.006531498394906521
144.0,0.005538740195333958
160.0,0.005015295930206776
176.0,0.004792385268956423
192.0,0.004627428483217955
208.0,0.005281322170048952
224.0,0.0047461530193686485
240.0,0.004612362012267113
256.0,0.0031929356046020985
288.0,0.0033169034868478775
320.0,0.00448285648599267
352.0,0.003380363341420889
384.0,0.00415669335052371
416.0,0.004682556260377169
448.0,0.004105593077838421
480.0,0.003089125268161297
512.0,0.0033709127455949783
576.0,0.0032905470579862595
640.0,0.0017574700759723783
704.0,0.0018960436573252082
768.0,0.0013213081983849406
832.0,0.001705637201666832
896.0,0.00035324477357789874
960.0,0.0010817786678671837
1024.0,0.0005393618484959006
1152.0,0.0013452479615807533
1280.0,0.0004889287520200014
1408.0,0.0008644884801469743
1536.0,0.0014634820399805903
1664.0,0.00031309935729950666
1792.0,-0.0011387354461476207
1920.0,-0.00032607527100481093
2048.0,-0.0003675129555631429
2304.0,-0.000300912739476189
2560.0,1.352787330688443e-05
2816.0,3.085343632847071e-05
3072.0,6.46397820673883e-05
3328.0,-0.003066989593207836
3584.0,-0.0007147862343117595
3840.0,0.00031471310649067163
4096.0,0.0020436628255993128
4608.0,0.0006422490696422756
5120.0,0.0006309263990260661
5632.0,0.0001714591053314507
6144.0,-0.0012778780655935407
6656.0,-0.003795013530179858
7168.0,-0.008599690161645412
7680.0,-0.012220442295074463
8192.0,-0.010024639777839184
end
