version,3.0
numOfCh,1
type,point
parent_name,34766_3dot0-0dot01
ch_type,1_1
kcount,1
numberNandB,1
brightnessNandB,1
carpet pos,0
pc,0
Time (ms),CH1 Auto-Correlation
1.0,0.029296983033418655
2.0,0.024498622864484787
3.0,0.021033262833952904
4.0,0.018365763127803802
5.0,0.016253946349024773
6.0,0.014363708905875683
7.0,0.012996739707887173
8.0,0.01198609545826912
9.0,0.011124894954264164
10.0,0.010430579073727131
11.0,0.009914697147905827
12.0,0.009306790307164192
13.0,0.008870324119925499
14.0,0.008322935551404953
15.0,0.00796450674533844
16.0,0.007682809606194496
18.0,0.007070609834045172
20.0,0.006456428673118353
22.0,0.00607532262802124
24.0,0.005588030442595482
26.0,0.005126861855387688
28.0,0.004719744902104139
30.0,0.004406744614243507
32.0,0.004553572740405798
36.0,0.004389388952404261
40.0,0.0036392253823578358
44.0,0.0031361663714051247
48.0,0.002841224428266287
52.0,0.0028018136508762836
56.0,0.002674692077562213
60.0,0.0028582229278981686
64.0,0.0026069541927427053
72.0,0.0025530587881803513
80.0,0.00286660878919065
88.0,0.0026948852464556694
96.0,0.00321843265555799
104.0,0.0021656507160514593
112.0,0.0013608232839033008
120.0,0.0011301772901788354
128.0,0.0013465835945680737
144.0,0.0014091588091105223
160.0,0.0009678833885118365
176.0,0.0006548335659317672
192.0,-3.1766070605954155e-05
208.0,0.00010066975664813071
224.0,0.0005755906458944082
240.0,0.0007383579504676163
256.0,0.0005023766425438225
288.0,0.0009165630326606333
320.0,0.0008709746762178838
352.0,0.0012741632526740432
384.0,0.0008204961777664721
416.0,0.00041248707566410303
448.0,-1.4903770534147043e-05
480.0,-0.00019747043552342802
512.0,3.5670957004185766e-05
576.0,0.00027565928758122027
640.0,0.000322642270475626
704.0,0.0007958058849908412
768.0,0.00019437824084889144
832.0,-0.0002524865558370948
896.0,0.00026191811775788665
960.0,0.0008418974466621876
1024.0,-0.00031664210837334394
1152.0,-0.00011356158211128786
1280.0,-0.0003980013425461948
1408.0,4.217255082039628e-06
1536.0,0.000655489566270262
1664.0,0.0013241341803222895
1792.0,0.0006573112332262099
1920.0,0.000882321095559746
2048.0,0.0003474275581538677
2304.0,0.0005212683463469148
2560.0,-0.000587028858717531
2816.0,-0.0006957437726669014
3072.0,-0.00015237920160871
3328.0,-0.00014578831905964762
3584.0,-0.0007965592085383832
3840.0,0.0006185584934428334
4096.0,-0.0008814680040813982
4608.0,-0.00027073174715042114
5120.0,-0.0002843253605533391
5632.0,-0.0009674019529484212
6144.0,-0.0006629325216636062
6656.0,-0.0005009093438275158
7168.0,-0.00048170756781473756
7680.0,-0.0002991271612700075
8192.0,2.978822885779664e-05
end
