version,3.0
numOfCh,1
type,point
parent_name,34766_3dot0-0dot01
ch_type,1_1
kcount,1
numberNandB,1
brightnessNandB,1
carpet pos,0
pc,0
Time (ms),CH1 Auto-Correlation
1.0,0.027524663135409355
2.0,0.0229237861931324
3.0,0.019656380638480186
4.0,0.01708051934838295
5.0,0.015121778473258018
6.0,0.013600379228591919
7.0,0.012341398745775223
8.0,0.011332991532981396
9.0,0.010441997088491917
10.0,0.009548868983983994
11.0,0.008855040185153484
12.0,0.008199631236493587
13.0,0.007767329458147287
14.0,0.0072108181193470955
15.0,0.00688419584184885
16.0,0.0065913693979382515
18.0,0.005992720369249582
20.0,0.005623993929475546
22.0,0.005596473813056946
24.0,0.005449633579701185
26.0,0.005378687288612127
28.0,0.005330059677362442
30.0,0.004982799757272005
32.0,0.004221646580845118
36.0,0.0038547124713659286
40.0,0.003545536892488599
44.0,0.003494687844067812
48.0,0.003223394276574254
52.0,0.003189124632626772
56.0,0.003312953282147646
60.0,0.003288674633949995
64.0,0.0030877143144607544
72.0,0.0027308377902954817
80.0,0.0013381964527070522
88.0,0.0015558723825961351
96.0,0.0019322672160342336
104.0,0.001949519501067698
112.0,0.0010915796738117933
120.0,0.0007558910292573273
128.0,0.0005938233225606382
144.0,0.00021836391533724964
160.0,0.0015999077586457133
176.0,0.002170293591916561
192.0,0.0018109241500496864
208.0,0.0015494156396016479
224.0,0.0014799368800595403
240.0,0.0006285000708885491
256.0,0.0016531104920431972
288.0,0.0024907400365918875
320.0,0.001961534610018134
352.0,0.0019672506023198366
384.0,0.0003697867796290666
416.0,0.0011365870013833046
448.0,0.001673869090154767
480.0,0.0017675012350082397
512.0,0.001649705576710403
576.0,0.0009743439732119441
640.0,0.0013814592966809869
704.0,0.00021519111760426313
768.0,0.000639704056084156
832.0,0.0004203982534818351
896.0,0.0005422970280051231
960.0,5.2343792049214244e-05
1024.0,-8.637949213152751e-05
1152.0,0.00012391565542202443
1280.0,-1.9476412944641197e-06
1408.0,-0.0004892288707196712
1536.0,-0.00027627183590084314
1664.0,-0.00013620265235658735
1792.0,-0.0009252402232959867
1920.0,-0.001223673694767058
2048.0,-0.001273285481147468
2304.0,-0.00023480987874791026
2560.0,-0.0005233524134382606
2816.0,-9.546810179017484e-05
3072.0,-2.985029641422443e-05
3328.0,-0.0001823178754420951
3584.0,-6.517516158055514e-05
3840.0,-0.00019798624271061271
4096.0,-0.0007174847996793687
4608.0,-0.000958072196226567
5120.0,-0.0015583765925839543
5632.0,-0.0004537614877335727
6144.0,-0.0003776507801376283
6656.0,0.00018241413636133075
7168.0,0.00046707881847396493
7680.0,0.0001488261914346367
8192.0,0.00043367748730815947
end
