version,3.0
numOfCh,1
type,point
parent_name,34766_3dot0-0dot01
ch_type,1_1
kcount,1
numberNandB,1
brightnessNandB,1
carpet pos,0
pc,0
Time (ms),CH1 Auto-Correlation
1.0,0.032023925334215164
2.0,0.02736501209437847
3.0,0.02405264414846897
4.0,0.021538719534873962
5.0,0.019514767453074455
6.0,0.01771833561360836
7.0,0.016515368595719337
8.0,0.01550263911485672
9.0,0.014524159021675587
10.0,0.01403186097741127
11.0,0.013512306846678257
12.0,0.01304633542895317
13.0,0.012577932327985764
14.0,0.012348872609436512
15.0,0.011766432784497738
16.0,0.011190678924322128
18.0,0.010265054181218147
20.0,0.009539725258946419
22.0,0.008776286616921425
24.0,0.008175906725227833
26.0,0.007839281111955643
28.0,0.0075150830671191216
30.0,0.007019486743956804
32.0,0.006958706304430962
36.0,0.007058634422719479
40.0,0.006890553515404463
44.0,0.006058349274098873
48.0,0.005127233918756247
52.0,0.0044511547312140465
56.0,0.0047155446372926235
60.0,0.0045597669668495655
64.0,0.004741544369608164
72.0,0.004742130637168884
80.0,0.004516505170613527
88.0,0.003979415632784367
96.0,0.0033181183971464634
104.0,0.0030228886753320694
112.0,0.0018742566462606192
120.0,0.0016956869512796402
128.0,0.0013056922471150756
144.0,0.0009188569383695722
160.0,0.0013332127127796412
176.0,0.0010136706987395883
192.0,0.00040022764005698264
208.0,-0.0008668710361234844
224.0,-0.0007432487909682095
240.0,-0.00011430485756136477
256.0,-8.846280252328143e-05
288.0,0.0002923331339843571
320.0,0.00037251098547130823
352.0,0.0011604572646319866
384.0,0.0009618944604881108
416.0,0.000809850578662008
448.0,0.00036977819399908185
480.0,-0.00019823435286525637
512.0,0.0013317193370312452
576.0,0.0020972187630832195
640.0,0.0021004548761993647
704.0,0.002834722865372896
768.0,0.002433697460219264
832.0,0.0009452998056076467
896.0,-0.001087782671675086
960.0,-0.0010486107785254717
1024.0,0.0009186324896290898
1152.0,0.001973908394575119
1280.0,0.0008582401787862182
1408.0,0.0005553867085836828
1536.0,0.0005645802011713386
1664.0,-0.0006639179773628712
1792.0,0.001340980059467256
1920.0,0.0015708107966929674
2048.0,0.00015249813441187143
2304.0,0.0010505998507142067
2560.0,0.0008855561027303338
2816.0,0.0008027981384657323
3072.0,0.00021608491078950465
3328.0,0.0010178496595472097
3584.0,-0.0005281977355480194
3840.0,-0.0005798590136691928
4096.0,-0.0008035668288357556
4608.0,-0.0007272030343301594
5120.0,-0.0005099800764583051
5632.0,-0.0006060418672859669
6144.0,-0.0011586283799260855
6656.0,-0.0019287345930933952
7168.0,-0.0018508778885006905
7680.0,-0.0015965943457558751
8192.0,-0.0010110392468050122
end
