version,3.0
numOfCh,1
type,point
parent_name,34766_3dot0-0dot01
ch_type,1_1
kcount,1
numberNandB,1
brightnessNandB,1
carpet pos,0
pc,0
Time (ms),CH1 Auto-Correlation
1.0,0.026498615741729736
2.0,0.021623186767101288
3.0,0.018312940374016762
4.0,0.015961378812789917
5.0,0.014101785607635975
6.0,0.012432469986379147
7.0,0.010872955434024334
8.0,0.009679713286459446
9.0,0.008973042480647564
10.0,0.00829573068767786
11.0,0.0075571597553789616
12.0,0.006981069687753916
13.0,0.006608443334698677
14.0,0.006162756588310003
15.0,0.00581306591629982
16.0,0.005528664216399193
18.0,0.005038296338170767
20.0,0.004747776314616203
22.0,0.004438464064151049
24.0,0.0039872536435723305
26.0,0.003472081618383527
28.0,0.0033635213039815426
30.0,0.0034002605825662613
32.0,0.003399752778932452
36.0,0.0029589252080768347
40.0,0.00259983423165977
44.0,0.0024798372760415077
48.0,0.002488324185833335
52.0,0.0019950459245592356
56.0,0.002029385417699814
60.0,0.00212277052924037
64.0,0.002065348206087947
72.0,0.0016852039843797684
80.0,0.0014268031809478998
88.0,0.0006923455512151122
96.0,0.00011398055357858539
104.0,-0.0003517805889714509
112.0,-0.00010502730583539233
120.0,-0.0005252109258435667
128.0,7.729899516562e-05
144.0,-0.0002996909024659544
160.0,-0.0003815061936620623
176.0,0.00037036577123217285
192.0,0.0008193296962417662
208.0,0.0004427196108736098
224.0,-3.82822472602129e-05
240.0,0.0006057454156689346
256.0,4.007593452115543e-05
288.0,-0.0007292430382221937
320.0,0.0004009351250715554
352.0,0.0009879821445792913
384.0,0.0013593850890174508
416.0,0.000218536370084621
448.0,0.0002076819509966299
480.0,-2.571744153101463e-05
512.0,-0.0002564110327512026
576.0,-0.0005520088016055524
640.0,-5.466960647027008e-05
704.0,5.943770884186961e-05
768.0,-0.001174133620224893
832.0,-0.00027320042136125267
896.0,5.570489065576112e-06
960.0,-0.0002841131645254791
1024.0,-0.0002758293994702399
1152.0,-0.0007664672448299825
1280.0,-0.00028555915923789144
1408.0,-0.00020730981486849487
1536.0,-0.00015254133904818445
1664.0,0.00015725316188763827
1792.0,0.0005453020567074418
1920.0,0.00035393756115809083
2048.0,0.00013454834697768092
2304.0,-0.000154662731802091
2560.0,-0.0005656846333295107
2816.0,-2.9887776690884493e-05
3072.0,-0.00010062858927994967
3328.0,0.0005155010148882866
3584.0,6.909044168423861e-05
3840.0,-9.938715811586007e-05
4096.0,-0.0004239526460878551
4608.0,-0.00016109077841974795
5120.0,-0.00019420460739638656
5632.0,0.00027003290597349405
6144.0,0.0001480660430388525
6656.0,-0.00011683050979627296
7168.0,0.00027174214483238757
7680.0,0.00045860177488066256
8192.0,2.5146420739474706e-05
end
