version,3.0
numOfCh,1
type,point
parent_name,34766_3dot0-0dot01
ch_type,1_1
kcount,1
numberNandB,1
brightnessNandB,1
carpet pos,0
pc,0
Time (ms),CH1 Auto-Correlation
1.0,0.025933127850294113
2.0,0.021755767986178398
3.0,0.01857893541455269
4.0,0.016414528712630272
5.0,0.014720732346177101
6.0,0.013430568389594555
7.0,0.012255510315299034
8.0,0.011256112717092037
9.0,0.010566387325525284
10.0,0.009883024729788303
11.0,0.009272629395127296
12.0,0.008589777164161205
13.0,0.008140304125845432
14.0,0.007578767836093903
15.0,0.006987197324633598
16.0,0.006488805171102285
18.0,0.00579590629786253
20.0,0.005562530364841223
22.0,0.005426712334156036
24.0,0.0052390131168067455
26.0,0.004523879382759333
28.0,0.004139680881053209
30.0,0.0037241571117192507
32.0,0.003475495148450136
36.0,0.0030639255419373512
40.0,0.0024397079832851887
44.0,0.002274077385663986
48.0,0.0022515146993100643
52.0,0.0018289514118805528
56.0,0.001454615849070251
60.0,0.0015478282002732158
64.0,0.0014985230518504977
72.0,0.001063252449966967
80.0,0.0010814020643010736
88.0,0.002078395802527666
96.0,0.0026392547879368067
104.0,0.00264267367310822
112.0,0.003110152669250965
120.0,0.0031084921211004257
128.0,0.002915928140282631
144.0,0.002127794548869133
160.0,0.0019358944846317172
176.0,0.001862104400061071
192.0,0.0011456909123808146
208.0,0.0011869590962305665
224.0,0.001466106972657144
240.0,0.0013865232467651367
256.0,0.0008317218744195998
288.0,0.0010828212834894657
320.0,0.0013509782729670405
352.0,0.0016256540548056364
384.0,0.0015240925131365657
416.0,0.0005949462647549808
448.0,0.0015837211394682527
480.0,0.001339981216005981
512.0,0.0003891006053891033
576.0,0.00030170148238539696
640.0,0.001752599491737783
704.0,-0.0005636590649373829
768.0,0.000982632045634091
832.0,0.0006401942810043693
896.0,-0.0013931661378592253
960.0,0.0004437346651684493
1024.0,-0.0006902002496644855
1152.0,-0.0005956820677965879
1280.0,-0.0009510517120361328
1408.0,-3.817677134065889e-05
1536.0,-0.0003198207705281675
1664.0,-0.0006021531298756599
1792.0,0.0003517135919537395
1920.0,0.0008112264913506806
2048.0,0.00011122063733637333
2304.0,0.0013819842133671045
2560.0,0.0008392585441470146
2816.0,0.0005460536340251565
3072.0,-0.0004989335429854691
3328.0,-0.00045544098247773945
3584.0,-5.725478695239872e-05
3840.0,-0.0007247210014611483
4096.0,-0.0016310156788676977
end
