version,3.0
numOfCh,1
type,point
parent_name,34766_3dot0-0dot01
ch_type,1_1
kcount,1
numberNandB,1
brightnessNandB,1
carpet pos,0
pc,0
Time (ms),CH1 Auto-Correlation
1.0,0.029276171699166298
2.0,0.02444668486714363
3.0,0.021152136847376823
4.0,0.018744170665740967
5.0,0.016780590638518333
6.0,0.015442724339663982
7.0,0.014285866171121597
8.0,0.01314571313560009
9.0,0.012127988040447235
10.0,0.011271309107542038
11.0,0.010370299220085144
12.0,0.00973526481539011
13.0,0.009170955047011375
14.0,0.00867197010666132
15.0,0.008150947280228138
16.0,0.007886810228228569
18.0,0.007497505284845829
20.0,0.007143144030123949
22.0,0.006553567945957184
24.0,0.006002048961818218
26.0,0.005549005698412657
28.0,0.005308221559971571
30.0,0.005087156780064106
32.0,0.004735027905553579
36.0,0.004248702898621559
40.0,0.004128127824515104
44.0,0.004070171155035496
48.0,0.003772577503696084
52.0,0.003699174150824547
56.0,0.0031564515084028244
60.0,0.003057727124541998
64.0,0.002673680428415537
72.0,0.0023143813014030457
80.0,0.0018894517561420798
88.0,0.0017947311280295253
96.0,0.0027024182491004467
104.0,0.0032518007792532444
112.0,0.0025220944080501795
120.0,0.001614584238268435
128.0,0.0020464621484279633
144.0,0.001602797769010067
160.0,0.0005697529995813966
176.0,1.0569309552010964e-06
192.0,0.0004890362615697086
208.0,0.0012229979038238525
224.0,0.000531862024217844
240.0,0.000823402137029916
256.0,0.0012383975554257631
288.0,0.0003154006553813815
320.0,-0.00016378091822844
352.0,-0.0005723272915929556
384.0,0.0002958092954941094
416.0,0.0007105822442099452
448.0,-0.0005108321201987565
480.0,-0.0009806491434574127
512.0,-0.0002528553013689816
576.0,-0.0008685991633683443
640.0,-0.00043096000445075333
704.0,-0.0010521924123167992
768.0,-0.000735485169570893
832.0,0.0006438342970795929
896.0,-4.680270285462029e-05
960.0,-0.00030906955362297595
1024.0,-0.0008160157594829798
1152.0,-0.0006016509723849595
1280.0,0.0004917095066048205
1408.0,0.00023383318330161273
1536.0,0.00019425379286985844
1664.0,0.001035841298289597
1792.0,-0.0002458693052176386
1920.0,-0.0006340361433103681
2048.0,0.0004295012913644314
2304.0,0.000436699774581939
2560.0,0.00030328298453241587
2816.0,0.0008537747780792415
3072.0,0.0005654373671859503
3328.0,-0.00032665763865225017
3584.0,-0.0008369082934223115
3840.0,-0.0008869681041687727
4096.0,-0.00014559808187186718
4608.0,4.101979357074015e-05
5120.0,-0.00031076159211806953
5632.0,9.833180956775323e-05
6144.0,-0.0014431634917855263
6656.0,-0.00036985534825362265
7168.0,0.0007187189185060561
7680.0,0.000381712568923831
8192.0,-0.0006966221262700856
end
