version,3.0
numOfCh,1
type,point
parent_name,34766_3dot0-0dot01
ch_type,1_1
kcount,1
numberNandB,1
brightnessNandB,1
carpet pos,0
pc,0
Time (ms),CH1 Auto-Correlation
1.0,0.03394289314746857
2.0,0.029175296425819397
3.0,0.025766177102923393
4.0,0.02339046262204647
5.0,0.021710921078920364
6.0,0.020128564909100533
7.0,0.018701711669564247
8.0,0.017408648505806923
9.0,0.016192864626646042
10.0,0.015159429982304573
11.0,0.014302374795079231
12.0,0.013832214288413525
13.0,0.01350000686943531
14.0,0.013220841065049171
15.0,0.01306314580142498
16.0,0.012712066061794758
18.0,0.012126272544264793
20.0,0.011330549605190754
22.0,0.010732153430581093
24.0,0.010257666930556297
26.0,0.010090535506606102
28.0,0.00969843938946724
30.0,0.009169545024633408
32.0,0.008822978474199772
36.0,0.007926234044134617
40.0,0.0072175138629972935
44.0,0.006969752721488476
48.0,0.007036653347313404
52.0,0.006888833362609148
56.0,0.00651180325075984
60.0,0.006405469495803118
64.0,0.006363986060023308
72.0,0.005160609260201454
80.0,0.0040198336355388165
88.0,0.0037986813113093376
96.0,0.004501415882259607
104.0,0.004966209176927805
112.0,0.005132888909429312
120.0,0.005496481899172068
128.0,0.005693762097507715
144.0,0.005110691301524639
160.0,0.004715179558843374
176.0,0.0042573572136461735
192.0,0.0043808938935399055
208.0,0.004002574365586042
224.0,0.0037269233725965023
240.0,0.0029772294219583273
256.0,0.0028879926539957523
288.0,0.0024670548737049103
320.0,0.0030379854142665863
352.0,0.003098798915743828
384.0,0.0022215561475604773
416.0,0.002605016576126218
448.0,0.0031023407354950905
480.0,0.0020721221808344126
512.0,0.0017866584239527583
576.0,0.003166062291711569
640.0,0.002720415825024247
704.0,0.0019917823374271393
768.0,0.0026520981919020414
832.0,0.0025339380372315645
896.0,0.0025345096364617348
960.0,0.0027871050406247377
1024.0,0.0031601793598383665
1152.0,0.001548362080939114
1280.0,-1.489034457335947e-05
1408.0,0.001108350232243538
1536.0,0.0013708386104553938
1664.0,0.001805257867090404
1792.0,0.0015241029905155301
1920.0,0.0006321121472865343
2048.0,0.0002677330339793116
2304.0,0.0006870122742839158
2560.0,0.0014377757906913757
2816.0,0.0001508916320744902
3072.0,0.00032698342693038285
3328.0,0.0003184080997016281
3584.0,-0.0004927700501866639
3840.0,-0.0008332838770002127
4096.0,-0.0005560793215408921
4608.0,-0.0014032631879672408
5120.0,-0.000609649287071079
5632.0,6.551189289893955e-05
6144.0,0.0002765070821624249
6656.0,-0.00058025645557791
7168.0,-0.0006632893346250057
7680.0,-0.00044054302270524204
8192.0,-0.0002930685004685074
end
