version,3.0
numOfCh,1
type,point
parent_name,34766_3dot0-0dot01
ch_type,1_1
kcount,1
numberNandB,1
brightnessNandB,1
carpet pos,0
pc,0
Time (ms),CH1 Auto-Correlation
1.0,0.029526080936193466
2.0,0.024656208232045174
3.0,0.021436840295791626
4.0,0.01889980211853981
5.0,0.016958190128207207
6.0,0.015480448491871357
7.0,0.014084573835134506
8.0,0.012962027452886105
9.0,0.012181119062006474
10.0,0.011343798600137234
11.0,0.010336685925722122
12.0,0.009783470071852207
13.0,0.009262695908546448
14.0,0.00884057953953743
15.0,0.008427719585597515
16.0,0.007782935164868832
18.0,0.0067735458724200726
20.0,0.00606950419023633
22.0,0.005569096188992262
24.0,0.005056360270828009
26.0,0.004634651821106672
28.0,0.004249379504472017
30.0,0.0042635551653802395
32.0,0.004264227580279112
36.0,0.00404811417683959
40.0,0.004192566964775324
44.0,0.004202833399176598
48.0,0.0043428256176412106
52.0,0.004460472147911787
56.0,0.00427742674946785
60.0,0.0038123675622045994
64.0,0.0034379386343061924
72.0,0.0030907043255865574
80.0,0.003130195662379265
88.0,0.002865287009626627
96.0,0.0024225153028964996
104.0,0.0020182104781270027
112.0,0.002479731338098645
120.0,0.002256416715681553
128.0,0.0022399351000785828
144.0,0.0022627825383096933
160.0,0.0015244685346260667
176.0,0.0018827783642336726
192.0,0.0012010465143248439
208.0,0.0008584939641878009
224.0,0.00018103697220794857
240.0,0.0010774563997983932
256.0,0.0007624924182891846
288.0,0.0003408394695725292
320.0,0.0010859034955501556
352.0,0.00027371002943255007
384.0,-4.675565833167639e-06
416.0,3.6445910609472776e-06
448.0,0.00013298282283358276
480.0,-0.00040030039963312447
512.0,-8.693394192960113e-05
576.0,0.0006186218233779073
640.0,-0.00031535851303488016
704.0,-0.0017299804603680968
768.0,-0.0012250953586772084
832.0,-0.0014833981404080987
896.0,-0.0009239142527803779
960.0,2.8772399673471227e-05
1024.0,-0.0002128671621903777
1152.0,-0.0009166133822873235
1280.0,-0.0005816848715767264
1408.0,0.00017774042498786002
1536.0,0.00025190640008077025
1664.0,-0.0002469466417096555
1792.0,0.00032064836705103517
1920.0,0.0008545125601813197
2048.0,0.0005079410038888454
2304.0,0.0009094338747672737
2560.0,0.00013297844270709902
2816.0,-0.0006719272932969034
3072.0,0.0007044901722110808
3328.0,0.0008222631295211613
3584.0,0.00029056379571557045
3840.0,6.760669930372387e-05
4096.0,-0.0003148682590108365
4608.0,-0.0003429200442042202
5120.0,-0.00023669120855629444
5632.0,0.0007964542019180954
6144.0,-0.0007758497959002852
6656.0,0.0004791041719727218
7168.0,0.0005844904808327556
7680.0,-0.00021254931925795972
8192.0,-0.0014782934449613094
end
