version,3.0
numOfCh,1
type,point
parent_name,34766_3dot0-0dot01
ch_type,1_1
kcount,1
numberNandB,1
brightnessNandB,1
carpet pos,0
pc,0
Time (ms),CH1 Auto-Correlation
1.0,0.027424363419413567
2.0,0.0225725956261158
3.0,0.0193361584097147
4.0,0.016879500821232796
5.0,0.01504591852426529
6.0,0.013463329523801804
7.0,0.012055453844368458
8.0,0.010827774181962013
9.0,0.009879068471491337
10.0,0.009143762290477753
11.0,0.008584428578615189
12.0,0.008213059976696968
13.0,0.007813191041350365
14.0,0.007380482275038958
15.0,0.006916065234690905
16.0,0.006679123267531395
18.0,0.006386971566826105
20.0,0.006054328288882971
22.0,0.0054917349480092525
24.0,0.005134930368512869
26.0,0.0047141183167696
28.0,0.004411852452903986
30.0,0.004196848254650831
32.0,0.004072940442711115
36.0,0.0034532425925135612
40.0,0.0033087623305618763
44.0,0.0032727473881095648
48.0,0.0031045060604810715
52.0,0.002706581959500909
56.0,0.0025559053756296635
60.0,0.0023548570461571217
64.0,0.0021705166436731815
72.0,0.001953297993168235
80.0,0.0010462282225489616
88.0,0.0013750483049079776
96.0,0.0011267367517575622
104.0,0.0012279365910217166
112.0,0.0011704606004059315
120.0,0.0007781350868754089
128.0,0.000189361788216047
144.0,0.0003695158229675144
160.0,-0.00015336817887146026
176.0,0.0004686464963015169
192.0,0.0007754278485663235
208.0,0.0005121312569826841
224.0,0.0007173788617365062
240.0,5.620234878733754e-05
256.0,0.0004942403174936771
288.0,0.000716686190571636
320.0,0.000854587007779628
352.0,0.0009288777364417911
384.0,0.00046503532212227583
416.0,-3.764287248486653e-05
448.0,-0.00012324794079177082
480.0,-0.0007660382543690503
512.0,-0.00037679559318348765
576.0,-0.00016263943689409643
640.0,0.0003047330828849226
704.0,0.0004991841851733625
768.0,-8.56603219290264e-05
832.0,-0.0008148161577992141
896.0,3.995434963144362e-05
960.0,-0.00043963672942481935
1024.0,-0.0009628504049032927
1152.0,-0.0005114515661261976
1280.0,6.978831515880302e-05
1408.0,3.900718365912326e-05
1536.0,-0.00040294474456459284
1664.0,-0.0004046928370371461
1792.0,-0.00031646323623135686
1920.0,1.3457472050504293e-05
2048.0,7.517517224187031e-05
2304.0,5.9591511671897024e-05
2560.0,-0.00044097748468630016
2816.0,-0.0002757182519417256
3072.0,-0.00029563126736320555
3328.0,5.621991476800758e-07
3584.0,0.0009059386793524027
3840.0,0.0005700418259948492
4096.0,-0.0002600076259113848
4608.0,-0.00015914712275844067
5120.0,-0.00042713418952189386
5632.0,-0.0004821050970349461
6144.0,-0.0005476548685692251
6656.0,-0.0006098709418438375
7168.0,0.0005224368069320917
7680.0,0.0004269313358236104
8192.0,0.00040670635644346476
end
