version,3.0
numOfCh,1
type,point
parent_name,34766_3dot0-0dot01
ch_type,1_1
kcount,1
numberNandB,1
brightnessNandB,1
carpet pos,0
pc,0
Time (ms),CH1 Auto-Correlation
1.0,0.04616796225309372
2.0,0.04186585173010826
3.0,0.03893321007490158
4.0,0.03684920445084572
5.0,0.03526938334107399
6.0,0.034042809158563614
7.0,0.03312364220619202
8.0,0.03230049088597298
9.0,0.03153137117624283
10.0,0.030809374526143074
11.0,0.030306218191981316
12.0,0.02987774647772312
13.0,0.029201935976743698
14.0,0.028561584651470184
15.0,0.02823464199900627
16.0,0.027806144207715988
18.0,0.027559515088796616
20.0,0.02691859006881714
22.0,0.026228534057736397
24.0,0.025760047137737274
26.0,0.02527681551873684
28.0,0.024519313126802444
30.0,0.024195294827222824
32.0,0.024078840389847755
36.0,0.023808889091014862
40.0,0.023639598861336708
44.0,0.023239294067025185
48.0,0.022680142894387245
52.0,0.02212228626012802
56.0,0.021640976890921593
60.0,0.020907633006572723
64.0,0.020488206297159195
72.0,0.019939547404646873
80.0,0.019023479893803596
88.0,0.018627343699336052
96.0,0.018279515206813812
104.0,0.01750864088535309
112.0,0.017284784466028214
120.0,0.01706024259328842
128.0,0.016735626384615898
144.0,0.015390058048069477
160.0,0.014010656625032425
176.0,0.012707727961242199
192.0,0.012978896498680115
208.0,0.013530788011848927
224.0,0.012126687914133072
240.0,0.012243375182151794
256.0,0.011652752757072449
288.0,0.009661795571446419
320.0,0.007929898798465729
352.0,0.007139796856790781
384.0,0.006053889635950327
416.0,0.004165420308709145
448.0,0.003550785593688488
480.0,0.003582257777452469
512.0,0.003808753564953804
576.0,0.0005733011057600379
640.0,0.0004283308226149529
704.0,-0.0005848315777257085
768.0,-0.0025462680496275425
832.0,-0.002887343754991889
896.0,-0.003638117341324687
960.0,-0.0021506815683096647
1024.0,-0.0017296066507697105
1152.0,-0.002912194235250354
1280.0,-0.0009738344815559685
1408.0,-0.000311879237415269
1536.0,-0.0011633550748229027
1664.0,5.236813012743369e-05
1792.0,0.0013076089089736342
1920.0,0.0019269301556050777
2048.0,0.0008819836657494307
2304.0,0.0015011181822046638
2560.0,-0.001328380312770605
2816.0,-0.0023848426062613726
3072.0,-0.0013873757561668754
3328.0,-0.0017142008291557431
3584.0,-0.0009067333885468543
3840.0,-0.0027329716831445694
4096.0,-0.002702695084735751
4608.0,0.0020822889637202024
5120.0,-0.0003903894976247102
5632.0,-0.00097725261002779
6144.0,0.00028389046201482415
6656.0,-0.0031870556995272636
7168.0,0.0042660171166062355
7680.0,-0.006606298498809338
8192.0,-0.014198832213878632
end
