version,3.0
numOfCh,1
type,point
parent_name,34766_3dot0-0dot01
ch_type,1_1
kcount,1
numberNandB,1
brightnessNandB,1
carpet pos,0
pc,0
Time (ms),CH1 Auto-Correlation
1.0,0.02605201117694378
2.0,0.02103888802230358
3.0,0.017601506784558296
4.0,0.014904445968568325
5.0,0.012989621609449387
6.0,0.011378059163689613
7.0,0.010085650719702244
8.0,0.009141596034169197
9.0,0.008431750349700451
10.0,0.007575041614472866
11.0,0.0069252015091478825
12.0,0.006419600453227758
13.0,0.005974575411528349
14.0,0.0056714690290391445
15.0,0.005309164058417082
16.0,0.005083383992314339
18.0,0.004684964194893837
20.0,0.003776679979637265
22.0,0.0031591136939823627
24.0,0.002608897164463997
26.0,0.0021549309603869915
28.0,0.0018994613783434033
30.0,0.0015298337675631046
32.0,0.001415070379152894
36.0,0.0011831801384687424
40.0,0.0005844903644174337
44.0,5.623331890092231e-05
48.0,9.197335020871833e-05
52.0,0.00012415452511049807
56.0,9.268127905670553e-05
60.0,-4.555166742647998e-05
64.0,0.00010208760795649141
72.0,0.0001801952312234789
80.0,-0.00031357299303635955
88.0,-0.00029873757739551365
96.0,-0.0007382932235486805
104.0,-0.0007607318111695349
112.0,-0.0003588617837522179
120.0,-0.0005796329933218658
128.0,-0.000329084723489359
144.0,9.786782175069675e-05
160.0,-0.0001446244423277676
176.0,-0.0003802186402026564
192.0,-0.0002603567554615438
208.0,0.0002342017978662625
224.0,0.00016273721121251583
240.0,-0.00023682786559220403
256.0,-0.00011417362838983536
288.0,0.0006657513440586627
320.0,-0.00021093238319735974
352.0,-0.00023037054052110761
384.0,-0.00015399613766930997
416.0,-0.0009401956922374666
448.0,-0.00017656886484473944
480.0,-0.000693884096108377
512.0,-0.0006328860763460398
576.0,-0.0008975189412012696
640.0,0.000562351371627301
704.0,-0.0003108204691670835
768.0,8.324644295498729e-05
832.0,0.00080304458970204
896.0,0.0006482544704340398
960.0,0.0004358059377409518
1024.0,-0.00014285302313510329
1152.0,0.000513346865773201
1280.0,-0.000994572532363236
1408.0,-3.850012944894843e-05
1536.0,-0.00020634139946196228
1664.0,-0.00013303090236149728
1792.0,0.0005948914331384003
1920.0,0.0004403054481372237
2048.0,-0.00028476896113716066
2304.0,-9.208968549501151e-05
2560.0,0.0001395529689034447
2816.0,0.00022934349544811994
3072.0,-0.00023472013708669692
3328.0,-0.00037566310493275523
3584.0,0.00016252217756118625
3840.0,1.2811507076548878e-05
4096.0,-0.0005027726292610168
4608.0,0.0003520329191815108
5120.0,2.01776456378866e-05
5632.0,-0.0001291566586587578
6144.0,8.607754716649652e-05
6656.0,-0.000346005690516904
7168.0,0.00010056021710624918
7680.0,-0.000438887276686728
8192.0,0.0001287196937482804
end
