version,3.0
numOfCh,1
type,point
parent_name,34766_3dot0-0dot01
ch_type,1_1
kcount,1
numberNandB,1
brightnessNandB,1
carpet pos,0
pc,0
Time (ms),CH1 Auto-Correlation
1.0,0.23669494688510895
2.0,0.23342856764793396
3.0,0.23104119300842285
4.0,0.22907952964305878
5.0,0.2272830605506897
6.0,0.2258995920419693
7.0,0.22471581399440765
8.0,0.2235117256641388
9.0,0.22250114381313324
10.0,0.22150816023349762
11.0,0.22039644420146942
12.0,0.21926771104335785
13.0,0.2182910144329071
14.0,0.21748696267604828
15.0,0.2167225182056427
16.0,0.2160070389509201
18.0,0.21464674174785614
20.0,0.21337087452411652
22.0,0.21208037436008453
24.0,0.21109390258789062
26.0,0.21017064154148102
28.0,0.20917478203773499
30.0,0.2081626057624817
32.0,0.20713382959365845
36.0,0.20482803881168365
40.0,0.20248764753341675
44.0,0.20065262913703918
48.0,0.19911237061023712
52.0,0.19667674601078033
56.0,0.19449929893016815
60.0,0.192543625831604
64.0,0.19084283709526062
72.0,0.18686974048614502
80.0,0.18324542045593262
88.0,0.17965067923069
96.0,0.17568157613277435
104.0,0.1716838777065277
112.0,0.16841644048690796
120.0,0.16571134328842163
128.0,0.16283811628818512
144.0,0.157780721783638
160.0,0.15283001959323883
176.0,0.14842258393764496
192.0,0.1436888724565506
208.0,0.14050862193107605
224.0,0.13755664229393005
240.0,0.13351239264011383
256.0,0.13080088794231415
288.0,0.12656307220458984
320.0,0.12210136651992798
352.0,0.11551903933286667
384.0,0.10896339267492294
416.0,0.10649549961090088
448.0,0.10398490726947784
480.0,0.10611019283533096
512.0,0.10662943869829178
576.0,0.10566716641187668
640.0,0.09891431033611298
704.0,0.09531724452972412
768.0,0.08880241960287094
832.0,0.08068103343248367
896.0,0.06236245110630989
960.0,0.04232177883386612
1024.0,0.02300296537578106
1152.0,0.00343960034660995
1280.0,0.007248424459248781
1408.0,-0.005663606338202953
1536.0,-0.006257640663534403
1664.0,-0.009319094941020012
1792.0,-0.012069950811564922
1920.0,-0.015828104689717293
2048.0,-0.015780966728925705
2304.0,-0.016187597066164017
2560.0,-0.01849120296537876
2816.0,-0.021749917417764664
3072.0,-0.019618304446339607
3328.0,-0.009549956768751144
3584.0,-0.007691642269492149
3840.0,-0.006965395994484425
4096.0,0.0036727176047861576
4608.0,-0.0023142900317907333
5120.0,-0.015018918551504612
5632.0,-0.010856300592422485
6144.0,-0.009139107540249825
6656.0,-0.015126202255487442
7168.0,-0.031456153839826584
7680.0,-0.04532326012849808
8192.0,-0.061578165739774704
end
