version,3.0
numOfCh,1
type,point
parent_name,34766_3dot0-0dot01
ch_type,1_1
kcount,1
numberNandB,1
brightnessNandB,1
carpet pos,0
pc,0
Time (ms),CH1 Auto-Correlation
1.0,0.02528264932334423
2.0,0.020920056849718094
3.0,0.017915800213813782
4.0,0.0158079881221056
5.0,0.013918900862336159
6.0,0.0123748779296875
7.0,0.010899717919528484
8.0,0.009816069155931473
9.0,0.008982275612652302
10.0,0.008257285691797733
11.0,0.007512761279940605
12.0,0.006862340960651636
13.0,0.006545753683894873
14.0,0.00632511405274272
15.0,0.006104269530624151
16.0,0.005805203691124916
18.0,0.0054863933473825455
20.0,0.005065465811640024
22.0,0.0045229787938296795
24.0,0.004290560260415077
26.0,0.003419848857447505
28.0,0.0029352407436817884
30.0,0.0032614232040941715
32.0,0.003106282092630863
36.0,0.0027859120164066553
40.0,0.002284661401063204
44.0,0.00192689907271415
48.0,0.002359147649258375
52.0,0.0022735584061592817
56.0,0.001940638991072774
60.0,0.0014751794515177608
64.0,0.001315923291258514
72.0,0.0014648910146206617
80.0,0.001332092797383666
88.0,0.0019579839427024126
96.0,0.0014285214710980654
104.0,0.001091663376428187
112.0,0.0015539492014795542
120.0,0.0015056919073686004
128.0,0.0007897482137195766
144.0,0.00031932585989125073
160.0,0.00016068803961388767
176.0,0.00022615227499045432
192.0,-0.0001923103554872796
208.0,-0.0001158713930635713
224.0,-0.0004149125306867063
240.0,-0.0005297224270179868
256.0,-0.001018358743749559
288.0,-0.0007513457094319165
320.0,0.0006562803755514324
352.0,-0.00035385056980885565
384.0,-0.0008939073304645717
416.0,-0.0004896953469142318
448.0,-0.000203406743821688
480.0,-0.0009016914409585297
512.0,-0.0004403914208523929
576.0,-0.0005576617550104856
640.0,-7.73329011281021e-05
704.0,0.0005671482649631798
768.0,0.0007482668734155595
832.0,0.0007254519150592387
896.0,0.00019824101764243096
960.0,0.0003048185317311436
1024.0,0.00022974362946115434
1152.0,-8.286022784886882e-05
1280.0,0.0005860864766873419
1408.0,0.0005141643341630697
1536.0,-4.5709675760008395e-05
1664.0,6.987610686337575e-05
1792.0,-0.00033412297489121556
1920.0,7.53327549318783e-05
2048.0,0.0005945937591604888
2304.0,-0.0008010566234588623
2560.0,-0.0004300651780795306
2816.0,0.00027719256468117237
3072.0,-0.00023703370243310928
3328.0,-0.00043119490146636963
3584.0,0.00018574866408016533
3840.0,0.0004047336697112769
4096.0,-0.0014642205787822604
4608.0,-0.0007016818854026496
5120.0,-0.00022552812879439443
5632.0,-6.0031663451809436e-05
6144.0,-0.0006107650697231293
6656.0,0.0006313732010312378
7168.0,0.0001482978113926947
7680.0,0.001264409627765417
8192.0,-0.0013525441754609346
end
