version,3.0
numOfCh,1
type,point
parent_name,34766_3dot0-0dot01
ch_type,1_1
kcount,1
numberNandB,1
brightnessNandB,1
carpet pos,0
pc,0
Time (ms),CH1 Auto-Correlation
1.0,0.8895615935325623
2.0,0.8866497874259949
3.0,0.8843241930007935
4.0,0.8824537992477417
5.0,0.8808148503303528
6.0,0.8792356848716736
7.0,0.8777045607566833
8.0,0.876288115978241
9.0,0.8749470710754395
10.0,0.8737012147903442
11.0,0.8726986050605774
12.0,0.8716243505477905
13.0,0.8704912066459656
14.0,0.869181752204895
15.0,0.8678954839706421
16.0,0.8667331337928772
18.0,0.8644289970397949
20.0,0.8620496988296509
22.0,0.8597383499145508
24.0,0.8576863408088684
26.0,0.8555830121040344
28.0,0.8532634973526001
30.0,0.8509564995765686
32.0,0.8486615419387817
36.0,0.8445891737937927
40.0,0.8407098054885864
44.0,0.8370153307914734
48.0,0.8328873515129089
52.0,0.828784167766571
56.0,0.825133204460144
60.0,0.8216202259063721
64.0,0.8179099559783936
72.0,0.810559868812561
80.0,0.8030378222465515
88.0,0.7952449917793274
96.0,0.7860018014907837
104.0,0.7759853005409241
112.0,0.7662127614021301
120.0,0.7551563382148743
128.0,0.7438738942146301
144.0,0.7232968211174011
160.0,0.7044358253479004
176.0,0.6868079900741577
192.0,0.6665197014808655
208.0,0.6471665501594543
224.0,0.6301279067993164
240.0,0.6144312620162964
256.0,0.5976451635360718
288.0,0.560103178024292
320.0,0.5232645869255066
352.0,0.4860772490501404
384.0,0.44656383991241455
416.0,0.4042015075683594
448.0,0.35696184635162354
480.0,0.31711193919181824
512.0,0.2798740565776825
576.0,0.2052513062953949
640.0,0.15276199579238892
704.0,0.1180778294801712
768.0,0.09712279587984085
832.0,0.07790694385766983
896.0,0.052117884159088135
960.0,0.028730183839797974
1024.0,0.004828035831451416
1152.0,-0.017971999943256378
1280.0,-0.038520194590091705
1408.0,-0.04557345062494278
1536.0,-0.044994957745075226
1664.0,-0.04968448728322983
1792.0,-0.0425122044980526
1920.0,-0.04248375445604324
2048.0,-0.04035520553588867
2304.0,-0.034046970307826996
2560.0,-0.04157942533493042
2816.0,-0.054797228425741196
3072.0,-0.06977576017379761
3328.0,-0.07751040905714035
3584.0,-0.092631034553051
3840.0,-0.09123166650533676
4096.0,-0.08908995985984802
4608.0,-0.06531943380832672
5120.0,-0.10305623710155487
5632.0,-0.14250198006629944
6144.0,-0.21797168254852295
6656.0,-0.2900756299495697
7168.0,-0.38195762038230896
7680.0,-0.39353108406066895
8192.0,-0.09833770990371704
end
