version,3.0
numOfCh,1
type,point
parent_name,34766_3dot0-0dot01
ch_type,1_1
kcount,1
numberNandB,1
brightnessNandB,1
carpet pos,0
pc,0
Time (ms),CH1 Auto-Correlation
1.0,0.03130084648728371
2.0,0.027114054188132286
3.0,0.024150298908352852
4.0,0.021767206490039825
5.0,0.019970545545220375
6.0,0.018376240506768227
7.0,0.01739482209086418
8.0,0.016648635268211365
9.0,0.016120189800858498
10.0,0.015483571216464043
11.0,0.014941330067813396
12.0,0.01442669052630663
13.0,0.013801870867609978
14.0,0.013089996762573719
15.0,0.012646602466702461
16.0,0.012546373531222343
18.0,0.011979183182120323
20.0,0.011312917806208134
22.0,0.010650292970240116
24.0,0.010267318226397038
26.0,0.009648325853049755
28.0,0.008927663788199425
30.0,0.00826037023216486
32.0,0.007579614873975515
36.0,0.006991544738411903
40.0,0.0073908609338104725
44.0,0.008175882510840893
48.0,0.008348913863301277
52.0,0.00799133162945509
56.0,0.007798017468303442
60.0,0.0077475449070334435
64.0,0.0076637896709144115
72.0,0.007003125734627247
80.0,0.005940659902989864
88.0,0.0052863359451293945
96.0,0.005953400861471891
104.0,0.005732260644435883
112.0,0.0053096953779459
120.0,0.00477655278518796
128.0,0.004888844210654497
144.0,0.0038525741547346115
160.0,0.002874067286029458
176.0,0.003776413621380925
192.0,0.00441955728456378
208.0,0.00426086038351059
224.0,0.003801327431574464
240.0,0.003297888208180666
256.0,0.002377633936703205
288.0,0.001139058149419725
320.0,0.0018834889633581042
352.0,0.0018025354947894812
384.0,9.719156514620408e-05
416.0,0.0015248454874381423
448.0,0.0008844641852192581
480.0,0.00027149589732289314
512.0,-0.0016427318332716823
576.0,-0.0015224060043692589
640.0,-0.0014243881450966
704.0,0.0005598490824922919
768.0,-0.0002518375404179096
832.0,-0.0024765217676758766
896.0,-0.001037012436427176
960.0,-0.0004745118785649538
1024.0,-0.0013180423993617296
1152.0,-0.0018963983748108149
1280.0,-0.0011793730081990361
1408.0,-0.00026633020024746656
1536.0,0.0022528262343257666
1664.0,0.003052380168810487
1792.0,-0.00046567904064431787
1920.0,-0.0019395609851926565
2048.0,-0.0030238835606724024
2304.0,-0.0008525004959665239
2560.0,-0.0031128956470638514
2816.0,-0.0050052618607878685
3072.0,-0.0027888587210327387
3328.0,-0.00025232331245206296
3584.0,-0.0004361084720585495
3840.0,0.0035186130553483963
4096.0,0.006282837595790625
end
