version,3.0
numOfCh,1
type,point
parent_name,34766_3dot0-0dot01
ch_type,1_1
kcount,1
numberNandB,1
brightnessNandB,1
carpet pos,0
pc,0
Time (ms),CH1 Auto-Correlation
1.0,0.038275763392448425
2.0,0.033886563032865524
3.0,0.030806226655840874
4.0,0.02846612222492695
5.0,0.02658993750810623
6.0,0.02520749345421791
7.0,0.023869039490818977
8.0,0.022684987634420395
9.0,0.02168094366788864
10.0,0.02092883363366127
11.0,0.02015618234872818
12.0,0.01950259320437908
13.0,0.018848754465579987
14.0,0.01795344054698944
15.0,0.01731313206255436
16.0,0.01685001701116562
18.0,0.01605789177119732
20.0,0.015361125580966473
22.0,0.014386077411472797
24.0,0.013851421885192394
26.0,0.013214916922152042
28.0,0.012633160687983036
30.0,0.012135513126850128
32.0,0.011661533266305923
36.0,0.011187137104570866
40.0,0.010963327251374722
44.0,0.010736641474068165
48.0,0.010340110398828983
52.0,0.009974291548132896
56.0,0.009672576561570168
60.0,0.009302587248384953
64.0,0.009021513164043427
72.0,0.00816262885928154
80.0,0.008348041214048862
88.0,0.00898471288383007
96.0,0.00912924762815237
104.0,0.008251098915934563
112.0,0.006827193312346935
120.0,0.006193042732775211
128.0,0.005570805631577969
144.0,0.0039371224120259285
160.0,0.0035096011124551296
176.0,0.0036851181648671627
192.0,0.003242684528231621
208.0,0.003240156453102827
224.0,0.004235006868839264
240.0,0.004005813505500555
256.0,0.0031891579274088144
288.0,0.004614462144672871
320.0,0.004252453800290823
352.0,0.004260511603206396
384.0,0.0030123547185212374
416.0,0.0024508023634552956
448.0,0.002734875539317727
480.0,0.0017123279394581914
512.0,0.0021032036747783422
576.0,0.000883810396771878
640.0,0.0003618673363234848
704.0,0.00042699460755102336
768.0,0.0007878767792135477
832.0,0.0007103061070665717
896.0,-0.00034948866232298315
960.0,-0.0010957069462165236
1024.0,-0.0017266126815229654
1152.0,-0.0012773883063346148
1280.0,-0.0007796281133778393
1408.0,-0.0003823832084890455
1536.0,-0.00014012976316735148
1664.0,-0.002215299056842923
1792.0,-0.0025289333425462246
1920.0,-0.0008723819628357887
2048.0,-0.0019332243828102946
2304.0,-0.0010391449322924018
2560.0,-0.0004561367677524686
2816.0,0.0012923326576128602
3072.0,0.0018906403565779328
3328.0,0.00038234645035117865
3584.0,0.00100989593192935
3840.0,0.0018129913369193673
4096.0,-0.0015188755933195353
4608.0,-0.0024487697519361973
5120.0,-0.0031682010740041733
5632.0,-0.002235688269138336
6144.0,-0.0007078179041855037
6656.0,0.004798704292625189
7168.0,0.0011818138882517815
7680.0,-0.003157935803756118
8192.0,-0.0028987927362322807
end
