version,3.0
numOfCh,1
type,point
parent_name,34766_3dot0-0dot01
ch_type,1_1
kcount,1
numberNandB,1
brightnessNandB,1
carpet pos,0
pc,0
Time (ms),CH1 Auto-Correlation
1.0,0.02770836465060711
2.0,0.022893058136105537
3.0,0.01952701061964035
4.0,0.016987502574920654
5.0,0.014726268127560616
6.0,0.013158146291971207
7.0,0.01201975904405117
8.0,0.011003546416759491
9.0,0.010246152989566326
10.0,0.009489874355494976
11.0,0.00885477103292942
12.0,0.008446494117379189
13.0,0.008037768304347992
14.0,0.007750801742076874
15.0,0.007305752485990524
16.0,0.007034670561552048
18.0,0.00646734656766057
20.0,0.005781927611678839
22.0,0.005337472539395094
24.0,0.00511632114648819
26.0,0.004727167543023825
28.0,0.004353621043264866
30.0,0.004075505770742893
32.0,0.0039640446193516254
36.0,0.003692647675052285
40.0,0.0029184145387262106
44.0,0.0023538172245025635
48.0,0.0018362102564424276
52.0,0.0014577555702999234
56.0,0.0015695253387093544
60.0,0.0023330433759838343
64.0,0.002357115736231208
72.0,0.0009704825351946056
80.0,0.0011848817812278867
88.0,0.0017788276309147477
96.0,0.0015177270397543907
104.0,0.0012281483504921198
112.0,0.0013619456440210342
120.0,0.0011495070066303015
128.0,0.0014478475786745548
144.0,0.0009482160094194114
160.0,-0.0002734973677434027
176.0,-0.00010514054883969948
192.0,0.00042296136962249875
208.0,0.0006360951811075211
224.0,2.903964923461899e-05
240.0,0.000156527865328826
256.0,0.00010464992374181747
288.0,0.00012479453289415687
320.0,-0.0003334844368509948
352.0,-0.0001953356695594266
384.0,0.00040010176599025726
416.0,0.0007306597544811666
448.0,-0.00021457245748024434
480.0,-0.0007000540499575436
512.0,2.247906877528294e-06
576.0,-0.0006320925313048065
640.0,7.755152182653546e-05
704.0,-0.0006375604425556958
768.0,-0.0009386396268382668
832.0,-0.0001866751117631793
896.0,-0.00012986213550902903
960.0,-0.0001809936948120594
1024.0,-0.0005101884598843753
1152.0,0.00025572755839675665
1280.0,0.0008441217360086739
1408.0,-0.0003288608568254858
1536.0,0.000331670482410118
1664.0,0.0001366816577501595
1792.0,-0.0005662722396664321
1920.0,-0.00014271978579927236
2048.0,-0.0003668093995656818
2304.0,-0.0005647207726724446
2560.0,-0.00019034133583772928
2816.0,6.161336932564154e-05
3072.0,0.00038933890755288303
3328.0,0.0005922116106376052
3584.0,0.0003535246360115707
3840.0,0.0001989659504033625
4096.0,-0.0002738949842751026
4608.0,0.0005740700289607048
5120.0,-0.00012193756265332922
5632.0,-0.0004967601271346211
6144.0,-0.00020292428962420672
6656.0,-0.0004050162679050118
7168.0,0.00017807810218073428
7680.0,-2.2596965209231712e-05
8192.0,0.0008369763381779194
end
