version,3.0
numOfCh,1
type,point
parent_name,34766_3dot0-0dot01
ch_type,1_1
kcount,1
numberNandB,1
brightnessNandB,1
carpet pos,0
pc,0
Time (ms),CH1 Auto-Correlation
1.0,0.0978955626487732
2.0,0.09374695271253586
3.0,0.09020713716745377
4.0,0.08766643702983856
5.0,0.08570332080125809
6.0,0.08415655791759491
7.0,0.08274481445550919
8.0,0.08160070329904556
9.0,0.08074808865785599
10.0,0.07984744012355804
11.0,0.07889627665281296
12.0,0.07788121700286865
13.0,0.07702556252479553
14.0,0.07630918174982071
15.0,0.07568474113941193
16.0,0.07532636821269989
18.0,0.07466796040534973
20.0,0.0738423615694046
22.0,0.07291384786367416
24.0,0.07148949056863785
26.0,0.06988552957773209
28.0,0.06891272217035294
30.0,0.06824186444282532
32.0,0.0676804706454277
36.0,0.06662651151418686
40.0,0.06580240279436111
44.0,0.06540677696466446
48.0,0.0656166672706604
52.0,0.06587202847003937
56.0,0.06590976566076279
60.0,0.06557945907115936
64.0,0.0651303306221962
72.0,0.06319485604763031
80.0,0.06134676933288574
88.0,0.05962763726711273
96.0,0.056869398802518845
104.0,0.05380892753601074
112.0,0.05161580070853233
120.0,0.050068847835063934
128.0,0.04928990453481674
144.0,0.04527415707707405
160.0,0.03918082267045975
176.0,0.0339810810983181
192.0,0.030294818803668022
208.0,0.02816685475409031
224.0,0.0244299303740263
240.0,0.019444085657596588
256.0,0.016871048137545586
288.0,0.014491942711174488
320.0,0.00989435613155365
352.0,0.006574360188096762
384.0,0.003390137804672122
416.0,0.001110292854718864
448.0,-0.0004401819023769349
480.0,-0.002669601235538721
512.0,-0.00414385087788105
576.0,-0.0108256284147501
640.0,-0.01516658253967762
704.0,-0.015899179503321648
768.0,-0.014621916227042675
832.0,-0.014589185826480389
896.0,-0.01667048968374729
960.0,-0.01772037334740162
1024.0,-0.015825359150767326
1152.0,-0.008673575706779957
1280.0,-0.004831968806684017
1408.0,-0.006902418099343777
1536.0,-0.009187614545226097
1664.0,-0.009053315967321396
1792.0,-0.009186474606394768
1920.0,-0.009194839745759964
2048.0,-0.010137366130948067
2304.0,-0.008753940463066101
2560.0,-0.006518599111586809
2816.0,-0.0060584936290979385
3072.0,0.002971954643726349
3328.0,0.01909705251455307
3584.0,0.016841895878314972
3840.0,0.00189865508582443
4096.0,-0.0039979079738259315
end
