version,3.0
numOfCh,1
type,point
parent_name,34766_3dot0-0dot01
ch_type,1_1
kcount,1
numberNandB,1
brightnessNandB,1
carpet pos,0
pc,0
Time (ms),CH1 Auto-Correlation
1.0,0.02630765363574028
2.0,0.021488888189196587
3.0,0.018304048106074333
4.0,0.015653187409043312
5.0,0.013686878606677055
6.0,0.012249771505594254
7.0,0.010816618800163269
8.0,0.009622154757380486
9.0,0.008711136877536774
10.0,0.007987202145159245
11.0,0.007503134664148092
12.0,0.0070713055320084095
13.0,0.006611664779484272
14.0,0.006330778822302818
15.0,0.005983554292470217
16.0,0.005875362548977137
18.0,0.00536754447966814
20.0,0.00495946453884244
22.0,0.004695309326052666
24.0,0.004615409765392542
26.0,0.004476455505937338
28.0,0.004193231929093599
30.0,0.0037203121464699507
32.0,0.0033092868980020285
36.0,0.002757955575361848
40.0,0.0024790288880467415
44.0,0.002480536000803113
48.0,0.002329355338588357
52.0,0.002020113868638873
56.0,0.00169883924536407
60.0,0.0012809201143682003
64.0,0.001347109442576766
72.0,0.0019552812445908785
80.0,0.001281164470128715
88.0,0.000943266146350652
96.0,0.0014655133709311485
104.0,0.0019053816795349121
112.0,0.0009069695952348411
120.0,0.0002671807014849037
128.0,-0.00016327312914654613
144.0,0.0006041323649697006
160.0,0.00025654039927758276
176.0,8.876743777364027e-06
192.0,7.147502765292302e-05
208.0,0.00019906806119251996
224.0,-0.00042980382568202913
240.0,-3.0896859243512154e-05
256.0,0.000319983868394047
288.0,0.0005981746362522244
320.0,0.0004241130955051631
352.0,0.0005918583483435214
384.0,-8.15994935692288e-05
416.0,7.122634087863844e-06
448.0,-0.0008242990006692708
480.0,-0.00022218508820515126
512.0,-0.00016551374574191868
576.0,0.00015046042972244322
640.0,-0.00024712251615710557
704.0,-0.00022074492881074548
768.0,0.0006934350240044296
832.0,0.0004928652779199183
896.0,0.00012079392035957426
960.0,0.0001646533637540415
1024.0,-0.0002082536811940372
1152.0,0.00022087183606345206
1280.0,0.0007403390482068062
1408.0,0.0004535535117611289
1536.0,0.0011050407774746418
1664.0,0.0016982790548354387
1792.0,0.00030341799720190465
1920.0,0.0006486687925644219
2048.0,-0.0006883250898681581
2304.0,0.00027837231755256653
2560.0,-4.1272091038990766e-05
2816.0,0.00022414905834011734
3072.0,0.0005272447597235441
3328.0,0.0002926126471720636
3584.0,-0.00034907052759081125
3840.0,-0.00021397096861619502
4096.0,8.41708606458269e-05
4608.0,-0.00050403643399477
5120.0,0.00036188718513585627
5632.0,-0.0005941245472058654
6144.0,-0.001080184942111373
6656.0,0.00048497182433493435
7168.0,-0.0007120472728274763
7680.0,-0.0015109216328710318
8192.0,0.0003175753226969391
end
