version,3.0
numOfCh,1
type,point
parent_name,34766_3dot0-0dot01
ch_type,1_1
kcount,1
numberNandB,1
brightnessNandB,1
carpet pos,0
pc,0
Time (ms),CH1 Auto-Correlation
1.0,0.027385810390114784
2.0,0.02299685962498188
3.0,0.019775018095970154
4.0,0.01734938472509384
5.0,0.01550374086946249
6.0,0.013907871209084988
7.0,0.01256535854190588
8.0,0.01148367952555418
9.0,0.010701204650104046
10.0,0.009797316044569016
11.0,0.009113704785704613
12.0,0.008434668183326721
13.0,0.007842264138162136
14.0,0.007461322471499443
15.0,0.007301274687051773
16.0,0.00688064843416214
18.0,0.006204826757311821
20.0,0.005572131369262934
22.0,0.004796885885298252
24.0,0.004403594881296158
26.0,0.004328514449298382
28.0,0.004132978618144989
30.0,0.003855715272948146
32.0,0.003706942079588771
36.0,0.0033576381392776966
40.0,0.00296025350689888
44.0,0.002668672474101186
48.0,0.0026653253007680178
52.0,0.002891461830586195
56.0,0.002996499417349696
60.0,0.0021141243632882833
64.0,0.0017413962632417679
72.0,0.0015563600463792682
80.0,0.001240196288563311
88.0,0.0009547171648591757
96.0,0.0006059499573893845
104.0,0.0003498102887533605
112.0,0.0004897469189018011
120.0,0.000979022472165525
128.0,0.0009711676393635571
144.0,0.0017298228340223432
160.0,0.0018564776983112097
176.0,0.0022582693491131067
192.0,0.0022797449491918087
208.0,0.0019058083416894078
224.0,0.0015590995317324996
240.0,0.000968172971624881
256.0,0.000656859134323895
288.0,0.0006857965490780771
320.0,0.001586505793966353
352.0,0.0008726035011932254
384.0,-0.00013721027062274516
416.0,-0.0003034209366887808
448.0,0.00022293794609140605
480.0,9.458410931983963e-05
512.0,0.000842568464577198
576.0,0.0007498178747482598
640.0,0.0008667351794429123
704.0,0.0011385022662580013
768.0,0.00043689482845366
832.0,0.0004028647963423282
896.0,0.0005387849523685873
960.0,0.00011200977314729244
1024.0,0.00016770146612543613
1152.0,0.0006193500594235957
1280.0,0.0005805590189993382
1408.0,-0.0001319312141276896
1536.0,0.00032954919151961803
1664.0,-0.0010771641973406076
1792.0,0.0008567944751121104
1920.0,0.0009349856991320848
2048.0,0.0005401879316195846
2304.0,-0.0010236541274935007
2560.0,-0.0004684932064265013
2816.0,-0.001152487937361002
3072.0,-0.0007908308762125671
3328.0,-0.0011507075978443027
3584.0,-0.0010183436097577214
3840.0,-0.0007367997895926237
4096.0,-0.0017328772228211164
4608.0,-0.000980936805717647
5120.0,-0.000504090974573046
5632.0,0.0005548213375732303
6144.0,-0.00012382042768877
6656.0,0.0010757485870271921
7168.0,0.0008444668492302299
7680.0,0.0005626030615530908
8192.0,0.00043521146290004253
end
