version,3.0
numOfCh,1
type,point
parent_name,34766_3dot0-0dot01
ch_type,1_1
kcount,1
numberNandB,1
brightnessNandB,1
carpet pos,0
pc,0
Time (ms),CH1 Auto-Correlation
1.0,0.05634351074695587
2.0,0.05137941986322403
3.0,0.047923702746629715
4.0,0.04530180245637894
5.0,0.043255098164081573
6.0,0.041621703654527664
7.0,0.04009120166301727
8.0,0.03875723481178284
9.0,0.037537071853876114
10.0,0.03669550642371178
11.0,0.03584250807762146
12.0,0.03500935435295105
13.0,0.03422773629426956
14.0,0.03373349457979202
15.0,0.03317146375775337
16.0,0.03268344700336456
18.0,0.0317402109503746
20.0,0.030915940180420876
22.0,0.030348479747772217
24.0,0.029372230172157288
26.0,0.028259923681616783
28.0,0.027524176985025406
30.0,0.027077969163656235
32.0,0.02675017900764942
36.0,0.026077503338456154
40.0,0.025353629142045975
44.0,0.024587301537394524
48.0,0.023791717365384102
52.0,0.023216186091303825
56.0,0.022702433168888092
60.0,0.02229258231818676
64.0,0.021139711141586304
72.0,0.019315630197525024
80.0,0.017434783279895782
88.0,0.016521748155355453
96.0,0.016298742964863777
104.0,0.015020627528429031
112.0,0.013950430788099766
120.0,0.012783773243427277
128.0,0.01142611913383007
144.0,0.009276396594941616
160.0,0.01111512165516615
176.0,0.011064778082072735
192.0,0.010082031600177288
208.0,0.01147912535816431
224.0,0.012735385447740555
240.0,0.011317991651594639
256.0,0.010632620193064213
288.0,0.00832618959248066
320.0,0.006394871044903994
352.0,0.0028124775271862745
384.0,0.0003053111722692847
416.0,-0.0004641372070182115
448.0,-0.0002894131757784635
480.0,-0.0005928982864134014
512.0,-0.0006091838586144149
576.0,-0.0014286391669884324
640.0,-0.0012432598741725087
704.0,-0.0007400838658213615
768.0,-0.001687894924543798
832.0,-0.0015200970228761435
896.0,0.0004831011756323278
960.0,-7.566042040707543e-05
1024.0,0.00010566645505605265
1152.0,0.0004844697832595557
1280.0,0.0009424292948096991
1408.0,0.0006403291481547058
1536.0,0.00047474371967837214
1664.0,-0.000687618157826364
1792.0,-0.000248695578193292
1920.0,0.00010650366311892867
2048.0,0.0006640259525738657
2304.0,0.0003067874349653721
2560.0,-9.968220547307283e-05
2816.0,0.00012127652735216543
3072.0,-0.000977795571088791
3328.0,0.00010144845873583108
3584.0,-0.000877790676895529
3840.0,0.001723496476188302
4096.0,-0.00012880127178505063
4608.0,-0.0006012522499077022
5120.0,0.0015341077232733369
5632.0,-0.00047667205217294395
6144.0,0.0006799615803174675
6656.0,-0.0015060228761285543
7168.0,0.0005685887881554663
7680.0,0.0015998661983758211
8192.0,0.0007467193063348532
end
