version,3.0
numOfCh,1
type,point
parent_name,34766_3dot0-0dot01
ch_type,1_1
kcount,1
numberNandB,1
brightnessNandB,1
carpet pos,0
pc,0
Time (ms),CH1 Auto-Correlation
1.0,0.05796099826693535
2.0,0.05281352996826172
3.0,0.04937511309981346
4.0,0.04661884531378746
5.0,0.04462612420320511
6.0,0.04281437024474144
7.0,0.04126622900366783
8.0,0.0399855338037014
9.0,0.03888561949133873
10.0,0.03787669911980629
11.0,0.03694899380207062
12.0,0.03603585436940193
13.0,0.03523213416337967
14.0,0.03466659411787987
15.0,0.034155651926994324
16.0,0.03341250494122505
18.0,0.03192354738712311
20.0,0.03106529265642166
22.0,0.03016185387969017
24.0,0.029168715700507164
26.0,0.028065629303455353
28.0,0.027311265468597412
30.0,0.026542536914348602
32.0,0.025652829557657242
36.0,0.023362109437584877
40.0,0.02192610502243042
44.0,0.0203718151897192
48.0,0.018723761662840843
52.0,0.016863854601979256
56.0,0.01546498667448759
60.0,0.01496619451791048
64.0,0.015087212435901165
72.0,0.014858413487672806
80.0,0.01508365198969841
88.0,0.015291731804609299
96.0,0.01569388434290886
104.0,0.01464457530528307
112.0,0.013653912581503391
120.0,0.012494830414652824
128.0,0.009754457511007786
144.0,0.0031588985584676266
160.0,0.0007379488088190556
176.0,0.0012704848777502775
192.0,0.002039748476818204
208.0,0.0011645820923149586
224.0,0.0010319185676053166
240.0,0.0013658283278346062
256.0,0.0017368036787956953
288.0,0.0017293167766183615
320.0,0.0010058732004836202
352.0,0.001142118126153946
384.0,0.00018151247058995068
416.0,-0.0002560062857810408
448.0,-0.0006463003228418529
480.0,-0.0010164317209273577
512.0,-0.0003679654619190842
576.0,-0.0004756242560688406
640.0,-0.00015711794549133629
704.0,0.001139508094638586
768.0,0.002091578207910061
832.0,0.0014846763806417584
896.0,0.002060110680758953
960.0,0.002988365711644292
1024.0,0.002841590205207467
1152.0,-0.0010613554622977972
1280.0,0.0002299568586749956
1408.0,0.0009240617509931326
1536.0,2.1790452592540532e-05
1664.0,0.0017637794371694326
1792.0,0.0003530823451001197
1920.0,0.00010872860002564266
2048.0,-0.0016049916157498956
2304.0,-0.0001473453885409981
2560.0,0.0004915072349831462
2816.0,0.0002447384758852422
3072.0,-0.0006539691239595413
3328.0,0.00014701980398967862
3584.0,-0.00031938610482029617
3840.0,0.0001236312964465469
4096.0,0.0006396897369995713
4608.0,0.00016276088717859238
5120.0,0.000640100974123925
5632.0,0.0009584405925124884
6144.0,0.0009198587504215539
6656.0,0.0003679319052025676
7168.0,0.0006462984019890428
7680.0,-8.853840881783981e-06
8192.0,0.0003547072410583496
end
