version,3.0
numOfCh,1
type,point
parent_name,34766_3dot0-0dot01
ch_type,1_1
kcount,1
numberNandB,1
brightnessNandB,1
carpet pos,0
pc,0
Time (ms),CH1 Auto-Correlation
1.0,0.03549599647521973
2.0,0.03154049441218376
3.0,0.028840327635407448
4.0,0.02686716429889202
5.0,0.02530580386519432
6.0,0.024232864379882812
7.0,0.02319192700088024
8.0,0.022166632115840912
9.0,0.0213569737970829
10.0,0.020726416260004044
11.0,0.0204241331666708
12.0,0.02016720175743103
13.0,0.01979561522603035
14.0,0.019326619803905487
15.0,0.018773309886455536
16.0,0.01829652301967144
18.0,0.0175398550927639
20.0,0.016496846452355385
22.0,0.015594547614455223
24.0,0.015146610327064991
26.0,0.01462794654071331
28.0,0.014097953215241432
30.0,0.013761470094323158
32.0,0.013019862584769726
36.0,0.01182354986667633
40.0,0.011260793544352055
44.0,0.010758526623249054
48.0,0.0105774300172925
52.0,0.010253398679196835
56.0,0.00976856891065836
60.0,0.00933375209569931
64.0,0.008672263473272324
72.0,0.0071746911853551865
80.0,0.0068556200712919235
88.0,0.006848098244518042
96.0,0.007521426305174828
104.0,0.007156562991440296
112.0,0.006536899600178003
120.0,0.006756845396012068
128.0,0.006078094709664583
144.0,0.004663119092583656
160.0,0.004313820041716099
176.0,0.004281286150217056
192.0,0.004301900044083595
208.0,0.003458016086369753
224.0,0.0026506041176617146
240.0,0.000984661397524178
256.0,0.00016730715287849307
288.0,0.0006471910746768117
320.0,-3.5659137211041525e-05
352.0,0.0003718692169059068
384.0,0.0002507130557205528
416.0,0.0012737901415675879
448.0,0.00208358746021986
480.0,0.001305489451624453
512.0,0.002111322246491909
576.0,0.0017428486607968807
640.0,0.00084623385919258
704.0,0.00116160255856812
768.0,-0.0004498696653172374
832.0,-0.00045552628580480814
896.0,-3.511427348712459e-05
960.0,-0.0019107223488390446
1024.0,-0.0019604014232754707
1152.0,-0.003777196630835533
1280.0,-0.0030536947306245565
1408.0,-0.0017770520644262433
1536.0,-0.0007300714496523142
1664.0,-0.0021058041602373123
1792.0,-0.0028116090688854456
1920.0,-0.0009883195161819458
2048.0,-0.0003368668840266764
2304.0,-0.0033884537406265736
2560.0,0.0004909802228212357
2816.0,0.0016962636727839708
3072.0,0.0010696420213207603
3328.0,0.0018158316379413009
3584.0,0.000824649934656918
3840.0,0.000336440367391333
4096.0,0.0013556289486587048
4608.0,0.0034018673468381166
5120.0,-0.0013853946002200246
5632.0,-0.004180263727903366
6144.0,-0.0016487727407366037
6656.0,0.0031555790919810534
7168.0,0.0027234440203756094
7680.0,-0.001935932319611311
8192.0,-0.004263477399945259
end
