version,3.0
numOfCh,1
type,point
parent_name,34766_3dot0-0dot01
ch_type,1_1
kcount,1
numberNandB,1
brightnessNandB,1
carpet pos,0
pc,0
Time (ms),CH1 Auto-Correlation
1.0,0.13325488567352295
2.0,0.12985529005527496
3.0,0.12728990614414215
4.0,0.12519536912441254
5.0,0.1235121339559555
6.0,0.12208756804466248
7.0,0.1206938624382019
8.0,0.11944582313299179
9.0,0.11838676780462265
10.0,0.11760830134153366
11.0,0.11697698384523392
12.0,0.11639262735843658
13.0,0.11580275744199753
14.0,0.11514176428318024
15.0,0.11446135491132736
16.0,0.11417137831449509
18.0,0.11347170919179916
20.0,0.11230558902025223
22.0,0.11124590039253235
24.0,0.11021415144205093
26.0,0.1092858761548996
28.0,0.10831845551729202
30.0,0.10725456476211548
32.0,0.10615575313568115
36.0,0.10462085157632828
40.0,0.10345923900604248
44.0,0.10213756561279297
48.0,0.10063131153583527
52.0,0.09919533878564835
56.0,0.0978730320930481
60.0,0.09707952290773392
64.0,0.09576352685689926
72.0,0.09374155104160309
80.0,0.0917099192738533
88.0,0.08944309502840042
96.0,0.08692943304777145
104.0,0.0844578966498375
112.0,0.08211798220872879
120.0,0.08028780668973923
128.0,0.07853366434574127
144.0,0.07516400516033173
160.0,0.0712457075715065
176.0,0.06753946095705032
192.0,0.06439077109098434
208.0,0.06215573102235794
224.0,0.05849525332450867
240.0,0.05470572039484978
256.0,0.0527639240026474
288.0,0.04889499768614769
320.0,0.04633888974785805
352.0,0.046709898859262466
384.0,0.05113915354013443
416.0,0.056570831686258316
448.0,0.06051841005682945
480.0,0.06412174552679062
512.0,0.06794092059135437
576.0,0.06680922955274582
640.0,0.06288067996501923
704.0,0.05240358039736748
768.0,0.039969343692064285
832.0,0.02807297743856907
896.0,0.023841189220547676
960.0,0.022758200764656067
1024.0,0.022295020520687103
1152.0,0.027844661846756935
1280.0,0.023692753165960312
1408.0,0.01433369517326355
1536.0,0.008136739023029804
1664.0,0.009274640120565891
1792.0,0.008473614230751991
1920.0,0.0019192477921023965
2048.0,0.00012377245002426207
2304.0,-0.0045581781305372715
2560.0,-0.009969236329197884
2816.0,-0.010596774518489838
3072.0,-0.011356611736118793
3328.0,-0.014059742912650108
3584.0,-0.017209244892001152
3840.0,-0.015096322633326054
4096.0,-0.02166944555938244
4608.0,-0.023509366437792778
5120.0,-0.02080940455198288
5632.0,-0.018736707046628
6144.0,-0.008738732896745205
6656.0,-0.010485668666660786
7168.0,-0.031372711062431335
7680.0,-0.06351783126592636
8192.0,-0.06510911136865616
end
