version,3.0
numOfCh,1
type,point
parent_name,fe81d_1dot0-0dot1
ch_type,1_1
kcount,1
numberNandB,1
brightnessNandB,1
carpet pos,0
pc,0
Time (ms),CH1 Auto-Correlation
1.0,0.08966153115034103
2.0,0.08304630219936371
3.0,0.07741890847682953
4.0,0.07250356674194336
5.0,0.06826166808605194
6.0,0.06449303776025772
7.0,0.06107715144753456
8.0,0.05801505595445633
9.0,0.055054616183042526
10.0,0.05230879783630371
11.0,0.04986501857638359
12.0,0.04758765920996666
13.0,0.045354001224040985
14.0,0.0434814877808094
15.0,0.04198116809129715
16.0,0.04044695571064949
18.0,0.0378914512693882
20.0,0.03547757863998413
22.0,0.03352150693535805
24.0,0.03153979033231735
26.0,0.029562199488282204
28.0,0.02748420089483261
30.0,0.025568978860974312
32.0,0.023981250822544098
36.0,0.021397219970822334
40.0,0.019319357350468636
44.0,0.017750071361660957
48.0,0.016178976744413376
52.0,0.015392564237117767
56.0,0.01424555853009224
60.0,0.012725947424769402
64.0,0.011506114155054092
72.0,0.010510385036468506
80.0,0.009097892791032791
88.0,0.008384629152715206
96.0,0.00717510748654604
104.0,0.0046281167306005955
112.0,0.003360504051670432
120.0,0.0031549371778964996
128.0,0.0036523540038615465
144.0,0.004553231410682201
160.0,0.005181527230888605
176.0,0.0032691743690520525
192.0,0.0014396428596228361
208.0,-0.0011197793064638972
224.0,-0.0004784507618751377
240.0,0.0020822968799620867
256.0,0.0026930412277579308
288.0,-0.0018200023332610726
320.0,-0.0007410896942019463
352.0,-0.0024107841309159994
384.0,-0.0008817586931400001
416.0,-0.002183640142902732
448.0,-0.003858246374875307
480.0,-0.0023159587290138006
512.0,-0.0031927882228046656
576.0,-0.0043932306580245495
640.0,0.0033442103303968906
704.0,0.003763293381780386
768.0,0.0050164321437478065
832.0,0.004475907422602177
896.0,0.0010636404622346163
960.0,0.00012727396097034216
1024.0,0.0026531678158789873
1152.0,-0.0036591743119060993
1280.0,-0.008805578574538231
1408.0,-0.0025288742035627365
1536.0,0.0022058209870010614
1664.0,0.0008184608304873109
1792.0,0.0034096722956746817
1920.0,-0.0011850917944684625
2048.0,-0.0049776677042245865
2304.0,-0.0018436398822814226
2560.0,-0.0020912610925734043
2816.0,0.0011943813879042864
3072.0,0.0013778767315670848
3328.0,-0.0004586698196362704
3584.0,5.0884700613096356e-05
3840.0,0.0039016064256429672
4096.0,0.0005684527568519115
4608.0,0.0012380578555166721
5120.0,0.0009269494330510497
5632.0,-0.0024567770306020975
6144.0,-0.0011178459972143173
6656.0,-0.00361215160228312
7168.0,0.00015778814849909395
7680.0,0.0001726021437207237
8192.0,0.003676922060549259
end
