version,3.0
numOfCh,1
type,point
parent_name,fe81d_1dot0-0dot1
ch_type,1_1
kcount,1
numberNandB,1
brightnessNandB,1
carpet pos,0
pc,0
Time (ms),CH1 Auto-Correlation
1.0,0.11358936131000519
2.0,0.10601889342069626
3.0,0.0994265228509903
4.0,0.09358527511358261
5.0,0.08796045929193497
6.0,0.08276624232530594
7.0,0.07754282653331757
8.0,0.07306692749261856
9.0,0.06871228665113449
10.0,0.06441148370504379
11.0,0.06047733128070831
12.0,0.05710456147789955
13.0,0.053481124341487885
14.0,0.05061027780175209
15.0,0.04769603908061981
16.0,0.04479198530316353
18.0,0.04066210612654686
20.0,0.03716025874018669
22.0,0.034177616238594055
24.0,0.03158065304160118
26.0,0.02935616858303547
28.0,0.027556778863072395
30.0,0.02609637752175331
32.0,0.02422117441892624
36.0,0.021248962730169296
40.0,0.018455807119607925
44.0,0.016719073057174683
48.0,0.01658809371292591
52.0,0.016195470467209816
56.0,0.016669506207108498
60.0,0.018562516197562218
64.0,0.01891123503446579
72.0,0.01745474711060524
80.0,0.01675650104880333
88.0,0.018036063760519028
96.0,0.0179279837757349
104.0,0.014881026931107044
112.0,0.013191680423915386
120.0,0.010706784203648567
128.0,0.00909432303160429
144.0,0.008368859067559242
160.0,0.011295533739030361
176.0,0.009485945105552673
192.0,0.00429287226870656
208.0,0.0030175966676324606
224.0,0.0019466846715658903
240.0,0.0007368481601588428
256.0,0.0015113677363842726
288.0,0.004291800782084465
320.0,0.0021708060521632433
352.0,0.00193276337813586
384.0,-0.0002347201225347817
416.0,0.00023385704844258726
448.0,0.0018342938274145126
480.0,0.002475389279425144
512.0,0.0023429568391293287
576.0,0.003591788001358509
640.0,0.0014849782455712557
704.0,0.0005373911699280143
768.0,0.0035643717274069786
832.0,0.003554861294105649
896.0,0.0028338339179754257
960.0,0.0068189408630132675
1024.0,0.0022787312045693398
1152.0,-0.0021873966325074434
1280.0,-0.001923785894177854
1408.0,-4.872674617217854e-05
1536.0,0.00898922048509121
1664.0,0.006241033785045147
1792.0,0.0028210242744535208
1920.0,0.0008668001391924918
2048.0,0.003022684482857585
2304.0,0.005525445099920034
2560.0,0.0030679283663630486
2816.0,0.0004755732079502195
3072.0,-0.001586231985129416
3328.0,-0.00521601689979434
3584.0,-0.007836246863007545
3840.0,-0.001259873970411718
4096.0,0.00205128057859838
4608.0,-0.0006717178039252758
5120.0,-0.003715869737789035
5632.0,-0.005542094353586435
6144.0,-0.0007501028012484312
6656.0,0.00029899802757427096
7168.0,-0.004627821501344442
7680.0,-0.006307460833340883
8192.0,-0.0026349355466663837
end
