version,3.0
numOfCh,1
type,point
parent_name,fe81d_1dot0-0dot1
ch_type,1_1
kcount,1
numberNandB,1
brightnessNandB,1
carpet pos,0
pc,0
Time (ms),CH1 Auto-Correlation
1.0,0.08057022094726562
2.0,0.0735122561454773
3.0,0.06749774515628815
4.0,0.0623026080429554
5.0,0.05777283385396004
6.0,0.05392143502831459
7.0,0.05060530826449394
8.0,0.04778836667537689
9.0,0.04495337978005409
10.0,0.042505618184804916
11.0,0.0401637889444828
12.0,0.03803430125117302
13.0,0.036008164286613464
14.0,0.03426555171608925
15.0,0.032708872109651566
16.0,0.031248241662979126
18.0,0.029052745550870895
20.0,0.02707478776574135
22.0,0.025044191628694534
24.0,0.022725660353899002
26.0,0.02035004459321499
28.0,0.018277399241924286
30.0,0.01633964665234089
32.0,0.014472252689301968
36.0,0.011776566505432129
40.0,0.01078145019710064
44.0,0.01058304961770773
48.0,0.009930362924933434
52.0,0.009170529432594776
56.0,0.008437718264758587
60.0,0.008107542991638184
64.0,0.007526691071689129
72.0,0.0068154227919876575
80.0,0.005479832179844379
88.0,0.003914801869541407
96.0,0.003052257699891925
104.0,0.004002407193183899
112.0,0.0046803904697299
120.0,0.003675282234326005
128.0,0.0034864170011132956
144.0,0.003270531538873911
160.0,0.0047668698243796825
176.0,0.005002391524612904
192.0,0.006072323769330978
208.0,0.007512270472943783
224.0,0.009800761006772518
240.0,0.008279903791844845
256.0,0.005526220891624689
288.0,0.0033593899570405483
320.0,0.002442540368065238
352.0,0.0028111375868320465
384.0,0.0027076946571469307
416.0,0.006530311889946461
448.0,0.0036924737505614758
480.0,-0.0008739166078157723
512.0,0.0001837148447521031
576.0,0.004359960090368986
640.0,0.0026348649989813566
704.0,0.00034825722104869783
768.0,0.00036989926593378186
832.0,0.0005800008657388389
896.0,0.0005971163627691567
960.0,0.0011459565721452236
1024.0,0.0007651766063645482
1152.0,0.0006002167938277125
1280.0,0.0013154614716768265
1408.0,0.004002847243100405
1536.0,0.0024481143336743116
1664.0,0.0014806720428168774
1792.0,-0.0019935513846576214
1920.0,0.0013358014402911067
2048.0,-0.0014985172310844064
2304.0,-0.0038432502187788486
2560.0,-0.0029688882641494274
2816.0,-0.0011161193251609802
3072.0,-0.0016941599315032363
3328.0,-0.003371063619852066
3584.0,-0.00629064766690135
3840.0,-0.004426285158842802
4096.0,-0.0025522573851048946
4608.0,0.00022317263938020915
5120.0,-0.003382712136954069
5632.0,0.0033125830814242363
6144.0,0.005634727422147989
6656.0,0.0005981173017062247
7168.0,0.001414650701917708
7680.0,0.003283997066318989
8192.0,-0.002739965682849288
end
