version,3.0
numOfCh,1
type,point
parent_name,fe81d_1dot0-0dot1
ch_type,1_1
kcount,1
numberNandB,1
brightnessNandB,1
carpet pos,0
pc,0
Time (ms),CH1 Auto-Correlation
1.0,0.1094350516796112
2.0,0.10180864483118057
3.0,0.09512927383184433
4.0,0.08918170630931854
5.0,0.08394308388233185
6.0,0.07941979914903641
7.0,0.07534121721982956
8.0,0.07171224802732468
9.0,0.06837637722492218
10.0,0.06534804403781891
11.0,0.06243475154042244
12.0,0.05984080210328102
13.0,0.0577058419585228
14.0,0.055541589856147766
15.0,0.053513944149017334
16.0,0.05197868496179581
18.0,0.048744600266218185
20.0,0.04604896903038025
22.0,0.043997012078762054
24.0,0.042180050164461136
26.0,0.040621280670166016
28.0,0.038743071258068085
30.0,0.036686256527900696
32.0,0.03537915274500847
36.0,0.03304120898246765
40.0,0.030655361711978912
44.0,0.02873612754046917
48.0,0.027427028864622116
52.0,0.02581048384308815
56.0,0.02382705919444561
60.0,0.023237213492393494
64.0,0.022438280284404755
72.0,0.020082907751202583
80.0,0.017409542575478554
88.0,0.017152635380625725
96.0,0.01481308601796627
104.0,0.01451792474836111
112.0,0.015239005908370018
120.0,0.013682092539966106
128.0,0.010644848458468914
144.0,0.010149291716516018
160.0,0.015295915305614471
176.0,0.015121055766940117
192.0,0.014253837056457996
208.0,0.013949758373200893
224.0,0.013752137310802937
240.0,0.012404491193592548
256.0,0.011751364916563034
288.0,0.016506163403391838
320.0,0.01048810314387083
352.0,0.006847877521067858
384.0,0.002490223851054907
416.0,-0.0011291984701529145
448.0,-0.0008209131192415953
480.0,0.0009703373070806265
512.0,0.002626408590003848
576.0,0.002230813028290868
640.0,0.0011357704643160105
704.0,0.0002526541647966951
768.0,0.0043050311505794525
832.0,0.009092471562325954
896.0,0.01014415081590414
960.0,0.002012125449255109
1024.0,0.0010325824841856956
1152.0,-0.001590651459991932
1280.0,-0.005697949789464474
1408.0,-0.00662259804084897
1536.0,-0.007846872322261333
1664.0,-0.00667159678414464
1792.0,-0.0025143236853182316
1920.0,-0.011111820116639137
2048.0,-0.009882288053631783
2304.0,-0.006697923876345158
2560.0,0.0024461292196065187
2816.0,0.0030632808338850737
3072.0,-0.000569964642636478
3328.0,-4.629924887922243e-07
3584.0,0.004224445670843124
3840.0,0.0003139044565614313
4096.0,-0.0024531050585210323
4608.0,-0.008461379446089268
5120.0,-0.0034240756649523973
5632.0,-0.00741182267665863
6144.0,0.0018205990782007575
6656.0,0.0033057578839361668
7168.0,5.932246131123975e-05
7680.0,0.0029393197037279606
8192.0,0.0004800046735908836
end
