version,3.0
numOfCh,1
type,point
parent_name,fe81d_1dot0-0dot1
ch_type,1_1
kcount,1
numberNandB,1
brightnessNandB,1
carpet pos,0
pc,0
Time (ms),CH1 Auto-Correlation
1.0,0.07585296034812927
2.0,0.06957084685564041
3.0,0.06436628848314285
4.0,0.0597456656396389
5.0,0.055665526539087296
6.0,0.05233089253306389
7.0,0.04912758246064186
8.0,0.04622982442378998
9.0,0.04370150715112686
10.0,0.041552942246198654
11.0,0.039408713579177856
12.0,0.03737758472561836
13.0,0.03543032705783844
14.0,0.033620137721300125
15.0,0.03191155567765236
16.0,0.03011540323495865
18.0,0.027255548164248466
20.0,0.025053903460502625
22.0,0.02290363609790802
24.0,0.020776499062776566
26.0,0.019115181639790535
28.0,0.017752284184098244
30.0,0.01658538356423378
32.0,0.015308930538594723
36.0,0.013676333241164684
40.0,0.012308328412473202
44.0,0.010549302212893963
48.0,0.009318534284830093
52.0,0.008418813347816467
56.0,0.007945587858557701
60.0,0.007905833423137665
64.0,0.007622779347002506
72.0,0.007634783163666725
80.0,0.0060372925363481045
88.0,0.005932279862463474
96.0,0.005153612699359655
104.0,0.0048163821920752525
112.0,0.004037691745907068
120.0,0.0029817228205502033
128.0,0.0033622088376432657
144.0,0.003623850643634796
160.0,0.003898845985531807
176.0,0.0010269124759361148
192.0,0.0018069541547447443
208.0,0.002200318966060877
224.0,-0.0005952378269284964
240.0,-0.0012050321092829108
256.0,0.0015968956286087632
288.0,0.004582011140882969
320.0,0.005670221522450447
352.0,0.0029663292225450277
384.0,0.004288556985557079
416.0,0.0022275636438280344
448.0,0.004133249633014202
480.0,0.004642427898943424
512.0,0.0032761346083134413
576.0,0.0035472025629132986
640.0,0.0004744451434817165
704.0,-0.00045142212184146047
768.0,-0.00014484206622000784
832.0,0.00013697362737730145
896.0,-0.0001290932559641078
960.0,0.002124133985489607
1024.0,0.0034053942654281855
1152.0,-0.0003156868042424321
1280.0,-0.0017624114407226443
1408.0,-0.00012638197222258896
1536.0,-0.003908073529601097
1664.0,-0.004297959618270397
1792.0,-0.0010125094559043646
1920.0,0.0003869115898851305
2048.0,-0.0029420345090329647
2304.0,-0.001609685947187245
2560.0,-0.0019899322651326656
2816.0,0.0020127124153077602
3072.0,0.00115842220839113
3328.0,0.0017776725580915809
3584.0,-0.0037788748741149902
3840.0,0.0007038763724267483
4096.0,-0.001761971041560173
4608.0,-0.001094613573513925
5120.0,0.0004024291120003909
5632.0,0.0014955763472244143
6144.0,-0.0009034335380420089
6656.0,-0.001960550667718053
7168.0,-0.0028840601444244385
7680.0,-0.002707960782572627
8192.0,0.00020015978952869773
end
