version,3.0
numOfCh,1
type,point
parent_name,fe81d_1dot0-0dot1
ch_type,1_1
kcount,1
numberNandB,1
brightnessNandB,1
carpet pos,0
pc,0
Time (ms),CH1 Auto-Correlation
1.0,0.07758939266204834
2.0,0.07099125534296036
3.0,0.06527414917945862
4.0,0.06032593920826912
5.0,0.05596500262618065
6.0,0.052216242998838425
7.0,0.04868045449256897
8.0,0.045595306903123856
9.0,0.043023768812417984
10.0,0.040962595492601395
11.0,0.039041027426719666
12.0,0.037344735115766525
13.0,0.03587545454502106
14.0,0.03442714735865593
15.0,0.03316181153059006
16.0,0.03179986774921417
18.0,0.029551375657320023
20.0,0.02760661393404007
22.0,0.025795288383960724
24.0,0.02381185069680214
26.0,0.02169078029692173
28.0,0.019808977842330933
30.0,0.018657250329852104
32.0,0.017915042117238045
36.0,0.017107311636209488
40.0,0.016431545838713646
44.0,0.01494578830897808
48.0,0.013090165331959724
52.0,0.0118660693988204
56.0,0.010703078471124172
60.0,0.009179532527923584
64.0,0.006831042468547821
72.0,0.004393269773572683
80.0,0.0033337741624563932
88.0,0.0022833524271845818
96.0,0.0002296577295055613
104.0,-0.00041727308416739106
112.0,-0.0001358043955406174
120.0,0.0017775167943909764
128.0,0.0031807287596166134
144.0,0.0027235122397542
160.0,0.003723254892975092
176.0,0.006298909895122051
192.0,0.0052250344306230545
208.0,0.004424262326210737
224.0,0.00030470144702121615
240.0,-0.003214542055502534
256.0,-0.002244293224066496
288.0,0.00033357442589476705
320.0,0.0008304264047183096
352.0,0.002907621441408992
384.0,0.000404273479944095
416.0,-0.0022241303231567144
448.0,-0.0032486245036125183
480.0,0.0013801351888105273
512.0,0.002726250793784857
576.0,-0.0015943514881655574
640.0,-0.0036162484902888536
704.0,-0.0035678951535373926
768.0,-0.004116361495107412
832.0,-0.0012174778385087848
896.0,0.0012423557927832007
960.0,0.004274840001016855
1024.0,-0.0030998915899544954
1152.0,-0.0010238218819722533
1280.0,0.00013616432261187583
1408.0,-0.002989667234942317
1536.0,-0.0043360949493944645
1664.0,-0.0012335368664935231
1792.0,0.0008582570008002222
1920.0,0.0010721454164013267
2048.0,0.0004673668008763343
2304.0,0.0022114322055131197
2560.0,-0.001887054182589054
2816.0,5.7542209106031805e-05
3072.0,0.0012012043735012412
3328.0,-0.002131999935954809
3584.0,-0.001509617199189961
3840.0,-0.0014251145767048001
4096.0,-0.0010336795821785927
4608.0,0.0005106223979964852
5120.0,0.0010437347227707505
5632.0,-0.0037772355135530233
6144.0,0.0012964174384251237
6656.0,0.00045234322897158563
7168.0,0.0024862594436854124
7680.0,-0.0026895494665950537
8192.0,-0.004178397357463837
end
