version,3.0
numOfCh,1
type,point
parent_name,fe81d_1dot0-0dot1
ch_type,1_1
kcount,1
numberNandB,1
brightnessNandB,1
carpet pos,0
pc,0
Time (ms),CH1 Auto-Correlation
1.0,0.09306950122117996
2.0,0.08606578409671783
3.0,0.08005702495574951
4.0,0.07498365640640259
5.0,0.0706990510225296
6.0,0.06703735888004303
7.0,0.06398669630289078
8.0,0.06114724650979042
9.0,0.05862855911254883
10.0,0.056304387748241425
11.0,0.05405547469854355
12.0,0.051648687571287155
13.0,0.04941440001130104
14.0,0.047312162816524506
15.0,0.045399829745292664
16.0,0.04359876736998558
18.0,0.04059375077486038
20.0,0.038157328963279724
22.0,0.035555921494960785
24.0,0.033339258283376694
26.0,0.03160145506262779
28.0,0.030297299847006798
30.0,0.029203103855252266
32.0,0.028089256957173347
36.0,0.026679016649723053
40.0,0.025057468563318253
44.0,0.024254219606518745
48.0,0.022942831739783287
52.0,0.02138632908463478
56.0,0.019725263118743896
60.0,0.01851792261004448
64.0,0.0173362884670496
72.0,0.014175822027027607
80.0,0.01291791070252657
88.0,0.011891772039234638
96.0,0.010489973239600658
104.0,0.009900717064738274
112.0,0.009387594647705555
120.0,0.00767850037664175
128.0,0.005919331219047308
144.0,0.007541363593190908
160.0,0.008324196562170982
176.0,0.007031201850622892
192.0,0.008429116569459438
208.0,0.008581936359405518
224.0,0.006739450618624687
240.0,0.008577663451433182
256.0,0.009175244718790054
288.0,0.008467230014503002
320.0,0.005664256867021322
352.0,0.0027046639006584883
384.0,0.0015814504586160183
416.0,0.004376388620585203
448.0,0.00399713683873415
480.0,0.0008419817895628512
512.0,0.00013204372953623533
576.0,-0.0028658213559538126
640.0,-0.004542202223092318
704.0,-0.006218146067112684
768.0,-0.004770385567098856
832.0,-0.004387537483125925
896.0,-0.00079600780736655
960.0,-0.00020060899259988219
1024.0,-0.0008739086333662271
1152.0,-0.002883482724428177
1280.0,-0.0033631958067417145
1408.0,-0.005222355015575886
1536.0,-0.0028530911076813936
1664.0,0.00019283810979686677
1792.0,-0.0019550041761249304
1920.0,0.001992406789213419
2048.0,0.004636664409190416
2304.0,0.00440406845882535
2560.0,0.002750630723312497
2816.0,0.0025001908652484417
3072.0,-0.0019233578350394964
3328.0,-0.010279598645865917
3584.0,-0.008600009605288506
3840.0,-0.002226040465757251
4096.0,0.006603558547794819
4608.0,0.0036942872684448957
5120.0,-0.0030461654532700777
5632.0,-0.0034972752910107374
6144.0,-0.004058694466948509
6656.0,0.006771675311028957
7168.0,0.004021759610623121
7680.0,-0.008681999519467354
8192.0,-0.0032713019754737616
end
