version,3.0
numOfCh,1
type,point
parent_name,fe81d_1dot0-0dot1
ch_type,1_1
kcount,1
numberNandB,1
brightnessNandB,1
carpet pos,0
pc,0
Time (ms),CH1 Auto-Correlation
1.0,0.09611794352531433
2.0,0.08918899297714233
3.0,0.08295654505491257
4.0,0.07758940011262894
5.0,0.0726480782032013
6.0,0.06814328581094742
7.0,0.0642685741186142
8.0,0.06072917580604553
9.0,0.05769620090723038
10.0,0.055084228515625
11.0,0.05273832008242607
12.0,0.0504751056432724
13.0,0.04830523580312729
14.0,0.046237844973802567
15.0,0.044424090534448624
16.0,0.042613763362169266
18.0,0.0391436442732811
20.0,0.036129772663116455
22.0,0.0334305576980114
24.0,0.031091665849089622
26.0,0.02892746403813362
28.0,0.026507731527090073
30.0,0.02448657713830471
32.0,0.02261131815612316
36.0,0.02000141143798828
40.0,0.0182602908462286
44.0,0.016519181430339813
48.0,0.015686914324760437
52.0,0.0146860983222723
56.0,0.013459961861371994
60.0,0.012074372731149197
64.0,0.011080872267484665
72.0,0.010253961198031902
80.0,0.009867376647889614
88.0,0.008170352317392826
96.0,0.006900183856487274
104.0,0.006575238890945911
112.0,0.007310706656426191
120.0,0.008217026479542255
128.0,0.008653741329908371
144.0,0.007344407960772514
160.0,0.0028303880244493484
176.0,0.0019750173669308424
192.0,0.0036709830164909363
208.0,0.004698201082646847
224.0,0.005333834793418646
240.0,0.003021928947418928
256.0,0.004237018059939146
288.0,0.00704678799957037
320.0,0.0036069280467927456
352.0,0.0011208124924451113
384.0,0.0005801250226795673
416.0,-0.0006866551702842116
448.0,-0.0033735784236341715
480.0,-0.003935933578759432
512.0,-0.002148839645087719
576.0,-0.006274338345974684
640.0,-0.008608292788267136
704.0,-0.004210982471704483
768.0,-0.004782442003488541
832.0,-0.0012292698957026005
896.0,-0.0001286477199755609
960.0,0.00020352343562990427
1024.0,0.0005665961652994156
1152.0,0.0033148853108286858
1280.0,0.0032533344347029924
1408.0,0.004343234468251467
1536.0,0.0020350345876067877
1664.0,-0.0005600987351499498
1792.0,-0.0001586993457749486
1920.0,-0.0004990274901501834
2048.0,-0.003309947904199362
2304.0,-8.506313315592706e-05
2560.0,-0.00012016461550956592
2816.0,0.0010600386885926127
3072.0,0.0003897873975802213
3328.0,-0.0021990337409079075
3584.0,-0.0015517842257395387
3840.0,0.0017990125343203545
4096.0,-0.0015457430854439735
4608.0,-0.0010796659626066685
5120.0,0.0001997407671296969
5632.0,-0.002217561472207308
6144.0,0.0024063775781542063
6656.0,0.0009791050106287003
7168.0,-0.00133485475089401
7680.0,-0.002059124642983079
8192.0,0.0032409040722995996
end
