version,3.0
numOfCh,1
type,point
parent_name,fe81d_1dot0-0dot1
ch_type,1_1
kcount,1
numberNandB,1
brightnessNandB,1
carpet pos,0
pc,0
Time (ms),CH1 Auto-Correlation
1.0,0.11315137892961502
2.0,0.10597992688417435
3.0,0.09988882392644882
4.0,0.09447966516017914
5.0,0.08989063650369644
6.0,0.08572781085968018
7.0,0.08195098489522934
8.0,0.078473299741745
9.0,0.0751539021730423
10.0,0.07200201600790024
11.0,0.06900029629468918
12.0,0.06616588681936264
13.0,0.06384482234716415
14.0,0.061613161116838455
15.0,0.059567052870988846
16.0,0.057345978915691376
18.0,0.05316092073917389
20.0,0.049221623688936234
22.0,0.04621690511703491
24.0,0.04377148300409317
26.0,0.041127994656562805
28.0,0.03913336619734764
30.0,0.03758901357650757
32.0,0.03635035827755928
36.0,0.03356640785932541
40.0,0.029951784759759903
44.0,0.027335558086633682
48.0,0.02619389444589615
52.0,0.024742433801293373
56.0,0.023552823811769485
60.0,0.021987801417708397
64.0,0.02104025147855282
72.0,0.019746268168091774
80.0,0.01840207353234291
88.0,0.01526273787021637
96.0,0.012979540042579174
104.0,0.010366125963628292
112.0,0.008758471347391605
120.0,0.008273504674434662
128.0,0.008257678709924221
144.0,0.009068991988897324
160.0,0.0056920950300991535
176.0,0.0038443421944975853
192.0,0.004835221916437149
208.0,0.0037235491909086704
224.0,0.0015290785813704133
240.0,0.0006336048245429993
256.0,-0.00033144670305773616
288.0,0.001634758897125721
320.0,0.0028240173123776913
352.0,0.003294015070423484
384.0,0.00583602674305439
416.0,-0.0012871454237028956
448.0,0.0016472137067466974
480.0,0.0030712515581399202
512.0,-0.0009041524026542902
576.0,0.0024477578699588776
640.0,-7.335429836530238e-05
704.0,0.0017464057309553027
768.0,0.0014129758346825838
832.0,0.007740470580756664
896.0,0.00352126220241189
960.0,0.0049055819399654865
1024.0,0.005756750702857971
1152.0,0.0018848500913009048
1280.0,0.0031767343170940876
1408.0,0.003923398908227682
1536.0,-0.00022221887775231153
1664.0,-0.004279642831534147
1792.0,-0.0013720253482460976
1920.0,-0.001241880003362894
2048.0,-0.0027893884107470512
2304.0,-0.0018325800774618983
2560.0,0.002884453861042857
2816.0,0.004221426788717508
3072.0,-0.0007405030773952603
3328.0,-0.000391659646993503
3584.0,0.006070749368518591
3840.0,0.009079184383153915
4096.0,0.004604562185704708
4608.0,0.0014094433281570673
5120.0,-0.00037431748933158815
5632.0,-0.008892453275620937
6144.0,-0.004785504192113876
6656.0,-0.004875185899436474
7168.0,0.001067507080733776
7680.0,-0.0019678217358887196
8192.0,-0.0004234742373228073
end
