version,3.0
numOfCh,1
type,point
parent_name,fe81d_1dot0-0dot1
ch_type,1_1
kcount,1
numberNandB,1
brightnessNandB,1
carpet pos,0
pc,0
Time (ms),CH1 Auto-Correlation
1.0,0.09107253700494766
2.0,0.08433705568313599
3.0,0.0786438137292862
4.0,0.07379305362701416
5.0,0.06944729387760162
6.0,0.06546298414468765
7.0,0.061968494206666946
8.0,0.058787181973457336
9.0,0.05605517700314522
10.0,0.05348239094018936
11.0,0.05123252794146538
12.0,0.04916965216398239
13.0,0.047081075608730316
14.0,0.044911086559295654
15.0,0.04282457381486893
16.0,0.04085324704647064
18.0,0.0373990535736084
20.0,0.034577272832393646
22.0,0.03195377439260483
24.0,0.029736775904893875
26.0,0.02768220193684101
28.0,0.025873389095067978
30.0,0.024299506098031998
32.0,0.023100631311535835
36.0,0.022031374275684357
40.0,0.020903773605823517
44.0,0.020338518545031548
48.0,0.019502965733408928
52.0,0.017367618158459663
56.0,0.015197433531284332
60.0,0.013984516263008118
64.0,0.01286161970347166
72.0,0.010116633959114552
80.0,0.008290715515613556
88.0,0.005847183521836996
96.0,0.004509967286139727
104.0,0.004392177332192659
112.0,0.0047567845322191715
120.0,0.0052567715756595135
128.0,0.0046546985395252705
144.0,1.9272638382972218e-05
160.0,-0.0007404994685202837
176.0,0.0006696791970171034
192.0,0.0002496847009751946
208.0,-0.0012623016955330968
224.0,-0.0029735243879258633
240.0,-0.003248014720156789
256.0,-0.0024319069925695658
288.0,-0.001286935294046998
320.0,0.001787014422006905
352.0,0.00023644963221158832
384.0,0.0014036920620128512
416.0,0.0004989660810679197
448.0,0.0032999662216752768
480.0,0.007002144120633602
512.0,0.006850726902484894
576.0,0.0038432807195931673
640.0,-0.002487647347152233
704.0,-0.008748766034841537
768.0,-0.0033529794309288263
832.0,-0.0038305216003209352
896.0,0.00036196329165250063
960.0,0.0014329912373796105
1024.0,0.0031513844151049852
1152.0,-0.0011247899383306503
1280.0,-0.005979196634143591
1408.0,-0.0060368673875927925
1536.0,-0.00010122555249836296
1664.0,-0.0022660999093204737
1792.0,-0.005859556142240763
1920.0,-0.0021581598557531834
2048.0,0.0025748766493052244
2304.0,-0.0022664472926408052
2560.0,0.0008423780091106892
2816.0,-0.0014613047242164612
3072.0,0.0021012634970247746
3328.0,0.001431437791325152
3584.0,0.004220014438033104
3840.0,-0.0009111628751270473
4096.0,0.0034282018896192312
4608.0,0.000254450278589502
5120.0,-0.0030626377556473017
5632.0,-0.002989490982145071
6144.0,-0.0018357144435867667
6656.0,0.0017281846376135945
7168.0,0.001774906413629651
7680.0,0.0008286010124720633
8192.0,-0.001810660702176392
end
