version,3.0
numOfCh,1
type,point
parent_name,fe81d_1dot0-0dot1
ch_type,1_1
kcount,1
numberNandB,1
brightnessNandB,1
carpet pos,0
pc,0
Time (ms),CH1 Auto-Correlation
1.0,0.09979409724473953
2.0,0.0924990326166153
3.0,0.08640766143798828
4.0,0.081309475004673
5.0,0.07652086019515991
6.0,0.07236386835575104
7.0,0.06871306896209717
8.0,0.06546546518802643
9.0,0.06258243322372437
10.0,0.05982443317770958
11.0,0.05698368325829506
12.0,0.054640814661979675
13.0,0.052168261259794235
14.0,0.04994017258286476
15.0,0.048130474984645844
16.0,0.04647176340222359
18.0,0.043749380856752396
20.0,0.041501209139823914
22.0,0.039088137447834015
24.0,0.03664981946349144
26.0,0.03452304005622864
28.0,0.03285234048962593
30.0,0.031617965549230576
32.0,0.030685342848300934
36.0,0.0291371401399374
40.0,0.027549734339118004
44.0,0.024885546416044235
48.0,0.022834353148937225
52.0,0.020867832005023956
56.0,0.019845427945256233
60.0,0.019590813666582108
64.0,0.01944335550069809
72.0,0.019091732800006866
80.0,0.01742459088563919
88.0,0.015121432952582836
96.0,0.01343646738678217
104.0,0.01155698113143444
112.0,0.00923493504524231
120.0,0.006657636258751154
128.0,0.005809771362692118
144.0,0.008287574164569378
160.0,0.009354323148727417
176.0,0.0075011770240962505
192.0,0.0033522897865623236
208.0,0.004657011944800615
224.0,0.004791665822267532
240.0,0.0043358150869607925
256.0,0.005091540981084108
288.0,0.008866634219884872
320.0,0.011057587340474129
352.0,0.00986375380307436
384.0,0.005614636465907097
416.0,0.0032366793602705
448.0,0.006055923644453287
480.0,0.00740185659378767
512.0,0.005164134781807661
576.0,0.003917525056749582
640.0,0.006489704363048077
704.0,0.000323290703818202
768.0,-0.00227858847938478
832.0,0.00032255693804472685
896.0,0.006807365454733372
960.0,0.005818482022732496
1024.0,0.0052612232975661755
1152.0,0.0034483112394809723
1280.0,0.0011733537539839745
1408.0,-0.002887410344555974
1536.0,0.002741691656410694
1664.0,-0.0028257835656404495
1792.0,-2.4367900550714694e-05
1920.0,0.00024846140877343714
2048.0,0.005059598013758659
2304.0,0.00010456985182827339
2560.0,-0.0030132171232253313
2816.0,-0.007060580421239138
3072.0,-0.003967002034187317
3328.0,-0.003974417224526405
3584.0,-0.0026955977082252502
3840.0,-0.0056159114465117455
4096.0,-0.00038923165993764997
4608.0,-0.0005596695118583739
5120.0,-0.00918903574347496
5632.0,0.0016456147423014045
6144.0,0.0008607583004049957
6656.0,0.0002580240252427757
7168.0,-0.0026178122498095036
7680.0,-0.0018684568349272013
8192.0,-0.0024004916194826365
end
