version,3.0
numOfCh,1
type,point
parent_name,fe81d_1dot0-0dot1
ch_type,1_1
kcount,1
numberNandB,1
brightnessNandB,1
carpet pos,0
pc,0
Time (ms),CH1 Auto-Correlation
1.0,0.09372270852327347
2.0,0.08706608414649963
3.0,0.08137011528015137
4.0,0.07635576277971268
5.0,0.07223992049694061
6.0,0.06835638731718063
7.0,0.06479789316654205
8.0,0.06166340783238411
9.0,0.05858786776661873
10.0,0.055886607617139816
11.0,0.05327899754047394
12.0,0.05088392645120621
13.0,0.048709671944379807
14.0,0.04659479483962059
15.0,0.04466081038117409
16.0,0.0432514026761055
18.0,0.04083602875471115
20.0,0.03859565034508705
22.0,0.036871690303087234
24.0,0.03535009175539017
26.0,0.0335395410656929
28.0,0.031797003000974655
30.0,0.030178207904100418
32.0,0.028487615287303925
36.0,0.025743184611201286
40.0,0.023792628198862076
44.0,0.021785836666822433
48.0,0.02026614360511303
52.0,0.018993722274899483
56.0,0.017602382227778435
60.0,0.016541561111807823
64.0,0.015748310834169388
72.0,0.013403492048382759
80.0,0.011691705323755741
88.0,0.010462827049195766
96.0,0.007886309176683426
104.0,0.005006324965506792
112.0,0.004121008794754744
120.0,0.004938914440572262
128.0,0.004977063275873661
144.0,0.00353993265889585
160.0,0.003592774970456958
176.0,0.001222308143042028
192.0,-0.0012563987402245402
208.0,-0.0013817872386425734
224.0,-0.0009364637080579996
240.0,0.00297140353359282
256.0,0.003269451204687357
288.0,0.004796541295945644
320.0,0.007500926963984966
352.0,0.006304830312728882
384.0,0.006222926080226898
416.0,0.006252549588680267
448.0,0.005290417931973934
480.0,0.004088701214641333
512.0,0.00546598806977272
576.0,0.00575209129601717
640.0,0.002609811956062913
704.0,0.0021011694334447384
768.0,0.0015340173849835992
832.0,-0.003931492101401091
896.0,0.0013174401829019189
960.0,-0.0006319896201603115
1024.0,-0.003137768479064107
1152.0,-0.006429059896618128
1280.0,-0.011331060901284218
1408.0,-0.0030774909537285566
1536.0,-0.0053979940712451935
1664.0,-0.007409905549138784
1792.0,-0.010576103813946247
1920.0,-0.0026316228322684765
2048.0,-0.002101246267557144
2304.0,-0.0016013768035918474
2560.0,-0.0005188091308809817
2816.0,0.004408315289765596
3072.0,0.004827227909117937
3328.0,0.00255542597733438
3584.0,0.001751556759700179
3840.0,-0.00030557229183614254
4096.0,-0.0036784817930310965
4608.0,-0.0018892566440626979
5120.0,0.0016013103304430842
5632.0,0.0032790633849799633
6144.0,-0.0004692327929660678
6656.0,-0.004847957286983728
7168.0,-0.004927090369164944
7680.0,-0.0012442729203030467
8192.0,0.00516193313524127
end
