version,3.0
numOfCh,1
type,point
parent_name,fe81d_1dot0-0dot1
ch_type,1_1
kcount,1
numberNandB,1
brightnessNandB,1
carpet pos,0
pc,0
Time (ms),CH1 Auto-Correlation
1.0,0.09490770846605301
2.0,0.08812639117240906
3.0,0.08215299248695374
4.0,0.07690117508172989
5.0,0.07244139164686203
6.0,0.0684080570936203
7.0,0.06477552652359009
8.0,0.061597369611263275
9.0,0.05878531187772751
10.0,0.05615503713488579
11.0,0.05385781452059746
12.0,0.051806606352329254
13.0,0.04989667236804962
14.0,0.04830838739871979
15.0,0.04672709479928017
16.0,0.04544679820537567
18.0,0.04315033182501793
20.0,0.04076462611556053
22.0,0.038268398493528366
24.0,0.036281730979681015
26.0,0.0344989076256752
28.0,0.032828252762556076
30.0,0.031442489475011826
32.0,0.029944326728582382
36.0,0.027325058355927467
40.0,0.025115054100751877
44.0,0.02295590378344059
48.0,0.02159387618303299
52.0,0.01972290873527527
56.0,0.0185504499822855
60.0,0.017605096101760864
64.0,0.015588302165269852
72.0,0.01168773788958788
80.0,0.00878530740737915
88.0,0.005457768216729164
96.0,0.00354448682628572
104.0,0.0021040006540715694
112.0,0.0016157057834789157
120.0,0.00228933640755713
128.0,0.0029956090729683638
144.0,0.004518202506005764
160.0,0.007143597584217787
176.0,0.007799779996275902
192.0,0.008281529881060123
208.0,0.007814580574631691
224.0,0.008024114184081554
240.0,0.007251132745295763
256.0,0.007178995292633772
288.0,0.0034270095638930798
320.0,0.003809327259659767
352.0,0.006616995204240084
384.0,0.007161533460021019
416.0,0.004258345812559128
448.0,0.004376520868390799
480.0,0.004859257955104113
512.0,0.004142105113714933
576.0,0.005851812660694122
640.0,0.007388443220406771
704.0,0.004926442634314299
768.0,-0.0008707534288987517
832.0,-0.002635038923472166
896.0,0.0001298910065088421
960.0,0.0019800730515271425
1024.0,-0.004794253036379814
1152.0,5.991094894852722e-06
1280.0,-0.001057538902387023
1408.0,0.0005109674530103803
1536.0,-0.0038631490897387266
1664.0,-0.0026280651800334454
1792.0,-0.00021953829855192453
1920.0,-0.0017321358900517225
2048.0,9.728229633765295e-05
2304.0,0.005615015514194965
2560.0,0.00656217010691762
2816.0,0.003081520088016987
3072.0,0.001310629304498434
3328.0,0.0011070237960666418
3584.0,0.0008054216159507632
3840.0,-0.0036618364974856377
4096.0,-0.001940464717335999
4608.0,-0.002942111808806658
5120.0,-0.0019835352431982756
5632.0,-0.0019884861540049314
6144.0,-0.0004856057930737734
6656.0,-0.0007719143177382648
7168.0,-0.002500304253771901
7680.0,-0.004895240534096956
8192.0,-0.0047336057759821415
end
