version,3.0
numOfCh,1
type,point
parent_name,fe81d_1dot0-0dot1
ch_type,1_1
kcount,1
numberNandB,1
brightnessNandB,1
carpet pos,0
pc,0
Time (ms),CH1 Auto-Correlation
1.0,0.09835203737020493
2.0,0.09132711589336395
3.0,0.08504516631364822
4.0,0.07966688275337219
5.0,0.07496820390224457
6.0,0.07082430273294449
7.0,0.06691783666610718
8.0,0.06361200660467148
9.0,0.06058887019753456
10.0,0.05792098864912987
11.0,0.05545215681195259
12.0,0.05321580171585083
13.0,0.0512954480946064
14.0,0.049555011093616486
15.0,0.0476372055709362
16.0,0.045745398849248886
18.0,0.04219914972782135
20.0,0.039401303976774216
22.0,0.03718160092830658
24.0,0.0347619391977787
26.0,0.032596223056316376
28.0,0.030584728345274925
30.0,0.02811012603342533
32.0,0.02594095468521118
36.0,0.023233748972415924
40.0,0.02091952972114086
44.0,0.019186697900295258
48.0,0.017194218933582306
52.0,0.015325483866035938
56.0,0.014218470081686974
60.0,0.01346928346902132
64.0,0.012472614645957947
72.0,0.011220518499612808
80.0,0.009994103573262691
88.0,0.007523138541728258
96.0,0.005477003287523985
104.0,0.004703632090240717
112.0,0.0033615033607929945
120.0,0.0029614802915602922
128.0,0.004128825850784779
144.0,0.0033329857978969812
160.0,-0.0005177760031074286
176.0,-0.000757762580178678
192.0,0.0013453445862978697
208.0,0.0034073300193995237
224.0,0.005391067825257778
240.0,0.005402662325650454
256.0,0.0034529301337897778
288.0,-0.0004453782457858324
320.0,-0.003087457735091448
352.0,-0.00459862919524312
384.0,-0.008167420513927937
416.0,-0.008597082458436489
448.0,-0.002929187146946788
480.0,-0.00030886518652550876
512.0,-0.0008471869514323771
576.0,0.0010279997950419784
640.0,-0.004765266552567482
704.0,0.00100108387414366
768.0,0.0014825573889538646
832.0,-0.006339195650070906
896.0,-0.00480314576998353
960.0,-0.00053332035895437
1024.0,0.0024103678297251463
1152.0,0.0009633574518375099
1280.0,-0.00011215417180210352
1408.0,-0.0012569330865517259
1536.0,-0.0005749930278398097
1664.0,0.0007096259505487978
1792.0,0.0006364969303831458
1920.0,-0.0011771471472457051
2048.0,-0.0020883523393422365
2304.0,0.004366839770227671
2560.0,0.001542016863822937
2816.0,-0.003221384482458234
3072.0,0.00010820195166161284
3328.0,0.003720012027770281
3584.0,0.0003673836763482541
3840.0,-0.004504364915192127
4096.0,-0.0007369661470875144
4608.0,-0.00021523074246942997
5120.0,-0.0005592326633632183
5632.0,-0.002828974509611726
6144.0,3.0364468329935335e-05
6656.0,0.001836068811826408
7168.0,-0.005364433862268925
7680.0,-0.001367949414998293
8192.0,0.0017898641526699066
end
