version,3.0
numOfCh,1
type,point
parent_name,fe81d_1dot0-0dot1
ch_type,1_1
kcount,1
numberNandB,1
brightnessNandB,1
carpet pos,0
pc,0
Time (ms),CH1 Auto-Correlation
1.0,0.08618706464767456
2.0,0.07948125153779984
3.0,0.07350759208202362
4.0,0.0682825967669487
5.0,0.0636645033955574
6.0,0.05953372269868851
7.0,0.05575079843401909
8.0,0.052444614470005035
9.0,0.04951397702097893
10.0,0.046851761639118195
11.0,0.04429938271641731
12.0,0.04204859212040901
13.0,0.04010120406746864
14.0,0.03811421990394592
15.0,0.03620699420571327
16.0,0.034702498465776443
18.0,0.03208749368786812
20.0,0.030273523181676865
22.0,0.028835104778409004
24.0,0.027485450729727745
26.0,0.02646816335618496
28.0,0.025807175785303116
30.0,0.025144444778561592
32.0,0.024043522775173187
36.0,0.021362531930208206
40.0,0.01942124404013157
44.0,0.017824310809373856
48.0,0.016838189214468002
52.0,0.01672559604048729
56.0,0.016034049913287163
60.0,0.015366838313639164
64.0,0.01424967497587204
72.0,0.0116590466350317
80.0,0.010672807693481445
88.0,0.01067283470183611
96.0,0.010677377693355083
104.0,0.009590116329491138
112.0,0.01036513689905405
120.0,0.009498287923634052
128.0,0.0071247112937271595
144.0,0.0053308806382119656
160.0,0.004608695860952139
176.0,0.005896718706935644
192.0,0.005922847893089056
208.0,0.006639186292886734
224.0,0.0068817781284451485
240.0,0.005389227531850338
256.0,0.00395188108086586
288.0,-0.000767228368204087
320.0,0.0016447266098111868
352.0,0.0015703346580266953
384.0,0.0014425491681322455
416.0,0.0016812750836834311
448.0,-0.002905310830101371
480.0,0.00013956303882878274
512.0,0.004196197260171175
576.0,0.00377219682559371
640.0,1.3193593986216001e-05
704.0,0.003139089560136199
768.0,0.005938972346484661
832.0,0.0030671556014567614
896.0,0.0006885324837639928
960.0,0.0024222927168011665
1024.0,0.00152272405102849
1152.0,-0.0009718324872665107
1280.0,-0.001721773762255907
1408.0,-0.004499766975641251
1536.0,-0.004705976694822311
1664.0,-0.0013900307239964604
1792.0,-0.0005675363936461508
1920.0,0.002305099507793784
2048.0,-0.0024282673839479685
2304.0,-0.005371702369302511
2560.0,-0.0028333093505352736
2816.0,-0.0021804943680763245
3072.0,0.0015940365847200155
3328.0,-0.0043606930412352085
3584.0,-0.0022935622837394476
3840.0,0.004906769841909409
4096.0,-2.158927782147657e-05
4608.0,0.0026719982270151377
5120.0,0.0005294625880196691
5632.0,-0.002553147030994296
6144.0,-0.0022621583193540573
6656.0,-0.002341465326026082
7168.0,-0.00288299098610878
7680.0,0.0017000737134367228
8192.0,0.0017247421201318502
end
