version,3.0
numOfCh,1
type,point
parent_name,fe81d_1dot0-0dot1
ch_type,1_1
kcount,1
numberNandB,1
brightnessNandB,1
carpet pos,0
pc,0
Time (ms),CH1 Auto-Correlation
1.0,0.08685268461704254
2.0,0.08005530387163162
3.0,0.07449526339769363
4.0,0.0697430893778801
5.0,0.06557823717594147
6.0,0.06182705610990524
7.0,0.05845063552260399
8.0,0.05557645484805107
9.0,0.05301595851778984
10.0,0.0505494624376297
11.0,0.048371292650699615
12.0,0.04624762386083603
13.0,0.044219132512807846
14.0,0.04251842200756073
15.0,0.04105934500694275
16.0,0.03957313299179077
18.0,0.036519065499305725
20.0,0.033981140702962875
22.0,0.03144833818078041
24.0,0.029292086139321327
26.0,0.027267182245850563
28.0,0.025681734085083008
30.0,0.024390846490859985
32.0,0.023321455344557762
36.0,0.02100493013858795
40.0,0.01854606717824936
44.0,0.015458008274435997
48.0,0.013482342474162579
52.0,0.012428993359208107
56.0,0.012385187670588493
60.0,0.012297443114221096
64.0,0.011053396388888359
72.0,0.008129394613206387
80.0,0.006444223690778017
88.0,0.0055582402274012566
96.0,0.004635254852473736
104.0,0.0034207298886030912
112.0,0.0049681756645441055
120.0,0.0062343948520720005
128.0,0.004761929623782635
144.0,0.004020931664854288
160.0,0.004118049517273903
176.0,0.007426569703966379
192.0,0.009558933787047863
208.0,0.008037148043513298
224.0,0.005480659659951925
240.0,0.002299621468409896
256.0,0.001224200357683003
288.0,-0.0012322351103648543
320.0,-0.002916482510045171
352.0,-0.0035472314339131117
384.0,0.0019497197354212403
416.0,0.0057717300951480865
448.0,0.0025647932197898626
480.0,0.00014030784950591624
512.0,0.002972175134345889
576.0,0.007428585086017847
640.0,0.006154221948236227
704.0,0.0029953925404697657
768.0,-0.001002479693852365
832.0,-0.0026759998872876167
896.0,-0.0038417500909417868
960.0,-0.006231589242815971
1024.0,-0.00438842736184597
1152.0,0.003149931551888585
1280.0,0.00015427017933689058
1408.0,0.002686101011931896
1536.0,0.0009326236904598773
1664.0,0.0022382684983313084
1792.0,0.001958918757736683
1920.0,0.0023690094240009785
2048.0,0.0030524281319230795
2304.0,0.0010480686323717237
2560.0,-0.002877037273719907
2816.0,-0.0017829128773882985
3072.0,-0.00036442436976358294
3328.0,-0.004554780200123787
3584.0,-0.0022370514925569296
3840.0,-0.003984431736171246
4096.0,-0.005798276513814926
4608.0,-0.003709802171215415
5120.0,-0.0005671845865435898
5632.0,-0.0011395299807190895
6144.0,-0.002191375009715557
6656.0,-0.002133346861228347
7168.0,0.0032196883112192154
7680.0,0.004070012830197811
8192.0,0.0049036722630262375
end
