version,3.0
numOfCh,1
type,point
parent_name,fe81d_1dot0-0dot1
ch_type,1_1
kcount,1
numberNandB,1
brightnessNandB,1
carpet pos,0
pc,0
Time (ms),CH1 Auto-Correlation
1.0,0.0977155864238739
2.0,0.09080840647220612
3.0,0.08474535495042801
4.0,0.07953391224145889
5.0,0.07483357936143875
6.0,0.07097980380058289
7.0,0.06739789992570877
8.0,0.06402479112148285
9.0,0.06140178442001343
10.0,0.05911853164434433
11.0,0.057181570678949356
12.0,0.05530792847275734
13.0,0.05374811589717865
14.0,0.05228329449892044
15.0,0.050939448177814484
16.0,0.049596965312957764
18.0,0.04726959764957428
20.0,0.045850154012441635
22.0,0.045177165418863297
24.0,0.0443330742418766
26.0,0.04339367523789406
28.0,0.0421861857175827
30.0,0.04074544832110405
32.0,0.0394272617995739
36.0,0.03725876659154892
40.0,0.03504059463739395
44.0,0.03205813840031624
48.0,0.029883861541748047
52.0,0.0285081434994936
56.0,0.027680043131113052
60.0,0.026932012289762497
64.0,0.026253262534737587
72.0,0.024347245693206787
80.0,0.022176960483193398
88.0,0.01923394948244095
96.0,0.01853797398507595
104.0,0.017645206302404404
112.0,0.01697002351284027
120.0,0.01703435741364956
128.0,0.017250776290893555
144.0,0.015448600985109806
160.0,0.014072472229599953
176.0,0.01244356855750084
192.0,0.00991937704384327
208.0,0.009674642235040665
224.0,0.010542567819356918
240.0,0.011858074925839901
256.0,0.012544319033622742
288.0,0.01083702314645052
320.0,0.01375445257872343
352.0,0.012798551470041275
384.0,0.01131416391581297
416.0,0.006468815263360739
448.0,0.005543758161365986
480.0,0.0064010778442025185
512.0,0.003960839938372374
576.0,0.0026272055692970753
640.0,0.0026080498937517405
704.0,0.0027277087792754173
768.0,0.004406224004924297
832.0,0.0031177345663309097
896.0,0.0036226483061909676
960.0,0.0037572167348116636
1024.0,0.000834972714073956
1152.0,0.004254988860338926
1280.0,0.003883091500028968
1408.0,0.006633072625845671
1536.0,0.00604793569073081
1664.0,0.000899335544090718
1792.0,0.0008518972899764776
1920.0,-0.0027016771491616964
2048.0,0.0017058677040040493
2304.0,0.0018171536503359675
2560.0,0.0017151962965726852
2816.0,0.00032478675711899996
3072.0,-0.002001464134082198
3328.0,0.0011534163495525718
3584.0,0.004603193141520023
3840.0,0.005296092014759779
4096.0,0.0021434533409774303
4608.0,-0.0014806145336478949
5120.0,-0.004117079544812441
5632.0,-0.007429724559187889
6144.0,-0.005850932095199823
6656.0,-0.009755641222000122
7168.0,-0.007274531293660402
7680.0,-0.003106178715825081
8192.0,-0.006010910961776972
end
