version,3.0
numOfCh,1
type,point
parent_name,fe81d_1dot0-0dot1
ch_type,1_1
kcount,1
numberNandB,1
brightnessNandB,1
carpet pos,0
pc,0
Time (ms),CH1 Auto-Correlation
1.0,0.08640898764133453
2.0,0.07988248765468597
3.0,0.07428345084190369
4.0,0.0693129301071167
5.0,0.06508874893188477
6.0,0.061123888939619064
7.0,0.05757126584649086
8.0,0.05452841892838478
9.0,0.05184946209192276
10.0,0.0497322604060173
11.0,0.0477401465177536
12.0,0.04586242884397507
13.0,0.04410470649600029
14.0,0.0427384078502655
15.0,0.04119957610964775
16.0,0.039717573672533035
18.0,0.03630577400326729
20.0,0.033633291721343994
22.0,0.0313640795648098
24.0,0.029607247561216354
26.0,0.028186114504933357
28.0,0.02721581980586052
30.0,0.025577684864401817
32.0,0.023684142157435417
36.0,0.021382497623562813
40.0,0.019540978595614433
44.0,0.01855430379509926
48.0,0.01773654669523239
52.0,0.017482342198491096
56.0,0.017095061019062996
60.0,0.01651640422642231
64.0,0.015349911525845528
72.0,0.015122759155929089
80.0,0.014211696572601795
88.0,0.01424663420766592
96.0,0.012726194225251675
104.0,0.01116634439677
112.0,0.010708172805607319
120.0,0.010993443429470062
128.0,0.009828784503042698
144.0,0.006950169336050749
160.0,0.0062325564213097095
176.0,0.0064419591799378395
192.0,0.005785001907497644
208.0,0.004977044649422169
224.0,0.004406821448355913
240.0,0.003560974495485425
256.0,0.004231701605021954
288.0,0.005296866409480572
320.0,-0.0011424635304138064
352.0,-0.000636348791886121
384.0,-0.0018036713590845466
416.0,-0.00015637189790140837
448.0,0.00032244788599200547
480.0,0.003652180777862668
512.0,-0.0004143815313000232
576.0,0.0011526055168360472
640.0,-0.003979971632361412
704.0,-0.008956116624176502
768.0,-0.005233298987150192
832.0,-0.005682752002030611
896.0,-0.004679728765040636
960.0,-0.004178211092948914
1024.0,-0.0010292503284290433
1152.0,-0.004375298973172903
1280.0,-0.011271262541413307
1408.0,-0.005692404229193926
1536.0,-0.002315177582204342
1664.0,0.001216226490214467
1792.0,0.0007671125349588692
1920.0,-0.0003145855152979493
2048.0,0.0019061723724007607
2304.0,-0.0021212322171777487
2560.0,0.004095091018825769
2816.0,0.00578925758600235
3072.0,0.003275414928793907
3328.0,0.00389002519659698
3584.0,0.004718233831226826
3840.0,-0.0031403861939907074
4096.0,-0.004743680357933044
4608.0,-0.0004091851005796343
5120.0,-0.004381146747618914
5632.0,0.002402582438662648
6144.0,0.007493185810744762
6656.0,-0.002119280630722642
7168.0,-0.006929724011570215
7680.0,0.004449086729437113
8192.0,-0.0008113039075396955
end
