version,3.0
numOfCh,1
type,point
parent_name,fe81d_1dot0-0dot1
ch_type,1_1
kcount,1
numberNandB,1
brightnessNandB,1
carpet pos,0
pc,0
Time (ms),CH1 Auto-Correlation
1.0,0.09009408950805664
2.0,0.08320434391498566
3.0,0.07729173451662064
4.0,0.07199639827013016
5.0,0.06741110235452652
6.0,0.06323593109846115
7.0,0.05951392278075218
8.0,0.05623960867524147
9.0,0.05357274413108826
10.0,0.05119325965642929
11.0,0.049395207315683365
12.0,0.047637928277254105
13.0,0.045910242944955826
14.0,0.0444299690425396
15.0,0.042934563010931015
16.0,0.041548240929841995
18.0,0.038996219635009766
20.0,0.03639156371355057
22.0,0.034166119992733
24.0,0.03223423287272453
26.0,0.030429597944021225
28.0,0.029089344665408134
30.0,0.02777557261288166
32.0,0.02679317258298397
36.0,0.025648299604654312
40.0,0.023756876587867737
44.0,0.021854473277926445
48.0,0.020035812631249428
52.0,0.01823035627603531
56.0,0.016703974455595016
60.0,0.01509628351777792
64.0,0.014387639239430428
72.0,0.012703505344688892
80.0,0.011986945755779743
88.0,0.010629076510667801
96.0,0.007467271760106087
104.0,0.006074946373701096
112.0,0.00533656170591712
120.0,0.004895580466836691
128.0,0.0017483507981523871
144.0,0.0009651104337535799
160.0,0.0005158146959729493
176.0,0.00021211871353443712
192.0,0.0017985603772103786
208.0,0.004390912130475044
224.0,0.005518282297998667
240.0,0.006221973802894354
256.0,0.00797528401017189
288.0,0.009468711912631989
320.0,0.004048791714012623
352.0,0.001681755529716611
384.0,0.0009093265980482101
416.0,-0.0012492707464843988
448.0,-0.001178388250991702
480.0,0.0013657519593834877
512.0,-0.0017341653583571315
576.0,-0.0033741772640496492
640.0,0.003035155823454261
704.0,0.0060724965296685696
768.0,0.0027257008478045464
832.0,-0.00626743771135807
896.0,-0.003600295167416334
960.0,0.0010242612333968282
1024.0,0.0013952284352853894
1152.0,-0.0029235987458378077
1280.0,0.001380202709697187
1408.0,0.0016384676564484835
1536.0,-0.00048038590466603637
1664.0,0.00268025160767138
1792.0,0.0033122131135314703
1920.0,-0.0011058328673243523
2048.0,0.0028369450010359287
2304.0,-0.004944164771586657
2560.0,-0.006068114191293716
2816.0,-0.003916725981980562
3072.0,-0.00413694279268384
3328.0,0.00043409306090325117
3584.0,-0.0026698457077145576
3840.0,-0.003156003775075078
4096.0,-0.003638369496911764
4608.0,3.861719960696064e-05
5120.0,0.0017318668542429805
5632.0,0.00028748210752382874
6144.0,0.0013385163620114326
6656.0,0.006637923885136843
7168.0,0.0008547843317501247
7680.0,0.0020121040288358927
8192.0,-0.0009110287646763027
end
