version,3.0
numOfCh,1
type,point
parent_name,fe81d_1dot0-0dot1
ch_type,1_1
kcount,1
numberNandB,1
brightnessNandB,1
carpet pos,0
pc,0
Time (ms),CH1 Auto-Correlation
1.0,0.09189815819263458
2.0,0.08570854365825653
3.0,0.08022374659776688
4.0,0.07551713287830353
5.0,0.0712263286113739
6.0,0.06739921867847443
7.0,0.06411290913820267
8.0,0.06092575192451477
9.0,0.058229003101587296
10.0,0.055679213255643845
11.0,0.05331777408719063
12.0,0.05106296017765999
13.0,0.048921726644039154
14.0,0.046947918832302094
15.0,0.045091453939676285
16.0,0.04340681806206703
18.0,0.0405653677880764
20.0,0.03793686628341675
22.0,0.03571175038814545
24.0,0.03400162234902382
26.0,0.03230593726038933
28.0,0.030880598351359367
30.0,0.02966727875173092
32.0,0.028220755979418755
36.0,0.025802994146943092
40.0,0.023624252527952194
44.0,0.021603763103485107
48.0,0.020537301898002625
52.0,0.02041631005704403
56.0,0.01973895914852619
60.0,0.01923474855720997
64.0,0.019405435770750046
72.0,0.01894058659672737
80.0,0.01809334196150303
88.0,0.016914378851652145
96.0,0.017371881753206253
104.0,0.018529290333390236
112.0,0.01714983582496643
120.0,0.014286878518760204
128.0,0.011416611261665821
144.0,0.010408947244286537
160.0,0.013650115579366684
176.0,0.01495622843503952
192.0,0.012890989892184734
208.0,0.013056999072432518
224.0,0.012460755184292793
240.0,0.01111837849020958
256.0,0.010007226839661598
288.0,0.012522812001407146
320.0,0.011463944800198078
352.0,0.01317090168595314
384.0,0.014937822706997395
416.0,0.011701676994562149
448.0,0.01072992105036974
480.0,0.012013626284897327
512.0,0.010528972372412682
576.0,0.010168876498937607
640.0,0.008179054595530033
704.0,0.008700181730091572
768.0,0.008617376908659935
832.0,0.005998448468744755
896.0,0.00455793971195817
960.0,0.009102682583034039
1024.0,0.006485156714916229
1152.0,0.009652804583311081
1280.0,0.004022402223199606
1408.0,0.00933848973363638
1536.0,0.005302928388118744
1664.0,0.006852883845567703
1792.0,0.006007407326251268
1920.0,0.007841884158551693
2048.0,0.00741229485720396
2304.0,0.009150458499789238
2560.0,0.009343213401734829
2816.0,0.005260378122329712
3072.0,-0.0008535272208973765
3328.0,-0.0011044529965147376
3584.0,-0.005382837727665901
3840.0,-0.0014323779614642262
4096.0,-0.004348506685346365
4608.0,-0.004899002145975828
5120.0,-0.0015167740639299154
5632.0,-0.009214699268341064
6144.0,-0.014164389111101627
6656.0,-0.009845172055065632
7168.0,-0.009340626187622547
7680.0,-0.006679769605398178
8192.0,-0.010146675631403923
end
