version,3.0
numOfCh,1
type,point
parent_name,fe81d_1dot0-0dot1
ch_type,1_1
kcount,1
numberNandB,1
brightnessNandB,1
carpet pos,0
pc,0
Time (ms),CH1 Auto-Correlation
1.0,0.08694680780172348
2.0,0.08040657639503479
3.0,0.07470960170030594
4.0,0.06991416960954666
5.0,0.065503790974617
6.0,0.06160026416182518
7.0,0.058181826025247574
8.0,0.054924607276916504
9.0,0.05202021822333336
10.0,0.04912792146205902
11.0,0.04646843299269676
12.0,0.04419037327170372
13.0,0.04214897379279137
14.0,0.04048411175608635
15.0,0.039097193628549576
16.0,0.03774673119187355
18.0,0.034989677369594574
20.0,0.032449398189783096
22.0,0.03026212751865387
24.0,0.02825840562582016
26.0,0.026617756113409996
28.0,0.02535201981663704
30.0,0.024376150220632553
32.0,0.02381638064980507
36.0,0.02281166985630989
40.0,0.021157069131731987
44.0,0.018972249701619148
48.0,0.01680099405348301
52.0,0.01485908217728138
56.0,0.013121958822011948
60.0,0.011744683608412743
64.0,0.01138373650610447
72.0,0.011646045371890068
80.0,0.010347455739974976
88.0,0.00949536170810461
96.0,0.007889405824244022
104.0,0.005458424799144268
112.0,0.005273901857435703
120.0,0.005254711024463177
128.0,0.003939509857445955
144.0,0.004079740960150957
160.0,0.005505881272256374
176.0,0.0034706571605056524
192.0,0.001315087080001831
208.0,0.0016284408047795296
224.0,0.002285267226397991
240.0,0.0059755705296993256
256.0,0.0060872831381857395
288.0,0.0020349547266960144
320.0,0.003603980876505375
352.0,0.0033386501017957926
384.0,0.002156780567020178
416.0,0.0034339376725256443
448.0,0.006496408022940159
480.0,0.009343470446765423
512.0,0.007749489042907953
576.0,0.008331527933478355
640.0,0.005726917646825314
704.0,0.003353664418682456
768.0,0.0030811780598014593
832.0,0.0031896433793008327
896.0,0.0036772110033780336
960.0,0.007769003044813871
1024.0,0.007793904282152653
1152.0,0.0009398527326993644
1280.0,-0.0006533937994390726
1408.0,0.0002905904548242688
1536.0,0.004016280174255371
1664.0,-0.006156862247735262
1792.0,-0.0035640662536025047
1920.0,-0.006459907628595829
2048.0,-0.004276662599295378
2304.0,-0.004653465934097767
2560.0,-0.0032517642248421907
2816.0,-0.0077363173477351665
3072.0,-0.006428421940654516
3328.0,-0.004509277176111937
3584.0,-0.0027720739599317312
3840.0,-0.0006917910650372505
4096.0,-0.0026430003345012665
4608.0,0.0025228033773601055
5120.0,0.004049092065542936
5632.0,0.003950749523937702
6144.0,-0.00034796088584698737
6656.0,-0.004304388538002968
7168.0,-0.006059690844267607
7680.0,-0.005590036045759916
8192.0,-0.0015726583078503609
end
