version,3.0
numOfCh,1
type,point
parent_name,fe81d_1dot0-0dot1
ch_type,1_1
kcount,1
numberNandB,1
brightnessNandB,1
carpet pos,0
pc,0
Time (ms),CH1 Auto-Correlation
1.0,0.08671528846025467
2.0,0.07965987175703049
3.0,0.0736669972538948
4.0,0.06853260099887848
5.0,0.06385451555252075
6.0,0.05973120406270027
7.0,0.05619840696454048
8.0,0.052884478121995926
9.0,0.049943216145038605
10.0,0.04722175374627113
11.0,0.044965844601392746
12.0,0.042751751840114594
13.0,0.04067520424723625
14.0,0.03886759281158447
15.0,0.037334997206926346
16.0,0.03565504401922226
18.0,0.03274564817547798
20.0,0.030196944251656532
22.0,0.028315821662545204
24.0,0.0268138125538826
26.0,0.025636466220021248
28.0,0.024356471374630928
30.0,0.022913683205842972
32.0,0.02137165702879429
36.0,0.018780075013637543
40.0,0.015837011858820915
44.0,0.014138180762529373
48.0,0.013139895163476467
52.0,0.012553401291370392
56.0,0.012056857347488403
60.0,0.012829265557229519
64.0,0.012797532603144646
72.0,0.012140180915594101
80.0,0.011340489611029625
88.0,0.009767111390829086
96.0,0.00831601396203041
104.0,0.008417507633566856
112.0,0.007826336659491062
120.0,0.007305303122848272
128.0,0.0070851766504347324
144.0,0.006089146248996258
160.0,0.006347302813082933
176.0,0.007992662489414215
192.0,0.010066162794828415
208.0,0.00887763686478138
224.0,0.005516512785106897
240.0,0.005699027329683304
256.0,0.005351531784981489
288.0,0.008753800764679909
320.0,0.007899565622210503
352.0,0.003862513927742839
384.0,0.003148467279970646
416.0,0.0003238788340240717
448.0,-0.001614319276995957
480.0,-0.0015940489247441292
512.0,-0.0006328770541585982
576.0,-0.001796238124370575
640.0,-0.002330899704247713
704.0,-0.0003484014014247805
768.0,-0.0024239146150648594
832.0,0.000353476672898978
896.0,0.0007430464029312134
960.0,0.002481210045516491
1024.0,0.0019388266373425722
1152.0,-0.0005839341902174056
1280.0,0.00420814985409379
1408.0,0.003924511838704348
1536.0,-0.00026123784482479095
1664.0,0.0007754057296551764
1792.0,-0.0006475598202086985
1920.0,-0.0017286562360823154
2048.0,-0.004825861658900976
2304.0,-0.0026141705457121134
2560.0,-0.0036431830376386642
2816.0,-0.0017679660813882947
3072.0,-0.0034378773998469114
3328.0,-0.005733781028538942
3584.0,-0.0010076756589114666
3840.0,-0.0003781491832341999
4096.0,-0.00289787445217371
4608.0,0.000347340595908463
5120.0,-0.003237455151975155
5632.0,0.0033116873819381
6144.0,-0.0026785775553435087
6656.0,0.004164406564086676
7168.0,-0.00044373670243658125
7680.0,0.001487108413130045
8192.0,-0.0054306588135659695
end
