version,3.0
numOfCh,1
type,point
parent_name,fe81d_1dot0-0dot1
ch_type,1_1
kcount,1
numberNandB,1
brightnessNandB,1
carpet pos,0
pc,0
Time (ms),CH1 Auto-Correlation
1.0,0.08985209465026855
2.0,0.0827055349946022
3.0,0.07672657072544098
4.0,0.07165440171957016
5.0,0.06706161797046661
6.0,0.06306207180023193
7.0,0.05944948270916939
8.0,0.05652189627289772
9.0,0.054002903401851654
10.0,0.05154065415263176
11.0,0.04932798817753792
12.0,0.04716945439577103
13.0,0.04529145359992981
14.0,0.043450728058815
15.0,0.04170974716544151
16.0,0.04006823152303696
18.0,0.0371483750641346
20.0,0.03436712548136711
22.0,0.03211240470409393
24.0,0.030106380581855774
26.0,0.028274694457650185
28.0,0.026490282267332077
30.0,0.024743447080254555
32.0,0.02308492735028267
36.0,0.01986093819141388
40.0,0.0178214143961668
44.0,0.016472237184643745
48.0,0.015328885056078434
52.0,0.014481191523373127
56.0,0.01396965328603983
60.0,0.014339306391775608
64.0,0.014915598556399345
72.0,0.014605052769184113
80.0,0.013595053926110268
88.0,0.012826090678572655
96.0,0.012181181460618973
104.0,0.011229084804654121
112.0,0.010089198127388954
120.0,0.009525672532618046
128.0,0.010265251621603966
144.0,0.008457214571535587
160.0,0.006305154878646135
176.0,0.004918450955301523
192.0,0.002798997098580003
208.0,0.003081421833485365
224.0,0.003412849735468626
240.0,0.002927228342741728
256.0,0.0025158433709293604
288.0,-0.0004327384231146425
320.0,-0.0027560757007449865
352.0,-0.0010232534259557724
384.0,-0.0004386179498396814
416.0,-0.004718346055597067
448.0,-0.0033905035816133022
480.0,-0.004342273343354464
512.0,-0.006425892468541861
576.0,-0.006765961647033691
640.0,-0.006683782674372196
704.0,-0.009992358274757862
768.0,-0.008613820187747478
832.0,-0.003924187272787094
896.0,-0.0021855237428098917
960.0,0.0009972132975235581
1024.0,0.0028267093002796173
1152.0,0.007183211389929056
1280.0,0.004336468409746885
1408.0,0.0026782709173858166
1536.0,8.945790614234284e-05
1664.0,-0.003166505368426442
1792.0,-0.007990117184817791
1920.0,-0.009934375993907452
2048.0,-0.007429338060319424
2304.0,0.001632416620850563
2560.0,0.007058898452669382
2816.0,0.0026399921625852585
3072.0,-0.006724637001752853
3328.0,-6.333120109047741e-05
3584.0,0.0023423500824719667
3840.0,0.005214148201048374
4096.0,0.0006028753123246133
4608.0,-0.002579103922471404
5120.0,-5.752289871452376e-05
5632.0,-0.0003634533495642245
6144.0,-0.004404769279062748
6656.0,0.006061741150915623
7168.0,-0.001482310239225626
7680.0,-0.00021489421487785876
8192.0,-0.001697067404165864
end
