version,3.0
numOfCh,1
type,point
parent_name,fe81d_1dot0-0dot1
ch_type,1_1
kcount,1
numberNandB,1
brightnessNandB,1
carpet pos,0
pc,0
Time (ms),CH1 Auto-Correlation
1.0,0.09490229189395905
2.0,0.08791320770978928
3.0,0.08196167647838593
4.0,0.07659032940864563
5.0,0.07170859724283218
6.0,0.06751436740159988
7.0,0.06373917311429977
8.0,0.06032732501626015
9.0,0.057410940527915955
10.0,0.05461222678422928
11.0,0.05203120782971382
12.0,0.04968211427330971
13.0,0.047454286366701126
14.0,0.045618101954460144
15.0,0.043901022523641586
16.0,0.04228970780968666
18.0,0.03885946050286293
20.0,0.03520767018198967
22.0,0.03213603049516678
24.0,0.02959946170449257
26.0,0.02718994952738285
28.0,0.025044742971658707
30.0,0.023087602108716965
32.0,0.021542776376008987
36.0,0.019979821518063545
40.0,0.018278341740369797
44.0,0.01646606996655464
48.0,0.014854373410344124
52.0,0.013107494451105595
56.0,0.012105213478207588
60.0,0.011747365817427635
64.0,0.01130579598248005
72.0,0.010117846541106701
80.0,0.008596859872341156
88.0,0.0085603641346097
96.0,0.008649260737001896
104.0,0.007963845506310463
112.0,0.00832221657037735
120.0,0.0060026077553629875
128.0,0.005820755381137133
144.0,0.0059073795564472675
160.0,0.005701649468392134
176.0,0.003916573710739613
192.0,0.0019099594792351127
208.0,0.00289178267121315
224.0,0.0018500610021874309
240.0,0.0007845090585760772
256.0,0.0017164641758427024
288.0,0.003239224897697568
320.0,0.00443230802193284
352.0,0.004991443827748299
384.0,0.0031753811053931713
416.0,0.0039674886502325535
448.0,0.0004855587612837553
480.0,0.0018447659676894546
512.0,0.0010519291972741485
576.0,0.0012088785879313946
640.0,0.004352140240371227
704.0,-0.0003340452676638961
768.0,-0.0009610879933461547
832.0,0.0008881991379894316
896.0,0.002434882801026106
960.0,0.002657682867720723
1024.0,0.00465198140591383
1152.0,-0.0017380228964611888
1280.0,-0.0020960322581231594
1408.0,0.0001095350380637683
1536.0,-0.0020588450133800507
1664.0,-0.003184116445481777
1792.0,-0.003119109431281686
1920.0,-0.004600199870765209
2048.0,-0.002066823188215494
2304.0,0.0022801635786890984
2560.0,0.0013746960321441293
2816.0,0.003752228105440736
3072.0,-0.002431566594168544
3328.0,-0.003453422337770462
3584.0,0.0014868919970467687
3840.0,-0.0021366316359490156
4096.0,-0.0056639560498297215
4608.0,-0.0035956804640591145
5120.0,-0.001382578513585031
5632.0,-0.0011256919242441654
6144.0,-0.0006965777720324695
6656.0,0.0008006386924535036
7168.0,0.0027679288759827614
7680.0,0.0024166556540876627
8192.0,0.002746438141912222
end
