version,3.0
numOfCh,1
type,point
parent_name,fe81d_1dot0-0dot1
ch_type,1_1
kcount,1
numberNandB,1
brightnessNandB,1
carpet pos,0
pc,0
Time (ms),CH1 Auto-Correlation
1.0,0.08516985177993774
2.0,0.07856207340955734
3.0,0.07302387058734894
4.0,0.06778110563755035
5.0,0.06330179423093796
6.0,0.059444788843393326
7.0,0.05609561875462532
8.0,0.053082920610904694
9.0,0.050058115273714066
10.0,0.047325897961854935
11.0,0.04514050483703613
12.0,0.04314742982387543
13.0,0.04138384759426117
14.0,0.03949330747127533
15.0,0.03799407556653023
16.0,0.03643752634525299
18.0,0.033497199416160583
20.0,0.030716003850102425
22.0,0.02858477458357811
24.0,0.026626398786902428
26.0,0.025287263095378876
28.0,0.023956624791026115
30.0,0.022751186043024063
32.0,0.021275719627738
36.0,0.018811749294400215
40.0,0.016325214877724648
44.0,0.014257221482694149
48.0,0.01219369750469923
52.0,0.010973912663757801
56.0,0.010146921500563622
60.0,0.010044860653579235
64.0,0.009878705255687237
72.0,0.009449711069464684
80.0,0.009129105135798454
88.0,0.008722951635718346
96.0,0.007797887083142996
104.0,0.009260178543627262
112.0,0.009794141165912151
120.0,0.010311282239854336
128.0,0.011144852265715599
144.0,0.009447818621993065
160.0,0.008790290914475918
176.0,0.00504856975749135
192.0,0.004730964545160532
208.0,0.006753419525921345
224.0,0.0053455340676009655
240.0,0.0017580486601218581
256.0,0.00036686056409962475
288.0,-0.0022074475418776274
320.0,-0.0011766290990635753
352.0,-0.0007470601121895015
384.0,0.0013421685434877872
416.0,0.0009911239612847567
448.0,0.0017231949605047703
480.0,0.0013198080705478787
512.0,-0.0018575198482722044
576.0,-0.0008697246084921062
640.0,0.0018912950763478875
704.0,0.0010613544145599008
768.0,-0.002153238048776984
832.0,0.0009835042292252183
896.0,-0.0027435191441327333
960.0,-0.002987824147567153
1024.0,0.0030797955114394426
1152.0,0.000768497004173696
1280.0,-0.0003707346331793815
1408.0,0.0007826505461707711
1536.0,-0.0011716164881363511
1664.0,0.0007790843956172466
1792.0,0.003336817491799593
1920.0,0.008319888263940811
2048.0,0.0030660650227218866
2304.0,-0.00121078803204
2560.0,-0.003104559611529112
2816.0,-0.002606477588415146
3072.0,-0.0004899565246887505
3328.0,0.001830575754866004
3584.0,-0.0028692432679235935
3840.0,-0.002379936631768942
4096.0,-0.005030182655900717
4608.0,-0.002095428528264165
5120.0,-0.0023188809864223003
5632.0,-0.003573027905076742
6144.0,-0.0010222872951999307
6656.0,-0.0006054467521607876
7168.0,-0.0031223464757204056
7680.0,0.00022732713841833174
8192.0,0.006490081083029509
end
