version,3.0
numOfCh,1
type,point
parent_name,mod-filtering
ch_type,1_1
kcount,1
numberNandB,1
brightnessNandB,1
carpet pos,0
pc,0
Time (ms),CH1 Auto-Correlation
1.0,0.03350092945672478
2.0,0.032658452061474996
3.0,0.03197128132137084
4.0,0.031304822257173015
5.0,0.030692568288772204
6.0,0.030208832930271656
7.0,0.02958020354095492
8.0,0.02898722978087509
9.0,0.02842703059148488
10.0,0.02788082295996608
11.0,0.027437982300201336
12.0,0.027009026632554
13.0,0.02657529577008577
14.0,0.026166318595542082
15.0,0.02578640579430247
16.0,0.02539756823720407
18.0,0.024790175752523957
20.0,0.02418510442643429
22.0,0.02348880106264617
24.0,0.02279408596368282
26.0,0.022139770657188862
28.0,0.021493150971155783
30.0,0.02085955489528102
32.0,0.020217462348628645
36.0,0.018943474542062022
40.0,0.017781175550240835
44.0,0.01662372902550935
48.0,0.015713634712612334
52.0,0.014851759362975336
56.0,0.013890231731483293
60.0,0.012996633383135059
64.0,0.012092517144044912
72.0,0.010323859625812837
80.0,0.008819888056413872
88.0,0.007714601095689666
96.0,0.007067483922479578
104.0,0.006874428445596603
112.0,0.006631623219467198
120.0,0.006419435578483457
128.0,0.006054533286615094
144.0,0.0050771673078682245
160.0,0.004025804878729167
176.0,0.0028364587167990507
192.0,0.0014270132981160089
208.0,0.0005504096502058076
224.0,-0.000484177160118171
240.0,-0.0012552820722407931
256.0,-0.001982427108902951
288.0,-0.002265868965484641
320.0,-0.0032573370743281815
352.0,-0.004614037265592064
384.0,-0.00603480905409437
416.0,-0.0076529261736845156
448.0,-0.009910472427747341
480.0,-0.012034197066531749
512.0,-0.013218627125269111
576.0,-0.012689410374754462
640.0,-0.009750483972502666
704.0,-0.006742163174721649
768.0,-0.008387701147223647
832.0,-0.008829808837381936
896.0,-0.004965849856824467
960.0,-0.00219423507535077
1024.0,-0.003337730090068547
1152.0,-0.006785005561389834
1280.0,-0.0064863072561621715
1408.0,-0.008755080023499562
1536.0,-0.012023620263347912
1664.0,-0.005749137200728227
1792.0,-0.004855273643019742
1920.0,-0.004169213291396079
2048.0,-0.0003613390518079074
2304.0,0.002259823504102254
2560.0,0.004567648360724208
2816.0,0.0022881758117188067
3072.0,0.005309957856621805
3328.0,0.007195922098851559
3584.0,-0.0015272230667602305
3840.0,-0.005217373383168078
4096.0,-0.008547397913413635
4608.0,0.0020442235480033766
5120.0,0.004374668906456547
5632.0,0.0036204501160002067
6144.0,-0.0037989194540218874
6656.0,-0.0029389817383224104
7168.0,-0.0052982361908566755
7680.0,-0.010695469543806069
8192.0,0.00945788150483362
9216.0,0.015161008562269096
10240.0,0.00981771512409857
11264.0,0.01249565395834229
12288.0,-0.03897321983986257
13312.0,0.018423480005375525
14336.0,0.05181709143436275
end
