version,3.0
numOfCh,1
type,point
parent_name,mod-filtering
ch_type,1_1
kcount,1
numberNandB,1
brightnessNandB,1
carpet pos,0
pc,0
Time (ms),CH1 Auto-Correlation
1.0,0.0631717811437158
2.0,0.059095154355823576
3.0,0.05597570582296285
4.0,0.053555171092765086
5.0,0.05113488417005185
6.0,0.048916294810738004
7.0,0.046864494788882105
8.0,0.04521572193276491
9.0,0.043461312143389996
10.0,0.0423636325292418
11.0,0.040721982719085226
12.0,0.038736000972162454
13.0,0.03705847480899793
14.0,0.035522848206222424
15.0,0.03468868070083975
16.0,0.033337656547118844
18.0,0.03098697958331309
20.0,0.029487066231870473
22.0,0.02700752320596922
24.0,0.024615327555173483
26.0,0.02246664143378796
28.0,0.020325490488283693
30.0,0.018891309027922576
32.0,0.017655485527785952
36.0,0.014802793664464131
40.0,0.012362775133790027
44.0,0.010923835030345774
48.0,0.010625531563712487
52.0,0.0103051802481815
56.0,0.009809883045526435
60.0,0.00905273485055691
64.0,0.008944526107517392
72.0,0.008669884257709315
80.0,0.009362304554171086
88.0,0.00906049220074756
96.0,0.007878795124262483
104.0,0.0071855652281063165
112.0,0.006626574497346827
120.0,0.004589254919207919
128.0,0.0027198190421717783
144.0,0.0004754268351390145
160.0,-0.001971774582931185
176.0,-0.0023360757523323006
192.0,-0.0009286624811418731
208.0,-0.0027350744254323045
224.0,-0.0037797402710290084
240.0,-0.005761616006894843
256.0,-0.007813967299577507
288.0,-0.014645881533656313
320.0,-0.021748762676568334
352.0,-0.021700618437832553
384.0,-0.01846462495312373
416.0,-0.012174944718480796
448.0,-0.010428703446506593
480.0,-0.01009567799615263
512.0,-0.011523970998817745
576.0,-0.010160440798689607
640.0,-0.004365621404757047
704.0,-0.008423219198909204
768.0,-0.012693765357656428
832.0,-0.01227725026009463
896.0,-0.007667488060772554
960.0,-0.007219650022591062
1024.0,-0.0024069272144813247
1152.0,0.0019841818034722625
1280.0,0.01036298990344564
1408.0,0.004794500467601548
1536.0,-0.0018849583938090886
1664.0,0.001970082111047322
1792.0,0.012237456797933755
1920.0,0.012634113972532335
2048.0,-0.004112183307618089
2304.0,-0.0036221577744111055
2560.0,0.002398896418588148
2816.0,-0.008336051621025464
3072.0,-0.0025690541694762814
3328.0,0.012948782013129989
3584.0,0.027751175888941715
3840.0,0.022226999633646383
4096.0,0.01585465961222776
4608.0,0.01713550537677344
5120.0,0.004811308315099128
5632.0,-0.012868918970520782
6144.0,-0.009641756349372699
6656.0,-0.007878790644980427
7168.0,-0.010834379475677225
7680.0,0.013875973290891741
8192.0,0.03384909169001449
9216.0,-0.013126924534631046
10240.0,-0.008932399408738356
11264.0,-0.019516301004818715
12288.0,-0.0155003782746157
13312.0,-0.019525985451219863
14336.0,0.004736231187054685
end
