version,3.0
numOfCh,1
type,point
parent_name,mod-filtering
ch_type,1_1
kcount,1
numberNandB,1
brightnessNandB,1
carpet pos,0
pc,0
Time (ms),CH1 Auto-Correlation
1.0,0.031880764651996296
2.0,0.0313349838465129
3.0,0.030729530064782073
4.0,0.030154973536806073
5.0,0.029534484536547057
6.0,0.029023750557237493
7.0,0.028517053052074637
8.0,0.02800493783989455
9.0,0.02754494152446263
10.0,0.027062059385457138
11.0,0.026627490773823315
12.0,0.026187453603915056
13.0,0.025809437154668435
14.0,0.02546371802774794
15.0,0.02509440342744118
16.0,0.02473694102922286
18.0,0.024024519455504212
20.0,0.02336826702428385
22.0,0.022776101757584266
24.0,0.02217558618462001
26.0,0.0215431206150436
28.0,0.020983543980986896
30.0,0.020370414630948463
32.0,0.019828356737501718
36.0,0.0188779798232952
40.0,0.01788288876915045
44.0,0.01696960668225156
48.0,0.01613451824023171
52.0,0.015443693135532621
56.0,0.01489657497759933
60.0,0.01441898421102561
64.0,0.013997018915070214
72.0,0.013127428317371015
80.0,0.01243953787011498
88.0,0.011767802471726485
96.0,0.010913815346519806
104.0,0.01020124015038415
112.0,0.009562257631655857
120.0,0.008775322340559777
128.0,0.007975778741330819
144.0,0.006225385998381405
160.0,0.0049672808781200395
176.0,0.003501514340907619
192.0,0.0027073313014136513
208.0,0.0020545736043902085
224.0,0.0020005620657643775
240.0,0.0021292900691092242
256.0,0.0017862693376167194
288.0,0.001422332182755115
320.0,0.0022045053486179356
352.0,0.0032218915517610025
384.0,0.004356094771213348
416.0,0.0052393621349935415
448.0,0.005654580361299288
480.0,0.0061285234729906435
512.0,0.006372677892255929
576.0,0.004620500203878608
640.0,0.00378766189450519
704.0,0.0036132485262199143
768.0,0.0005156353340345365
832.0,-0.0018289191987824749
896.0,-0.0015009570321292687
960.0,-0.0004035985959311983
1024.0,-0.0004218080485013376
1152.0,0.0003790813674877658
1280.0,0.0010305195071484974
1408.0,0.002468568429843776
1536.0,0.0036603217422574996
1664.0,0.00028993458400905503
1792.0,0.0022892352978542974
1920.0,0.0011513056132148591
2048.0,-0.0015713152791265728
2304.0,-0.0009439188200943693
2560.0,-0.006296528992506545
2816.0,-0.00491216455376442
3072.0,-0.001234041849664358
3328.0,-0.002569139370524276
3584.0,-0.006849555594379941
3840.0,-0.004465307035658284
4096.0,-0.0076915682186100565
4608.0,0.0019027166922005456
5120.0,0.0028070517349689794
5632.0,-0.007990754786902032
6144.0,0.0005348804070410829
6656.0,0.0027673869325413047
7168.0,-0.0019361722146500338
7680.0,0.010134070087744584
8192.0,0.009772976556424284
9216.0,0.004172751407227615
10240.0,-0.008579151099590177
11264.0,-0.0030604441355094325
12288.0,-0.005540749207724516
13312.0,0.002900626794544836
14336.0,0.002205956739703696
end
