version,3.0
numOfCh,1
type,point
parent_name,mod-filtering
ch_type,1_1
kcount,1
numberNandB,1
brightnessNandB,1
carpet pos,0
pc,0
Time (ms),CH1 Auto-Correlation
1.0,0.06903499986872164
2.0,0.06646656191886091
3.0,0.06385830741712017
4.0,0.06203393513282074
5.0,0.060398603595582134
6.0,0.058417197566178025
7.0,0.05676289288592695
8.0,0.05493581207396514
9.0,0.053421141372402836
10.0,0.05206865384081061
11.0,0.05045300715486034
12.0,0.04927795111790334
13.0,0.04789505222724966
14.0,0.04678972916037627
15.0,0.04559481263812315
16.0,0.044212912600499976
18.0,0.042031079508628055
20.0,0.03935988971091198
22.0,0.037159093970800194
24.0,0.035324074533604755
26.0,0.033755697871203916
28.0,0.03145652844333702
30.0,0.030436288115723853
32.0,0.02918982100167522
36.0,0.02578941283820746
40.0,0.023415442813263132
44.0,0.021981497291468033
48.0,0.020814187749722546
52.0,0.019925377875700034
56.0,0.018839575220084948
60.0,0.01774638036656717
64.0,0.017057504725125128
72.0,0.017110833319759378
80.0,0.016099610579792145
88.0,0.01569979871574345
96.0,0.01555683281744602
104.0,0.01615248238480893
112.0,0.016051965064684426
120.0,0.014514966211521818
128.0,0.012050208725342237
144.0,0.009608911919432916
160.0,0.008581142683310228
176.0,0.008537926600458823
192.0,0.009049407419898126
208.0,0.009549815466796785
224.0,0.009885991142217776
240.0,0.007451149844214688
256.0,0.004997047713692915
288.0,0.0035954938954674276
320.0,0.0020646349180624135
352.0,-0.0023638532920665645
384.0,-0.008406452026900268
416.0,-0.00583511116190194
448.0,-0.004502051564743259
480.0,-0.007674650786324566
512.0,-0.009856953581687478
576.0,-0.005149457906209909
640.0,0.001098571420804273
704.0,0.009419489709157514
768.0,0.012014689758312436
832.0,0.016880665195068145
896.0,0.013653094129141286
960.0,0.018153545309247843
1024.0,0.02288000081047592
1152.0,0.01404248711856737
1280.0,0.005294006741600965
1408.0,0.0004446048314066253
1536.0,0.009871396872413785
1664.0,0.020722766759063482
1792.0,-0.004697429795285868
1920.0,-0.017160134820858097
2048.0,-0.01821184427252387
2304.0,-0.030171075415281412
2560.0,-0.028557058240205158
2816.0,-0.03271456120032845
3072.0,-0.03442595029661588
3328.0,-0.025392697564369238
3584.0,-0.007827558654950884
3840.0,-0.002289328072161645
4096.0,0.0007865292135613711
4608.0,0.001616015656259684
5120.0,0.011900188122319522
5632.0,0.01981378332806094
6144.0,0.016197381515889342
6656.0,0.01037353676384023
7168.0,-0.008348918235450475
7680.0,-0.017467180310918873
8192.0,-0.02897764584570084
9216.0,-0.01152342936923223
10240.0,0.013753233064405679
11264.0,0.024407634127636024
12288.0,0.041679510178356693
13312.0,-0.015540793727742974
14336.0,0.024209305822437743
end
