version,3.0
numOfCh,1
type,point
parent_name,mod-filtering
ch_type,1_1
kcount,1
numberNandB,1
brightnessNandB,1
carpet pos,0
pc,0
Time (ms),CH1 Auto-Correlation
1.0,0.04905953512559136
2.0,0.04690487879920524
3.0,0.04544411886218458
4.0,0.0438308080679799
5.0,0.042866588390237714
6.0,0.04144513508581671
7.0,0.04024304352523478
8.0,0.03879552839479805
9.0,0.03783187779984032
10.0,0.03671141738674111
11.0,0.03520482673706504
12.0,0.03438222966029114
13.0,0.03340557554373458
14.0,0.03248184951788424
15.0,0.031557904691894345
16.0,0.03039893498572388
18.0,0.029510425074655844
20.0,0.02873549443671286
22.0,0.02775998726973028
24.0,0.026801288700770476
26.0,0.02601932389296069
28.0,0.025352048253133086
30.0,0.02490923148717239
32.0,0.02452673605611766
36.0,0.023085416249628343
40.0,0.021753532633617123
44.0,0.020576682355247344
48.0,0.019814111893723618
52.0,0.019823663160786653
56.0,0.019658764696464992
60.0,0.01889352663977739
64.0,0.018205722541053015
72.0,0.016645380780072383
80.0,0.015532468359088725
88.0,0.014205463085042558
96.0,0.01231732920015527
104.0,0.01085215571027165
112.0,0.010772722084343433
120.0,0.011015972557561371
128.0,0.01142947065095834
144.0,0.012602366904371998
160.0,0.011109981716751038
176.0,0.00933470923215629
192.0,0.006869662331653981
208.0,0.0057791555732884525
224.0,0.007269651722051407
240.0,0.005170676686649056
256.0,0.0005072397765513159
288.0,-0.0018473320918491742
320.0,-0.0016508762878818528
352.0,-0.0034673938718570163
384.0,-0.002031755331793228
416.0,-0.0035882280611346795
448.0,-0.0013376588623857932
480.0,0.0008256583661867545
512.0,-0.004141825725073489
576.0,0.0007617480922355035
640.0,-0.002485172183898654
704.0,-0.00972516325775008
768.0,-0.006698276439239481
832.0,0.010440626296734923
896.0,0.020768640243115977
960.0,0.01505944339983012
1024.0,0.0016279972273942622
1152.0,-0.016172399265997006
1280.0,-0.013394987919255086
1408.0,-0.015413904605932505
1536.0,-0.03879532780675832
1664.0,-0.030647567572163137
1792.0,0.005140906677367552
1920.0,0.011202214380527487
2048.0,0.013897480888346747
2304.0,0.015518542318446293
2560.0,0.01098346603126732
2816.0,0.030943661879902606
3072.0,0.030546808900542288
3328.0,0.022356098830889293
3584.0,0.0229656597618475
3840.0,0.021201506549233695
4096.0,0.0051312683611701715
4608.0,0.01665398477097879
5120.0,0.012449288301566996
5632.0,0.0009234042814720844
6144.0,-0.02192124093936243
6656.0,-0.020536242937622906
7168.0,-0.012249407049787053
7680.0,0.002400378926450175
8192.0,-0.01248029176793164
9216.0,-0.03545330976252481
10240.0,0.010318436615899262
11264.0,0.009885819480853986
12288.0,-0.008295344009802585
13312.0,-0.02822206997655996
14336.0,-0.02573009845659502
end
