version,3.0
numOfCh,1
type,point
parent_name,mod-filtering
ch_type,1_1
kcount,1
numberNandB,1
brightnessNandB,1
carpet pos,0
pc,0
Time (ms),CH1 Auto-Correlation
1.0,0.017659360186964124
2.0,0.01742252867797256
3.0,0.017230550233873876
4.0,0.017177216969359366
5.0,0.01676509036435858
6.0,0.016488689235680587
7.0,0.016174783755533273
8.0,0.01612794330121714
9.0,0.01591753739997892
10.0,0.015731599092627224
11.0,0.01566082335534902
12.0,0.015668247061943363
13.0,0.015658933485463322
14.0,0.015575235151836564
15.0,0.015372815054603306
16.0,0.015143072409363967
18.0,0.014778191504488447
20.0,0.014413278034688837
22.0,0.013910448104023754
24.0,0.013622896928930484
26.0,0.013386370672016756
28.0,0.012999253054535531
30.0,0.01264421315148323
32.0,0.01233428517566204
36.0,0.01176585784606754
40.0,0.01125907102655943
44.0,0.010629605410367393
48.0,0.00989514064635344
52.0,0.009741966813440639
56.0,0.008807586927555233
60.0,0.007955233465155143
64.0,0.007097660063249522
72.0,0.005872831218935781
80.0,0.004997165097357703
88.0,0.004165279133306221
96.0,0.0038448539688473726
104.0,0.0031888659895664695
112.0,0.0024265662743219174
120.0,0.0021302868622863347
128.0,0.0024823288405355637
144.0,0.002442289505672157
160.0,0.0021650825551884356
176.0,0.0015739192802868285
192.0,0.0010674760676117057
208.0,0.0005707492081215015
224.0,0.0005097022323574674
240.0,0.0006378568247713545
256.0,0.0007738334403961655
288.0,0.002328666865027307
320.0,0.0026565799912325883
352.0,0.002436973030480516
384.0,0.0015795983705675365
416.0,0.003799321688894297
448.0,0.005306190292806656
480.0,0.004540771270145738
512.0,0.0030940328939306205
576.0,-0.00018168410846675087
640.0,0.0009697658363427841
704.0,0.0022221982658652273
768.0,0.001244411077371943
832.0,0.0037720373988352485
896.0,0.003924323679169728
960.0,0.003650090679783613
1024.0,0.003956528317740515
1152.0,-0.0009174161422401683
1280.0,-0.0008024122980163639
1408.0,0.00040769096414483563
1536.0,-0.0002826104079780567
1664.0,0.002391117677442045
1792.0,0.0017597703654030905
1920.0,-0.00035352543542466197
2048.0,-0.0022520239557083377
2304.0,0.0010087932573485947
2560.0,-0.002665597707987133
2816.0,-0.0015202884203169287
3072.0,-0.0011373762017294897
3328.0,-0.000643260516632993
3584.0,-0.003155452306352835
3840.0,0.0015407917237666435
4096.0,-0.002537413143340994
4608.0,-0.0029226891612972317
5120.0,-0.0012482640213790086
5632.0,-0.0029494045576525796
6144.0,-0.00030506880682401594
6656.0,0.001092562926557239
7168.0,5.7622857294381546e-05
7680.0,0.0012461226377560308
8192.0,0.0010127820997722914
9216.0,0.0013570026496445564
10240.0,0.002395538772957284
11264.0,-0.0010016080435454322
12288.0,-0.0001965095274969464
13312.0,-0.005452116814353758
14336.0,-0.004735450909059691
end
