version,3.0
numOfCh,1
type,point
parent_name,mod-filtering
ch_type,1_1
kcount,1
numberNandB,1
brightnessNandB,1
carpet pos,0
pc,0
Time (ms),CH1 Auto-Correlation
1.0,0.03975752915397912
2.0,0.039156784811910095
3.0,0.03856743673419882
4.0,0.038004453966753005
5.0,0.037450161805618
6.0,0.0369144453030017
7.0,0.0363926566679067
8.0,0.03589060687085843
9.0,0.0354092393982417
10.0,0.03494416167276038
11.0,0.034491935935520246
12.0,0.034060548467585994
13.0,0.033640238905629616
14.0,0.033225207984026284
15.0,0.03281080841016637
16.0,0.03240660012591934
18.0,0.03165969665516766
20.0,0.03093323142174298
22.0,0.030233916899109037
24.0,0.02956803353041071
26.0,0.028926479061497812
28.0,0.02835281823306013
30.0,0.027845937698588674
32.0,0.027354488859743675
36.0,0.026353913767719117
40.0,0.025383825794717874
44.0,0.024493770020364902
48.0,0.023618705623763336
52.0,0.022794839444494785
56.0,0.02211425618386209
60.0,0.021412139517088757
64.0,0.020623449478187172
72.0,0.01918900482779118
80.0,0.018014380825977172
88.0,0.0169416311538515
96.0,0.0159890517480199
104.0,0.015220471628805798
112.0,0.014615485272387208
120.0,0.014202145309105019
128.0,0.013755878422307966
144.0,0.01260123967784832
160.0,0.011341714154419424
176.0,0.0103881228173488
192.0,0.009829381793937886
208.0,0.009443523213976901
224.0,0.009736311886731963
240.0,0.009775797692392674
256.0,0.008924529334088938
288.0,0.00729562232265879
320.0,0.0059350219693057316
352.0,0.003961721419948994
384.0,0.0034209017996289504
416.0,0.002714572837965834
448.0,0.0023400710932193203
480.0,0.0019933112128804886
512.0,0.001600340725746996
576.0,-0.0006864452417681965
640.0,-0.0019822401300495507
704.0,-0.002849207071308313
768.0,-0.001194617415601451
832.0,-0.0015987501855174724
896.0,-0.0025621749294879592
960.0,-0.0019784386579065893
1024.0,1.3973227388053289e-05
1152.0,-0.000741103667437959
1280.0,-0.00033736908802239896
1408.0,-0.00033076581319546605
1536.0,0.0008758690257000268
1664.0,0.0021467613712198297
1792.0,0.006186698878743346
1920.0,0.007783876543406398
2048.0,0.0037327123314538913
2304.0,-0.0010974728894467267
2560.0,-0.0059009052082519275
2816.0,-0.00641989157904832
3072.0,-0.00427212098119345
3328.0,-0.0026476104154827818
3584.0,0.0019653792297531503
3840.0,0.003076715904268834
4096.0,0.0014962399097988577
4608.0,-0.003136767410419128
5120.0,0.0018338479047212974
5632.0,-0.0004995942127316022
6144.0,0.003252788069329826
6656.0,0.0010525597461734648
7168.0,0.0027223444617479053
7680.0,-0.004014517439787535
8192.0,-0.003060814578048854
9216.0,-0.0052996901895010495
10240.0,-0.0011212136272595874
11264.0,0.002166235425464569
12288.0,-0.0015153298003400817
13312.0,-0.00636448651207
14336.0,0.002625630106472876
end
