version,3.0
numOfCh,1
type,point
parent_name,mod-filtering
ch_type,1_1
kcount,1
numberNandB,1
brightnessNandB,1
carpet pos,0
pc,0
Time (ms),CH1 Auto-Correlation
1.0,0.021103215276996545
2.0,0.02084064682630382
3.0,0.020743969307276622
4.0,0.020522995335966687
5.0,0.020304859152190824
6.0,0.020049126667469608
7.0,0.019877598548998954
8.0,0.019734978722439456
9.0,0.019427168591496846
10.0,0.01920006318158518
11.0,0.018928302843363776
12.0,0.018696581755584418
13.0,0.01845105641224376
14.0,0.018290584736862403
15.0,0.018058590375244155
16.0,0.017847701353908896
18.0,0.01739862938432113
20.0,0.016961046055876894
22.0,0.01670157623936608
24.0,0.01647750142089821
26.0,0.016161465124552743
28.0,0.015931436120867115
30.0,0.015747212528425703
32.0,0.015564460047916784
36.0,0.015251086896318933
40.0,0.01475582559068922
44.0,0.014298011494257246
48.0,0.014193120213585875
52.0,0.014120147783764025
56.0,0.013971744157751598
60.0,0.013848688951217714
64.0,0.013760579702323028
72.0,0.013440894769712886
80.0,0.013348575466257007
88.0,0.013414507171338075
96.0,0.013135968721557534
104.0,0.012657788626701638
112.0,0.012062221305009668
120.0,0.011714511168847697
128.0,0.011442827447477155
144.0,0.010870171143982477
160.0,0.010026963290429736
176.0,0.00969244525315549
192.0,0.009141237056170537
208.0,0.009096682808901635
224.0,0.010530196212290566
240.0,0.011952562551484691
256.0,0.012735142466437255
288.0,0.012230239009581423
320.0,0.009688099548921025
352.0,0.0075764665595605685
384.0,0.005997796236135056
416.0,0.005257100305653184
448.0,0.006066277102862783
480.0,0.006926611964483076
512.0,0.005903536506070006
576.0,0.006925743643152904
640.0,0.006243295209179545
704.0,0.006233913270754732
768.0,0.0036851228063146113
832.0,0.00408114661680381
896.0,0.004486497564402114
960.0,0.004709060258155651
1024.0,0.004244609960436296
1152.0,0.002097048326561657
1280.0,2.94133735057045e-05
1408.0,-0.0019231212726666946
1536.0,-0.0004844359100021345
1664.0,-0.0030733680973086264
1792.0,-0.003967841439721287
1920.0,-0.005251744572692285
2048.0,-0.005754725454617193
2304.0,-0.005081269071822048
2560.0,-0.004517774818852738
2816.0,-0.0021991055389187775
3072.0,-0.0007044287726384324
3328.0,0.00126724331588135
3584.0,0.0012994943632853584
3840.0,0.00198360930577568
4096.0,0.0006212698744063605
4608.0,-0.0021286371782275326
5120.0,-0.004345598868756517
5632.0,-0.008314549386019499
6144.0,-0.005368322221285249
6656.0,-0.0012093562039177108
7168.0,-0.00017304007238683194
7680.0,0.005782299897119536
8192.0,0.008051295664885716
9216.0,0.004723482731180617
10240.0,0.0029546038300860555
11264.0,0.00131718670293135
12288.0,-0.003171966982941865
13312.0,-0.014488701614647437
14336.0,-0.005049024201008057
end
