version,3.0
numOfCh,1
type,point
parent_name,mod-filtering
ch_type,1_1
kcount,1
numberNandB,1
brightnessNandB,1
carpet pos,0
pc,0
Time (ms),CH1 Auto-Correlation
1.0,0.021547993453219005
2.0,0.02035488854488965
3.0,0.019713243962210747
4.0,0.019076744371629983
5.0,0.018387995218940745
6.0,0.017932418115404358
7.0,0.017492335821337912
8.0,0.01723192350938585
9.0,0.01674824094451477
10.0,0.016381802618374408
11.0,0.015796429154282254
12.0,0.01522667854249038
13.0,0.014982953127276488
14.0,0.014746067110922967
15.0,0.014548332055506652
16.0,0.014289022273201946
18.0,0.013911438931370812
20.0,0.013370978129428668
22.0,0.012842966373499465
24.0,0.012221100479778979
26.0,0.011732287588134716
28.0,0.011432444977431011
30.0,0.011137787302461843
32.0,0.010688145020111506
36.0,0.009847826199556264
40.0,0.009017337174805906
44.0,0.008103019059108485
48.0,0.007547541683131209
52.0,0.006959920297178179
56.0,0.0064083238392182995
60.0,0.006078361580417191
64.0,0.0058794568087250365
72.0,0.0053959264129503914
80.0,0.004739241243791881
88.0,0.004092092104870382
96.0,0.003377470492622159
104.0,0.0029965669688796215
112.0,0.0017630882296686412
120.0,0.001159603651880614
128.0,0.0012480537062156127
144.0,0.0007096660662371246
160.0,-0.0001927838707579399
176.0,0.00043505751018568795
192.0,0.0013931968107452342
208.0,0.0024326515082488953
224.0,0.0027107892713544857
240.0,0.0023410732505835252
256.0,0.0022208502838205746
288.0,-0.0002721997268196885
320.0,-0.0022036508535241417
352.0,-0.005120757860618275
384.0,-0.004641951585310111
416.0,-0.002180989932512478
448.0,-2.1242519079534006e-05
480.0,0.0017344383792221585
512.0,-0.0010222075054800994
576.0,-0.0039347394310059736
640.0,-0.00614691399458156
704.0,-0.003667956395709271
768.0,-0.00012118150220108426
832.0,0.0009453373989058989
896.0,0.0023305593382896284
960.0,0.003897467910107144
1024.0,0.004220928554602432
1152.0,0.0006523806338707416
1280.0,0.005144195540165208
1408.0,0.002410389277247571
1536.0,-0.0010265938627105342
1664.0,-0.001145467267754885
1792.0,0.0016228776941435985
1920.0,0.004065578638469125
2048.0,0.005680643730835211
2304.0,0.006414525693577033
2560.0,0.007757991230861849
2816.0,0.007973408405379745
3072.0,0.001019946955464368
3328.0,0.0026600249934523035
3584.0,-0.0014385510986061334
3840.0,-0.003019113498064163
4096.0,-0.006903167136421584
4608.0,-0.005866864756785106
5120.0,-0.0075645112109314905
5632.0,-0.0027347588268903378
6144.0,0.003430375309426692
6656.0,0.0004015726475770087
7168.0,0.002694328734272
7680.0,-0.001542248514196598
8192.0,-0.0014119563062099383
9216.0,-0.0027306359062133634
10240.0,-0.0011312131428390382
11264.0,-0.0007893710522268726
12288.0,-0.0040516743657751375
13312.0,0.000752628712209269
14336.0,0.00346898767388204
end
