version,3.0
numOfCh,1
type,point
parent_name,mod-filtering
ch_type,1_1
kcount,1
numberNandB,1
brightnessNandB,1
carpet pos,0
pc,0
Time (ms),CH1 Auto-Correlation
1.0,0.031071902641337523
2.0,0.030380066793814997
3.0,0.029819909201454387
4.0,0.029409316216643333
5.0,0.02899392092946429
6.0,0.028553031349617175
7.0,0.028257574121209883
8.0,0.02752572473909387
9.0,0.02695605548663993
10.0,0.026644229304756406
11.0,0.02635830708111242
12.0,0.0258511647600419
13.0,0.02539068378147591
14.0,0.024981748811367943
15.0,0.02483038741290411
16.0,0.0244323047295385
18.0,0.023816529856546254
20.0,0.023011624373419304
22.0,0.02200594532696365
24.0,0.021317268153490998
26.0,0.020716916275481667
28.0,0.020063252901461492
30.0,0.019461497882349743
32.0,0.018916392976267682
36.0,0.017639559959616635
40.0,0.01636523184457417
44.0,0.015350150014381336
48.0,0.01443918763360097
52.0,0.0136150419073362
56.0,0.012655589579958715
60.0,0.01176122721212236
64.0,0.010991517907190662
72.0,0.009584540592392665
80.0,0.008293458159675415
88.0,0.006994107172499486
96.0,0.005729289816545746
104.0,0.0042826010376959545
112.0,0.003034445715173417
120.0,0.0015847553890355748
128.0,0.0004216668897258913
144.0,-0.0009640788333117323
160.0,-0.0012888334903250476
176.0,-0.0014964261373905385
192.0,-0.0021614877298454793
208.0,-0.003206606569546633
224.0,-0.003572364787016724
240.0,-0.0034926050812875697
256.0,-0.0030937133125846783
288.0,-0.0019089982791842264
320.0,-0.0023284406778503186
352.0,-1.3049259576902728e-05
384.0,0.003859720237580744
416.0,0.005432895664069015
448.0,0.006269063939880137
480.0,0.006003874845493362
512.0,0.004765657412557633
576.0,9.63520256336281e-06
640.0,-0.0015129941662881397
704.0,0.0040555010374003775
768.0,0.006428110226140538
832.0,0.005917444276646977
896.0,0.004291102637646649
960.0,0.005404388982532815
1024.0,0.005912145218884612
1152.0,0.010131607432979584
1280.0,0.010557330638614637
1408.0,0.01016814037851188
1536.0,0.009937049770857298
1664.0,0.011806985773818557
1792.0,0.01142410949596595
1920.0,0.012527653696973617
2048.0,0.021601278833682347
2304.0,0.017595940422338252
2560.0,0.008820017921552736
2816.0,0.0038052450107761704
3072.0,0.0007487708193707476
3328.0,-0.0035220818115158092
3584.0,-0.00736963361618459
3840.0,-0.014397315131308819
4096.0,-0.022752744533454772
4608.0,-0.029759047506148772
5120.0,-0.018087609286581263
5632.0,-0.011029861198332602
6144.0,-0.022540583652534862
6656.0,-0.020633590243386513
7168.0,-0.009851350620640575
7680.0,0.00965014567606004
8192.0,0.02661738540901082
9216.0,0.04635899741437788
10240.0,0.006770442836331769
11264.0,4.8153909566694963e-05
12288.0,-0.009935333081677378
13312.0,0.010933994403007574
14336.0,-0.037560365491367986
end
