version,3.0
numOfCh,1
type,point
parent_name,mod-filtering
ch_type,1_1
kcount,1
numberNandB,1
brightnessNandB,1
carpet pos,0
pc,0
Time (ms),CH1 Auto-Correlation
1.0,0.05650916247949156
2.0,0.05166141520664125
3.0,0.047864447201305005
4.0,0.04525032536713036
5.0,0.0422262593286582
6.0,0.03946794023243161
7.0,0.037263319411628304
8.0,0.03429946331979172
9.0,0.03161309597786177
10.0,0.030170077006618667
11.0,0.02844500706132025
12.0,0.026595422594766438
13.0,0.025072207435459015
14.0,0.023873576612897907
15.0,0.02269897147397626
16.0,0.021595408752978384
18.0,0.01825675574029262
20.0,0.016007040213267043
22.0,0.013457992248434802
24.0,0.012254858822934978
26.0,0.010433605879415664
28.0,0.00897778096076629
30.0,0.008242343630074922
32.0,0.007159852164504654
36.0,0.00568720662845168
40.0,0.0049119197694471595
44.0,0.0021886192646807245
48.0,0.00017564809873404919
52.0,0.00022251542992601792
56.0,-0.0001993281821141002
60.0,-0.0010730931738360816
64.0,-0.0015289120971783143
72.0,-0.0018941093317624835
80.0,-0.0027978309134886192
88.0,-0.0035728288812102438
96.0,-0.0045276442220731905
104.0,-0.003948398991057811
112.0,-0.005236513397943732
120.0,-0.0029991889592845267
128.0,-0.003016913789050002
144.0,-0.006410745707794763
160.0,-0.0066779882052216966
176.0,-0.007540342037072323
192.0,-0.006995132265378734
208.0,-0.006604316377778585
224.0,-0.007577910262395515
240.0,-0.009771759755048182
256.0,-0.00999878470077864
288.0,-0.0038442647740217772
320.0,0.002968591489627581
352.0,0.005464059244862263
384.0,0.0030799531622638376
416.0,-0.0031428790300482845
448.0,-0.006153521695782316
480.0,-0.007881477756695787
512.0,-0.004990332668203368
576.0,-0.010647892479652366
640.0,-0.011710295982419794
704.0,-0.014957607830968556
768.0,-0.01506464073794933
832.0,-0.009958952422865264
896.0,-0.004748888506775462
960.0,-0.00214013297423854
1024.0,-0.004428247096483151
1152.0,-0.0055902746581968366
1280.0,-0.0006384431623396303
1408.0,-0.006937630763935609
1536.0,0.002170468698219352
1664.0,0.0012238037320482231
1792.0,0.01755733760057021
1920.0,0.031973486860017886
2048.0,0.02696480959495129
2304.0,0.010636199984031203
2560.0,0.004324464776273462
2816.0,0.0004904509786241018
3072.0,-0.0024384779199455586
3328.0,0.0011328353041408779
3584.0,0.005266862204901912
3840.0,0.0029371015850341298
4096.0,0.006114241325885006
4608.0,0.011275503448335833
5120.0,0.0066711376200374595
5632.0,-0.015336732497765349
6144.0,-0.04249723484480239
6656.0,-0.009539570808394293
7168.0,-0.018090001288088464
7680.0,-0.008755257065083955
8192.0,0.02403347080409235
9216.0,0.03031001153474544
10240.0,0.02567802728593649
11264.0,0.01651898932572271
12288.0,-0.01950357112653711
13312.0,-0.03513542661505786
14336.0,-0.027016820762979954
end
