version,3.0
numOfCh,1
type,point
parent_name,mod-filtering
ch_type,1_1
kcount,1
numberNandB,1
brightnessNandB,1
carpet pos,0
pc,0
Time (ms),CH1 Auto-Correlation
1.0,0.02242524934464507
2.0,0.021778373536472273
3.0,0.021555724779368513
4.0,0.021363314125484978
5.0,0.02111584047183146
6.0,0.020771401714048565
7.0,0.02067526630431704
8.0,0.020503791189787623
9.0,0.0202093211271146
10.0,0.020019535120279874
11.0,0.019582551015851823
12.0,0.01934532865753047
13.0,0.019133019665809048
14.0,0.018692729478600567
15.0,0.018431763640199383
16.0,0.01819013113423762
18.0,0.017811490967718502
20.0,0.017540836139712468
22.0,0.017138672982482506
24.0,0.016839496900072692
26.0,0.016469157048732752
28.0,0.016000624778069517
30.0,0.015505212840432714
32.0,0.015348274263766726
36.0,0.014759205883809301
40.0,0.01433163233585355
44.0,0.013936379764693863
48.0,0.013501050842014806
52.0,0.012891143811078809
56.0,0.01237872213972624
60.0,0.012363679568185404
64.0,0.012311887546806677
72.0,0.012242474341180198
80.0,0.012095726402929552
88.0,0.011830894137926817
96.0,0.011561718932524778
104.0,0.010386591096304798
112.0,0.009623674131929327
120.0,0.00886539052399793
128.0,0.008413852566359514
144.0,0.007190197624082906
160.0,0.005169749658799461
176.0,0.0046325294087914415
192.0,0.005262179402522937
208.0,0.004723563088951055
224.0,0.003682669841708064
240.0,0.002921428792884706
256.0,0.0028193203157167446
288.0,0.004806616760685722
320.0,0.00372681137055908
352.0,0.0031170634666282115
384.0,0.001999732820619826
416.0,0.001273277525410954
448.0,7.540259166782803e-05
480.0,0.0003968948484118773
512.0,0.0017050297200804643
576.0,0.00327377071358792
640.0,0.003911459413280527
704.0,0.004689310219986975
768.0,0.00535595210730877
832.0,0.00650462693806908
896.0,0.00641491942128658
960.0,0.005420716970690798
1024.0,0.0033772036238519654
1152.0,-2.716423157167469e-05
1280.0,0.0002498114708677779
1408.0,0.0063253955198285805
1536.0,0.007373997042330549
1664.0,0.009244741297368186
1792.0,0.007149646860066916
1920.0,0.002663000748411637
2048.0,-6.065582957692772e-05
2304.0,-0.0007412520345716489
2560.0,0.00028848148072446733
2816.0,-0.0029102475255220472
3072.0,-0.005169409772464495
3328.0,0.0014196584938825918
3584.0,-0.0047453700462286585
3840.0,-0.00617361490581847
4096.0,0.0019955272322442763
4608.0,-0.007027747720649402
5120.0,-0.0024384130181105412
5632.0,-0.008607074198478282
6144.0,-0.0017116429961632207
6656.0,0.0012899858903812067
7168.0,-0.0012859590624417772
7680.0,0.0039629944110060045
8192.0,0.0038893397340844515
9216.0,0.0015936446073339106
10240.0,0.003287143362716405
11264.0,0.0005777044082380112
12288.0,-0.0037642033193749924
13312.0,-0.004412143298094473
14336.0,-0.0052916699031223535
end
