version,3.0
numOfCh,1
type,point
parent_name,mod-filtering
ch_type,1_1
kcount,1
numberNandB,1
brightnessNandB,1
carpet pos,0
pc,0
Time (ms),CH1 Auto-Correlation
1.0,0.05159803295924692
2.0,0.04895284638609598
3.0,0.04679159950595713
4.0,0.04546097190319398
5.0,0.044016939457030446
6.0,0.042665254164263366
7.0,0.04116604215641417
8.0,0.03950770040680518
9.0,0.038283460043608164
10.0,0.03724368066355832
11.0,0.03653355522263135
12.0,0.03602342208035658
13.0,0.035349663681214505
14.0,0.03461883850297687
15.0,0.03368317560484724
16.0,0.03268902182355404
18.0,0.03072228809715094
20.0,0.02926935875416148
22.0,0.02768649419407887
24.0,0.026325827900296694
26.0,0.02548592120535753
28.0,0.024480502554045547
30.0,0.024047814127281297
32.0,0.024002343938566817
36.0,0.023979091453118828
40.0,0.023731060485485234
44.0,0.022720866296216835
48.0,0.02220319768406198
52.0,0.021750858084059743
56.0,0.021174395922170186
60.0,0.020508454439016166
64.0,0.019712650605238302
72.0,0.018059222394355645
80.0,0.016066382672415225
88.0,0.014699513460281421
96.0,0.014152773328278023
104.0,0.014330349792673003
112.0,0.014917059244073494
120.0,0.015423291884813395
128.0,0.01615703863556628
144.0,0.016032926979824724
160.0,0.016794683348823503
176.0,0.017671283536416338
192.0,0.01807143847053183
208.0,0.017731872271629312
224.0,0.01648557066786349
240.0,0.014704353352366084
256.0,0.013867474727525142
288.0,0.012419934528439258
320.0,0.014635011571494161
352.0,0.014914926778986759
384.0,0.016643858163224
416.0,0.017499717843204143
448.0,0.017471797069374073
480.0,0.01667334927958386
512.0,0.012924886531251456
576.0,0.0041146118795989395
640.0,0.001471188975135096
704.0,0.006504816968678773
768.0,0.006912864110508954
832.0,0.0026427426957056355
896.0,0.002781243552554491
960.0,0.00024895897808074885
1024.0,-0.00396264807237201
1152.0,-0.005819256338694734
1280.0,0.0024933513759952675
1408.0,0.006604765867828544
1536.0,0.008123576204439598
1664.0,0.010828988186383226
1792.0,0.0064292088784974055
1920.0,0.0007212735744750454
2048.0,0.0031948715677647677
2304.0,0.00670384759233178
2560.0,-0.0037535607716540076
2816.0,-0.0023472627797479495
3072.0,0.0022560714803776527
3328.0,0.0027069340317171786
3584.0,-0.002661253079186854
3840.0,-0.006617354740471093
4096.0,-0.013169515571776036
4608.0,-0.009784109796015295
5120.0,-0.011429183196835613
5632.0,-0.007811983423946178
6144.0,-0.010618796193455848
6656.0,-0.007914261277664258
7168.0,0.0022225771123669524
7680.0,0.00045407209108350166
8192.0,0.0071650906059226305
9216.0,0.00019797300700963305
10240.0,-0.0070332824745977796
11264.0,0.009113069051544187
12288.0,0.008792051133346357
13312.0,0.0033523031976143702
14336.0,0.0016352435789954711
end
