version,3.0
numOfCh,1
type,point
parent_name,mod-filtering
ch_type,1_1
kcount,1
numberNandB,1
brightnessNandB,1
carpet pos,0
pc,0
Time (ms),CH1 Auto-Correlation
1.0,0.020454438266663155
2.0,0.019877307639780906
3.0,0.019479851749077737
4.0,0.019201733094293072
5.0,0.01900564514614622
6.0,0.018786604682860197
7.0,0.018444159679610328
8.0,0.018178391801077165
9.0,0.018114805955357305
10.0,0.018310364161080672
11.0,0.018136814774173615
12.0,0.017870553919241416
13.0,0.01751854167560518
14.0,0.017236079327953346
15.0,0.017084300820036313
16.0,0.016915096325987422
18.0,0.01646775233857123
20.0,0.016111270513907705
22.0,0.015703119178070768
24.0,0.01537780554307644
26.0,0.015168287571970307
28.0,0.015065655453887938
30.0,0.014844937772594546
32.0,0.014590604588262002
36.0,0.014097370332629922
40.0,0.013834973071951806
44.0,0.013737158018161777
48.0,0.013623745116277952
52.0,0.01342624029516859
56.0,0.01316471239747763
60.0,0.012971407858086259
64.0,0.012754001302072604
72.0,0.012034668380830338
80.0,0.011648678675654445
88.0,0.010704002945957303
96.0,0.00934620082341997
104.0,0.008232208090148019
112.0,0.0073937495154925426
120.0,0.0071727968593833236
128.0,0.006408174860252025
144.0,0.0044430531357180225
160.0,0.0026397977062408984
176.0,0.002009095079397394
192.0,0.001708637227416876
208.0,0.0017021555215024353
224.0,0.001490406125743915
240.0,0.0013377207108928868
256.0,0.001971965122164576
288.0,3.540344449293187e-05
320.0,0.0002036536731389038
352.0,0.00037830604110311583
384.0,0.0002944321968758601
416.0,0.0012550668547972599
448.0,0.0015210138602470558
480.0,0.0032689467766147118
512.0,0.00624155765859391
576.0,0.005698499717347483
640.0,0.0011710632321602077
704.0,0.0004654328303395072
768.0,0.00033302503238474834
832.0,0.0007941656713454925
896.0,-0.0010058529088736723
960.0,-0.0018381688577591149
1024.0,-0.004353070177907203
1152.0,-0.006400658102644563
1280.0,-0.0014649401472274226
1408.0,-0.00045808300074978714
1536.0,-0.003061050535139831
1664.0,-0.005561357103138098
1792.0,-0.0017636053150237307
1920.0,-0.0027936419768648246
2048.0,-0.0067538253765105916
2304.0,-0.004574816509027468
2560.0,-0.005378326101010855
2816.0,-0.0045912343720647675
3072.0,-0.002228713756721845
3328.0,-0.00576729030562817
3584.0,-0.004132364751632367
3840.0,-0.006181228213132273
4096.0,-0.008527104438970756
4608.0,-0.005665661822862766
5120.0,-0.0013299943086366728
5632.0,0.00430827763522279
6144.0,0.0053567076769294175
6656.0,0.006945223388046484
7168.0,0.005146661584169321
7680.0,0.0050005390545142525
8192.0,0.002174971613720267
9216.0,-0.001056767338874054
10240.0,0.0011479888248306924
11264.0,0.002421550261383576
12288.0,0.0004382217443836822
13312.0,0.0068801737524495366
14336.0,0.005155186933498479
end
