version,3.0
numOfCh,1
type,point
parent_name,mod-filtering
ch_type,1_1
kcount,1
numberNandB,1
brightnessNandB,1
carpet pos,0
pc,0
Time (ms),CH1 Auto-Correlation
1.0,0.019220235673722108
2.0,0.01832007488709264
3.0,0.017776416909190518
4.0,0.017224912459857356
5.0,0.016737438134967197
6.0,0.016233965175214582
7.0,0.015968129558437738
8.0,0.015409819523400481
9.0,0.015051927841528645
10.0,0.015058659619313408
11.0,0.014882840671636144
12.0,0.014558286699036138
13.0,0.014239181465520945
14.0,0.014073457331216677
15.0,0.013946177836301477
16.0,0.013753167580768944
18.0,0.013602892103379727
20.0,0.013557082034389323
22.0,0.013415429330550399
24.0,0.012794780842745324
26.0,0.012261589251314708
28.0,0.01187533726713319
30.0,0.011646058017241279
32.0,0.011402424018457591
36.0,0.010890064783418918
40.0,0.010697962153017881
44.0,0.010284453615760691
48.0,0.010095134929999583
52.0,0.009986094179623484
56.0,0.01003927233277957
60.0,0.009854112137948068
64.0,0.010240827324072832
72.0,0.01044175952727655
80.0,0.010355904653642778
88.0,0.01022653047225508
96.0,0.010136437742080506
104.0,0.009923758943151562
112.0,0.010012206366666332
120.0,0.010394375185777793
128.0,0.01053132910100918
144.0,0.010258895949649682
160.0,0.009990445429502115
176.0,0.010904662269990872
192.0,0.01060832265180367
208.0,0.00965427762925275
224.0,0.009576505149589076
240.0,0.007755812207637769
256.0,0.006251757027411653
288.0,0.005219820711686696
320.0,0.004431504160065325
352.0,0.004073993211035631
384.0,0.001920622611461198
416.0,0.0004072055682158293
448.0,0.0003323370658336877
480.0,0.0004640319645747848
512.0,0.0010954801560099092
576.0,0.002395414384543715
640.0,0.0019453068634871507
704.0,0.0016731963303964204
768.0,-0.0010858096855322907
832.0,0.003016157030583999
896.0,0.004526817012126871
960.0,0.007054885391694299
1024.0,0.008050160773009019
1152.0,0.0029421127255142565
1280.0,0.003585312288246767
1408.0,-0.001292426708884853
1536.0,-0.003887398968098088
1664.0,-0.003680961253979098
1792.0,-0.003786549406866846
1920.0,-0.003964038043818063
2048.0,0.0003985450785235489
2304.0,-0.0032395691184670117
2560.0,-0.010701212325139986
2816.0,-0.00859939948078936
3072.0,-0.00026791072055443177
3328.0,-0.0019984381054855005
3584.0,-0.0033983259991694492
3840.0,-0.001610895352224806
4096.0,-0.0004892955158882772
4608.0,0.002662378422307432
5120.0,0.006185624470537832
5632.0,0.00544428157421839
6144.0,0.0038540945504932367
6656.0,0.0033519742546446185
7168.0,0.0014394616127957338
7680.0,-0.006936327652347307
8192.0,-0.002033057109548264
9216.0,-0.00460847543792775
10240.0,0.0014021314590062506
11264.0,0.004507072972771198
12288.0,0.0020134029607992154
13312.0,0.00028546080157965115
14336.0,-0.00828200624839981
end
