version,3.0
numOfCh,1
type,point
parent_name,mod-filtering
ch_type,1_1
kcount,1
numberNandB,1
brightnessNandB,1
carpet pos,0
pc,0
Time (ms),CH1 Auto-Correlation
1.0,0.020186024125987023
2.0,0.019486348282479193
3.0,0.018783963152939842
4.0,0.01844860764830547
5.0,0.01796928111169449
6.0,0.017495472929740963
7.0,0.017098424503927623
8.0,0.01675005618943093
9.0,0.016463472251600386
10.0,0.016255501046060328
11.0,0.01602848155775094
12.0,0.015612617437859466
13.0,0.015252378881594142
14.0,0.014936009459896038
15.0,0.01477894512940936
16.0,0.014725616673968434
18.0,0.014279522118983534
20.0,0.013698307190842973
22.0,0.013111192035724306
24.0,0.012789991955739488
26.0,0.012533997650857609
28.0,0.012189713545840863
30.0,0.011584140718815306
32.0,0.011020015896316071
36.0,0.010411509892532811
40.0,0.009760383496089986
44.0,0.009289333035010339
48.0,0.008926365068635533
52.0,0.00856433555481173
56.0,0.008386001449242286
60.0,0.008368261443239877
64.0,0.008494998797984765
72.0,0.008417259417655698
80.0,0.00785978519237962
88.0,0.007372446882207395
96.0,0.007313224111416217
104.0,0.006169273028141964
112.0,0.005597441158743832
120.0,0.005525919842559013
128.0,0.00495584382935621
144.0,0.0036320191066143703
160.0,0.0020387305921019117
176.0,0.0014481428638715155
192.0,0.0024472843379446108
208.0,0.0027985758276016792
224.0,0.002373276944688474
240.0,0.002238805421410639
256.0,0.0012032577014160495
288.0,0.0005711299948307769
320.0,-0.0007411624664056538
352.0,-0.0033774559503396695
384.0,-0.0056529956787990665
416.0,-0.008060806571805745
448.0,-0.008348046196733572
480.0,-0.007939240834893724
512.0,-0.007136871470426853
576.0,-0.00538671226178955
640.0,-0.0034616811633313427
704.0,-0.0015831624394165855
768.0,-0.0021939234374090955
832.0,-0.0021089232826024817
896.0,-0.0023139963842703226
960.0,-0.002419412770254037
1024.0,-0.003276145009997955
1152.0,-0.002727166141654247
1280.0,0.0039533105729105955
1408.0,0.00407474608434355
1536.0,0.002688640515814411
1664.0,0.0035200471794472055
1792.0,0.0036331780566760674
1920.0,0.0056769883308998015
2048.0,0.004180402850533005
2304.0,-0.0019207092772803858
2560.0,-0.011305567996132915
2816.0,-0.012385249763474326
3072.0,-0.003522582309511302
3328.0,-0.0009631777870208191
3584.0,0.003957206841372907
3840.0,0.0018115298836578475
4096.0,0.004828655620980227
4608.0,-0.0032681731979737894
5120.0,0.0013721717358705643
5632.0,0.003059467443115249
6144.0,-0.0012251293384206718
6656.0,0.003482979008988085
7168.0,0.0046223798035793795
7680.0,0.006281262218678529
8192.0,-0.004938614456343138
9216.0,-0.00019001069721036323
10240.0,0.0006815369891148837
11264.0,-0.0032904399203323997
12288.0,0.001341763365418247
13312.0,-0.001065112005666058
14336.0,-0.0006222480401298913
end
