version,3.0
numOfCh,1
type,point
parent_name,mod-filtering
ch_type,1_1
kcount,1
numberNandB,1
brightnessNandB,1
carpet pos,0
pc,0
Time (ms),CH1 Auto-Correlation
1.0,0.05210457365300791
2.0,0.050498667034463374
3.0,0.04910713534406419
4.0,0.047854267884848145
5.0,0.04659428844000968
6.0,0.045357942059231826
7.0,0.04409432884726461
8.0,0.04303241012067227
9.0,0.042136300220870115
10.0,0.04120016563023343
11.0,0.04032145746909799
12.0,0.03950580019021377
13.0,0.03892113336216507
14.0,0.0384837698305589
15.0,0.03794974229377224
16.0,0.0374710148117825
18.0,0.036455276956768534
20.0,0.03540455518346852
22.0,0.03440658878444269
24.0,0.03326966200402359
26.0,0.03201506531757192
28.0,0.0309915450002185
30.0,0.03016940213164032
32.0,0.02918640426160568
36.0,0.027494022832984966
40.0,0.02525846691173883
44.0,0.02353564425736976
48.0,0.022297190625253815
52.0,0.021165397055780577
56.0,0.019714001225267452
60.0,0.018473323851288637
64.0,0.01725981620720618
72.0,0.01537334041743521
80.0,0.013426179319470322
88.0,0.011545474983361226
96.0,0.009530867425024292
104.0,0.007779026801706168
112.0,0.006998340493546973
120.0,0.006194350549747263
128.0,0.0049703529706899285
144.0,0.004553255815279211
160.0,0.004429879927658309
176.0,0.0035097522320213237
192.0,0.001973367370976975
208.0,0.0030954008197625615
224.0,0.004803941796319489
240.0,0.005746014202615557
256.0,0.004791234669434097
288.0,0.0026892564586904477
320.0,0.002447131623897647
352.0,0.0009775733637420458
384.0,0.0016333952950626784
416.0,0.0037072338833274987
448.0,0.0022270488370896846
480.0,0.002341826258621005
512.0,0.001085445367434934
576.0,0.0013888398061536744
640.0,0.0033805397361410527
704.0,0.0042598776577618125
768.0,0.003509503929684854
832.0,0.00881750567217865
896.0,0.00722036247380653
960.0,0.0026493891390544366
1024.0,0.0004831405745362449
1152.0,-0.001544863813765729
1280.0,-0.0066754348079833825
1408.0,-0.003073556097371144
1536.0,0.0032152518520132123
1664.0,0.007755143300258727
1792.0,-0.003278975498690828
1920.0,0.001575336561919105
2048.0,-0.0012046189354198988
2304.0,-0.004645289086808835
2560.0,-0.004974410486155101
2816.0,-0.014518123615877454
3072.0,-0.0046893767633117145
3328.0,-0.009155772651459282
3584.0,0.007763791549300292
3840.0,-0.002817197608743327
4096.0,0.005612832297285708
4608.0,-0.0022312087223651522
5120.0,0.0026125231507152513
5632.0,-0.0011040683257312889
6144.0,0.008021740169210645
6656.0,0.0051485180151686905
7168.0,0.006003637258074734
7680.0,-0.008535063483410266
8192.0,0.0012458748276300557
9216.0,-0.002778621089871147
10240.0,0.003794760894586746
11264.0,-0.004354992772764188
12288.0,-0.007403194835908455
13312.0,1.97642818435817e-05
14336.0,-0.0004980128846882037
end
