version,3.0
numOfCh,1
type,point
parent_name,mod-filtering
ch_type,1_1
kcount,1
numberNandB,1
brightnessNandB,1
carpet pos,0
pc,0
Time (ms),CH1 Auto-Correlation
1.0,0.023363161067432303
2.0,0.023198990459061264
3.0,0.02301257009539781
4.0,0.02289358846337919
5.0,0.022691784035652196
6.0,0.022479308841093282
7.0,0.0222675117250255
8.0,0.02213617294925707
9.0,0.021969884612984103
10.0,0.021780596618997672
11.0,0.021633861704964508
12.0,0.0215396244237549
13.0,0.021550835692441206
14.0,0.02142171334858256
15.0,0.0213145983081513
16.0,0.021208376513996097
18.0,0.020858525028582875
20.0,0.02054081893225823
22.0,0.02021729600510902
24.0,0.02001510311425858
26.0,0.01969042477029781
28.0,0.01937428720665113
30.0,0.019062880037384433
32.0,0.018652688792591965
36.0,0.017870107522394596
40.0,0.017307907566536773
44.0,0.01682149541906175
48.0,0.016322848615048624
52.0,0.015905394989412125
56.0,0.015580148731968668
60.0,0.01536552663721058
64.0,0.014899221557648001
72.0,0.014062715172550533
80.0,0.012957133593269665
88.0,0.01242097819069543
96.0,0.011594939564850915
104.0,0.01105018791522161
112.0,0.010590207474973745
120.0,0.009866780142868459
128.0,0.009945461912399312
144.0,0.009876550374268822
160.0,0.008558986422530612
176.0,0.0061900716715102
192.0,0.004767343028585058
208.0,0.004195701732678581
224.0,0.003411068601011813
240.0,0.002422619566766482
256.0,0.002186987125930351
288.0,0.0015167175202015493
320.0,-0.0002706155602281157
352.0,-0.0032034868016550533
384.0,-0.005067793141107391
416.0,-0.00645184514844066
448.0,-0.006076460939538508
480.0,-0.005652609966038891
512.0,-0.006262849876871979
576.0,-0.005991336368754263
640.0,-0.0074195491396524815
704.0,-0.00587121391049672
768.0,-0.003008895897616992
832.0,0.0004929824130022187
896.0,-0.0007618755350453643
960.0,-0.002073841682123101
1024.0,8.795577615017258e-05
1152.0,-0.0030724208427603816
1280.0,-0.0036852705631872373
1408.0,0.0007251997401505061
1536.0,0.004357594470336679
1664.0,0.005474959104597721
1792.0,0.004238122959314694
1920.0,-0.003834290773863658
2048.0,-0.006562887330691103
2304.0,-0.002171512370093609
2560.0,-0.0014315155416546599
2816.0,-0.004394262061361731
3072.0,0.0038678340230846597
3328.0,0.0031835591350979353
3584.0,-0.007423145492132854
3840.0,-0.003905126417917959
4096.0,0.004221330621610342
4608.0,0.005242660136875799
5120.0,-0.0022579863844640613
5632.0,-0.0010079334698352982
6144.0,0.003009192791953108
6656.0,-0.0033430451074316636
7168.0,0.0016499523657174109
7680.0,0.009830593095357942
8192.0,0.004066708253957829
9216.0,-0.0027521746681241632
10240.0,-0.0004342774007983774
11264.0,0.0021227279817328526
12288.0,-0.0038937186058395357
13312.0,-0.004897857199018696
14336.0,0.005597648623849816
end
