version,3.0
numOfCh,1
type,point
parent_name,mod-filtering
ch_type,1_1
kcount,1
numberNandB,1
brightnessNandB,1
carpet pos,0
pc,0
Time (ms),CH1 Auto-Correlation
1.0,0.08039917557110687
2.0,0.07758215853932793
3.0,0.07500339343645424
4.0,0.07309428749247449
5.0,0.07157027341736111
6.0,0.07005983629773249
7.0,0.06887218963944686
8.0,0.06718366708006962
9.0,0.06578477327952781
10.0,0.06462894373236083
11.0,0.06347986033069963
12.0,0.062170819104343744
13.0,0.06051396553221888
14.0,0.05850671387557593
15.0,0.05692952982919075
16.0,0.05492911557676572
18.0,0.05180050945358916
20.0,0.048785178341168356
22.0,0.04621574688097607
24.0,0.044474262716808655
26.0,0.041948681574051516
28.0,0.03920462292775162
30.0,0.036825656365154114
32.0,0.03507238870425766
36.0,0.03120877813765155
40.0,0.02781542509922419
44.0,0.024686402284213704
48.0,0.0217648522738767
52.0,0.01900711697491997
56.0,0.017308380501513065
60.0,0.015654807895299827
64.0,0.014085591501581174
72.0,0.011082308032229538
80.0,0.008057547510120333
88.0,0.006333363327076791
96.0,0.005442558090007266
104.0,0.005716627311529887
112.0,0.006066943219028564
120.0,0.00724179578012607
128.0,0.008766973820411028
144.0,0.009267832306994794
160.0,0.007342893409798323
176.0,0.006575937625266093
192.0,0.006474827412398465
208.0,0.006846988708548718
224.0,0.005930878267451201
240.0,0.0039929695664329135
256.0,0.00358774318862487
288.0,0.0062280440181317065
320.0,0.007105363949271748
352.0,0.005231078728923144
384.0,0.002246119621022835
416.0,0.00020655081403808673
448.0,0.0016185684601592865
480.0,0.0017169014756543977
512.0,0.0017119242048584393
576.0,-0.005524476026446012
640.0,-0.008269642003982836
704.0,-0.009907820770780895
768.0,-0.012357703747758353
832.0,-0.014033311975782947
896.0,-0.01866862803904734
960.0,-0.021975929420017692
1024.0,-0.023374768102201626
1152.0,-0.019771927845902537
1280.0,-0.025603312590004368
1408.0,-0.026436097804205638
1536.0,-0.021442002825631246
1664.0,-0.0031136943011689233
1792.0,-0.004237014079938484
1920.0,0.003877079579953424
2048.0,0.011820462991692038
2304.0,0.020230516698336976
2560.0,0.01454780261122468
2816.0,0.010743176225285422
3072.0,-0.005755751335908554
3328.0,-0.01158968860620202
3584.0,-0.02435419287792384
3840.0,-0.017635500804367044
4096.0,0.0006687092528201433
4608.0,0.023474836806839816
5120.0,0.014533781613611074
5632.0,0.003765500635747543
6144.0,0.0019154313133460388
6656.0,0.014044365034493689
7168.0,0.007915273483764418
7680.0,0.00517479340312943
8192.0,-0.008216505744515157
9216.0,-0.004735818870650221
10240.0,-0.010573258987903178
11264.0,-0.015042412644009073
12288.0,0.007828901070681349
13312.0,0.006833787722505313
14336.0,0.014850729970223409
end
