version,3.0
numOfCh,1
type,point
parent_name,mod-filtering
ch_type,1_1
kcount,1
numberNandB,1
brightnessNandB,1
carpet pos,0
pc,0
Time (ms),CH1 Auto-Correlation
1.0,0.027549426060156534
2.0,0.027443571341310147
3.0,0.027115346454783973
4.0,0.027122404118534726
5.0,0.027147798724224792
6.0,0.027009571326119808
7.0,0.026646802981103557
8.0,0.026417044320423688
9.0,0.026110282031393872
10.0,0.025989170276801588
11.0,0.025728906092446602
12.0,0.025425643837766465
13.0,0.024991738457343704
14.0,0.024684601994591437
15.0,0.024389469302256606
16.0,0.024178894886255575
18.0,0.023364042052846035
20.0,0.022909326552206233
22.0,0.022580440670175506
24.0,0.022280820258915757
26.0,0.021893475483198532
28.0,0.021593780892246617
30.0,0.02138852243723033
32.0,0.021165749295459557
36.0,0.020857139443074546
40.0,0.020502426124808126
44.0,0.02017848002679723
48.0,0.019998844937717974
52.0,0.01992967843632898
56.0,0.01992139518052105
60.0,0.02013903590391286
64.0,0.02072710509849851
72.0,0.021563142250103917
80.0,0.021443245940541367
88.0,0.020926506585296156
96.0,0.02020381459753917
104.0,0.019796556568393076
112.0,0.01911924409921051
120.0,0.018330392302103204
128.0,0.017216741617810838
144.0,0.015967881415152263
160.0,0.013497581458135066
176.0,0.0109107246117226
192.0,0.009268311593612744
208.0,0.008203886473223232
224.0,0.007360174476428005
240.0,0.0072319652787731226
256.0,0.007691638209221807
288.0,0.007532517311470421
320.0,0.0062825809142394995
352.0,0.006998331657332546
384.0,0.008142260399529588
416.0,0.007825295488479656
448.0,0.007467262400582708
480.0,0.006829412268752666
512.0,0.007550568477094677
576.0,0.009747325374656057
640.0,0.008846642338434796
704.0,0.006340516244814021
768.0,0.0054257225972478285
832.0,0.0049526200168270584
896.0,0.005115763665682005
960.0,0.003628759915245139
1024.0,0.0020393658882813526
1152.0,0.004919328617879026
1280.0,0.005450540085672806
1408.0,0.0031298181868553154
1536.0,0.00285314145363591
1664.0,0.0033585620389664506
1792.0,0.0017461124819033724
1920.0,0.002282292736819791
2048.0,0.0007907367589214953
2304.0,-0.0013118788522522573
2560.0,-0.00357086043758037
2816.0,0.0005074399246576267
3072.0,0.00017417130641206313
3328.0,-0.004681709849077009
3584.0,-0.006765636576766654
3840.0,-0.007706681966402451
4096.0,-0.007843223801502708
4608.0,-0.004735454696159325
5120.0,-0.0044265414686466276
5632.0,-1.4002955103897818e-05
6144.0,0.005322654371316071
6656.0,0.005743187671481964
7168.0,0.0026717988765403433
7680.0,0.002033967546655857
8192.0,-0.00014306905062599906
9216.0,-0.002061580988863776
10240.0,-0.015138985609477795
11264.0,-0.01600602618894642
12288.0,0.0034987142740123822
13312.0,0.004349065772242033
14336.0,0.016839908122367797
end
