version,3.0
numOfCh,1
type,point
parent_name,mod-filtering
ch_type,1_1
kcount,1
numberNandB,1
brightnessNandB,1
carpet pos,0
pc,0
Time (ms),CH1 Auto-Correlation
1.0,0.03313950156021961
2.0,0.03134342431688042
3.0,0.030016365389914368
4.0,0.028878895049690767
5.0,0.027641477272074555
6.0,0.026645060674280296
7.0,0.02560049170199652
8.0,0.024623364286702865
9.0,0.023672296161742157
10.0,0.0230593854039689
11.0,0.02217078790764293
12.0,0.021555878446730903
13.0,0.020821404753314843
14.0,0.020181411215182132
15.0,0.01957117592317803
16.0,0.018876496985583913
18.0,0.017733677654798052
20.0,0.016567176968802055
22.0,0.01551106179286954
24.0,0.014420724106599891
26.0,0.013145462236863414
28.0,0.01194915928444984
30.0,0.010795940102155122
32.0,0.00987101186049566
36.0,0.008929735582300813
40.0,0.008523131876734924
44.0,0.007701387396693349
48.0,0.0070799822481613095
52.0,0.006746811390845542
56.0,0.006522227542000492
60.0,0.00605645500626717
64.0,0.005851394139182675
72.0,0.004048359142449165
80.0,0.002830798341435292
88.0,0.0012093728561082262
96.0,-0.0003882257913911946
104.0,-0.001811075147900132
112.0,-0.0025824449518974113
120.0,-0.002672228757258699
128.0,-0.002283180997843859
144.0,-0.0019526095172250901
160.0,-0.00350352791807762
176.0,-0.006297926550671407
192.0,-0.007999459999992964
208.0,-0.009204908499967579
224.0,-0.011222996081249659
240.0,-0.014608472035442577
256.0,-0.017599402002974385
288.0,-0.021151836707076765
320.0,-0.02372825833311165
352.0,-0.026593267984563296
384.0,-0.02923501229481107
416.0,-0.030394617060245155
448.0,-0.02943196066214082
480.0,-0.027630375125968554
512.0,-0.027100642113809803
576.0,-0.030636030331219644
640.0,-0.03025425897580636
704.0,-0.022880903902947503
768.0,-0.013495211769182336
832.0,-0.00859465934806658
896.0,-0.0002675222716406189
960.0,0.007816845060120592
1024.0,0.011764515153855015
1152.0,0.006165375215736013
1280.0,0.0035816404847659467
1408.0,-0.0010454717877795838
1536.0,-0.005806026272271114
1664.0,-0.010455762567340487
1792.0,-0.00181014144505931
1920.0,0.00602975272223949
2048.0,0.009437418759466132
2304.0,0.02271453528624967
2560.0,0.02682575052911007
2816.0,0.026411548193507217
3072.0,0.015915391637358445
3328.0,0.012185731870242078
3584.0,0.006543161475972337
3840.0,0.005177088923025375
4096.0,0.0052668077028406035
4608.0,0.022129772322935892
5120.0,0.008817642610792653
5632.0,0.006900403889605444
6144.0,-0.005210250081534529
6656.0,-0.021348295305153142
7168.0,-0.02492117098860891
7680.0,-0.03066331581601378
8192.0,-0.02659948971290227
9216.0,-0.0031180555409410227
10240.0,0.02670838181122548
11264.0,0.009534117099983641
12288.0,-0.0016098620973102884
13312.0,-0.009484967006116896
14336.0,-0.0006283573898253625
end
