version,3.0
numOfCh,1
type,point
parent_name,mod-filtering
ch_type,1_1
kcount,1
numberNandB,1
brightnessNandB,1
carpet pos,0
pc,0
Time (ms),CH1 Auto-Correlation
1.0,0.035588455706088595
2.0,0.03261925813733324
3.0,0.030400752454158964
4.0,0.028501099681758957
5.0,0.026715261999315176
6.0,0.025003147260219016
7.0,0.02369428041136956
8.0,0.0222531541854889
9.0,0.021036950190188364
10.0,0.020101199580966567
11.0,0.018920130670589952
12.0,0.017908291766649986
13.0,0.01729883674014654
14.0,0.016253285440600562
15.0,0.015337990334850726
16.0,0.014116785619090022
18.0,0.011803135683511767
20.0,0.009604837775168962
22.0,0.007589123988159141
24.0,0.0057959034022561084
26.0,0.003831221826459119
28.0,0.0027009812792961885
30.0,0.0015440288794394963
32.0,-0.00013024288060237144
36.0,-0.0040807246864800195
40.0,-0.007240312465865095
44.0,-0.009599245134930823
48.0,-0.012647360463398538
52.0,-0.015342915757768694
56.0,-0.01717235782824411
60.0,-0.019214817579055854
64.0,-0.021123145625399298
72.0,-0.023444553764791043
80.0,-0.026440107882348296
88.0,-0.02892470055051588
96.0,-0.03236890070701781
104.0,-0.033353361806234494
112.0,-0.033713891986709266
120.0,-0.03247585428283317
128.0,-0.031565533440095495
144.0,-0.026619962080180026
160.0,-0.02236944745887781
176.0,-0.019729325250817054
192.0,-0.01736488021254612
208.0,-0.012071771566056766
224.0,-0.008343859884785143
240.0,-0.00804964223161364
256.0,-0.008456416039708037
288.0,-0.0069665058212168285
320.0,-0.013907679308154619
352.0,-0.02455545083716093
384.0,-0.02995613420716714
416.0,-0.030544131899084004
448.0,-0.023626081876124028
480.0,-0.020282951221095913
512.0,-0.018796021439644428
576.0,-0.028505610299616957
640.0,-0.04251814982685975
704.0,-0.03823229825837415
768.0,-0.03157140726363117
832.0,-0.03514210077528923
896.0,-0.04401375575784339
960.0,-0.04009132685136907
1024.0,-0.0355803443670929
1152.0,-0.03394216704130082
1280.0,-0.024035887788196653
1408.0,-0.005703871892785539
1536.0,0.01471913652366652
1664.0,0.02612010492484962
1792.0,0.02246864745004995
1920.0,0.004586327357517073
2048.0,-0.010806483419382285
2304.0,-0.0017342067392241978
2560.0,0.010197645132022704
2816.0,0.008587636452940695
3072.0,0.013628438421732225
3328.0,0.010726754829438523
3584.0,0.02087537132017947
3840.0,0.020742072094512176
4096.0,0.01898446791405184
4608.0,0.045131893990138616
5120.0,0.023631182227491943
5632.0,0.011694272342793077
6144.0,0.0249929332229899
6656.0,0.02045699853002203
7168.0,0.006561131699249323
7680.0,-0.022964585984939
8192.0,-0.0568522731659421
9216.0,-0.02508525660855432
10240.0,-0.027711642619827836
11264.0,-0.03652215253410118
12288.0,0.07111864126959344
13312.0,-0.028165163372470547
14336.0,0.06540669743402372
end
