version,3.0
numOfCh,1
type,point
parent_name,mod-filtering
ch_type,1_1
kcount,1
numberNandB,1
brightnessNandB,1
carpet pos,0
pc,0
Time (ms),CH1 Auto-Correlation
1.0,0.07000431723664868
2.0,0.06860737935395478
3.0,0.06741150962508624
4.0,0.0662179140086121
5.0,0.06505910139491022
6.0,0.06398750351100135
7.0,0.06288359959859924
8.0,0.06181321121846106
9.0,0.060742684822985726
10.0,0.05972314088302322
11.0,0.05872589909705428
12.0,0.05777092624511204
13.0,0.05686331445400605
14.0,0.05597267904743619
15.0,0.055167479078548576
16.0,0.05441392463983519
18.0,0.052972988681036615
20.0,0.05159409016575722
22.0,0.0501778246388358
24.0,0.04881168240030909
26.0,0.047518010879372685
28.0,0.046253972552735556
30.0,0.04491648120470382
32.0,0.04355770090056543
36.0,0.04122721636177329
40.0,0.0392920259477918
44.0,0.037847651197354004
48.0,0.03648470766160927
52.0,0.03512760621958644
56.0,0.03376489547174866
60.0,0.03253121285614502
64.0,0.03138747088029015
72.0,0.029322745661069183
80.0,0.027437929571059838
88.0,0.02603827034723838
96.0,0.024174755675664628
104.0,0.022320198805154234
112.0,0.021515983925882276
120.0,0.02100519712623372
128.0,0.01995012484411518
144.0,0.017124525475060715
160.0,0.014783223312555327
176.0,0.013511353381797209
192.0,0.011549259973376413
208.0,0.010091724020798054
224.0,0.010045476696931344
240.0,0.010457048615080566
256.0,0.010988722034501741
288.0,0.011437828052330623
320.0,0.00899250811023311
352.0,0.008313874621789674
384.0,0.007955921849211789
416.0,0.00749682500940918
448.0,0.005040418359310905
480.0,0.002187698798958859
512.0,0.0024862315493405784
576.0,6.090689523552406e-05
640.0,-0.002257882264936506
704.0,0.001561811411486147
768.0,0.0007101099215276463
832.0,0.0005062843114584936
896.0,0.001119553074215407
960.0,0.0021246713202331957
1024.0,0.0003916101212726453
1152.0,-0.0005106388073619073
1280.0,0.004420633773168703
1408.0,0.0008131491623868392
1536.0,-0.0037334822832899572
1664.0,-0.00382859523903456
1792.0,-0.005847637355162694
1920.0,-0.0027336403363795725
2048.0,0.0038859397332020595
2304.0,0.0018419077722382493
2560.0,-0.004609929773537913
2816.0,-0.009092338903346264
3072.0,-0.006648835286046317
3328.0,0.005118710951538485
3584.0,-0.0014044880229772128
3840.0,-0.00578744449119295
4096.0,-0.0011573076812263494
4608.0,0.005254626252161332
5120.0,-0.0005245433829081936
5632.0,-0.0010028105479970018
6144.0,0.0005695058391887997
6656.0,0.004969394496667334
7168.0,7.298505179176296e-05
7680.0,-0.006173277009847711
8192.0,-0.002926941644296299
9216.0,-0.012403105082117838
10240.0,-0.0008206049236040291
11264.0,0.004953662881585386
12288.0,-0.001390464021658544
13312.0,0.002137722248104934
14336.0,-0.0005974377015877108
end
