version,3.0
numOfCh,1
type,point
parent_name,mod-filtering
ch_type,1_1
kcount,1
numberNandB,1
brightnessNandB,1
carpet pos,0
pc,0
Time (ms),CH1 Auto-Correlation
1.0,0.05663472136271275
2.0,0.0548084074777786
3.0,0.05285245418508033
4.0,0.05090681516109852
5.0,0.04943539836763833
6.0,0.04783754987425515
7.0,0.046482304280132336
8.0,0.04553052398603086
9.0,0.0447498216818083
10.0,0.04391781938339667
11.0,0.04307789892293212
12.0,0.042081297802043505
13.0,0.04112584239142514
14.0,0.04029940645734431
15.0,0.0393824284324471
16.0,0.03850287764916582
18.0,0.0371704118532461
20.0,0.03617688425490484
22.0,0.0351813638999765
24.0,0.03377962233274001
26.0,0.0323323073600863
28.0,0.031077599214039298
30.0,0.030148861743909183
32.0,0.02902590211855416
36.0,0.027331563773391077
40.0,0.02619399012040935
44.0,0.024720025781891808
48.0,0.022891013059600507
52.0,0.021231370382012393
56.0,0.01986543239605587
60.0,0.018778458408871268
64.0,0.01800058546337202
72.0,0.016788910465989515
80.0,0.016588914803614685
88.0,0.01596826427202913
96.0,0.015453105802983425
104.0,0.015307264101322549
112.0,0.01485676965845939
120.0,0.015160903225859057
128.0,0.014894625514115578
144.0,0.011908630736291448
160.0,0.008634381044719142
176.0,0.006943460831472015
192.0,0.006595675354332142
208.0,0.006051023463635952
224.0,0.0063333431062519985
240.0,0.008203474408328137
256.0,0.009479077567285943
288.0,0.008592295976701303
320.0,0.004549731668556989
352.0,0.003978982057635694
384.0,0.0055747278275350975
416.0,0.0057087144818404045
448.0,0.0022505698976158506
480.0,-0.0005217473597253219
512.0,-0.003266485960649823
576.0,0.007309429691793268
640.0,0.013718048298186236
704.0,0.018529628345085536
768.0,0.022092871310973594
832.0,0.01822606652302272
896.0,0.009923089148594855
960.0,0.012996072813769466
1024.0,0.0037623632792462836
1152.0,0.005790272184763801
1280.0,0.00363371975459037
1408.0,-0.0030710292462753364
1536.0,-0.00940866053935785
1664.0,-0.012294137693125262
1792.0,-0.01690900513172433
1920.0,-0.01781901937812813
2048.0,-0.01830027379147292
2304.0,-0.009509848794461817
2560.0,-0.01039432142476937
2816.0,-0.017622542221559567
3072.0,-0.00013852354924659416
3328.0,-0.014572686924260947
3584.0,-0.024339324987637356
3840.0,0.0017927256279768322
4096.0,0.0177952819793723
4608.0,0.013329246925716909
5120.0,0.016157143940662255
5632.0,-0.004612208355187386
6144.0,-0.01018266794642897
6656.0,-0.010261771021255806
7168.0,0.0014139158016153175
7680.0,0.008756859011620488
8192.0,0.033531981674512545
9216.0,-0.0006471251930972866
10240.0,-0.009225506378099047
11264.0,-0.009382400943853675
12288.0,0.005220974076133755
13312.0,-0.022130233351482564
14336.0,-0.020424211122927693
end
