version,3.0
numOfCh,1
type,point
parent_name,mod-filtering
ch_type,1_1
kcount,1
numberNandB,1
brightnessNandB,1
carpet pos,0
pc,0
Time (ms),CH1 Auto-Correlation
1.0,0.020561625926532656
2.0,0.020377446485796202
3.0,0.01978999646740065
4.0,0.019600844804127382
5.0,0.019221871164448512
6.0,0.018772203640845975
7.0,0.018382355891595425
8.0,0.018041192679324247
9.0,0.017872213442362117
10.0,0.017446386932518543
11.0,0.017315928056437002
12.0,0.01704595374228024
13.0,0.01704146514758964
14.0,0.01685201764833888
15.0,0.0169109253090729
16.0,0.016773115438179165
18.0,0.016687371562428943
20.0,0.016558082153426357
22.0,0.016416943980733123
24.0,0.01616064777208881
26.0,0.015903334117880696
28.0,0.015646585595190166
30.0,0.015224211859264258
32.0,0.01497243106507895
36.0,0.014512637794410033
40.0,0.01422057351394157
44.0,0.013668398373889667
48.0,0.01313269769759029
52.0,0.012526125923635556
56.0,0.011822150451678004
60.0,0.011280372674272066
64.0,0.01065118521226971
72.0,0.009721316543150449
80.0,0.008532029268299324
88.0,0.007898680085006937
96.0,0.007620446965208583
104.0,0.0074660357638463015
112.0,0.006892598512799886
120.0,0.0064327798512049394
128.0,0.005734308936090393
144.0,0.004676583768162157
160.0,0.0036670116550323595
176.0,0.002951704174666503
192.0,0.002519782701075224
208.0,0.002783763103645809
224.0,0.0033269819031860326
240.0,0.004371859540923229
256.0,0.005878137544695683
288.0,0.006132630800680383
320.0,0.00545368007306557
352.0,0.005415215465074841
384.0,0.005495224678060628
416.0,0.004151115800562266
448.0,0.0025013667926174765
480.0,0.003046372226982008
512.0,0.0023914017931068177
576.0,0.000984822196409274
640.0,0.0014680093909658076
704.0,0.0012734494081223513
768.0,-0.0010531762128876965
832.0,-0.0032012655489588315
896.0,-0.001049250577448757
960.0,-0.0008141468490859838
1024.0,-0.0016535837233505601
1152.0,-0.00044985704254907333
1280.0,0.0004640517097984631
1408.0,-0.00047095033234645367
1536.0,2.3574231176493043e-05
1664.0,-1.010417071622971e-05
1792.0,0.00036806023083046924
1920.0,-0.0031098882714137854
2048.0,-0.005752663892102716
2304.0,-0.010453354379729496
2560.0,-0.0069550410694751985
2816.0,-0.0037609384392778278
3072.0,0.0005915959967954798
3328.0,0.002848381603459682
3584.0,0.0017505900407677188
3840.0,0.00028401039359549074
4096.0,0.0004407654954978746
4608.0,0.0050338969844792025
5120.0,0.0036283081661956373
5632.0,-0.00029597310476181526
6144.0,-0.0017786938271411312
6656.0,-0.003303136614591917
7168.0,-0.0027986009915031973
7680.0,0.0016727971565244637
8192.0,0.0015533059700960639
9216.0,-0.0007389606394592185
10240.0,0.001745180909580979
11264.0,-7.815906662556049e-05
12288.0,-0.0005530785093350588
13312.0,-0.0010276781158535808
14336.0,0.0043872065569003915
end
