version,3.0
numOfCh,1
type,point
parent_name,mod-filtering
ch_type,1_1
kcount,1
numberNandB,1
brightnessNandB,1
carpet pos,0
pc,0
Time (ms),CH1 Auto-Correlation
1.0,0.02821684341228714
2.0,0.026812952964504033
3.0,0.02582033078131052
4.0,0.02513264571163365
5.0,0.024379324867573215
6.0,0.023298897728268875
7.0,0.022589933072722834
8.0,0.021860707190994866
9.0,0.02126738894186664
10.0,0.02065770673411338
11.0,0.020074960238366746
12.0,0.019366003834812906
13.0,0.018992746672484406
14.0,0.01858150718281637
15.0,0.018148206910492792
16.0,0.017735387816696147
18.0,0.017275546845769707
20.0,0.016164240554022546
22.0,0.015373988675105865
24.0,0.014760726611871222
26.0,0.014239219738432007
28.0,0.013589776042773893
30.0,0.013071805457185226
32.0,0.012453947596575698
36.0,0.010409803560552211
40.0,0.00916351644352753
44.0,0.008279637208280066
48.0,0.007663769956171462
52.0,0.007035027411932182
56.0,0.0062681102104542585
60.0,0.005509226465909567
64.0,0.005207981282699503
72.0,0.00365402494534095
80.0,0.0033442583078131527
88.0,0.0024432703930459265
96.0,0.001982590564745035
104.0,0.0007275251873095634
112.0,0.0002680143584170569
120.0,0.0002566542359108137
128.0,3.747320604752247e-05
144.0,0.00026870459395578195
160.0,-2.51125540401409e-05
176.0,9.210252595304169e-05
192.0,-2.4879531495325402e-05
208.0,-0.0004116660901819502
224.0,-0.0009569102516172601
240.0,-0.0013603062733089644
256.0,-0.0028986909649899584
288.0,-0.0060746039760383175
320.0,-0.008121708400813277
352.0,-0.010612274623865381
384.0,-0.012808500495261943
416.0,-0.012856990091726916
448.0,-0.013565037905709065
480.0,-0.013175633040784174
512.0,-0.013896897098723549
576.0,-0.017936729578877597
640.0,-0.017984610993931116
704.0,-0.012303950295517563
768.0,-0.01581213987085428
832.0,-0.020586452612693207
896.0,-0.020107717124203672
960.0,-0.019641349401668284
1024.0,-0.02284508838319299
1152.0,-0.018123108353957584
1280.0,-0.013248031193545673
1408.0,-0.0003007161665131708
1536.0,0.007377949275196416
1664.0,0.021639916817063565
1792.0,0.0255824571136396
1920.0,0.026441331894444753
2048.0,0.016168669402914393
2304.0,0.006187624196229979
2560.0,-0.010832844927595842
2816.0,-0.013526170778576097
3072.0,0.013720785073716879
3328.0,0.027164284830279106
3584.0,0.030128496436997665
3840.0,0.052540120665515166
4096.0,0.035469891708741264
4608.0,0.02705063340735947
5120.0,0.007805056224689633
5632.0,0.05670420698865519
6144.0,0.022959145731020536
6656.0,0.036468943264228004
7168.0,0.02959487811453232
7680.0,0.023204848168625558
8192.0,-0.002207558745225713
9216.0,-0.007393039541514379
10240.0,-0.039739252376024936
11264.0,-0.07660062731970196
12288.0,-0.1129456295792518
13312.0,-0.09623969389200804
14336.0,-0.051707793396694846
end
