version,3.0
numOfCh,1
type,point
parent_name,mod-filtering
ch_type,1_1
kcount,1
numberNandB,1
brightnessNandB,1
carpet pos,0
pc,0
Time (ms),CH1 Auto-Correlation
1.0,0.019097620551902894
2.0,0.018349612899799528
3.0,0.01787570306527253
4.0,0.017602859407638283
5.0,0.017230803611843593
6.0,0.016780411281134944
7.0,0.01647763269270497
8.0,0.01626206314436307
9.0,0.016022165008829026
10.0,0.015758159364629876
11.0,0.015342204342694288
12.0,0.015142124802377976
13.0,0.01481616574653688
14.0,0.01461614677788825
15.0,0.014487550728861764
16.0,0.014376754620967214
18.0,0.013917901796979937
20.0,0.013547192798032626
22.0,0.013309238404381807
24.0,0.012919575723345789
26.0,0.012478101945223363
28.0,0.012068562639032665
30.0,0.01182996232004685
32.0,0.011710098274873237
36.0,0.011119589666405805
40.0,0.010312662524135652
44.0,0.009523286492439054
48.0,0.00859746059362454
52.0,0.007839535918656937
56.0,0.006993631245325371
60.0,0.006014780946976606
64.0,0.005226236970094833
72.0,0.004565261548647781
80.0,0.00414650842238129
88.0,0.00357241577984424
96.0,0.0031213643830680926
104.0,0.0029594932230394555
112.0,0.002180858276248143
120.0,0.0013638363888968108
128.0,0.0009383796268445099
144.0,0.0014827471920948465
160.0,0.0029464617345802413
176.0,0.004391056886737799
192.0,0.0048831984241803905
208.0,0.005690087765177543
224.0,0.005143377322432752
240.0,0.005443585679504093
256.0,0.005160612229256012
288.0,0.004141101447748374
320.0,0.0030552776325838416
352.0,0.002558015112887002
384.0,0.0015394142810269962
416.0,0.001589142802958854
448.0,-0.0009350330699614551
480.0,-0.0017226720584263555
512.0,-0.002766969591590618
576.0,-0.0050376305208726935
640.0,-0.0034862237170998345
704.0,-0.004082268867092731
768.0,-0.0012199922336242341
832.0,0.0005661915318524446
896.0,-0.0015976051928476842
960.0,-0.003574712816902137
1024.0,-0.0030746725604369196
1152.0,0.0005709075389679352
1280.0,0.0030786565926084197
1408.0,0.005343711200026968
1536.0,0.0061441766894458905
1664.0,0.0059898639644024865
1792.0,0.003958333523866875
1920.0,0.00083947362635306
2048.0,0.00039751176150248924
2304.0,0.0015334977259462423
2560.0,-0.0018556853454156919
2816.0,0.0023552419147889747
3072.0,0.0038213861852411934
3328.0,0.0028918389275054412
3584.0,0.0021886601498302127
3840.0,0.00047449277693356606
4096.0,-0.0024353812533846053
4608.0,-0.0022510961041039
5120.0,-0.0003786353356005634
5632.0,0.00026639062961231197
6144.0,-0.004502950115852777
6656.0,-0.0013654081270312313
7168.0,-0.0008487541500958873
7680.0,-0.0020127221296226683
8192.0,-0.0007488564760732563
9216.0,-0.0031372405072682685
10240.0,0.002033768002317471
11264.0,0.0005582137951831712
12288.0,0.001727741078029199
13312.0,-0.00018435554133344745
14336.0,-0.0014611764326774024
end
