version,3.0
numOfCh,1
type,point
parent_name,mod-filtering
ch_type,1_1
kcount,1
numberNandB,1
brightnessNandB,1
carpet pos,0
pc,0
Time (ms),CH1 Auto-Correlation
1.0,0.054037894276099285
2.0,0.051089354488684124
3.0,0.048554401914762124
4.0,0.046677475606118124
5.0,0.045014307961904754
6.0,0.04316388296715945
7.0,0.042061642481801664
8.0,0.04081530584454862
9.0,0.03969617877266951
10.0,0.03836908842730535
11.0,0.03754502099582013
12.0,0.03636156542745406
13.0,0.03567390744786181
14.0,0.03518530865072744
15.0,0.034555769089644306
16.0,0.03392250968752175
18.0,0.03241106483334755
20.0,0.030826794572810456
22.0,0.02959095887161345
24.0,0.027825106621504503
26.0,0.026204617230138005
28.0,0.024572256062409537
30.0,0.022769021834832648
32.0,0.02120562790407088
36.0,0.019144159354965273
40.0,0.017405652692585427
44.0,0.014727645411041212
48.0,0.011734993070634303
52.0,0.009973325750102902
56.0,0.009246834107845325
60.0,0.008326923755921811
64.0,0.007241279074140294
72.0,0.003411503852702724
80.0,0.0026290326520705953
88.0,0.0011154944720408455
96.0,-8.675218378073613e-05
104.0,-0.00010697032491102654
112.0,-0.00047819959266748313
120.0,-0.0013769512122492333
128.0,-0.004074553981137319
144.0,-0.007090065763587061
160.0,-0.010257514411331159
176.0,-0.012405081341341107
192.0,-0.014956034165972798
208.0,-0.013941300926560096
224.0,-0.011721523513583132
240.0,-0.01289315745927433
256.0,-0.0125075605367021
288.0,-0.010873535765757114
320.0,-0.010427989990931086
352.0,-0.011809424169256899
384.0,-0.014485152035856319
416.0,-0.014554406178217572
448.0,-0.013161836071018729
480.0,-0.011882338040790086
512.0,-0.018144924189807288
576.0,-0.023511361300256217
640.0,-0.019634986924420117
704.0,-0.02084412876088748
768.0,-0.01915435424957057
832.0,-0.021063611411705763
896.0,-0.024353145415613953
960.0,-0.027725897589016335
1024.0,-0.03229929861579761
1152.0,-0.024933456304516932
1280.0,-0.028756221383702596
1408.0,-0.019644589867388595
1536.0,-0.021196282728059734
1664.0,-0.012664276259298224
1792.0,-0.0074740855761934455
1920.0,-0.01964066956916166
2048.0,-0.022570770112036564
2304.0,0.0002165104618705449
2560.0,0.005089490734621505
2816.0,-0.014609159145007933
3072.0,-0.018181084474455433
3328.0,0.0005635245907489317
3584.0,-0.012283506274707312
3840.0,-0.014607153077466184
4096.0,0.015239345743303545
4608.0,0.04326841321968655
5120.0,0.01779909582353456
5632.0,0.007668295593736829
6144.0,0.031209720570081867
6656.0,0.035704962983187816
7168.0,0.013162231977156491
7680.0,-0.019239535948890052
8192.0,-0.006008353397343291
9216.0,0.029469611664744377
10240.0,0.022067706149204058
11264.0,-0.03387160146885326
12288.0,-0.031249216127988255
13312.0,-0.012601109049067083
14336.0,0.016512883546709878
end
