version,3.0
numOfCh,1
type,point
parent_name,mod-filtering
ch_type,1_1
kcount,1
numberNandB,1
brightnessNandB,1
carpet pos,0
pc,0
Time (ms),CH1 Auto-Correlation
1.0,0.03140412652186475
2.0,0.030955549440009333
3.0,0.03034849547490248
4.0,0.029941290369942752
5.0,0.029392411914969774
6.0,0.028990498185832658
7.0,0.0284344167944679
8.0,0.02785476317739155
9.0,0.027252001895074596
10.0,0.026830165158266306
11.0,0.026376697622162437
12.0,0.02594397016712935
13.0,0.025482935198995804
14.0,0.02506828741656686
15.0,0.024615825118250223
16.0,0.024186796538273825
18.0,0.023368638557160537
20.0,0.022543343373954583
22.0,0.021923574565172466
24.0,0.021306423928387108
26.0,0.02071092953074727
28.0,0.020016922528576675
30.0,0.01933584650840081
32.0,0.018705102808368457
36.0,0.01747245963605959
40.0,0.01643769284453045
44.0,0.015581086047185444
48.0,0.014725797977383603
52.0,0.013881901300826671
56.0,0.013171068768229599
60.0,0.012520229760664137
64.0,0.011945322911492307
72.0,0.010470812708354593
80.0,0.008682673016013442
88.0,0.007444278602794618
96.0,0.006374475036358351
104.0,0.005552665792910583
112.0,0.00465558965237034
120.0,0.0038643492553946945
128.0,0.0033658680115236095
144.0,0.00307245364486719
160.0,0.0035208645527984306
176.0,0.004180063986341853
192.0,0.004748208974796109
208.0,0.004986941863428296
224.0,0.005316253061411036
240.0,0.005756560226119367
256.0,0.006184028868064129
288.0,0.006979342985852899
320.0,0.007884416069253497
352.0,0.008993437269877669
384.0,0.00898890053220236
416.0,0.0075647437008445895
448.0,0.008065550341831873
480.0,0.008115957027133858
512.0,0.008910986198787718
576.0,0.009704938036112276
640.0,0.011692091547983674
704.0,0.01554146281907598
768.0,0.015126361313730463
832.0,0.01045538287844816
896.0,0.008049377260114898
960.0,0.009406928228610001
1024.0,0.0076859363297254735
1152.0,0.00529310556232776
1280.0,0.0012111657059994396
1408.0,0.0021564065659875897
1536.0,0.0041978480462872
1664.0,0.0033132465629153174
1792.0,0.007544965909328516
1920.0,0.010148162515733805
2048.0,0.009782597984054675
2304.0,0.007249197567514409
2560.0,0.0021468468690892806
2816.0,0.008438301135175852
3072.0,0.006242297853313206
3328.0,0.0002237481173610334
3584.0,-0.001362076184309835
3840.0,0.0018892868485060887
4096.0,0.006572385437812134
4608.0,-0.006354084130582582
5120.0,1.8680576206575594e-05
5632.0,-0.0076980016535809215
6144.0,-0.0255256380997686
6656.0,-0.019669884315010933
7168.0,-0.00419766182195036
7680.0,-0.026560724601664365
8192.0,-0.011736250649736046
9216.0,-0.0016773847237798734
10240.0,0.000692585439413973
11264.0,-0.0003418560042519614
12288.0,0.006135812688682796
13312.0,0.013230533052404514
14336.0,0.020430510562471582
end
