version,3.0
numOfCh,1
type,point
parent_name,mod-filtering
ch_type,1_1
kcount,1
numberNandB,1
brightnessNandB,1
carpet pos,0
pc,0
Time (ms),CH1 Auto-Correlation
1.0,0.036589120021924826
2.0,0.03487757727869312
3.0,0.034143974715195924
4.0,0.03275450062367824
5.0,0.03217517601933051
6.0,0.03098283981865113
7.0,0.03005678543153989
8.0,0.028911403602501995
9.0,0.02811612514556283
10.0,0.027445556509360536
11.0,0.026709952390330916
12.0,0.025934718174111637
13.0,0.02499992278252683
14.0,0.024074267637852476
15.0,0.023281218385299507
16.0,0.022645034148427667
18.0,0.021177852222515225
20.0,0.020868788375338676
22.0,0.0201197022481292
24.0,0.019250867222451173
26.0,0.01893829164126193
28.0,0.018635199682871306
30.0,0.018357544157862504
32.0,0.017672762942885
36.0,0.016507750580664338
40.0,0.014792812561534419
44.0,0.013344559906573128
48.0,0.011637010383653834
52.0,0.010240313088905051
56.0,0.009910062447837431
60.0,0.009349158916978517
64.0,0.008885906481163053
72.0,0.006439971759622853
80.0,0.004457629825322051
88.0,0.0029514388723030915
96.0,0.0014827233665650752
104.0,0.00030814232362219585
112.0,0.0001675621661507698
120.0,0.0005934517795918026
128.0,0.0003534284443105218
144.0,0.0032341444508812156
160.0,0.0044731109437625705
176.0,-5.116009045624814e-06
192.0,-0.002683747684212423
208.0,-0.004167255527345759
224.0,-0.005253945706636398
240.0,-0.006177512487504089
256.0,-0.005983971944305222
288.0,-0.011584889389884223
320.0,-0.012054907956791872
352.0,-0.016476664084692394
384.0,-0.017781386608897054
416.0,-0.013891159784477858
448.0,-0.011156674807027422
480.0,-0.010875297877472656
512.0,-0.010690557174823478
576.0,-0.019207312555492795
640.0,-0.015118291400513906
704.0,-0.009024319455154362
768.0,-0.009884069957814545
832.0,-0.009435011986560826
896.0,-0.013635633622007592
960.0,-0.011363824399171607
1024.0,-0.006735960121424744
1152.0,-0.030557546526445045
1280.0,-0.029826343889921447
1408.0,-0.014067788564815165
1536.0,-0.003374480241079003
1664.0,-0.008357551635190918
1792.0,-0.004886966103665236
1920.0,0.0002868505232338503
2048.0,0.01368174127909727
2304.0,0.005621467643345923
2560.0,-0.028722862854079545
2816.0,-0.02642255710458541
3072.0,-0.02344875057181528
3328.0,-0.01362475856869294
3584.0,-0.02510698560466551
3840.0,-0.009424332576288275
4096.0,-0.02065243583782006
4608.0,-0.024065969108806207
5120.0,0.01675850895731079
5632.0,0.09097423125858017
6144.0,0.12094823799768784
6656.0,0.15339506976454098
7168.0,0.14023390485501452
7680.0,0.05266293085015272
8192.0,-0.036429064105798936
9216.0,-0.04322670279870022
10240.0,-0.0012701563266077631
11264.0,-0.0956539405932414
12288.0,-0.03482170729027767
13312.0,0.03253980149832536
14336.0,-0.08308894853729099
end
