version,3.0
numOfCh,1
type,point
parent_name,mod-filtering
ch_type,1_1
kcount,1
numberNandB,1
brightnessNandB,1
carpet pos,0
pc,0
Time (ms),CH1 Auto-Correlation
1.0,0.0657928601427531
2.0,0.06376316481604016
3.0,0.061795788891175985
4.0,0.06016796552880299
5.0,0.059059074167167935
6.0,0.05814071936295839
7.0,0.05751264053902716
8.0,0.05672668738568265
9.0,0.05551938385569288
10.0,0.05458358320420631
11.0,0.054060558942358394
12.0,0.053218649691390896
13.0,0.05225162986139997
14.0,0.05170935593311898
15.0,0.051531587409052504
16.0,0.05067208289600411
18.0,0.049157171482200335
20.0,0.04774487560677776
22.0,0.04653828839594598
24.0,0.04527222226101446
26.0,0.04403896692614251
28.0,0.04273821070729045
30.0,0.04125351538220534
32.0,0.039657179457536884
36.0,0.03804816099602659
40.0,0.03741994141014793
44.0,0.03655692615690964
48.0,0.03566696851028528
52.0,0.0341762851609555
56.0,0.03304076612030227
60.0,0.03168129726728175
64.0,0.030970363131358924
72.0,0.028356396086933522
80.0,0.026371003332926524
88.0,0.024867737154394165
96.0,0.023031783916553916
104.0,0.021133453751632114
112.0,0.019868560336487873
120.0,0.020641904742628947
128.0,0.02049269373873952
144.0,0.017742584467389966
160.0,0.013636013045640771
176.0,0.011755589019496027
192.0,0.012472727104932524
208.0,0.012853448775646426
224.0,0.012936346203375582
240.0,0.013438787952235964
256.0,0.012369292506041907
288.0,0.009929849517074096
320.0,0.00904109558269961
352.0,0.0038281448797901074
384.0,0.00019984463952682496
416.0,-0.00142949022198402
448.0,-0.009755478955703167
480.0,-0.0194642750216949
512.0,-0.025677970020181795
576.0,-0.03296887044652397
640.0,-0.03907377201936435
704.0,-0.04568838822770105
768.0,-0.043861013414496774
832.0,-0.037933994271255655
896.0,-0.03542914134513564
960.0,-0.022544769201049086
1024.0,-0.017687185418326146
1152.0,-0.026281049133827228
1280.0,-0.010663392273031369
1408.0,0.0007592430070264555
1536.0,-0.0111539574206031
1664.0,-0.005303363053113741
1792.0,-0.0005901736446568551
1920.0,-0.012602263320356855
2048.0,-0.021055119287223034
2304.0,-0.03621415308029652
2560.0,-0.02998635738226818
2816.0,-0.01170953219362636
3072.0,0.010843693598182602
3328.0,0.0206515771120499
3584.0,0.022763011365471986
3840.0,0.009840380148345096
4096.0,-0.0075085342570548885
4608.0,-0.006670893270272149
5120.0,0.028555461894337997
5632.0,0.001003504858680948
6144.0,-0.033992156996480505
6656.0,0.021976330742341954
7168.0,0.03420996828033207
7680.0,0.0035194490565799708
8192.0,0.006258841728045139
9216.0,0.005704204873510532
10240.0,0.020787127286291618
11264.0,0.028932380851930173
12288.0,-0.003038164639811547
13312.0,-0.021981900114091957
14336.0,-0.0027029676558081306
end
