version,3.0
numOfCh,1
type,point
parent_name,mod-filtering
ch_type,1_1
kcount,1
numberNandB,1
brightnessNandB,1
carpet pos,0
pc,0
Time (ms),CH1 Auto-Correlation
1.0,0.03516053099425154
2.0,0.0344675314359042
3.0,0.033679779659170794
4.0,0.03302742466895214
5.0,0.03226079899340961
6.0,0.03160521923888382
7.0,0.03093663068008845
8.0,0.030333506699293578
9.0,0.029731377264908376
10.0,0.029242029696829208
11.0,0.028794667770312365
12.0,0.02830783538360282
13.0,0.027841633968279655
14.0,0.02736189607913353
15.0,0.02696575589372152
16.0,0.026554751024082
18.0,0.025735995869297312
20.0,0.024935809562420586
22.0,0.024147060727320202
24.0,0.023511227397946532
26.0,0.022919264008407936
28.0,0.02239417319613346
30.0,0.02192622846078396
32.0,0.02150972701266518
36.0,0.02067780053908108
40.0,0.019836577843124203
44.0,0.01903129514266655
48.0,0.018103385987685794
52.0,0.01721803306615155
56.0,0.016638518485660336
60.0,0.016048333761862654
64.0,0.015461165220795214
72.0,0.014520562734123388
80.0,0.014033034270370948
88.0,0.013783485346060331
96.0,0.013570929504130635
104.0,0.013178295470501533
112.0,0.013096764052151322
120.0,0.013041544287907048
128.0,0.013472153608352855
144.0,0.013851664278284215
160.0,0.013538616191451247
176.0,0.013151257338044786
192.0,0.01236304714959302
208.0,0.01085770877612613
224.0,0.00901038501012863
240.0,0.00786443752998034
256.0,0.007953264303077967
288.0,0.007892447377931155
320.0,0.006088146496050939
352.0,0.00427480286027504
384.0,0.0034106590880276233
416.0,0.0034071322325055498
448.0,0.0042220983048189
480.0,0.005048555897058771
512.0,0.005134561635462331
576.0,0.006219577669466236
640.0,0.004713205595191727
704.0,0.0036549689237281857
768.0,0.001421872883357711
832.0,-0.00042313119520709375
896.0,-0.0021780009153026247
960.0,-0.0031517538504902687
1024.0,-0.001197530603425645
1152.0,-0.0025103149453966633
1280.0,0.0008977164233983093
1408.0,0.000910329488287065
1536.0,-0.004919810798058366
1664.0,-0.007596555912892877
1792.0,-0.007041888398541141
1920.0,-0.0038200953295155493
2048.0,-0.0035233172930486667
2304.0,-0.0007709891910391287
2560.0,0.0010893671164928787
2816.0,0.0006443310046562178
3072.0,0.0018019248392719955
3328.0,0.0014800501332852267
3584.0,-0.0017183770252633401
3840.0,-0.001704448850461171
4096.0,0.0009253705474645546
4608.0,-0.003617527271970067
5120.0,0.004737162869259404
5632.0,-0.0032494367329288787
6144.0,0.00015169106886325778
6656.0,0.00014160269728513697
7168.0,-0.0031660691611147262
7680.0,-0.003280594190097297
8192.0,0.003460382599074663
9216.0,-0.0037230617190080473
10240.0,-0.010161963391085438
11264.0,0.003936447145745037
12288.0,0.009518602800008935
13312.0,0.0028297461734445584
14336.0,0.0005204317473717079
end
