version,3.0
numOfCh,1
type,point
parent_name,mod-filtering
ch_type,1_1
kcount,1
numberNandB,1
brightnessNandB,1
carpet pos,0
pc,0
Time (ms),CH1 Auto-Correlation
1.0,0.03376896363873705
2.0,0.033122786873569066
3.0,0.03254605057592186
4.0,0.03203867062449306
5.0,0.03146350003436438
6.0,0.03088663463840624
7.0,0.030411768060507827
8.0,0.03006932332031531
9.0,0.029548040752126692
10.0,0.029196293885412894
11.0,0.028686581804199696
12.0,0.028267380283292898
13.0,0.02778908021556381
14.0,0.027372520775536424
15.0,0.026957838654432464
16.0,0.026593934196662783
18.0,0.025798886896090112
20.0,0.02507843963450007
22.0,0.024320850326004395
24.0,0.02365059573069872
26.0,0.02302238454995731
28.0,0.02234339339410396
30.0,0.021711026430471625
32.0,0.02106615309099169
36.0,0.019914914916103976
40.0,0.018835920564635122
44.0,0.017825801151551968
48.0,0.016989252860548643
52.0,0.01628115854324541
56.0,0.01578697714727184
60.0,0.015264992666502275
64.0,0.014557350789015322
72.0,0.013179604719566695
80.0,0.012266833619919426
88.0,0.011350905966024838
96.0,0.010370539120986955
104.0,0.009463945214443603
112.0,0.008794692980605534
120.0,0.008044272345502979
128.0,0.0070852528228291245
144.0,0.005486256340551776
160.0,0.004458473873377944
176.0,0.003183360376122435
192.0,0.0019265780762143248
208.0,0.0008153445542604665
224.0,8.432298952931738e-05
240.0,8.152799621607976e-05
256.0,-5.7311512205004966e-05
288.0,0.0003188800049318541
320.0,0.0003327667009016544
352.0,-0.00031404178249938575
384.0,-0.0008799362685940615
416.0,-0.0014846867836671995
448.0,-0.001678449703139795
480.0,-0.0023666360472650583
512.0,-0.0028825223404004285
576.0,-0.004509525622803934
640.0,-0.005007527859491545
704.0,-0.004902798978238865
768.0,-0.006288426756418719
832.0,-0.006569530302699467
896.0,-0.008048971782389835
960.0,-0.008052330596666102
1024.0,-0.009407193916311507
1152.0,-0.0073975999913447055
1280.0,-0.005437669942616852
1408.0,-0.012176742847367028
1536.0,-0.015167055136794949
1664.0,-0.01240453008296405
1792.0,-0.010769821154958614
1920.0,-0.007986642081076134
2048.0,-0.005354808662659805
2304.0,0.0014942241705713233
2560.0,0.008876790326931117
2816.0,0.008949202666384437
3072.0,0.007348006325292422
3328.0,0.0028717935175779363
3584.0,0.006334342860003561
3840.0,0.003979395754240889
4096.0,-0.00329148927044165
4608.0,-0.0009369826613139232
5120.0,0.008371130100166324
5632.0,0.02135968035041702
6144.0,0.01823862750485361
6656.0,-0.001259112688674402
7168.0,-0.013238184846686374
7680.0,-0.023850595884365555
8192.0,0.0009398988530535668
9216.0,0.018526546479932238
10240.0,-0.007474894097426632
11264.0,0.00742134420334839
12288.0,-0.007938162460907616
13312.0,-0.04630693600217739
14336.0,-0.022578776173548754
end
