version,3.0
numOfCh,1
type,point
parent_name,mod-filtering
ch_type,1_1
kcount,1
numberNandB,1
brightnessNandB,1
carpet pos,0
pc,0
Time (ms),CH1 Auto-Correlation
1.0,0.06599122502097932
2.0,0.06348191465403263
3.0,0.06105726504040088
4.0,0.05953260411223127
5.0,0.057653956818843
6.0,0.05643825376794531
7.0,0.054937743757568436
8.0,0.05371553924240713
9.0,0.05222004729551433
10.0,0.0515357430048724
11.0,0.05058481211100507
12.0,0.0497549445172254
13.0,0.04855327529464337
14.0,0.04765150163921916
15.0,0.04661812166894608
16.0,0.045463481087304025
18.0,0.043452357396697394
20.0,0.04174706618912083
22.0,0.04074793020756329
24.0,0.03999346395963865
26.0,0.038968083558309274
28.0,0.03853017162746086
30.0,0.03772838607195439
32.0,0.03685373152836213
36.0,0.03515540850573817
40.0,0.033475367452443505
44.0,0.03169388553152852
48.0,0.03040543044239663
52.0,0.02942807989155849
56.0,0.027790606356405068
60.0,0.025878455585025772
64.0,0.025045539645688564
72.0,0.024031881009901612
80.0,0.024127227437521048
88.0,0.024119145686379406
96.0,0.0239835753979023
104.0,0.023003109488118012
112.0,0.02141699465732394
120.0,0.018838068091145965
128.0,0.01661806025991086
144.0,0.015390569452040426
160.0,0.01318408803257598
176.0,0.011136685319122597
192.0,0.011103141273700823
208.0,0.01191609857869147
224.0,0.014370921680503246
240.0,0.01613407227013597
256.0,0.01623810583899865
288.0,0.016834890892165832
320.0,0.019433186602500818
352.0,0.022285896851231612
384.0,0.02619847051860802
416.0,0.024283674150969103
448.0,0.021151126704659573
480.0,0.02014649099614596
512.0,0.01850219617084603
576.0,0.015324384106117028
640.0,0.021409699132491022
704.0,0.018461983561399498
768.0,0.0090466665286153
832.0,0.005623935369916566
896.0,0.0010967193271274045
960.0,-0.0008554981979826959
1024.0,0.017233439744242407
1152.0,0.01567431472128389
1280.0,0.007717874805239333
1408.0,-0.004440264328611998
1536.0,-0.00845600414028258
1664.0,0.014884852919030633
1792.0,0.03426602161771708
1920.0,0.02091343573948823
2048.0,0.016962143545947272
2304.0,0.03368058369143245
2560.0,0.03305498161755427
2816.0,-0.0023292927793251428
3072.0,-0.024737937565454948
3328.0,-0.05318096956771268
3584.0,-0.06490849890057626
3840.0,-0.08121583939725274
4096.0,-0.08093827471600867
4608.0,-0.03478149136222497
5120.0,-0.01778569553438758
5632.0,-0.004838310307736071
6144.0,-0.009384956947225187
6656.0,-0.0045806179336711494
7168.0,0.022036364319433455
7680.0,0.03705383274222296
8192.0,0.006810703489035896
9216.0,-0.00895883888717619
10240.0,0.046053269416345355
11264.0,-0.0003798644861785494
12288.0,0.0019321760087960271
13312.0,-0.003412040788560722
14336.0,0.03205077764039377
end
