version,3.0
numOfCh,1
type,point
parent_name,mod-filtering
ch_type,1_1
kcount,1
numberNandB,1
brightnessNandB,1
carpet pos,0
pc,0
Time (ms),CH1 Auto-Correlation
1.0,0.019183370283541112
2.0,0.018730593428528453
3.0,0.018584477184788728
4.0,0.018158250855887292
5.0,0.017685350428116697
6.0,0.017231179495077686
7.0,0.016937284341801417
8.0,0.016538046783555638
9.0,0.016269099923291286
10.0,0.01606818594668935
11.0,0.01576532191830693
12.0,0.01534410978431211
13.0,0.015109066221614231
14.0,0.014805530718242199
15.0,0.01453214381587875
16.0,0.014150287734139066
18.0,0.01377263036437082
20.0,0.013634474461766688
22.0,0.013302294623579902
24.0,0.012998853528620513
26.0,0.012740130137839811
28.0,0.012463956948528532
30.0,0.012071393711419631
32.0,0.011791859521952608
36.0,0.011433562954442866
40.0,0.010893860577469772
44.0,0.010277109118978611
48.0,0.009696398847218735
52.0,0.00884084044313882
56.0,0.008328298122258992
60.0,0.00816898010966649
64.0,0.008093502383004658
72.0,0.007458536749535227
80.0,0.00679836205179063
88.0,0.006362129310039766
96.0,0.006171041349729567
104.0,0.006122085669103328
112.0,0.006047598657983766
120.0,0.005403601720700202
128.0,0.005075590120180884
144.0,0.005829840795170238
160.0,0.006402243891983517
176.0,0.006088348050497849
192.0,0.005850349804507493
208.0,0.0055250824519601505
224.0,0.005344920816334975
240.0,0.005468989992572837
256.0,0.0060839026936139184
288.0,0.00623572947496287
320.0,0.006573375867527043
352.0,0.006517265700893615
384.0,0.007397700031933407
416.0,0.00810995080176502
448.0,0.007762315845245782
480.0,0.00822612395194322
512.0,0.00769460026286839
576.0,0.00447122904244579
640.0,0.00363703321565767
704.0,0.003887621158086052
768.0,0.0055262807604832265
832.0,0.0026477303320655565
896.0,0.00024628037424889726
960.0,-5.176250885097211e-05
1024.0,0.0023793438045160986
1152.0,0.002192755704314875
1280.0,0.0017899532806273655
1408.0,0.0027309668002626353
1536.0,0.0025156472095761995
1664.0,-0.0018432345169236974
1792.0,-0.002816544414036004
1920.0,-0.0013614247739734964
2048.0,-0.0007346447480529594
2304.0,-0.0012885286776435079
2560.0,-0.001627720497762053
2816.0,-0.0026937122893063714
3072.0,-0.0024130340622131596
3328.0,0.0003087842973990007
3584.0,-0.0011169256238492409
3840.0,-0.0019394992965739988
4096.0,-0.0001917606379524539
4608.0,0.0007227144102222027
5120.0,0.0007877724360720872
5632.0,-0.0012810084006962263
6144.0,-0.0001026834714565883
6656.0,-0.003674457810473264
7168.0,-0.002959681872755082
7680.0,-0.004646658596013875
8192.0,-0.00375356516597225
9216.0,-0.0025019020617832455
10240.0,-0.0014689722986560572
11264.0,0.001137211907254132
12288.0,0.005693467438816935
13312.0,0.0044170566027434965
14336.0,0.003189108696527221
end
