version,3.0
numOfCh,1
type,point
parent_name,mod-filtering
ch_type,1_1
kcount,1
numberNandB,1
brightnessNandB,1
carpet pos,0
pc,0
Time (ms),CH1 Auto-Correlation
1.0,0.062609024562301
2.0,0.05919723695417156
3.0,0.05646991781920918
4.0,0.05502986191320569
5.0,0.05291387918343493
6.0,0.05084414165205975
7.0,0.04928673940800343
8.0,0.04796484103046206
9.0,0.046508683734246326
10.0,0.04509568556453303
11.0,0.043998452186437165
12.0,0.042618744471354386
13.0,0.041349036481771906
14.0,0.0406636508214373
15.0,0.03976116351701675
16.0,0.03869599737065865
18.0,0.03712503745967766
20.0,0.035058095561791625
22.0,0.03318747891136442
24.0,0.03055886011635378
26.0,0.029412546722715982
28.0,0.027467157722031788
30.0,0.026198817087680126
32.0,0.02480707810397198
36.0,0.021897883997303857
40.0,0.01887214765572609
44.0,0.016739383033772315
48.0,0.014735385640920251
52.0,0.013805203593976634
56.0,0.01225019160076335
60.0,0.010215289687941498
64.0,0.008509253374343606
72.0,0.0045923903765072716
80.0,0.0017468935088025273
88.0,-0.0008881898725044968
96.0,-0.002773412033240885
104.0,-0.004025970089197917
112.0,-0.0058079908835675376
120.0,-0.007289353308527535
128.0,-0.00863489094307357
144.0,-0.00801204598116323
160.0,-0.007206276665532196
176.0,-0.005814233427444693
192.0,-0.003879987867429935
208.0,-0.002061731766475061
224.0,-0.0019980142389813826
240.0,-0.00436040641286195
256.0,-0.006966165892877796
288.0,-0.009316271375460983
320.0,-0.008355562488590262
352.0,-0.0057895156842086015
384.0,-0.0046062716989521135
416.0,-0.004187333713841834
448.0,-0.0025847716361319106
480.0,-0.004018162428783167
512.0,-0.005517963592816089
576.0,-0.00012916786770866828
640.0,0.002447794210109544
704.0,0.0043176367789965475
768.0,0.006034181993880505
832.0,0.010742392810852763
896.0,0.014329030535921383
960.0,0.01801465530833668
1024.0,0.012429102412509607
1152.0,0.02107067373754723
1280.0,0.020678414270165257
1408.0,0.02261371057881645
1536.0,0.017346051606759616
1664.0,0.00847542218240016
1792.0,0.02093840616916043
1920.0,0.024400110815092635
2048.0,0.00039895165596726123
2304.0,-0.01085836516305072
2560.0,0.0010568757208497814
2816.0,0.0037332679912935873
3072.0,0.0007092497295684286
3328.0,-0.00350215315034319
3584.0,-0.01068538999059565
3840.0,-0.005571231938156673
4096.0,-0.020124352101964615
4608.0,-0.00496317571856375
5120.0,-0.002795872204720329
5632.0,-0.01993222658187732
6144.0,0.004824640835368932
6656.0,0.016187510707454944
7168.0,0.007860365675181002
7680.0,-0.010981093755647597
8192.0,-0.011008173503775143
9216.0,0.0045289327820605685
10240.0,-0.006427883479745877
11264.0,0.011396701226512151
12288.0,0.006796359693532983
13312.0,-0.013559925175074428
14336.0,-0.01888638127426001
end
