version,3.0
numOfCh,1
type,point
parent_name,mod-filtering
ch_type,1_1
kcount,1
numberNandB,1
brightnessNandB,1
carpet pos,0
pc,0
Time (ms),CH1 Auto-Correlation
1.0,0.0626705893614039
2.0,0.05946739523334843
3.0,0.05734350952807277
4.0,0.05519485509218569
5.0,0.05357973206446909
6.0,0.051743692623287485
7.0,0.05018408867495383
8.0,0.04927216130912493
9.0,0.047692462308077666
10.0,0.04645840894822473
11.0,0.045010292413896646
12.0,0.04340980947495243
13.0,0.04198627017216938
14.0,0.040692607913002776
15.0,0.039516002061990685
16.0,0.03831387487123061
18.0,0.036108655646933885
20.0,0.034551379820958905
22.0,0.032809190485402207
24.0,0.030428739369972035
26.0,0.028349010755547077
28.0,0.026894595145941835
30.0,0.025821879983215057
32.0,0.024681681918824028
36.0,0.021344307466191204
40.0,0.019032382908230616
44.0,0.0178691627307197
48.0,0.017210037850725834
52.0,0.016233797865639943
56.0,0.015249553599608223
60.0,0.014668619335739264
64.0,0.014131160405450816
72.0,0.013742216147726527
80.0,0.01447803024075256
88.0,0.014223858833985137
96.0,0.013073232783324729
104.0,0.012148293043956038
112.0,0.012369142745105366
120.0,0.013559807487464326
128.0,0.014667333625954848
144.0,0.012772369469906009
160.0,0.009059785020010036
176.0,0.008637226065102643
192.0,0.00899106574724784
208.0,0.011000098659132096
224.0,0.01088177455863315
240.0,0.0090258068382707
256.0,0.008978985922039495
288.0,0.010577998963577251
320.0,0.00848025223155835
352.0,0.009384219547036166
384.0,0.006013064620967734
416.0,0.006811379970018461
448.0,0.009369479533089642
480.0,0.017177530049744316
512.0,0.016615913351339717
576.0,0.011943609242963227
640.0,0.010180130000952303
704.0,0.010615921874664203
768.0,0.002199520915184161
832.0,-0.007555625024018853
896.0,-0.008770954898277283
960.0,-0.010530099740043819
1024.0,-0.010268273744153067
1152.0,-0.009006696666915226
1280.0,-0.010275296942994339
1408.0,-0.014386560126039227
1536.0,-0.008328334256548664
1664.0,-0.0071667097430988536
1792.0,-0.003893361049041477
1920.0,-0.002958669232716482
2048.0,-0.005670112297911256
2304.0,0.02007875126891001
2560.0,0.007074940287736808
2816.0,-0.008514005839841077
3072.0,0.00707273159662547
3328.0,0.024299942899749905
3584.0,-0.0033135209044328207
3840.0,-0.018108553068318822
4096.0,0.018723565169473932
4608.0,-0.01545099804036476
5120.0,-0.02082255733192806
5632.0,-0.023219435245224518
6144.0,0.006558758163661249
6656.0,0.02259400123346267
7168.0,0.010860166103605406
7680.0,-0.009304293863296453
8192.0,-0.009843128434277704
9216.0,0.0024764518078859155
10240.0,0.0032982171851003717
11264.0,0.01245182606851869
12288.0,-0.02968788281661261
13312.0,0.005434236399934234
14336.0,4.894874436445207e-05
end
