version,3.0
numOfCh,1
type,point
parent_name,mod-filtering
ch_type,1_1
kcount,1
numberNandB,1
brightnessNandB,1
carpet pos,0
pc,0
Time (ms),CH1 Auto-Correlation
1.0,0.03170228833710498
2.0,0.030384443242456483
3.0,0.029408148515456256
4.0,0.028563944682937104
5.0,0.027822977631436485
6.0,0.026738899828082863
7.0,0.026035176220953415
8.0,0.025195168094547915
9.0,0.024650163058997032
10.0,0.023844085718659258
11.0,0.023084289709937256
12.0,0.02239289697682656
13.0,0.02184441372740209
14.0,0.02117330047049415
15.0,0.0205701970321317
16.0,0.019947679605988755
18.0,0.018986848775060183
20.0,0.018110766358204522
22.0,0.017442246658708083
24.0,0.016620713378373342
26.0,0.015733651035601648
28.0,0.014574955758893227
30.0,0.013533805050456982
32.0,0.01238362270379434
36.0,0.010632264119259327
40.0,0.009029935332035555
44.0,0.007936844606097004
48.0,0.00690826629311303
52.0,0.006047838377750692
56.0,0.0051507784604800655
60.0,0.004799873332976379
64.0,0.004822856806805609
72.0,0.005024092744773334
80.0,0.004423200359541024
88.0,0.003469963221126582
96.0,0.0028804695843325234
104.0,0.002318737776055846
112.0,0.001813449114666188
120.0,0.0010426439055437609
128.0,0.0002107989246373787
144.0,-0.0021468181837849265
160.0,-0.004379923864764379
176.0,-0.00672611381537902
192.0,-0.009106905567326073
208.0,-0.010288924016411238
224.0,-0.011143152071087625
240.0,-0.010895741666777536
256.0,-0.011137205717609122
288.0,-0.011424725645148404
320.0,-0.009824783886099864
352.0,-0.009558516909091486
384.0,-0.0072560937975497675
416.0,-0.006107944922771447
448.0,-0.005505539977774476
480.0,-0.007311024249146869
512.0,-0.00851016240760083
576.0,-0.015524840894366121
640.0,-0.021007297054366103
704.0,-0.026645743896314023
768.0,-0.028181067231293544
832.0,-0.025903161233251537
896.0,-0.02222563591178961
960.0,-0.017463046153659456
1024.0,-0.014562323924805831
1152.0,-0.009677547954230592
1280.0,-0.009081458926098573
1408.0,-0.004981962587237709
1536.0,-0.0040420268835831275
1664.0,-0.00226416371285576
1792.0,0.0011397213360160308
1920.0,5.472072075618506e-05
2048.0,0.0014957113285447576
2304.0,-0.0010150096878422943
2560.0,0.0026131828214297492
2816.0,-0.0002694398213413107
3072.0,-0.005419615111811438
3328.0,-0.0018162367843391758
3584.0,-0.008754496541048873
3840.0,-0.004670496550452152
4096.0,0.0016292234373067593
4608.0,0.010335113782714789
5120.0,0.0001717758476720288
5632.0,0.01044219239683386
6144.0,0.012465938414867983
6656.0,0.00513210036977596
7168.0,0.014081171538526283
7680.0,0.009082958815882947
8192.0,0.017924200243556454
9216.0,0.003284377983781006
10240.0,0.005820759750592375
11264.0,0.005790882252013629
12288.0,0.004287527569067029
13312.0,-0.0015040569434434659
14336.0,-0.04673827815791065
end
