version,3.0
numOfCh,1
type,point
parent_name,mod-filtering
ch_type,1_1
kcount,1
numberNandB,1
brightnessNandB,1
carpet pos,0
pc,0
Time (ms),CH1 Auto-Correlation
1.0,0.06098584342017821
2.0,0.058275611549243767
3.0,0.05619673195377306
4.0,0.054627664595921166
5.0,0.053465446815789575
6.0,0.05197847053922966
7.0,0.05062181774525798
8.0,0.049467304237802656
9.0,0.04856290279116582
10.0,0.047140126156713036
11.0,0.04615552000476719
12.0,0.045154106517803605
13.0,0.04447163969532264
14.0,0.04388322949387513
15.0,0.0431571820915595
16.0,0.041910506307912376
18.0,0.04005822078320742
20.0,0.03786948651890021
22.0,0.035725134776075196
24.0,0.03390467822843868
26.0,0.03238801703732386
28.0,0.030571615714295453
30.0,0.029022916657341913
32.0,0.027341058905310245
36.0,0.024877879527866353
40.0,0.02294820573281453
44.0,0.02146307008917203
48.0,0.019814495276521127
52.0,0.018912756335513814
56.0,0.018002797453464225
60.0,0.016534083699225377
64.0,0.015468049013419805
72.0,0.013518043177213945
80.0,0.011593797734922306
88.0,0.008983031275689557
96.0,0.006434569723931194
104.0,0.0038269161523611928
112.0,0.0010374318811174899
120.0,-0.0008096140432830579
128.0,-0.0012566546737861062
144.0,-6.530210097888123e-06
160.0,-0.0002486508121897213
176.0,-0.0009352059685900915
192.0,0.00024928263362711256
208.0,0.0005726717513752089
224.0,0.0008284740456312445
240.0,0.0010143111063407595
256.0,-0.000791567825409567
288.0,-0.003023917948784649
320.0,-0.0038680079024766556
352.0,-0.006507975100539465
384.0,-0.009486176414781666
416.0,-0.01089879115986958
448.0,-0.009571567610156206
480.0,-0.006637979089817114
512.0,-0.0032425067175646527
576.0,0.0024376342053304967
640.0,0.006435012665134465
704.0,0.0040824505863361615
768.0,0.011124531961559603
832.0,0.017544877328879993
896.0,0.013945999486237648
960.0,0.01075212319942409
1024.0,0.009736151326284803
1152.0,-0.006983588369578464
1280.0,-0.010457471185959188
1408.0,-0.002766576745464544
1536.0,0.00517808783910656
1664.0,0.01415781264659266
1792.0,0.010688875449918367
1920.0,0.009562883550771728
2048.0,0.0038685667250675237
2304.0,-6.961322487364363e-05
2560.0,-0.0013100595361950074
2816.0,0.0003872927453596464
3072.0,-0.004013078041545715
3328.0,-0.010629442562269165
3584.0,-0.0033817864066129077
3840.0,-0.0020505530094541147
4096.0,0.005258127413999114
4608.0,0.029447633386654015
5120.0,0.025447092557670414
5632.0,0.01109268802738117
6144.0,-0.0048638446908405575
6656.0,0.010655554020642555
7168.0,0.005951030727916029
7680.0,0.01812079067017547
8192.0,-0.0014592553615941917
9216.0,0.005310755301355163
10240.0,0.01308831658085019
11264.0,-0.08011375491717565
12288.0,-0.07109078592343399
13312.0,-0.027485461181459003
14336.0,-0.019351573200643624
end
