version,3.0
numOfCh,1
type,point
parent_name,mod-filtering
ch_type,1_1
kcount,1
numberNandB,1
brightnessNandB,1
carpet pos,0
pc,0
Time (ms),CH1 Auto-Correlation
1.0,0.035882707926784274
2.0,0.03505577890032896
3.0,0.03431152402467097
4.0,0.03340190068409732
5.0,0.032740724293099266
6.0,0.03180381156954981
7.0,0.03135075065440729
8.0,0.03083478956900665
9.0,0.03022304429920797
10.0,0.029849907022739153
11.0,0.029435492674084962
12.0,0.028963612585714005
13.0,0.0285424824780125
14.0,0.028029405405856078
15.0,0.027691743538834412
16.0,0.02716162430117719
18.0,0.02633561495911385
20.0,0.025470994952053738
22.0,0.024798253192632735
24.0,0.024159849049338877
26.0,0.02373960105708184
28.0,0.023398861290035988
30.0,0.02299517010743579
32.0,0.02267107232711818
36.0,0.022074009452277776
40.0,0.021580548402857946
44.0,0.020891914544344914
48.0,0.020479564896044078
52.0,0.02006601904814742
56.0,0.020070352280053383
60.0,0.020334832372896683
64.0,0.020639507016564362
72.0,0.020076619737859236
80.0,0.019317558342913932
88.0,0.018681988274930283
96.0,0.018625116246517637
104.0,0.019478368408078817
112.0,0.019940724939011112
120.0,0.020257403601398938
128.0,0.019976963081717702
144.0,0.018357233928483874
160.0,0.018391599009840887
176.0,0.020115832649696852
192.0,0.02272395622860679
208.0,0.024771740384670782
224.0,0.028373352772653737
240.0,0.03216334863543446
256.0,0.03375278661560399
288.0,0.03365324360426558
320.0,0.031958189703441775
352.0,0.03277408380078528
384.0,0.02784710438020177
416.0,0.026812161608471108
448.0,0.022914278266797483
480.0,0.02289806852992249
512.0,0.02133376284458932
576.0,0.009418916940552746
640.0,-0.0010906837833334349
704.0,-0.012235767653019813
768.0,-0.01939337043162892
832.0,-0.02811738525819829
896.0,-0.03890163561457405
960.0,-0.04962570214091877
1024.0,-0.05292353954964779
1152.0,-0.05541145541049164
1280.0,-0.055390100165119804
1408.0,-0.05764869785079019
1536.0,-0.04148789015635912
1664.0,-0.03251581549499927
1792.0,-0.040404197733153624
1920.0,-0.045205298058416
2048.0,-0.01926427979790235
2304.0,0.007366993724460036
2560.0,0.024512713145547815
2816.0,0.010188352804378242
3072.0,0.008067645688971226
3328.0,0.01026607875824248
3584.0,-0.01616811275988206
3840.0,-0.09677499443875237
4096.0,-0.14278402485791775
4608.0,-0.12661713603162927
5120.0,-0.08821251607291769
5632.0,0.03143743672277899
6144.0,-0.014133856727662764
6656.0,-0.015308427575824846
7168.0,0.036944812218319134
7680.0,0.14740790570109485
8192.0,0.1380106622484023
9216.0,0.10182901609104045
10240.0,0.13618111602338345
11264.0,0.0007796226932856865
12288.0,-0.0746979503264058
13312.0,0.04022547366815821
14336.0,-0.0337281000564581
end
