version,3.0
numOfCh,1
type,point
parent_name,mod-filtering
ch_type,1_1
kcount,1
numberNandB,1
brightnessNandB,1
carpet pos,0
pc,0
Time (ms),CH1 Auto-Correlation
1.0,0.01463871066253164
2.0,0.014057883149170447
3.0,0.013551907200927138
4.0,0.0132341956637827
5.0,0.013001250498019035
6.0,0.012728343461849478
7.0,0.012401882215251181
8.0,0.012011855378774028
9.0,0.011810952484874182
10.0,0.011561671956908715
11.0,0.011281689833579023
12.0,0.011160516580383417
13.0,0.010972053380243763
14.0,0.010865186636516588
15.0,0.010719641677539471
16.0,0.010477225630528553
18.0,0.009970092452699086
20.0,0.009686122652809992
22.0,0.009434631537434734
24.0,0.009190724123248284
26.0,0.008793219610902847
28.0,0.00863296931421731
30.0,0.008493682690128512
32.0,0.008215192408047356
36.0,0.0077973639514206106
40.0,0.007382405506379142
44.0,0.00684670035963153
48.0,0.006249171908657258
52.0,0.00594502570450528
56.0,0.005488718619731658
60.0,0.00513014694738767
64.0,0.004895809294090947
72.0,0.0037808335981295293
80.0,0.0028493790036578925
88.0,0.0021556981635593164
96.0,0.0014610627769917617
104.0,0.0013359791064859738
112.0,0.001448591114486586
120.0,0.0015304430367288901
128.0,0.0009490865770280799
144.0,-0.0010465582586233202
160.0,-0.0018400066552217709
176.0,-0.0015224569495911888
192.0,-0.0016169755830128807
208.0,-0.0019192690125069412
224.0,-0.0017568644591609006
240.0,-0.0015778700349178276
256.0,-0.0023545551987367297
288.0,-0.002931567968294302
320.0,-0.0030901541448752345
352.0,-0.0024428748778646536
384.0,-0.0034417409355190776
416.0,-0.004260595461234584
448.0,-0.003012533773388393
480.0,-0.0028475755422295856
512.0,-0.003957133183179029
576.0,-0.0033519235714656315
640.0,-0.0030376724665707178
704.0,-0.0017714045563379521
768.0,-0.0017755057340544944
832.0,-0.0017103900314021647
896.0,0.0009793453630349003
960.0,0.003013673307490139
1024.0,0.005272948609259753
1152.0,0.003022292765558099
1280.0,0.001541825138330566
1408.0,0.002068792587154311
1536.0,0.0019231589502384239
1664.0,-0.0008992956143881736
1792.0,0.0012155766222556874
1920.0,0.00033487792106168257
2048.0,0.0010500657701615346
2304.0,3.080146725964461e-05
2560.0,0.0006867699467005828
2816.0,-0.0006369148785588807
3072.0,-0.0004331697336233953
3328.0,0.00012207906075922814
3584.0,0.0006339725051076606
3840.0,3.854739213160485e-06
4096.0,-0.00021690120376804956
4608.0,0.00019023337452961364
5120.0,0.0022605750889455045
5632.0,-0.0033590872361056734
6144.0,-0.003298277418957496
6656.0,-0.0038828069735973303
7168.0,0.000776163607783209
7680.0,0.0022639615318138517
8192.0,0.0017181440063485098
9216.0,0.0007391446101892019
10240.0,-5.807444480732116e-05
11264.0,0.00322334699044613
12288.0,0.0012547004706291442
13312.0,-0.0037329795449403402
14336.0,-0.0027189266494385134
end
