version,3.0
numOfCh,1
type,point
parent_name,mod-filtering
ch_type,1_1
kcount,1
numberNandB,1
brightnessNandB,1
carpet pos,0
pc,0
Time (ms),CH1 Auto-Correlation
1.0,0.035871860290963564
2.0,0.03507068100145094
3.0,0.034318718097114065
4.0,0.03361643391066926
5.0,0.03303942259871562
6.0,0.032509094030000574
7.0,0.031964198778809294
8.0,0.03145370391501068
9.0,0.030884976104498918
10.0,0.0303750982181632
11.0,0.029897894603752473
12.0,0.02944943851810189
13.0,0.029108449056043373
14.0,0.028677021282888626
15.0,0.028235840463508355
16.0,0.027736130510598977
18.0,0.026835030348683286
20.0,0.026157669491797098
22.0,0.02543414001574429
24.0,0.024716903781983213
26.0,0.024059242885916987
28.0,0.0234013839985987
30.0,0.022697867314458442
32.0,0.02191039557968888
36.0,0.02077327448315658
40.0,0.019621992833637192
44.0,0.018506255365013047
48.0,0.01744732835977314
52.0,0.016453915208751058
56.0,0.015442641234360455
60.0,0.014404969459398842
64.0,0.013403347885851735
72.0,0.011559492068719202
80.0,0.010128886780176094
88.0,0.008816688038607134
96.0,0.007811846256209787
104.0,0.007060044806409094
112.0,0.006189258121695573
120.0,0.005362535296973947
128.0,0.004830266715790232
144.0,0.0034266569904559674
160.0,0.001916714995060742
176.0,0.0011051664228429736
192.0,0.0005741177328539848
208.0,0.0005614461436562745
224.0,0.0007880469787411304
240.0,0.0011968684528376183
256.0,0.0016159378121818335
288.0,0.001683759446760691
320.0,0.0013926342315286888
352.0,-3.3090816854319804e-05
384.0,-0.0014024346211285454
416.0,-0.0014176290474597897
448.0,-0.001637288245959767
480.0,-0.0027480659455009215
512.0,-0.0030670290238826725
576.0,-0.000549613657078063
640.0,0.0007689171594593702
704.0,-0.0009142866906918234
768.0,-0.0013689726339916053
832.0,-0.001519954008385449
896.0,-0.00011184770120009624
960.0,0.001789547541338976
1024.0,0.0032918369922199098
1152.0,0.00307348781954353
1280.0,0.002149935993967178
1408.0,0.004331455804655215
1536.0,0.0037736946116340153
1664.0,0.0044678171579053405
1792.0,0.003926155037587531
1920.0,0.0023466080026584013
2048.0,6.779319133243256e-05
2304.0,-0.0020842672866283607
2560.0,-0.00046134023513466627
2816.0,0.0015300765664794103
3072.0,0.0011006014815651
3328.0,0.0012498327223351424
3584.0,0.003535931043673335
3840.0,0.0017147035115452347
4096.0,1.9761110155336326e-05
4608.0,0.002872346052104291
5120.0,-0.0004297156984682804
5632.0,0.0003128997282555446
6144.0,0.00025633610426134545
6656.0,-0.0035287121120320952
7168.0,0.001582315126823719
7680.0,-0.004452805114622871
8192.0,-0.0018675497717155487
9216.0,-0.0018701881330468462
10240.0,-0.001719080019688124
11264.0,-0.00430745252985798
12288.0,-0.0022550215016911013
13312.0,-0.0012078286793187898
14336.0,-0.0034012814507842215
end
