version,3.0
numOfCh,1
type,point
parent_name,mod-filtering
ch_type,1_1
kcount,1
numberNandB,1
brightnessNandB,1
carpet pos,0
pc,0
Time (ms),CH1 Auto-Correlation
1.0,0.021833273711034717
2.0,0.02129512529889377
3.0,0.02079946528058718
4.0,0.020175661414957746
5.0,0.019519996436211384
6.0,0.019037302522425747
7.0,0.018701601356529318
8.0,0.018290551126260324
9.0,0.01794957235945449
10.0,0.017621060296088453
11.0,0.01739253260864615
12.0,0.0172468387774527
13.0,0.016978742390059143
14.0,0.01688849074899257
15.0,0.016569571702330865
16.0,0.016207387502119808
18.0,0.01573639109381375
20.0,0.01525435306557732
22.0,0.014681073346954676
24.0,0.014380192685170545
26.0,0.014168394769997095
28.0,0.014177168173670651
30.0,0.014126286490044881
32.0,0.013728823997523065
36.0,0.0133218436997955
40.0,0.013284008551369242
44.0,0.012968323398385051
48.0,0.012397805111468818
52.0,0.012001868112217151
56.0,0.011887252310489593
60.0,0.011879768026987536
64.0,0.011951958616233549
72.0,0.012082868080049547
80.0,0.011605133335038875
88.0,0.011123507522024179
96.0,0.010849767063314086
104.0,0.01057264313877182
112.0,0.010873182816541815
120.0,0.010998356643087348
128.0,0.010976845343703578
144.0,0.011341659733558718
160.0,0.011680509014760476
176.0,0.010211769066649445
192.0,0.011037897008716602
208.0,0.011660703029539699
224.0,0.010883577308354653
240.0,0.01023891127452714
256.0,0.00932448703457256
288.0,0.008398759917970677
320.0,0.006907821617086141
352.0,0.007373799439160722
384.0,0.005241640941503256
416.0,0.004913599280942593
448.0,0.005687966480669049
480.0,0.006342296447993778
512.0,0.005346521037406626
576.0,0.005065815090690817
640.0,0.0019095494680210212
704.0,-0.0029918506883080953
768.0,-0.00208222185860496
832.0,0.0023442685984986777
896.0,0.0024393982389514512
960.0,0.005655554571351695
1024.0,0.005778358780099024
1152.0,0.004914913349754135
1280.0,0.0010475317443507937
1408.0,-0.002963867292750333
1536.0,-0.0027021296119376093
1664.0,-0.0018305401849205705
1792.0,-0.001349711894027772
1920.0,-0.000646011671827762
2048.0,0.0017435625143342737
2304.0,-0.0036369667169607878
2560.0,-0.005110979567688689
2816.0,-0.006944067059029058
3072.0,-0.0014386410630472524
3328.0,0.0005664504584761421
3584.0,0.004297551745204187
3840.0,-0.0014076564031402228
4096.0,-0.00017801784734450266
4608.0,-0.0004583186422437713
5120.0,-0.0004970068744506451
5632.0,0.0013304205099611277
6144.0,-0.0015877488097759684
6656.0,-0.0011842022838435273
7168.0,-0.0019075705587068281
7680.0,-0.004936227535388693
8192.0,-0.006111753534691511
9216.0,-0.0010019844944195722
10240.0,0.0036153482535852266
11264.0,0.000840902774871477
12288.0,-0.0057975772007675674
13312.0,0.002621793391808014
14336.0,0.004449090748197548
end
