version,3.0
numOfCh,1
type,point
parent_name,mod-filtering
ch_type,1_1
kcount,1
numberNandB,1
brightnessNandB,1
carpet pos,0
pc,0
Time (ms),CH1 Auto-Correlation
1.0,0.030617365752018344
2.0,0.030061455448661123
3.0,0.029517316455501375
4.0,0.028985408093715526
5.0,0.028461263020644667
6.0,0.027971240680070952
7.0,0.027502372696999844
8.0,0.02704318088799651
9.0,0.02661083123139174
10.0,0.026193895151592983
11.0,0.025792882674116724
12.0,0.02540017597862665
13.0,0.025008196900528246
14.0,0.02463534275896273
15.0,0.02426397843676309
16.0,0.02390626013324182
18.0,0.023162079373422406
20.0,0.022426745459664055
22.0,0.02174266845431716
24.0,0.02112552245125965
26.0,0.02057617947231516
28.0,0.020072736003969416
30.0,0.019604096269963733
32.0,0.019165282943796935
36.0,0.018310571484933424
40.0,0.01748438857008261
44.0,0.016662837697055455
48.0,0.015838626362683517
52.0,0.015071026551462419
56.0,0.014400565373051899
60.0,0.013771736629742515
64.0,0.013152080454257975
72.0,0.011985852085461879
80.0,0.011061046396135588
88.0,0.010528217403059648
96.0,0.010005731892223535
104.0,0.00951013037601145
112.0,0.00901714167507861
120.0,0.008652856417850074
128.0,0.008313426157831039
144.0,0.007437547628581731
160.0,0.006646574519218573
176.0,0.006150883026009302
192.0,0.005824350437819703
208.0,0.005617672352893566
224.0,0.005103470379828723
240.0,0.004989953031305561
256.0,0.004826753358741387
288.0,0.003968278424930194
320.0,0.004052981946686129
352.0,0.004393605931452438
384.0,0.004664266640643566
416.0,0.004171745437424823
448.0,0.0026324042739971354
480.0,0.001080979866518783
512.0,-0.001008230357814166
576.0,-0.0006019336739393477
640.0,0.0006652844616665821
704.0,0.0008424018214943096
768.0,0.000425085400660663
832.0,0.001016062393325523
896.0,0.00035271076519038935
960.0,-0.0012470147450661662
1024.0,-0.0024640076895759977
1152.0,-0.002845110300005116
1280.0,-0.002799945303446183
1408.0,-0.0022212543056413514
1536.0,-0.0005778963878888543
1664.0,-0.00040508315262421934
1792.0,2.2783511994806105e-06
1920.0,7.728601354894948e-05
2048.0,-0.000913979813896515
2304.0,-0.0020546534081058443
2560.0,-0.0017618780866288652
2816.0,-0.00040753489208689153
3072.0,-0.0015823755583699306
3328.0,-0.002044630536547354
3584.0,0.0005895594799749659
3840.0,0.00023059380069789803
4096.0,0.0006500703131415708
4608.0,0.0006650166332013985
5120.0,-0.0002793463883299374
5632.0,-0.0009584738152310646
6144.0,-0.0018767006978455125
6656.0,0.000305397650543604
7168.0,0.006644446665191817
7680.0,0.001122461376856343
8192.0,-0.0016960559330310154
9216.0,-0.0036429836133372584
10240.0,-0.001960882114393936
11264.0,0.0003283928874180386
12288.0,0.0002486474748006895
13312.0,-5.1009574334237584e-05
14336.0,0.0014303025942399294
end
