version,3.0
numOfCh,1
type,point
parent_name,1-cuts
ch_type,1_1
kcount,1
numberNandB,1
brightnessNandB,1
carpet pos,0
pc,0
Time (ms),CH1 Auto-Correlation
1.0,0.02796553075313568
2.0,0.022983895614743233
3.0,0.019584769383072853
4.0,0.017164893448352814
5.0,0.01508080679923296
6.0,0.01345472689718008
7.0,0.011998026631772518
8.0,0.010718337260186672
9.0,0.009732634760439396
10.0,0.008781098760664463
11.0,0.008294321596622467
12.0,0.007769990712404251
13.0,0.0072880759835243225
14.0,0.00664141308516264
15.0,0.006230950355529785
16.0,0.005843508988618851
18.0,0.005220827180892229
20.0,0.004811599850654602
22.0,0.004345202352851629
24.0,0.004060594830662012
26.0,0.0037601070944219828
28.0,0.0032568853348493576
30.0,0.0029664698522537947
32.0,0.0026724147610366344
36.0,0.00200029369443655
40.0,0.001957993023097515
44.0,0.002155782887712121
48.0,0.001771849114447832
52.0,0.0016511580906808376
56.0,0.0015846546739339828
60.0,0.0017133656656369567
64.0,0.0015712028834968805
72.0,0.0015519082080572844
80.0,0.0013880896149203181
88.0,0.0010869437828660011
96.0,0.0004614637291524559
104.0,-0.00045729472185485065
112.0,-0.0003234262694604695
120.0,-0.000451048428658396
128.0,-0.00029062581597827375
144.0,0.00011453205661382526
160.0,-8.849759979057126e-06
176.0,0.0007809329545125365
192.0,0.0002948149631265551
208.0,0.0001975230115931481
224.0,-0.00022238254314288497
240.0,-0.0002061195409623906
256.0,-0.00037455218262039125
288.0,-0.0006385784363374114
320.0,-0.00032715301495045424
352.0,-0.0010368076618760824
384.0,-0.0012241739314049482
416.0,-0.0006886960472911596
448.0,-0.00035098669468425214
480.0,9.777166997082531e-05
512.0,0.0012411178322508931
576.0,0.0008971428615041077
640.0,0.00011580401769606397
704.0,0.00018542756151873618
768.0,5.385853364714421e-05
832.0,-0.00034230409073643386
896.0,-0.0008465339778922498
960.0,-0.0005982271395623684
1024.0,0.0003001586301252246
1152.0,-0.0004594411875586957
1280.0,0.0003420089778956026
1408.0,-0.0004666301829274744
1536.0,0.00012006355245830491
1664.0,-0.0003115953004453331
1792.0,4.162999175605364e-05
1920.0,0.00012218700430821627
2048.0,0.0010763020254671574
2304.0,-0.0005549537600018084
2560.0,-0.00024207000387832522
2816.0,0.0003809744957834482
3072.0,-0.00033346243435516953
3328.0,0.0005131874931976199
3584.0,-0.0001676215761108324
3840.0,-0.0008006645366549492
4096.0,8.486874139634892e-05
4608.0,-0.00013224303256720304
5120.0,0.00018947530770674348
5632.0,-0.00023246569617185742
6144.0,-0.00021378928795456886
6656.0,-0.0001383390772389248
7168.0,0.00038580578984692693
7680.0,-0.00011764684313675389
8192.0,-0.00022767568589188159
9216.0,3.6998440918978304e-05
10240.0,0.0002015771606238559
11264.0,9.905546176014468e-05
12288.0,-0.0004951475420966744
13312.0,6.88615909893997e-05
14336.0,0.0002674278512131423
end
