version,3.0
numOfCh,1
type,point
parent_name,1-cuts
ch_type,1_1
kcount,1
numberNandB,1
brightnessNandB,1
carpet pos,0
pc,0
Time (ms),CH1 Auto-Correlation
1.0,0.016700895503163338
2.0,0.01369783841073513
3.0,0.011631733737885952
4.0,0.010090130381286144
5.0,0.00893351435661316
6.0,0.008095156401395798
7.0,0.007498224265873432
8.0,0.006975370924919844
9.0,0.006529179401695728
10.0,0.006022381596267223
11.0,0.005589026492089033
12.0,0.005170957185328007
13.0,0.004794104024767876
14.0,0.004493345972150564
15.0,0.004180132411420345
16.0,0.003727182513102889
18.0,0.003297101706266403
20.0,0.0031303223222494125
22.0,0.002740735886618495
24.0,0.002509952522814274
26.0,0.0021811581682413816
28.0,0.00197551678866148
30.0,0.0019376190612092614
32.0,0.0018253527814522386
36.0,0.0016639659879729152
40.0,0.001468424336053431
44.0,0.0014155259123072028
48.0,0.0014748836401849985
52.0,0.0016651389887556434
56.0,0.0018283722456544638
60.0,0.0016387823270633817
64.0,0.0015104884514585137
72.0,0.0009902484016492963
80.0,0.000520789239089936
88.0,0.0005428431322798133
96.0,0.0006981813348829746
104.0,0.0006552636041305959
112.0,0.0002679552126210183
120.0,-0.000319547310937196
128.0,-0.0006537178414873779
144.0,-0.00025261443806812167
160.0,0.00039872853085398674
176.0,0.0006034084362909198
192.0,0.00024810867034830153
208.0,0.0002857334038708359
224.0,-0.0002665698993951082
240.0,-0.00025823686155490577
256.0,-0.00014506286242976785
288.0,0.00032189954072237015
320.0,0.000491814804263413
352.0,8.672136027598754e-05
384.0,-9.026623592944816e-05
416.0,-0.00063322827918455
448.0,-0.0002508613106328994
480.0,-0.00021522925817407668
512.0,8.249859820352867e-05
576.0,0.0001449467526981607
640.0,0.0002132098888978362
704.0,3.776735320570879e-05
768.0,0.0005076591623947024
832.0,0.00018555886344984174
896.0,-0.00045000636600889266
960.0,-0.0005649460363201797
1024.0,-0.00024890960776247084
1152.0,0.00019017182057723403
1280.0,-6.541825860040262e-05
1408.0,0.0002719000040087849
1536.0,0.0007160118548199534
1664.0,0.0006844293093308806
1792.0,0.00021987267246004194
1920.0,-4.0421618905384094e-05
2048.0,2.448755367367994e-05
2304.0,-9.891877562040463e-05
2560.0,-0.00029402077780105174
2816.0,1.6947078620432876e-06
3072.0,-2.4201795895351097e-05
3328.0,0.00010777516581583768
3584.0,1.0998044672305696e-05
3840.0,-0.00035182933788746595
4096.0,-0.0004132151370868087
4608.0,9.303538536187261e-05
5120.0,-0.00023081056133378297
5632.0,-0.0005028481245972216
6144.0,6.370650953613222e-05
6656.0,0.00015828841424081475
7168.0,-0.00027740836958400905
7680.0,-0.00012308191799093038
8192.0,0.0002347452682442963
9216.0,-0.00012430893548298627
10240.0,9.739018423715606e-05
11264.0,8.038972009671852e-05
12288.0,-0.0001137578728958033
13312.0,0.00010030582052422687
14336.0,-0.00029176403768360615
end
