version,3.0
numOfCh,1
type,point
parent_name,1-cuts
ch_type,1_1
kcount,1
numberNandB,1
brightnessNandB,1
carpet pos,0
pc,0
Time (ms),CH1 Auto-Correlation
1.0,0.017402878031134605
2.0,0.014310980215668678
3.0,0.012148283421993256
4.0,0.0106002576649189
5.0,0.009388092905282974
6.0,0.008447876200079918
7.0,0.007731630466878414
8.0,0.007052063941955566
9.0,0.0064978101290762424
10.0,0.006063666194677353
11.0,0.005582515615969896
12.0,0.005167202092707157
13.0,0.004871295299381018
14.0,0.004568180069327354
15.0,0.0041953823529183865
16.0,0.0038546097930520773
18.0,0.0032641447614878416
20.0,0.0026867978740483522
22.0,0.0021388670429587364
24.0,0.0019896093290299177
26.0,0.0019748785998672247
28.0,0.001910477178171277
30.0,0.001760915038175881
32.0,0.0016883120406419039
36.0,0.0016713463701307774
40.0,0.001633811043575406
44.0,0.0017304066568613052
48.0,0.0016183974221348763
52.0,0.0016258286777883768
56.0,0.0016518936026841402
60.0,0.0013476221356540918
64.0,0.0011398830683901906
72.0,0.0010470736306160688
80.0,0.0009483411558903754
88.0,0.0009197509498335421
96.0,0.0007213608478195965
104.0,0.0006176357856020331
112.0,0.0007647445891052485
120.0,0.00027843317366205156
128.0,0.00020881755335722119
144.0,0.0004020374617539346
160.0,0.0003569223335944116
176.0,0.0006920655141584575
192.0,0.000674174923915416
208.0,0.0003668263670988381
224.0,0.0007324978359974921
240.0,0.0005736585590057075
256.0,0.0004745088517665863
288.0,9.606646199245006e-05
320.0,-0.00024213327560573816
352.0,-0.00038579554529860616
384.0,-0.00027944293105974793
416.0,-0.00018465117318555713
448.0,-0.00014070993347559124
480.0,0.00023779990442562848
512.0,-0.00011643114703474566
576.0,-0.00046915796701796353
640.0,-0.0003698945220094174
704.0,-0.00044817663729190826
768.0,-0.0003422303416300565
832.0,-0.00011508683382999152
896.0,-0.00016749998030718416
960.0,-5.5162672651931643e-05
1024.0,7.893957808846608e-05
1152.0,-4.5834265620214865e-05
1280.0,7.527943671448156e-05
1408.0,0.0004198219394311309
1536.0,1.8650712263479363e-06
1664.0,-9.776771912584081e-05
1792.0,-0.00023482943652197719
1920.0,-1.5045221516629681e-05
2048.0,-0.0002634678967297077
2304.0,-0.00012670090654864907
2560.0,0.0002034172648563981
2816.0,0.000358996563591063
3072.0,0.00023127203166950494
3328.0,-0.00021905590256210417
3584.0,-0.0004704544262494892
3840.0,1.0360750820836984e-05
4096.0,0.0002834189508575946
4608.0,-8.981948485597968e-05
5120.0,-9.026793850352988e-05
5632.0,8.951238123700023e-05
6144.0,-0.00017783437215257436
6656.0,-6.553839921252802e-05
7168.0,0.00028901349287480116
7680.0,-7.43312994018197e-05
8192.0,-1.4266903235693462e-05
9216.0,0.00031460620812140405
10240.0,8.404604159295559e-05
11264.0,-0.0003307489096187055
12288.0,-1.9456292648101225e-05
13312.0,0.0001972304453374818
14336.0,-0.000389950379030779
end
