version,3.0
numOfCh,1
type,point
parent_name,1-cuts
ch_type,1_1
kcount,1
numberNandB,1
brightnessNandB,1
carpet pos,0
pc,0
Time (ms),CH1 Auto-Correlation
1.0,0.02722238004207611
2.0,0.022454554215073586
3.0,0.019100166857242584
4.0,0.016633326187729836
5.0,0.014935100451111794
6.0,0.013487941585481167
7.0,0.01237955316901207
8.0,0.011378569528460503
9.0,0.010716915130615234
10.0,0.010090108960866928
11.0,0.009515251964330673
12.0,0.008946436457335949
13.0,0.008367229253053665
14.0,0.007926609367132187
15.0,0.0075821541249752045
16.0,0.007197324652224779
18.0,0.006205895449966192
20.0,0.0055148000828921795
22.0,0.004857631865888834
24.0,0.004487635102123022
26.0,0.0040379599668085575
28.0,0.003630894934758544
30.0,0.0035007058177143335
32.0,0.0033525140024721622
36.0,0.003153488039970398
40.0,0.0030608850065618753
44.0,0.003247874090448022
48.0,0.002796178450807929
52.0,0.00246649538166821
56.0,0.00215923972427845
60.0,0.001860150950960815
64.0,0.0015418948605656624
72.0,0.002139809774234891
80.0,0.0026061893440783024
88.0,0.002217828994616866
96.0,0.0017402148805558681
104.0,0.0009531350224278867
112.0,0.00035489772562868893
120.0,0.0005014773923903704
128.0,0.000898853235412389
144.0,-8.413296745857224e-05
160.0,-0.0002990353968925774
176.0,-0.0008218149305321276
192.0,-0.0009949340019375086
208.0,-0.0008032228797674179
224.0,-0.0003748391172848642
240.0,-0.00033039666595868766
256.0,-0.0002728532999753952
288.0,-0.001181603642180562
320.0,-0.0006989882094785571
352.0,-0.00044735358096659184
384.0,-0.0007059441413730383
416.0,-0.0014265523059293628
448.0,-0.001501548569649458
480.0,-0.0010178852826356888
512.0,-0.001027663005515933
576.0,-0.0003783282882068306
640.0,-0.0001575540518388152
704.0,0.0002082622522721067
768.0,-0.0006200996576808393
832.0,-3.1944837246555835e-05
896.0,0.0005600569420494139
960.0,0.0004603973065968603
1024.0,0.0007055391324684024
1152.0,0.0003957613662350923
1280.0,-3.3851487387437373e-05
1408.0,-0.0008262984920293093
1536.0,-6.105620741436724e-06
1664.0,-0.000510286190547049
1792.0,7.417215965688229e-05
1920.0,0.0002408703585388139
2048.0,0.0006971698021516204
2304.0,0.00019171992607880384
2560.0,-9.947999933501706e-05
2816.0,-0.00011755373270716518
3072.0,-0.0006375590455718338
3328.0,0.00028565776301547885
3584.0,0.0003695141931530088
3840.0,-0.0005243625491857529
4096.0,-1.7361517166136764e-05
4608.0,0.0004762374155689031
5120.0,-0.0005221660831011832
5632.0,0.0004938048077747226
6144.0,-0.0006385167362168431
6656.0,0.000595463439822197
7168.0,-0.0005141875008121133
7680.0,0.0002863353001885116
8192.0,-0.00020279489399399608
9216.0,7.671170897083357e-05
10240.0,-9.224693349096924e-05
11264.0,-7.29925959603861e-05
12288.0,0.00011174285464221612
13312.0,-0.00014877977082505822
14336.0,-0.0004862539062742144
end
