version,3.0
numOfCh,1
type,point
parent_name,1-cuts
ch_type,1_1
kcount,1
numberNandB,1
brightnessNandB,1
carpet pos,0
pc,0
Time (ms),CH1 Auto-Correlation
1.0,0.01669832319021225
2.0,0.01374814473092556
3.0,0.011627252213656902
4.0,0.00999809242784977
5.0,0.008668806403875351
6.0,0.0076467180624604225
7.0,0.006845440249890089
8.0,0.006213105283677578
9.0,0.005705683957785368
10.0,0.005248289089649916
11.0,0.004891305696219206
12.0,0.004596992861479521
13.0,0.004346759989857674
14.0,0.0041178148239851
15.0,0.003911810461431742
16.0,0.0036864615976810455
18.0,0.0031227089930325747
20.0,0.002718808827921748
22.0,0.0025384249165654182
24.0,0.002362428465858102
26.0,0.0021041210275143385
28.0,0.0016954517923295498
30.0,0.00161032157484442
32.0,0.001478712190873921
36.0,0.0013532270677387714
40.0,0.001264335005544126
44.0,0.0011210594093427062
48.0,0.000999938347376883
52.0,0.001218000310473144
56.0,0.0012805975275114179
60.0,0.0013539714273065329
64.0,0.0009275825577788055
72.0,-2.3874605176388286e-05
80.0,2.1995880160829984e-05
88.0,0.0003406016621738672
96.0,0.0005333985900506377
104.0,0.00010510485299164429
112.0,-4.9259819206781685e-05
120.0,0.00024352168838959187
128.0,-4.8389181756647304e-05
144.0,-0.00016478716861456633
160.0,-0.00011266460933256894
176.0,-0.0001564245467307046
192.0,-0.00012697555939666927
208.0,-3.5455690522212535e-05
224.0,-0.0003122440539300442
240.0,-0.0004603513516485691
256.0,-0.00017671784735284746
288.0,0.0001484936074120924
320.0,0.00015010719653218985
352.0,0.00037836848059669137
384.0,0.00014704321802128106
416.0,1.6622523617115803e-05
448.0,-7.085310062393546e-05
480.0,-9.828040492720902e-05
512.0,0.00036228977842256427
576.0,-0.0002472824708092958
640.0,-0.0003534958232194185
704.0,-0.00023719585442449898
768.0,-0.00014175540127325803
832.0,-0.00029910088051110506
896.0,-0.00029515469213947654
960.0,9.03041654964909e-05
1024.0,-3.680807276396081e-05
1152.0,-0.00021326111163944006
1280.0,-0.00021227581601124257
1408.0,0.0003050852392334491
1536.0,3.3322812669212e-05
1664.0,0.00011653005640255287
1792.0,-0.0002100610436173156
1920.0,-0.0002087253233185038
2048.0,-0.0003664421383291483
2304.0,-0.0004356468270998448
2560.0,-3.3236540275538573e-06
2816.0,0.00011414028267608956
3072.0,-6.682301318505779e-05
3328.0,9.435083484277129e-05
3584.0,0.00025315876700915396
3840.0,-5.448863885249011e-05
4096.0,4.4553191401064396e-05
4608.0,-4.6792581997578964e-05
5120.0,1.739633262332063e-05
5632.0,-2.5224306227755733e-05
6144.0,-1.3716331523028202e-05
6656.0,0.00012945687922183424
7168.0,1.1438834917498752e-05
7680.0,5.8760200772667304e-05
8192.0,5.8826695749303326e-05
9216.0,-6.159112672321498e-05
10240.0,7.748661300865933e-05
11264.0,9.198804036714137e-05
12288.0,-0.0002601271844469011
13312.0,0.0001384775387123227
14336.0,5.2683073590742424e-05
end
