version,3.0
numOfCh,1
type,point
parent_name,1-cuts
ch_type,1_1
kcount,1
numberNandB,1
brightnessNandB,1
carpet pos,0
pc,0
Time (ms),CH1 Auto-Correlation
1.0,0.01513852458447218
2.0,0.012262117117643356
3.0,0.01020860392600298
4.0,0.00866793468594551
5.0,0.007614912930876017
6.0,0.006683032494038343
7.0,0.006022059358656406
8.0,0.005382437724620104
9.0,0.004892667289823294
10.0,0.00441535422578454
11.0,0.004042151849716902
12.0,0.0036817025393247604
13.0,0.003393367398530245
14.0,0.003057854250073433
15.0,0.002918743062764406
16.0,0.002690364606678486
18.0,0.002378211123868823
20.0,0.0022085902746766806
22.0,0.002141880802810192
24.0,0.0018595390720292926
26.0,0.0015356984222307801
28.0,0.0013092525769025087
30.0,0.0012346799485385418
32.0,0.0012557582231238484
36.0,0.0011373531306162477
40.0,0.0011109766783192754
44.0,0.00100405712146312
48.0,0.0009611233253963292
52.0,0.000915170181542635
56.0,0.0008763594669289887
60.0,0.0006915861158631742
64.0,0.0006651000585407019
72.0,0.0009306729189120233
80.0,0.0010385187342762947
88.0,0.0006389153422787786
96.0,0.00033343854011036456
104.0,0.00022358378919307142
112.0,-1.7298383681918494e-05
120.0,-1.622173840587493e-05
128.0,-0.00014089475735090673
144.0,0.00011659693700494245
160.0,3.483395266812295e-05
176.0,-8.66720947669819e-05
192.0,-8.901908586267382e-05
208.0,0.00018883368466049433
224.0,0.00011268999514868483
240.0,-0.00011335850285831839
256.0,0.00028596370248124003
288.0,0.0004106562992092222
320.0,-6.44745523459278e-05
352.0,-9.459769353270531e-05
384.0,-0.0001730988296912983
416.0,-0.00028542871586978436
448.0,0.00031061406480148435
480.0,0.000571883749216795
512.0,0.0007525085238739848
576.0,0.00014761682541575283
640.0,-0.0001974561164388433
704.0,0.00019696853996720165
768.0,0.00010908600961556658
832.0,-0.0003946494252886623
896.0,-0.00013415982539299875
960.0,-2.4180761101888493e-05
1024.0,0.00040807912591844797
1152.0,2.7114556360174902e-05
1280.0,0.0001542476238682866
1408.0,0.00012044520553899929
1536.0,-1.3952712833997793e-05
1664.0,-0.00019756733672693372
1792.0,0.0001189191680168733
1920.0,-0.00048288414836861193
2048.0,-0.00014729426766280085
2304.0,2.3382755898637697e-05
2560.0,-0.000325117347529158
2816.0,0.00031116814352571964
3072.0,3.98685151594691e-05
3328.0,-0.0002661789476405829
3584.0,-0.00024126765492837876
3840.0,-0.0002727663959376514
4096.0,-6.381496496032923e-05
4608.0,5.357971167541109e-05
5120.0,-0.00026675889967009425
5632.0,0.00014067906886339188
6144.0,0.00022507460380438715
6656.0,1.5631278529326664e-06
7168.0,0.0003792034985963255
7680.0,-8.230621460825205e-06
8192.0,-0.00020723766647279263
9216.0,-0.0001946229749592021
10240.0,-0.00029034781618975103
11264.0,-0.0001285244943574071
12288.0,0.00011512593482621014
13312.0,0.0003569331020116806
14336.0,0.0001157896185759455
end
