version,3.0
numOfCh,1
type,point
parent_name,1-cuts
ch_type,1_1
kcount,1
numberNandB,1
brightnessNandB,1
carpet pos,0
pc,0
Time (ms),CH1 Auto-Correlation
1.0,0.0156328734010458
2.0,0.012691487558186054
3.0,0.010569187812507153
4.0,0.00899787712842226
5.0,0.007725071161985397
6.0,0.0067628598771989346
7.0,0.006064773071557283
8.0,0.0054322886280715466
9.0,0.004926521796733141
10.0,0.0044422447681427
11.0,0.004066722467541695
12.0,0.003745896276086569
13.0,0.0034998850896954536
14.0,0.003342494834214449
15.0,0.0031250999309122562
16.0,0.0028422127943485975
18.0,0.0026220805011689663
20.0,0.00248343194834888
22.0,0.002157802227884531
24.0,0.0019343426683917642
26.0,0.0018205252708867192
28.0,0.001767265610396862
30.0,0.001802879967726767
32.0,0.0016997957136482
36.0,0.00117994355969131
40.0,0.0009781436529010534
44.0,0.0008132540970109403
48.0,0.0007686971803195775
52.0,0.0005666244542226195
56.0,0.00042170562664978206
60.0,0.0006482094759121537
64.0,0.0006724314880557358
72.0,0.0007800774765200913
80.0,0.0007930397987365723
88.0,0.0007282407605089247
96.0,0.0008346069371327758
104.0,0.0010411072289571166
112.0,0.0006588800461031497
120.0,0.0004630453768186271
128.0,0.00020955690706614405
144.0,-0.00011122459545731544
160.0,0.00038668577326461673
176.0,0.0006106732180342078
192.0,0.0005117263644933701
208.0,0.00013317898265086114
224.0,-0.00010748960630735382
240.0,3.620492134359665e-05
256.0,0.00025017638108693063
288.0,3.194298187736422e-05
320.0,-0.00017723556084092706
352.0,-0.00043213856406509876
384.0,-0.00018386611191090196
416.0,-0.00020018863142468035
448.0,2.5179322619806044e-05
480.0,-9.623447112971917e-05
512.0,-0.0005516390083357692
576.0,-0.00044640095438808203
640.0,0.00010197982919635251
704.0,0.00011667046055663377
768.0,0.00011804507084889337
832.0,0.000271873694146052
896.0,0.00010954359458992258
960.0,-0.0003548876557033509
1024.0,-1.7616088371141814e-05
1152.0,-0.00030536478152498603
1280.0,-0.00023624207824468613
1408.0,-0.00030602901824750006
1536.0,-0.0006740210228599608
1664.0,-0.00041548925219103694
1792.0,-0.0005299088079482317
1920.0,4.3051706200003537e-08
2048.0,0.00026563237770460546
2304.0,0.0002512914943508804
2560.0,-0.0001571072789374739
2816.0,0.00022963082301430404
3072.0,0.0002709490654524416
3328.0,6.315001519396901e-05
3584.0,6.07648617005907e-05
3840.0,-0.00016023989883251488
4096.0,-0.0006371031631715596
4608.0,6.778610259061679e-05
5120.0,5.205240813666023e-05
5632.0,0.0005841799429617822
6144.0,-0.0005523220170289278
6656.0,0.00023621926084160805
7168.0,-0.0004310131480451673
7680.0,0.00036142562748864293
8192.0,-7.12198088876903e-05
9216.0,-7.328706124098971e-05
10240.0,5.2771247283089906e-05
11264.0,-9.723842958919704e-05
12288.0,2.4521485102013685e-05
13312.0,0.0001124491318478249
14336.0,-0.00012480503937695175
end
