version,3.0
numOfCh,1
type,point
parent_name,1-cuts
ch_type,1_1
kcount,1
numberNandB,1
brightnessNandB,1
carpet pos,0
pc,0
Time (ms),CH1 Auto-Correlation
1.0,0.02892795205116272
2.0,0.023951677605509758
3.0,0.020478669553995132
4.0,0.01786874234676361
5.0,0.01587568037211895
6.0,0.014451251365244389
7.0,0.013094665482640266
8.0,0.01179615780711174
9.0,0.010872242040932178
10.0,0.010095286183059216
11.0,0.009526657871901989
12.0,0.009119167923927307
13.0,0.008531386032700539
14.0,0.00797202717512846
15.0,0.007449685130268335
16.0,0.006981550715863705
18.0,0.006061463616788387
20.0,0.005283220671117306
22.0,0.004700383171439171
24.0,0.004442646633833647
26.0,0.004218488000333309
28.0,0.0037912328261882067
30.0,0.0035737711004912853
32.0,0.0031897935550659895
36.0,0.0025080193299800158
40.0,0.002592789940536022
44.0,0.0027949775103479624
48.0,0.0031651391182094812
52.0,0.0029870097059756517
56.0,0.0025320653803646564
60.0,0.0023980410769581795
64.0,0.001957792090252042
72.0,0.0010733361123129725
80.0,0.0014123022556304932
88.0,0.000917988654691726
96.0,0.0007385998615063727
104.0,0.0005558404373005033
112.0,0.0006886458722874522
120.0,0.0007696643588133156
128.0,0.0009063714533112943
144.0,0.0007731330115348101
160.0,0.00020689400844275951
176.0,-0.0001946365082403645
192.0,0.0004075460892636329
208.0,0.0006089719827286899
224.0,0.0004503068048506975
240.0,-3.5940000088885427e-05
256.0,-0.00037467386573553085
288.0,8.742586214793846e-05
320.0,0.00011291842383798212
352.0,-4.4030479330103844e-05
384.0,0.00010695983655750751
416.0,0.0005649721715599298
448.0,8.936695849115495e-06
480.0,-0.00020995925297029316
512.0,0.0001123822366935201
576.0,0.0003028067003469914
640.0,0.0004387488297652453
704.0,0.00018173502758145332
768.0,-0.0006698464858345687
832.0,-0.00031225194106809795
896.0,0.00021048718190286309
960.0,-0.0004192270280327648
1024.0,-0.0013767349300906062
1152.0,6.314404163276777e-05
1280.0,-9.091835090657696e-05
1408.0,-5.393047831603326e-05
1536.0,0.00016159571532625705
1664.0,-0.000946496264077723
1792.0,0.00011910984176211059
1920.0,-0.00019801934831775725
2048.0,0.00018294759502168745
2304.0,-0.0002899105311371386
2560.0,-0.0006661100778728724
2816.0,-0.0005800506332889199
3072.0,-0.0006042691529728472
3328.0,-5.0986611313419417e-05
3584.0,8.077795791905373e-05
3840.0,0.00026152387727051973
4096.0,9.482757377554663e-06
4608.0,0.0001668023323873058
5120.0,-5.3759373258799314e-05
5632.0,-0.0005697699380107224
6144.0,0.0002638848964124918
6656.0,-0.00017643129103817046
7168.0,-0.00045796806807629764
7680.0,0.0005835676565766335
8192.0,0.0012536344584077597
9216.0,0.00029529930907301605
10240.0,-0.0001882896904135123
11264.0,-0.0006024930044077337
12288.0,0.00034544538357295096
13312.0,-0.00029143306892365217
14336.0,0.0003007097984664142
end
