version,3.0
numOfCh,1
type,point
parent_name,1-cuts
ch_type,1_1
kcount,1
numberNandB,1
brightnessNandB,1
carpet pos,0
pc,0
Time (ms),CH1 Auto-Correlation
1.0,0.024442369118332863
2.0,0.019527824595570564
3.0,0.01627635955810547
4.0,0.013697924092411995
5.0,0.011644285172224045
6.0,0.009925954975187778
7.0,0.008667177520692348
8.0,0.007666595745831728
9.0,0.006916288286447525
10.0,0.00623078178614378
11.0,0.005550374276936054
12.0,0.005088748410344124
13.0,0.004789471160620451
14.0,0.004493048880249262
15.0,0.004367182496935129
16.0,0.004229922313243151
18.0,0.003930462524294853
20.0,0.0035794295836240053
22.0,0.003144123125821352
24.0,0.0027501224540174007
26.0,0.0025039101019501686
28.0,0.002354793483391404
30.0,0.002188111189752817
32.0,0.0022587112616747618
36.0,0.0021344576962292194
40.0,0.0016742044826969504
44.0,0.0012229970889165998
48.0,0.0008692130213603377
52.0,0.0005530340713448822
56.0,0.0008570312056690454
60.0,0.0008637672872282565
64.0,0.0007931514992378652
72.0,0.00036938031553290784
80.0,0.00021600241598207504
88.0,0.0008446943247690797
96.0,0.0015831214841455221
104.0,0.002091217553243041
112.0,0.0022802178282290697
120.0,0.0021404223516583443
128.0,0.001306262449361384
144.0,0.0006862673908472061
160.0,0.00047594873467460275
176.0,-0.0004153033660259098
192.0,0.0002402571408310905
208.0,0.00021132674010004848
224.0,0.0003173081495333463
240.0,4.134540358791128e-05
256.0,-0.0002576752158347517
288.0,-0.0005830637528561056
320.0,-0.0007377180736511946
352.0,-0.00012946569768246263
384.0,-0.0005274233408272266
416.0,-0.0004010609700344503
448.0,5.8162131608696654e-06
480.0,-0.0005295891314744949
512.0,-0.0006394011434167624
576.0,-0.00015645525127183646
640.0,0.00034990624408237636
704.0,0.0007051588618196547
768.0,0.0007220205152407289
832.0,0.00027983475592918694
896.0,0.0003284828853793442
960.0,0.0009134263964369893
1024.0,0.00026350232656113803
1152.0,-5.572736699832603e-05
1280.0,-0.00032904272666200995
1408.0,-0.0007077399059198797
1536.0,-0.0002993700618389994
1664.0,-0.0002324625093024224
1792.0,-0.0005737923202104867
1920.0,9.882865560939535e-05
2048.0,0.00036382980761118233
2304.0,-0.000633674266282469
2560.0,-0.0005039998795837164
2816.0,0.0004496885812841356
3072.0,-0.00011198908759979531
3328.0,-0.0007795070414431393
3584.0,0.0005274657742120326
3840.0,0.0001968399010365829
4096.0,0.00022738358529750258
4608.0,-0.00029742889455519617
5120.0,7.085888501023874e-05
5632.0,-9.9840190159739e-07
6144.0,0.00010705487511586398
6656.0,6.807391037000343e-05
7168.0,-0.00017142953583970666
7680.0,8.333750156452879e-05
8192.0,9.794224752113223e-05
9216.0,0.00034082811907865107
10240.0,3.4008648071903735e-05
11264.0,-0.00028360728174448013
12288.0,-0.00033254086156375706
13312.0,0.00013668768224306405
14336.0,-0.0003600511699914932
end
