version,3.0
numOfCh,1
type,point
parent_name,1-cuts
ch_type,1_1
kcount,1
numberNandB,1
brightnessNandB,1
carpet pos,0
pc,0
Time (ms),CH1 Auto-Correlation
1.0,0.015995683148503304
2.0,0.0130305802449584
3.0,0.010960466228425503
4.0,0.009420567192137241
5.0,0.00819704495370388
6.0,0.0072930254973471165
7.0,0.006681608967483044
8.0,0.006182578857988119
9.0,0.005693294573575258
10.0,0.005213043186813593
11.0,0.004722291138023138
12.0,0.004266871605068445
13.0,0.003887395141646266
14.0,0.0037069127429276705
15.0,0.0034685854334384203
16.0,0.0032145034056156874
18.0,0.002673026407137513
20.0,0.00231074052862823
22.0,0.0021648670081049204
24.0,0.002104387152940035
26.0,0.00214950880035758
28.0,0.002070128917694092
30.0,0.0020318389870226383
32.0,0.001931009697727859
36.0,0.0015588727546855807
40.0,0.0013334195828065276
44.0,0.0012127152876928449
48.0,0.0008090829942375422
52.0,0.0008531034109182656
56.0,0.000799336819909513
60.0,0.0007032595458440483
64.0,0.0005204402841627598
72.0,0.00026931826141662896
80.0,0.0003965599462389946
88.0,0.0002446660946588963
96.0,0.0002983440936077386
104.0,0.0003739800304174423
112.0,0.0005402080714702606
120.0,0.00040951534174382687
128.0,0.0005467333248816431
144.0,0.00044113065814599395
160.0,-0.00016559303912799805
176.0,0.0005421153618954122
192.0,0.00016966207476798445
208.0,-0.0004819036112166941
224.0,-0.0002712218265514821
240.0,-0.00011308804096188396
256.0,0.0003848040651064366
288.0,8.914992213249207e-05
320.0,2.4947252313722856e-05
352.0,-0.0001174478093162179
384.0,0.0004182388074696064
416.0,0.000516400788910687
448.0,-0.0003622779913712293
480.0,-0.00023569169570691884
512.0,-1.2708187568932772e-05
576.0,0.00023030859301798046
640.0,6.976428994676098e-05
704.0,-6.18431658949703e-05
768.0,0.00029497555806301534
832.0,-0.0001603073615115136
896.0,-0.00017564473091624677
960.0,0.0002603619359433651
1024.0,0.0002318017213838175
1152.0,5.095010419609025e-05
1280.0,-5.552166476263665e-05
1408.0,0.00019266600429546088
1536.0,7.045763936730509e-07
1664.0,0.00018079612345900387
1792.0,-0.0002330018614884466
1920.0,-0.0004940757644362748
2048.0,-0.00016303184384014457
2304.0,-5.2054809202672914e-05
2560.0,7.402497431030497e-05
2816.0,-0.00023933572811074555
3072.0,-2.3454818801837973e-05
3328.0,0.00017359333287458867
3584.0,-0.00016956024046521634
3840.0,0.00024635877343825996
4096.0,0.00013506443065125495
4608.0,0.00019660712860058993
5120.0,0.0003449490468483418
5632.0,6.400940037565306e-05
6144.0,-0.00026583639555610716
6656.0,-0.0003418411943130195
7168.0,-0.00033487146720290184
7680.0,1.2666539078054484e-05
8192.0,-0.0001511999435024336
9216.0,-1.6932786820689216e-05
10240.0,-7.191687473095953e-05
11264.0,-0.00017089185712393373
12288.0,-4.1473085730103776e-05
13312.0,-0.000200646958546713
14336.0,8.574756793677807e-05
end
