version,3.0
numOfCh,1
type,point
parent_name,1-cuts
ch_type,1_1
kcount,1
numberNandB,1
brightnessNandB,1
carpet pos,0
pc,0
Time (ms),CH1 Auto-Correlation
1.0,0.015719013288617134
2.0,0.012889713048934937
3.0,0.010835561901330948
4.0,0.009392431005835533
5.0,0.00826923456043005
6.0,0.007347730919718742
7.0,0.006629545241594315
8.0,0.006054800935089588
9.0,0.005619373172521591
10.0,0.0052063860930502415
11.0,0.004720620810985565
12.0,0.004377995152026415
13.0,0.004061278887093067
14.0,0.0037444070912897587
15.0,0.0035161920823156834
16.0,0.003359992988407612
18.0,0.0031221990939229727
20.0,0.002921053906902671
22.0,0.0026422622613608837
24.0,0.0024315074551850557
26.0,0.0022379287984222174
28.0,0.0020704539492726326
30.0,0.0018884633900597692
32.0,0.0017739468021318316
36.0,0.0014315956505015492
40.0,0.0015617801109328866
44.0,0.0015280373627319932
48.0,0.0015335147036239505
52.0,0.0016218581004068255
56.0,0.0017536049708724022
60.0,0.0014440508093684912
64.0,0.0009583706851117313
72.0,0.0005326176760718226
80.0,0.0005939278635196388
88.0,0.000455459114164114
96.0,0.0007883187499828637
104.0,0.0003717502986546606
112.0,1.8070757505483925e-05
120.0,4.842217458644882e-05
128.0,0.00018652250582817942
144.0,-3.3261272619711235e-05
160.0,0.00012749114830512553
176.0,1.2939256521349307e-05
192.0,0.00018190746777690947
208.0,-5.844602492288686e-05
224.0,-0.00013189723540563136
240.0,-1.237494529959804e-06
256.0,-8.159425487974659e-05
288.0,-0.0001792666153050959
320.0,0.0003431992663536221
352.0,0.000387561391107738
384.0,0.00015157183224800974
416.0,4.762074604514055e-05
448.0,3.6143435863777995e-05
480.0,-0.0001765677734510973
512.0,0.0001717220147838816
576.0,0.0005638385773636401
640.0,-0.00013413807027973235
704.0,-0.0003418161650188267
768.0,-0.0004058299819007516
832.0,-0.0006202467484399676
896.0,-0.000321572064422071
960.0,0.00018177325546275824
1024.0,-0.0004929814022034407
1152.0,-3.534834104357287e-05
1280.0,0.0002260391047457233
1408.0,8.872758189681917e-05
1536.0,-0.00028041776386089623
1664.0,-0.00031764127197675407
1792.0,0.0002991016663145274
1920.0,7.873572030803189e-05
2048.0,-0.0004500956565607339
2304.0,0.00010548610589466989
2560.0,0.00020811444846913218
2816.0,2.6330677428632043e-05
3072.0,3.860667857225053e-05
3328.0,-8.962251013144851e-05
3584.0,5.0555514462757856e-05
3840.0,3.072756589972414e-05
4096.0,-0.00022945606906432658
4608.0,-0.00022135900508146733
5120.0,0.00020692222460638732
5632.0,0.0002899090468417853
6144.0,-0.00022474802972283214
6656.0,-0.0001232266949955374
7168.0,-5.429064913187176e-05
7680.0,0.0003348687896504998
8192.0,-0.00015977240400388837
9216.0,-3.1204177503241226e-05
10240.0,-0.00010667546303011477
11264.0,0.00010996665514539927
12288.0,-0.0002807247219607234
13312.0,5.295421942719258e-06
14336.0,5.121705908095464e-05
end
