version,3.0
numOfCh,1
type,point
parent_name,1-cuts
ch_type,1_1
kcount,1
numberNandB,1
brightnessNandB,1
carpet pos,0
pc,0
Time (ms),CH1 Auto-Correlation
1.0,0.0168316587805748
2.0,0.01405508816242218
3.0,0.012160615995526314
4.0,0.010692746378481388
5.0,0.009588333778083324
6.0,0.008674808777868748
7.0,0.007948160171508789
8.0,0.007449266500771046
9.0,0.006941318977624178
10.0,0.006519399117678404
11.0,0.006119868718087673
12.0,0.00576125830411911
13.0,0.005529305897653103
14.0,0.005364853423088789
15.0,0.0051511917263269424
16.0,0.004972713068127632
18.0,0.004476835951209068
20.0,0.004213247448205948
22.0,0.003964513074606657
24.0,0.0037055551074445248
26.0,0.0034980999771505594
28.0,0.003220867132768035
30.0,0.003013168927282095
32.0,0.002865786897018552
36.0,0.0028383482713252306
40.0,0.0026560802944004536
44.0,0.0027329728472977877
48.0,0.002689944114536047
52.0,0.0022390373051166534
56.0,0.0020207774359732866
60.0,0.0019023673376068473
64.0,0.0018441332504153252
72.0,0.0015999006573110819
80.0,0.0015195769956335425
88.0,0.0016368760261684656
96.0,0.0015220448840409517
104.0,0.0012695664772763848
112.0,0.001175588695332408
120.0,0.0011191427474841475
128.0,0.0011248921509832144
144.0,0.0013711274368688464
160.0,0.0012181703932583332
176.0,0.0008969277841970325
192.0,0.0006170639535412192
208.0,0.00035166522138752043
224.0,0.0005756669561378658
240.0,0.00022013820125721395
256.0,0.00027105133631266654
288.0,0.0002734962326940149
320.0,0.00026580767007544637
352.0,0.00019953319861087948
384.0,-0.00018523356993682683
416.0,-0.00037354801315814257
448.0,0.0002342803927604109
480.0,0.00019923513173125684
512.0,0.00022870108659844846
576.0,-9.101295290747657e-05
640.0,-0.0001126320639741607
704.0,-5.378834612201899e-05
768.0,-4.4743643229594454e-05
832.0,-2.8769201890099794e-05
896.0,-0.00047960985102690756
960.0,-0.0005757407634519041
1024.0,-0.0006553917773999274
1152.0,-0.0007245618035085499
1280.0,-0.00048179569421336055
1408.0,-0.0005592092056758702
1536.0,-0.00036505330353975296
1664.0,-0.0005054523935541511
1792.0,-0.0005672061233781278
1920.0,-0.00028307343018241227
2048.0,-0.0005341221112757921
2304.0,7.49440096114995e-06
2560.0,0.00012115579738747329
2816.0,0.00048703639185987413
3072.0,0.0006051050149835646
3328.0,0.0005898523959331214
3584.0,0.00023442204110324383
3840.0,0.0005037817172706127
4096.0,-7.444590301020071e-05
4608.0,-0.0005470949108712375
5120.0,-0.0001599333481863141
5632.0,-6.651301373494789e-05
6144.0,4.4701999286189675e-05
6656.0,6.193507579155266e-05
7168.0,0.0005856138886883855
7680.0,-0.0002947878383565694
8192.0,-0.0008014890481717885
9216.0,-0.0002260401233797893
10240.0,0.00044378903112374246
11264.0,-0.00023543740098830312
12288.0,-0.00015655790048185736
13312.0,0.0003694811020977795
14336.0,-0.0007310849032364786
end
