version,3.0
numOfCh,1
type,point
parent_name,1-cuts
ch_type,1_1
kcount,1
numberNandB,1
brightnessNandB,1
carpet pos,0
pc,0
Time (ms),CH1 Auto-Correlation
1.0,0.01736023649573326
2.0,0.014429019764065742
3.0,0.01236275676637888
4.0,0.010687637142837048
5.0,0.009219713509082794
6.0,0.008136690594255924
7.0,0.007318639196455479
8.0,0.006785538513213396
9.0,0.006180430296808481
10.0,0.005726646166294813
11.0,0.005281753372400999
12.0,0.004945311229676008
13.0,0.00465759402140975
14.0,0.004299251828342676
15.0,0.0040152291767299175
16.0,0.0038426846731454134
18.0,0.003505324013531208
20.0,0.0033673865254968405
22.0,0.0031499860342592
24.0,0.0027580210007727146
26.0,0.0023003562819212675
28.0,0.002067122608423233
30.0,0.0021027058828622103
32.0,0.0021400745026767254
36.0,0.0019104931270703673
40.0,0.0016123291570693254
44.0,0.0016006079968065023
48.0,0.00151579431258142
52.0,0.0013832803815603256
56.0,0.0013181664980947971
60.0,0.001099033048376441
64.0,0.0010754195973277092
72.0,0.0008905823342502117
80.0,0.0007511197472922504
88.0,0.0005307567189447582
96.0,0.0001203526699100621
104.0,0.0006827605539001524
112.0,0.0008392448653467
120.0,0.0006133049027994275
128.0,0.000702102726791054
144.0,0.0009310785681009293
160.0,0.000493222672957927
176.0,0.00010828163067344576
192.0,-6.626392860198393e-05
208.0,-0.0003533021954353899
224.0,-8.751357381697744e-05
240.0,0.00017699445015750825
256.0,0.00045655068242922425
288.0,9.322838741354644e-05
320.0,-0.0004664740990847349
352.0,-0.00026914579211734235
384.0,-0.0003806819149758667
416.0,-0.0005664362106472254
448.0,-0.00020946087897755206
480.0,0.0002717679599300027
512.0,0.0003485899360384792
576.0,0.0002844205009751022
640.0,0.00040490992250852287
704.0,-0.00010585355630610138
768.0,3.21715087920893e-05
832.0,-5.870879817848618e-07
896.0,-0.0002922294952441007
960.0,-0.00015861945576034486
1024.0,0.00017795336316339672
1152.0,0.0002153632085537538
1280.0,0.00011936172813875601
1408.0,0.0002071890194201842
1536.0,0.0003730769967660308
1664.0,0.00019596958009060472
1792.0,1.554024129291065e-05
1920.0,-0.0004945857217535377
2048.0,-0.0005329304840415716
2304.0,-0.00020013877656310797
2560.0,-0.00010927129187621176
2816.0,0.00017490133177489042
3072.0,-0.0001409200776834041
3328.0,-0.00017939539975486696
3584.0,-0.00031178927747532725
3840.0,0.0002222087059635669
4096.0,-0.0001275429967790842
4608.0,-0.00014733165153302252
5120.0,5.284743451738905e-07
5632.0,-0.00011817038466688246
6144.0,-0.00017969394684769213
6656.0,-4.436782546690665e-05
7168.0,-3.9962611481314525e-05
7680.0,5.1391143642831594e-05
8192.0,-0.00016222454723902047
9216.0,5.884405618417077e-05
10240.0,-7.33999113435857e-05
11264.0,-0.00011530031770234928
12288.0,-0.00019533143495209515
13312.0,0.0002701723133213818
14336.0,0.00022586288105230778
end
