version,3.0
numOfCh,1
type,point
parent_name,1-cuts
ch_type,1_1
kcount,1
numberNandB,1
brightnessNandB,1
carpet pos,0
pc,0
Time (ms),CH1 Auto-Correlation
1.0,0.01621929369866848
2.0,0.013267871923744678
3.0,0.011137142777442932
4.0,0.00958749558776617
5.0,0.008390451781451702
6.0,0.007503240369260311
7.0,0.0067254542373120785
8.0,0.006099770311266184
9.0,0.0055158608593046665
10.0,0.005132291000336409
11.0,0.004865454509854317
12.0,0.004601453896611929
13.0,0.004344074986875057
14.0,0.004026664420962334
15.0,0.003790801391005516
16.0,0.00353481387719512
18.0,0.0031924324575811625
20.0,0.0028185590635985136
22.0,0.0025597121566534042
24.0,0.0022137712221592665
26.0,0.0019916249439120293
28.0,0.0019159341463819146
30.0,0.0017223855247721076
32.0,0.0017168583581224084
36.0,0.001874115434475243
40.0,0.0017812601290643215
44.0,0.0014150243951007724
48.0,0.0011556966928765178
52.0,0.0010659996187314391
56.0,0.0010210844920948148
60.0,0.0007082952070049942
64.0,0.0004974144394509494
72.0,0.0003402749716769904
80.0,0.00058215536409989
88.0,0.0004759347648359835
96.0,0.0005406750715337694
104.0,0.0006916869315318763
112.0,0.000563235254958272
120.0,0.0004921510117128491
128.0,0.0003233931493014097
144.0,-0.00021543828188441694
160.0,-0.00038433875306509435
176.0,-0.0005964617594145238
192.0,-0.0004431945853866637
208.0,-0.0004113482136745006
224.0,-0.00019812020764220506
240.0,-0.0006460967124439776
256.0,-0.0010367113864049315
288.0,-0.00015488768985960633
320.0,0.0006313694757409394
352.0,0.00029979285318404436
384.0,-3.320546238683164e-05
416.0,-0.0001909106649691239
448.0,5.787120608147234e-05
480.0,-7.238317721203202e-06
512.0,0.00012480396253522485
576.0,-3.876761911669746e-05
640.0,2.1747746359324083e-05
704.0,-8.285090007120743e-05
768.0,-0.000643436680547893
832.0,-0.0006528248777613044
896.0,-0.00040494531276635826
960.0,-0.0004922948428429663
1024.0,0.0002564950555097312
1152.0,0.00011617299605859444
1280.0,-5.4260026445263065e-06
1408.0,0.00018929502402897924
1536.0,0.00013082723307888955
1664.0,-0.0002443264238536358
1792.0,0.00019068516849074513
1920.0,-3.8199043046915904e-05
2048.0,0.00032005220418795943
2304.0,2.1549240045715123e-05
2560.0,-0.00015426836034748703
2816.0,0.0001888473198050633
3072.0,0.00017164940072689205
3328.0,-0.0001656576932873577
3584.0,-0.0004884505178779364
3840.0,-7.307175837922841e-05
4096.0,0.0003364385338500142
4608.0,-1.7614569514989853e-05
5120.0,-9.491994205745868e-06
5632.0,0.00014899318921379745
6144.0,-1.880115996755194e-05
6656.0,-6.810000922996551e-05
7168.0,0.00017569851479493082
7680.0,-0.0005091846687719226
8192.0,-7.935172106954269e-06
9216.0,-0.00010995721822837368
10240.0,-2.7704769308911636e-05
11264.0,0.00028209341689944267
12288.0,-0.00021967283100821078
13312.0,-0.00015687239647377282
14336.0,0.0002379206707701087
end
