version,3.0
numOfCh,1
type,point
parent_name,1-cuts
ch_type,1_1
kcount,1
numberNandB,1
brightnessNandB,1
carpet pos,0
pc,0
Time (ms),CH1 Auto-Correlation
1.0,0.016964906826615334
2.0,0.014149460941553116
3.0,0.012123357504606247
4.0,0.010671381838619709
5.0,0.009503679350018501
6.0,0.00852079875767231
7.0,0.007751147728413343
8.0,0.007051076740026474
9.0,0.006503524724394083
10.0,0.006027395837008953
11.0,0.005536884535104036
12.0,0.005204160697758198
13.0,0.0049061826430261135
14.0,0.004715310875326395
15.0,0.004402022808790207
16.0,0.0041487738490104675
18.0,0.0037064598873257637
20.0,0.003313204972073436
22.0,0.002956223441287875
24.0,0.002795013366267085
26.0,0.002433025510981679
28.0,0.002185057383030653
30.0,0.002063530730083585
32.0,0.0019141024677082896
36.0,0.0015981552423909307
40.0,0.0011966241290792823
44.0,0.0011815817561000586
48.0,0.0010083760134875774
52.0,0.0007762755849398673
56.0,0.0008448874577879906
60.0,0.0007375401328317821
64.0,0.0008534960797987878
72.0,0.0006851002690382302
80.0,0.00016372217214666307
88.0,0.00020169760682620108
96.0,0.0006076039862819016
104.0,0.0007965431432239711
112.0,0.0006199543713591993
120.0,0.00043992805876769125
128.0,0.0006799643160775304
144.0,0.00022784716566093266
160.0,0.00025769861531443894
176.0,0.0003670398727990687
192.0,0.0007831254624761641
208.0,0.00047701297444291413
224.0,0.00018338295922148973
240.0,4.996565985493362e-05
256.0,-7.800655293976888e-05
288.0,9.145596413873136e-05
320.0,0.0005500853294506669
352.0,0.00027181560290046036
384.0,0.0007911432185210288
416.0,0.0008531574858352542
448.0,0.00020571677305269986
480.0,-0.0002883225097320974
512.0,-0.0002576202095951885
576.0,-0.00016669979959260672
640.0,-0.00023334979778155684
704.0,0.00011966901365667582
768.0,0.00023829683777876198
832.0,-0.0002896101213991642
896.0,-0.00033968203933909535
960.0,-0.0004995565395802259
1024.0,-0.00031719531398266554
1152.0,-0.0005258365999907255
1280.0,-0.0007098165806382895
1408.0,-0.0003696640196722001
1536.0,-4.569236625684425e-05
1664.0,-0.0006128122331574559
1792.0,-0.00028111026040278375
1920.0,-0.0001774465199559927
2048.0,-0.00037774242809973657
2304.0,0.00028686909354291856
2560.0,0.00026927332510240376
2816.0,0.00020524454885162413
3072.0,8.652381802676246e-05
3328.0,-0.0003944917698390782
3584.0,0.00015032193914521486
3840.0,0.00021709651628043503
4096.0,0.00039155466947704554
4608.0,-1.144616908277385e-05
5120.0,-0.00035724748158827424
5632.0,-0.00022245667059905827
6144.0,0.0003319164097774774
6656.0,0.00017472970648668706
7168.0,-0.00024644637596793473
7680.0,-0.00044871558202430606
8192.0,0.0005185349727980793
9216.0,-0.00014346833631861955
10240.0,-0.00018953788094222546
11264.0,0.00010276406101183966
12288.0,0.0002617242862470448
13312.0,-0.00034850864904001355
14336.0,0.0001284210302401334
end
