version,3.0
numOfCh,1
type,point
parent_name,1-cuts
ch_type,1_1
kcount,1
numberNandB,1
brightnessNandB,1
carpet pos,0
pc,0
Time (ms),CH1 Auto-Correlation
1.0,0.027386575937271118
2.0,0.022577328607439995
3.0,0.019181421026587486
4.0,0.01679839938879013
5.0,0.014988072216510773
6.0,0.01341136172413826
7.0,0.012252424843609333
8.0,0.011384150013327599
9.0,0.010500284843146801
10.0,0.00982863549143076
11.0,0.00938333012163639
12.0,0.008845343254506588
13.0,0.008277099579572678
14.0,0.007760494481772184
15.0,0.007524365559220314
16.0,0.007232594769448042
18.0,0.006584256421774626
20.0,0.006039139814674854
22.0,0.005724157672375441
24.0,0.005326288752257824
26.0,0.004809497389942408
28.0,0.004564679693430662
30.0,0.0043948194943368435
32.0,0.004241533111780882
36.0,0.003630636027082801
40.0,0.003241797210648656
44.0,0.003023256314918399
48.0,0.0029424491804093122
52.0,0.002857597079128027
56.0,0.0024847553577274084
60.0,0.0022751486394554377
64.0,0.0025207444559782743
72.0,0.0026873259339481592
80.0,0.002535334089770913
88.0,0.001569606945849955
96.0,0.0009654525783844292
104.0,0.00040482633630745113
112.0,0.0002596985432319343
120.0,-9.662510274210945e-05
128.0,-0.0001349543163087219
144.0,0.00014171608199831098
160.0,0.00048440639511682093
176.0,0.0011195905972272158
192.0,0.0012051479425281286
208.0,0.0019112549489364028
224.0,0.00170793232973665
240.0,0.001568918232806027
256.0,0.0012581513728946447
288.0,0.00021742790704593062
320.0,0.00013573060277849436
352.0,0.0004261080757714808
384.0,0.0008075980585999787
416.0,0.0004325798654463142
448.0,0.00014170786016620696
480.0,-0.0002068514295388013
512.0,0.000755908084101975
576.0,0.00044084026012569666
640.0,0.0009358771494589746
704.0,0.00038631766801699996
768.0,0.0003457052807789296
832.0,0.00012972277181688696
896.0,0.0001355116837657988
960.0,0.0002090640482492745
1024.0,0.0003239553770981729
1152.0,-0.00014270532119553536
1280.0,-0.0004359512822702527
1408.0,-0.00098508782684803
1536.0,-0.00047102555981837213
1664.0,-0.0013154302723705769
1792.0,-0.0009814912918955088
1920.0,-0.0010813341941684484
2048.0,-0.0014558836119249463
2304.0,-0.0009818553226068616
2560.0,-0.0006491343956440687
2816.0,0.00028100021881982684
3072.0,0.00034757007961161435
3328.0,0.00016366713680326939
3584.0,0.0005595801630988717
3840.0,0.0007327753119170666
4096.0,0.0010141633683815598
4608.0,-0.0002546918112784624
5120.0,-0.0006031153607182205
5632.0,-0.0007607000297866762
6144.0,0.00012361507106106728
6656.0,0.0005964550073258579
7168.0,0.0008102772408165038
7680.0,0.000897183723282069
8192.0,-0.00011454399646027014
9216.0,-0.0010415471624583006
10240.0,-0.0005074352375231683
11264.0,0.0006049095536582172
12288.0,0.0006438684649765491
13312.0,-2.1414098227978684e-05
14336.0,-0.00015155450091697276
end
