version,3.0
numOfCh,1
type,point
parent_name,1-cuts
ch_type,1_1
kcount,1
numberNandB,1
brightnessNandB,1
carpet pos,0
pc,0
Time (ms),CH1 Auto-Correlation
1.0,0.016498982906341553
2.0,0.013625034131109715
3.0,0.01160253956913948
4.0,0.010178439319133759
5.0,0.008997834287583828
6.0,0.008139007724821568
7.0,0.007509542629122734
8.0,0.006921419873833656
9.0,0.006363273598253727
10.0,0.005894109141081572
11.0,0.005493223201483488
12.0,0.005213884171098471
13.0,0.004961531143635511
14.0,0.004605376627296209
15.0,0.004250142723321915
16.0,0.004095885902643204
18.0,0.003697928274050355
20.0,0.0034018256701529026
22.0,0.0033130687661468983
24.0,0.0030936026014387608
26.0,0.0027606321964412928
28.0,0.002436299342662096
30.0,0.002349954331293702
32.0,0.0022241317201405764
36.0,0.0019211467588320374
40.0,0.0018488423665985465
44.0,0.0017012571915984154
48.0,0.0014806415420025587
52.0,0.0015431389911100268
56.0,0.0014460067031905055
60.0,0.0014112167991697788
64.0,0.001272880588658154
72.0,0.0013080353382974863
80.0,0.0012068090727552772
88.0,0.0010366584174335003
96.0,0.000928384019061923
104.0,0.000770115468185395
112.0,1.3857847079634666e-05
120.0,0.0002598039573058486
128.0,0.0003464320325292647
144.0,0.0004126519779674709
160.0,0.00029918321524746716
176.0,0.0005497935926541686
192.0,0.0005718187894672155
208.0,0.0005889037856832147
224.0,0.0003677268687169999
240.0,0.00020406380644999444
256.0,0.00025206065038219094
288.0,0.00038210046477615833
320.0,0.00010017101158155128
352.0,-0.00021741708042100072
384.0,-0.0005909733008593321
416.0,-0.0004563328402582556
448.0,-8.159757999237627e-05
480.0,5.072831845609471e-05
512.0,0.00010502396617084742
576.0,-0.00012103599874535576
640.0,-0.00020488158043008298
704.0,-0.00044568191515281796
768.0,-0.00039802902028895915
832.0,-0.0003032656095456332
896.0,-0.00018098203872796148
960.0,0.0001204376167152077
1024.0,-0.00022574019385501742
1152.0,0.0005770641728304327
1280.0,0.00037528949906118214
1408.0,0.0002344263921258971
1536.0,0.00010207020386587828
1664.0,5.379291906137951e-05
1792.0,-0.00020020437659695745
1920.0,-0.00024025079619605094
2048.0,-8.883562259143218e-05
2304.0,-0.0001776106801116839
2560.0,5.350755600375123e-05
2816.0,-0.00017847749404609203
3072.0,4.426246596267447e-05
3328.0,-0.00022493998403660953
3584.0,-1.7773555782696349e-07
3840.0,-0.0003723015252035111
4096.0,-6.532484985655174e-05
4608.0,-8.675336721353233e-05
5120.0,8.375438483199105e-06
5632.0,7.892490248195827e-05
6144.0,-1.7016291167237796e-05
6656.0,-5.760782369179651e-05
7168.0,-0.0005144095048308372
7680.0,-0.00014453499170485884
8192.0,-1.9422737750574015e-05
9216.0,0.00018387704039923847
10240.0,-3.116665538982488e-05
11264.0,0.00039449447649531066
12288.0,7.166971045080572e-05
13312.0,-0.0004153233312536031
14336.0,0.00028281687991693616
end
