version,3.0
numOfCh,1
type,point
parent_name,1-cuts
ch_type,1_1
kcount,1
numberNandB,1
brightnessNandB,1
carpet pos,0
pc,0
Time (ms),CH1 Auto-Correlation
1.0,0.016938786953687668
2.0,0.01387841161340475
3.0,0.011795831844210625
4.0,0.010302158072590828
5.0,0.009203455410897732
6.0,0.008265400305390358
7.0,0.007571032736450434
8.0,0.007011296693235636
9.0,0.0065445187501609325
10.0,0.006058955565094948
11.0,0.005642043426632881
12.0,0.0053458609618246555
13.0,0.005019430536776781
14.0,0.004637883044779301
15.0,0.00429892772808671
16.0,0.0039849355816841125
18.0,0.0035267218481749296
20.0,0.0032600965350866318
22.0,0.003012866945937276
24.0,0.0026935171335935593
26.0,0.002401372417807579
28.0,0.0022986968979239464
30.0,0.0021333263721317053
32.0,0.0020170968491584063
36.0,0.001546421437524259
40.0,0.0013543542008846998
44.0,0.001269149943254888
48.0,0.001279050949960947
52.0,0.0013777263229712844
56.0,0.0013896938180550933
60.0,0.0011705596698448062
64.0,0.001182889798656106
72.0,0.0005961247370578349
80.0,0.0003802730643656105
88.0,0.00033164984779432416
96.0,0.0007957469788379967
104.0,0.00071999296778813
112.0,0.0008203713805414736
120.0,0.0008388174464926124
128.0,0.0005521228304132819
144.0,0.00019598814833443612
160.0,-9.653953020460904e-05
176.0,-6.0785834648413584e-05
192.0,-0.00013904616935178638
208.0,0.0002822312817443162
224.0,-0.00027999235317111015
240.0,0.0004140069941058755
256.0,0.000261672685155645
288.0,0.0003165876551065594
320.0,0.0004492487059906125
352.0,7.68630561651662e-05
384.0,7.539458692917833e-06
416.0,0.000262501765973866
448.0,0.00046672605094499886
480.0,0.0004700956051237881
512.0,0.0003548927197698504
576.0,-0.0002641944738570601
640.0,-6.016110273776576e-05
704.0,-9.186194074572995e-05
768.0,3.8552796468138695e-05
832.0,0.00045264922664500773
896.0,-2.0357734683784656e-05
960.0,-0.00013559770013671368
1024.0,0.00013661754201166332
1152.0,-7.106798148015514e-05
1280.0,1.6068783224909566e-05
1408.0,-0.0001940965885296464
1536.0,-6.830660277046263e-05
1664.0,-8.351844735443592e-05
1792.0,-0.00025407614884898067
1920.0,-0.00018701593216974288
2048.0,0.0001572281908011064
2304.0,0.00012301449896767735
2560.0,0.00024236307945102453
2816.0,1.6790188510640291e-06
3072.0,-8.233475091401488e-05
3328.0,0.00011684675700962543
3584.0,-9.7753043519333e-05
3840.0,-0.00062882638303563
4096.0,-0.0003292613255325705
4608.0,-0.00012027574121020734
5120.0,0.00015260603686328977
5632.0,0.00039393239421769977
6144.0,-0.00011340167839080095
6656.0,2.9861000712116947e-06
7168.0,-0.00032078204094432294
7680.0,5.676108776242472e-05
8192.0,-7.155856292229146e-05
9216.0,-0.0006271237507462502
10240.0,-0.00016823153418954462
11264.0,0.00011107742466265336
12288.0,-0.00014153061783872545
13312.0,0.0006174754817038774
14336.0,0.00019971166329924017
end
