version,3.0
numOfCh,1
type,point
parent_name,1-cuts
ch_type,1_1
kcount,1
numberNandB,1
brightnessNandB,1
carpet pos,0
pc,0
Time (ms),CH1 Auto-Correlation
1.0,0.017001500353217125
2.0,0.013943545520305634
3.0,0.011789175681769848
4.0,0.010188418440520763
5.0,0.009030496701598167
6.0,0.008126547560095787
7.0,0.007403781171888113
8.0,0.006680293940007687
9.0,0.006121926940977573
10.0,0.005728767719119787
11.0,0.005458548665046692
12.0,0.00517441937699914
13.0,0.004891541786491871
14.0,0.004506983794271946
15.0,0.0042601581662893295
16.0,0.0040243156254291534
18.0,0.003678816370666027
20.0,0.003172211814671755
22.0,0.0026698114816099405
24.0,0.002520783571526408
26.0,0.0022979602217674255
28.0,0.002240164205431938
30.0,0.0022929359693080187
32.0,0.0021019866690039635
36.0,0.001826874795369804
40.0,0.0018177117453888059
44.0,0.0017098040552809834
48.0,0.0015392330242320895
52.0,0.0016548667335882783
56.0,0.0013592435279861093
60.0,0.0009670362924225628
64.0,0.0009598103351891041
72.0,0.0009328238083980978
80.0,0.000653883267659694
88.0,0.00010738205310190096
96.0,6.259709334699437e-05
104.0,0.00020289434178266674
112.0,0.0004458597395569086
120.0,0.00029705296037718654
128.0,2.9544311473728158e-05
144.0,-7.799444574629888e-05
160.0,-0.00011582992010517046
176.0,-0.0002711777051445097
192.0,-4.9064692575484514e-05
208.0,-0.00024400859547313303
224.0,-0.00039409470628015697
240.0,-0.0002574610698502511
256.0,0.00027700047940015793
288.0,-6.0682570619974285e-05
320.0,0.00026814689044840634
352.0,0.0004838681488763541
384.0,-3.328630555188283e-05
416.0,-0.0004919831990264356
448.0,-0.00018296302005182952
480.0,5.0270471547264606e-05
512.0,0.0001335185079369694
576.0,0.00019420194439589977
640.0,-0.00011542499851202592
704.0,-0.0002696873270906508
768.0,-0.0002741641364991665
832.0,0.00019918617908842862
896.0,-8.821606024866924e-05
960.0,-1.791741965462279e-06
1024.0,0.0003428112540859729
1152.0,9.758111991686746e-05
1280.0,0.00035705912159755826
1408.0,-3.124144859611988e-05
1536.0,-0.00017079990357160568
1664.0,7.157296295190463e-06
1792.0,0.0001294291578233242
1920.0,-0.0002270377444801852
2048.0,-8.600070577813312e-05
2304.0,5.470748874358833e-06
2560.0,-1.0532869964663405e-05
2816.0,0.0004253213119227439
3072.0,-4.360726961749606e-05
3328.0,0.00013449910329654813
3584.0,3.714076956384815e-05
3840.0,-0.0003477160062175244
4096.0,2.7298568966216408e-05
4608.0,-0.00033870068727992475
5120.0,-0.00021478028793353587
5632.0,-0.0001754772529238835
6144.0,-0.00020154309459030628
6656.0,-0.00010579122317722067
7168.0,-0.00027419853722676635
7680.0,6.923062028363347e-05
8192.0,-5.404789135354804e-06
9216.0,0.00010778916475828737
10240.0,0.00012587210221681744
11264.0,0.0003060967137571424
12288.0,-4.2259576730430126e-05
13312.0,0.00024374363420065492
14336.0,-0.00018015205569099635
end
