version,3.0
numOfCh,1
type,point
parent_name,1-cuts
ch_type,1_1
kcount,1
numberNandB,1
brightnessNandB,1
carpet pos,0
pc,0
Time (ms),CH1 Auto-Correlation
1.0,0.02672642469406128
2.0,0.021914726123213768
3.0,0.018559569492936134
4.0,0.016099071130156517
5.0,0.013948522508144379
6.0,0.012349780648946762
7.0,0.011011003516614437
8.0,0.009977476671338081
9.0,0.009354905225336552
10.0,0.008679662831127644
11.0,0.008237102068960667
12.0,0.007698438595980406
13.0,0.007377122063189745
14.0,0.0071548945270478725
15.0,0.006889318581670523
16.0,0.006648232229053974
18.0,0.0059779128059744835
20.0,0.005419773980975151
22.0,0.005156314931809902
24.0,0.004931100178509951
26.0,0.004541654139757156
28.0,0.004204106517136097
30.0,0.0036967736668884754
32.0,0.003354842308908701
36.0,0.0029218033887445927
40.0,0.002574110869318247
44.0,0.0021895335521548986
48.0,0.002277886960655451
52.0,0.002112872898578644
56.0,0.0019563420210033655
60.0,0.0015995707362890244
64.0,0.001118726097047329
72.0,0.0011684609344229102
80.0,0.0009737644577398896
88.0,0.0009880285942927003
96.0,0.0004136926436331123
104.0,-5.803243402624503e-05
112.0,-8.991482172859833e-05
120.0,-0.00024150066019501537
128.0,-0.00034589951974339783
144.0,-0.000305445195408538
160.0,-0.00013748319179285318
176.0,-0.00023002746456768364
192.0,0.00043149819248355925
208.0,0.0010509428102523088
224.0,0.0012009178753942251
240.0,0.00023887952556833625
256.0,0.0007294334936887026
288.0,0.00027059571584686637
320.0,0.00015751509636174887
352.0,0.00040022245957516134
384.0,0.001051350380294025
416.0,0.00048760074423626065
448.0,0.00010314562678104267
480.0,0.0001383917551720515
512.0,-0.0005660415627062321
576.0,0.00027623632922768593
640.0,0.0008084024884738028
704.0,0.00018970562086906284
768.0,-0.00036707581602968276
832.0,0.0004393761046230793
896.0,0.00024747083080001175
960.0,-0.00010454737639520317
1024.0,1.6876269000931643e-05
1152.0,0.0008725024526938796
1280.0,7.826243381714448e-05
1408.0,1.6240946933976375e-05
1536.0,-0.00016025152581278235
1664.0,-0.0006899801082909107
1792.0,-9.554888492857572e-06
1920.0,0.0003617532493080944
2048.0,-7.228562026284635e-05
2304.0,5.9930040151812136e-05
2560.0,-0.00048020994290709496
2816.0,-0.0007110154838301241
3072.0,-0.0004790553357452154
3328.0,-0.0005842805257998407
3584.0,-0.00032059504883363843
3840.0,-0.0001516157790319994
4096.0,0.0001509879220975563
4608.0,0.00032769847894087434
5120.0,-0.0004148989974055439
5632.0,0.0008881223620846868
6144.0,0.0001783408224582672
6656.0,0.000265691865934059
7168.0,-0.00048263336066156626
7680.0,-0.0005039797397330403
8192.0,-0.000432795932283625
9216.0,-0.0002065134613076225
10240.0,4.8377096391050145e-05
11264.0,3.462082167970948e-05
12288.0,5.314858935889788e-05
13312.0,3.547477535903454e-05
14336.0,-2.2711445126333274e-05
end
