version,3.0
numOfCh,1
type,point
parent_name,1-cuts
ch_type,1_1
kcount,1
numberNandB,1
brightnessNandB,1
carpet pos,0
pc,0
Time (ms),CH1 Auto-Correlation
1.0,0.01636175625026226
2.0,0.013540943153202534
3.0,0.011593217961490154
4.0,0.01006515882909298
5.0,0.008824164047837257
6.0,0.007899987511336803
7.0,0.007142257411032915
8.0,0.006497190799564123
9.0,0.005989057011902332
10.0,0.005456008482724428
11.0,0.005000146105885506
12.0,0.0046404460445046425
13.0,0.004242151044309139
14.0,0.003915013745427132
15.0,0.0036718870978802443
16.0,0.0035177015233784914
18.0,0.003232040209695697
20.0,0.0030018300749361515
22.0,0.002810100559145212
24.0,0.002507797908037901
26.0,0.002286936854943633
28.0,0.001923870644532144
30.0,0.0016480582999065518
32.0,0.0014987862668931484
36.0,0.0010836125584319234
40.0,0.001325937220826745
44.0,0.0014876091154292226
48.0,0.00163093616720289
52.0,0.0013873431598767638
56.0,0.0011577020632103086
60.0,0.0008123934967443347
64.0,0.00038820039480924606
72.0,0.0001942220114869997
80.0,-0.00011193276441190392
88.0,-4.065921530127525e-05
96.0,0.00019762515148613602
104.0,-3.397891123313457e-05
112.0,-0.00019744696328416467
120.0,-2.1098732759128325e-05
128.0,7.975001790327951e-05
144.0,0.00033729002461768687
160.0,3.692516474984586e-05
176.0,-8.600298315286636e-05
192.0,0.0004477680486161262
208.0,0.0001008679682854563
224.0,-0.0001354479609290138
240.0,0.0004044132074341178
256.0,0.0006884710164740682
288.0,0.0006887803901918232
320.0,0.0008842120878398418
352.0,0.0005237050936557353
384.0,0.00047114057815633714
416.0,-5.304648220771924e-05
448.0,-8.159675780916587e-05
480.0,6.116292206570506e-05
512.0,-2.2640802853857167e-05
576.0,0.0002683259663172066
640.0,0.0004021705244667828
704.0,0.0003481450257822871
768.0,0.00034673919435590506
832.0,0.0002418717194814235
896.0,2.980053068313282e-05
960.0,-0.00010374913836130872
1024.0,-0.00015476078260689974
1152.0,-4.054205055581406e-05
1280.0,0.00040343563887290657
1408.0,0.0002720158954616636
1536.0,-6.992447742959484e-05
1664.0,1.8213266230304725e-05
1792.0,2.8551403374876827e-05
1920.0,-0.00020123702415730804
2048.0,0.0003358292451594025
2304.0,-0.00020617025438696146
2560.0,4.731830631499179e-05
2816.0,2.0068531739525497e-05
3072.0,-0.0002677258162293583
3328.0,4.156975592195522e-06
3584.0,-0.00016058770415838808
3840.0,3.441369335632771e-05
4096.0,0.000287380360532552
4608.0,-0.00020244906772859395
5120.0,-0.0001509889552835375
5632.0,-0.0004390962130855769
6144.0,-0.0001503810053691268
6656.0,-0.0003814913798123598
7168.0,-0.0002692888956516981
7680.0,-5.7697394368005916e-05
8192.0,0.00020475192286539823
9216.0,-1.6834534108056687e-05
10240.0,-6.48112254566513e-05
11264.0,-1.7504622519481927e-05
12288.0,0.00024327712890226394
13312.0,0.0002272647834615782
14336.0,0.00013345634215511382
end
