version,3.0
numOfCh,1
type,point
parent_name,1-cuts
ch_type,1_1
kcount,1
numberNandB,1
brightnessNandB,1
carpet pos,0
pc,0
Time (ms),CH1 Auto-Correlation
1.0,0.01599498838186264
2.0,0.01305475551635027
3.0,0.011080247350037098
4.0,0.009620831348001957
5.0,0.00851332489401102
6.0,0.007538760546594858
7.0,0.006740087643265724
8.0,0.0061467974446713924
9.0,0.0055876318365335464
10.0,0.005167288240045309
11.0,0.004751188214868307
12.0,0.004466842859983444
13.0,0.004330614116042852
14.0,0.004157893359661102
15.0,0.003989918623119593
16.0,0.003859306685626507
18.0,0.00353152584284544
20.0,0.0032697611022740602
22.0,0.0030370389577001333
24.0,0.0028245700523257256
26.0,0.0027390115428715944
28.0,0.002654286101460457
30.0,0.0025639960076659918
32.0,0.0023103379644453526
36.0,0.0019439917523413897
40.0,0.0015332815237343311
44.0,0.001486882334575057
48.0,0.0015772056067362428
52.0,0.0015425721649080515
56.0,0.0013532593147829175
60.0,0.0010992875322699547
64.0,0.0013444984797388315
72.0,0.001039464958012104
80.0,0.0008294329745694995
88.0,0.0008302711066789925
96.0,0.0006587433163076639
104.0,0.0006473908433690667
112.0,0.00047968103899620473
120.0,0.0006153448484838009
128.0,0.0004389355599414557
144.0,0.0003379236441105604
160.0,-5.974691885057837e-05
176.0,0.0002562446752563119
192.0,0.00036131832166574895
208.0,0.000296170444926247
224.0,6.634970486629754e-05
240.0,-6.834276427980512e-05
256.0,-0.00010618758096825331
288.0,5.177407001610845e-05
320.0,-5.582392532232916e-06
352.0,-0.00036543008172884583
384.0,-0.0003609784471336752
416.0,-7.266819011420012e-05
448.0,3.11771032102115e-06
480.0,-1.4920885405445006e-05
512.0,2.8465659852372482e-05
576.0,0.0001162541811936535
640.0,4.210201950627379e-05
704.0,-0.0003763781569432467
768.0,-0.0005451695760712028
832.0,-6.818512338213623e-05
896.0,0.0001403697970090434
960.0,0.0004282135923858732
1024.0,0.0005248549277894199
1152.0,0.0002765629906207323
1280.0,-0.0001968536525964737
1408.0,-0.0002781641960609704
1536.0,-0.00028699805261567235
1664.0,-0.0001640402479097247
1792.0,-0.0003183139197062701
1920.0,-4.438962787389755e-05
2048.0,4.21771255787462e-06
2304.0,4.609346069628373e-05
2560.0,0.0001462543150410056
2816.0,3.531059337547049e-05
3072.0,-8.613590762251988e-05
3328.0,-0.00012934581900481135
3584.0,-0.0002508251054678112
3840.0,-0.00044762162724509835
4096.0,-0.000164181154104881
4608.0,-0.00023038877407088876
5120.0,-1.4635407751484308e-05
5632.0,0.000228993158088997
6144.0,-0.0002893729542847723
6656.0,7.816723518772051e-05
7168.0,-0.00013213262718636543
7680.0,0.000429428240749985
8192.0,0.00015172769781202078
9216.0,-5.003053229302168e-05
10240.0,-2.4076285626506433e-05
11264.0,3.066922363359481e-05
12288.0,4.417458512762096e-06
13312.0,-4.173356501269154e-06
14336.0,6.736174691468477e-05
end
