version,3.0
numOfCh,1
type,point
parent_name,1-cuts
ch_type,1_1
kcount,1
numberNandB,1
brightnessNandB,1
carpet pos,0
pc,0
Time (ms),CH1 Auto-Correlation
1.0,0.016454529017210007
2.0,0.013467333279550076
3.0,0.011371860280632973
4.0,0.009802784770727158
5.0,0.008593637496232986
6.0,0.007598625496029854
7.0,0.0068443105556070805
8.0,0.006311923731118441
9.0,0.005786043591797352
10.0,0.005448747891932726
11.0,0.0051725758239626884
12.0,0.00482997577637434
13.0,0.004542581271380186
14.0,0.004275111947208643
15.0,0.004095286596566439
16.0,0.003915590234100819
18.0,0.003657991299405694
20.0,0.003279399126768112
22.0,0.0029644605237990618
24.0,0.002752944827079773
26.0,0.0024149189703166485
28.0,0.002130395034328103
30.0,0.0018924986943602562
32.0,0.0018106712959706783
36.0,0.0015482731396332383
40.0,0.0014601156581193209
44.0,0.0017294015269726515
48.0,0.0019643825944513083
52.0,0.0017773722065612674
56.0,0.0014646878698840737
60.0,0.0013052566209807992
64.0,0.0010773405665531754
72.0,0.0009268060675822198
80.0,0.000869505456648767
88.0,0.0007728004129603505
96.0,0.0008482148987241089
104.0,0.0010237011592835188
112.0,0.001247868174687028
120.0,0.0007487072143703699
128.0,0.000544325215741992
144.0,9.109597158385441e-05
160.0,-7.115343760233372e-05
176.0,0.00013120364747010171
192.0,-0.00014279231254477054
208.0,-2.918270001828205e-05
224.0,-0.00026140199042856693
240.0,-0.0002025664725806564
256.0,-0.0002672407717909664
288.0,-0.000543395581189543
320.0,-0.0006533043342642486
352.0,-0.00026644772151485085
384.0,-0.00013802149624098092
416.0,-0.0007624494610354304
448.0,0.00017288165690843016
480.0,9.980362665373832e-05
512.0,8.63063323777169e-05
576.0,-0.00046529536484740674
640.0,0.0003937364381272346
704.0,0.0006143528735265136
768.0,0.00035050237784162164
832.0,-0.00025705096777528524
896.0,-0.0009382591815665364
960.0,-0.0008414542535319924
1024.0,-0.0007192607154138386
1152.0,-0.0003394878876861185
1280.0,0.00019759658607654274
1408.0,0.00034726259764283895
1536.0,0.00013162766117602587
1664.0,-7.442242349497974e-05
1792.0,0.00012405100278556347
1920.0,0.00028441043104976416
2048.0,-7.198792673079879e-07
2304.0,0.0002617506543174386
2560.0,9.677535854279995e-05
2816.0,-0.0002599720028229058
3072.0,7.637259841430932e-06
3328.0,-0.00023386602697428316
3584.0,-0.0003256077761761844
3840.0,0.0002899005194194615
4096.0,0.00026822584914043546
4608.0,4.7744852054165676e-05
5120.0,-0.00011921786790480837
5632.0,-0.00029453192837536335
6144.0,0.00034697921364568174
6656.0,9.878633136395365e-05
7168.0,-0.00029238962451927364
7680.0,-8.461888501187786e-05
8192.0,0.0002709383552428335
9216.0,0.00015837553655728698
10240.0,3.2705656849429943e-07
11264.0,-0.00010306546028004959
12288.0,-0.00011747534153982997
13312.0,-0.00015340397658292204
14336.0,-8.746505773160607e-05
end
