version,3.0
numOfCh,1
type,point
parent_name,1-cuts
ch_type,1_1
kcount,1
numberNandB,1
brightnessNandB,1
carpet pos,0
pc,0
Time (ms),CH1 Auto-Correlation
1.0,0.01652630977332592
2.0,0.013488654047250748
3.0,0.011361219920217991
4.0,0.009724317118525505
5.0,0.008450319059193134
6.0,0.007496273145079613
7.0,0.006658229045569897
8.0,0.005903822835534811
9.0,0.00530722551047802
10.0,0.004808644764125347
11.0,0.004429101012647152
12.0,0.004114769399166107
13.0,0.003895001020282507
14.0,0.003740819403901696
15.0,0.0035783350467681885
16.0,0.003578030737116933
18.0,0.0032954656053334475
20.0,0.002913211239501834
22.0,0.002768592443317175
24.0,0.0025852920953184366
26.0,0.0023169079795479774
28.0,0.002078767167404294
30.0,0.0020695426501333714
32.0,0.0020472181495279074
36.0,0.0016363003524020314
40.0,0.0013621945399791002
44.0,0.0011565352324396372
48.0,0.0006799516850151122
52.0,0.0006201558280736208
56.0,0.0005713880527764559
60.0,0.0004985767300240695
64.0,0.0003243642277084291
72.0,0.00015164504293352365
80.0,-0.00024012819631025195
88.0,-0.0002707096573431045
96.0,-1.4970397387514822e-05
104.0,-0.00016800728917587548
112.0,-0.00033462545252405107
120.0,2.166989906982053e-05
128.0,0.00017043754633050412
144.0,0.00027015642262995243
160.0,0.0002678557066246867
176.0,0.00018468128109816462
192.0,0.0004423563077580184
208.0,-2.5532763174851425e-05
224.0,0.0002490527695044875
240.0,0.00033691665157675743
256.0,0.00048294704174622893
288.0,0.00023992927162908018
320.0,0.0001909817656269297
352.0,0.00028304592706263065
384.0,2.6256208002450876e-05
416.0,0.000224074610741809
448.0,0.0003663902753032744
480.0,0.0006684857653453946
512.0,9.914431575452909e-05
576.0,-0.0004114603507332504
640.0,-0.00029196799732744694
704.0,3.0158547815517522e-05
768.0,-0.00030378103838302195
832.0,-0.00026338660973124206
896.0,0.0001535704650450498
960.0,-0.0007244781590998173
1024.0,-0.0008713040733709931
1152.0,-7.479502528440207e-05
1280.0,-0.00043783264118246734
1408.0,-0.00021980484598316252
1536.0,-0.00021883868612349033
1664.0,-0.0003997806052211672
1792.0,-0.00030286930268630385
1920.0,-2.704737926251255e-05
2048.0,1.1327441825415008e-05
2304.0,0.0002937770332209766
2560.0,0.00028793487581424415
2816.0,0.00015561163309030235
3072.0,-8.983525913208723e-05
3328.0,-0.00018358502711635083
3584.0,-0.0003000847063958645
3840.0,-0.00016035433509387076
4096.0,-0.00010782135359477252
4608.0,1.4649644981545862e-05
5120.0,0.0003681743110064417
5632.0,0.00025378301506862044
6144.0,-0.00012403605796862394
6656.0,-0.00039946354809217155
7168.0,-6.51234295219183e-05
7680.0,0.0003771754854824394
8192.0,0.00011448073200881481
9216.0,-0.00016209548630286008
10240.0,-1.0761548765003681e-05
11264.0,3.3024014555849135e-05
12288.0,1.4857803762424737e-05
13312.0,0.0001020284544210881
14336.0,-0.00018925691256299615
end
