version,3.0
numOfCh,1
type,point
parent_name,1-cuts
ch_type,1_1
kcount,1
numberNandB,1
brightnessNandB,1
carpet pos,0
pc,0
Time (ms),CH1 Auto-Correlation
1.0,0.016074424609541893
2.0,0.01322227157652378
3.0,0.011134534142911434
4.0,0.009582499042153358
5.0,0.008489000611007214
6.0,0.007623530458658934
7.0,0.00678278086706996
8.0,0.006136872339993715
9.0,0.005663268268108368
10.0,0.005229850299656391
11.0,0.004912564996629953
12.0,0.0046467166393995285
13.0,0.004335059784352779
14.0,0.00407765619456768
15.0,0.0038338047452270985
16.0,0.0036034544464200735
18.0,0.003274814458563924
20.0,0.0029617049731314182
22.0,0.0027377335354685783
24.0,0.0023550083860754967
26.0,0.0018932247767224908
28.0,0.001703761052340269
30.0,0.0016967003466561437
32.0,0.0018105722265318036
36.0,0.001852737390436232
40.0,0.0017779030604287982
44.0,0.0016036122106015682
48.0,0.0014956928789615631
52.0,0.0015828460454940796
56.0,0.0013559747021645308
60.0,0.0011968915350735188
64.0,0.0010813564294949174
72.0,0.0006776127847842872
80.0,0.00031180621590465307
88.0,0.00042146319174207747
96.0,0.0005822975072078407
104.0,0.0005132798105478287
112.0,7.957157504279166e-05
120.0,-9.606184175936505e-05
128.0,4.256832107785158e-05
144.0,0.00017552098142914474
160.0,5.102951399749145e-05
176.0,-4.677047400036827e-05
192.0,8.568026532884687e-05
208.0,-0.00021896930411458015
224.0,-7.62157651479356e-06
240.0,-0.0002941724378615618
256.0,-0.0002752552682068199
288.0,0.00019274538499303162
320.0,4.074118987773545e-05
352.0,0.00012161912309238687
384.0,-9.667226549936458e-05
416.0,-0.0006594511796720326
448.0,-0.0007373434491455555
480.0,-0.0005914146895520389
512.0,-4.35795373050496e-05
576.0,-2.458096423652023e-05
640.0,-0.00030413089552894235
704.0,-0.00020162361033726484
768.0,-0.00020407148986123502
832.0,-0.00017090175242628902
896.0,5.5535827414132655e-05
960.0,0.0002814528706949204
1024.0,0.0002129388158209622
1152.0,7.698511763010174e-05
1280.0,-0.0001006883685477078
1408.0,-0.00016796603449620306
1536.0,-0.00018520763842388988
1664.0,-0.00047619317774660885
1792.0,-4.8561352741671726e-05
1920.0,-1.526297455711756e-05
2048.0,0.0005994753446429968
2304.0,0.00022333658125717193
2560.0,-0.00040636491030454636
2816.0,0.00020140784909017384
3072.0,0.00026196654653176665
3328.0,0.0003648323763627559
3584.0,-8.55888138175942e-05
3840.0,-5.280246477923356e-05
4096.0,-0.00032001431100070477
4608.0,-0.00017611771181691438
5120.0,0.0002496362430974841
5632.0,0.000106868872535415
6144.0,-5.208911170484498e-05
6656.0,-0.0002179431903641671
7168.0,0.00013853171549271792
7680.0,2.624104672577232e-05
8192.0,-0.00014643819304183125
9216.0,2.2311827706289478e-05
10240.0,-0.0002539965498726815
11264.0,5.372785744839348e-05
12288.0,-6.609439151361585e-05
13312.0,-0.00014953731442801654
14336.0,0.0002636066637933254
end
