version,3.0
numOfCh,1
type,point
parent_name,1-cuts
ch_type,1_1
kcount,1
numberNandB,1
brightnessNandB,1
carpet pos,0
pc,0
Time (ms),CH1 Auto-Correlation
1.0,0.017225120216608047
2.0,0.014226173050701618
3.0,0.012061255984008312
4.0,0.010333823971450329
5.0,0.009108539670705795
6.0,0.008144937455654144
7.0,0.007441069930791855
8.0,0.00684597622603178
9.0,0.006301418878138065
10.0,0.005999939050525427
11.0,0.005521430168300867
12.0,0.005049847066402435
13.0,0.004606782458722591
14.0,0.004345070105046034
15.0,0.004078928381204605
16.0,0.003794856369495392
18.0,0.00340939755551517
20.0,0.003207126399502158
22.0,0.003090230282396078
24.0,0.0030726951081305742
26.0,0.002926229266449809
28.0,0.0025262818671762943
30.0,0.0022226478904485703
32.0,0.0020128381438553333
36.0,0.0016771896043792367
40.0,0.001403803820721805
44.0,0.0014124857261776924
48.0,0.001294293557293713
52.0,0.0011465809075161815
56.0,0.0010780437150970101
60.0,0.00097878638189286
64.0,0.0011618401622399688
72.0,0.0010099058272317052
80.0,0.001158611150458455
88.0,0.0009446943877264857
96.0,0.0004692807560786605
104.0,0.0007207413436844945
112.0,0.0010680219857022166
120.0,0.0009556111763231456
128.0,0.00081668421626091
144.0,0.0006642147782258689
160.0,0.0005474360659718513
176.0,0.0005451494362205267
192.0,0.0007654910441488028
208.0,0.0004575457132887095
224.0,2.9078952138661407e-05
240.0,2.658480116224382e-05
256.0,2.9087907023495063e-05
288.0,2.2132204321678728e-05
320.0,-0.00021582773479167372
352.0,-0.00010847584053408355
384.0,0.00026529215392656624
416.0,0.0002402350801276043
448.0,-0.00017356619355268776
480.0,-0.0001567076105857268
512.0,-0.0007585658458992839
576.0,-0.00029524441924877465
640.0,-0.000686190789565444
704.0,-0.0004029185220133513
768.0,-0.000741225725505501
832.0,-0.0004976002965122461
896.0,-0.0005511724739335477
960.0,-0.0005272247362881899
1024.0,0.00018046416516881436
1152.0,0.0002368809946347028
1280.0,-3.629285129136406e-05
1408.0,-0.00011344933591317385
1536.0,-0.00023917527869343758
1664.0,-0.0003875213151331991
1792.0,-4.354579868959263e-05
1920.0,0.0003936874563805759
2048.0,0.00023366190725937486
2304.0,-2.4229901100625284e-05
2560.0,-0.00010300066060153767
2816.0,7.153415936045349e-05
3072.0,1.091417834686581e-05
3328.0,-0.00012120913015678525
3584.0,-0.00010770050721475855
3840.0,-0.00031628174474462867
4096.0,-0.00018136674771085382
4608.0,0.00031749269692227244
5120.0,-6.98594594723545e-05
5632.0,4.2695347701737774e-07
6144.0,-7.118926532712067e-07
6656.0,0.00013496310566551983
7168.0,-0.00021796509099658579
7680.0,-8.401965897064656e-05
8192.0,5.657803194480948e-05
9216.0,0.00025266167358495295
10240.0,3.645560354925692e-05
11264.0,-0.00020461106032598764
12288.0,-0.0002626871573738754
13312.0,-0.00010846156510524452
14336.0,0.00037930533289909363
end
