version,3.0
numOfCh,1
type,point
parent_name,1-cuts
ch_type,1_1
kcount,1
numberNandB,1
brightnessNandB,1
carpet pos,0
pc,0
Time (ms),CH1 Auto-Correlation
1.0,0.016395851969718933
2.0,0.013358473777770996
3.0,0.011213746853172779
4.0,0.009582842700183392
5.0,0.00836981926113367
6.0,0.007413719780743122
7.0,0.006629620213061571
8.0,0.006075152195990086
9.0,0.00561149138957262
10.0,0.005366054829210043
11.0,0.005148532334715128
12.0,0.0048429896123707294
13.0,0.004690414294600487
14.0,0.004489752929657698
15.0,0.004267038777470589
16.0,0.0039016189984977245
18.0,0.003464285982772708
20.0,0.0032580066472291946
22.0,0.0028722237329930067
24.0,0.002574474550783634
26.0,0.0021986321080476046
28.0,0.0019631627947092056
30.0,0.0017684991471469402
32.0,0.0017106123268604279
36.0,0.0015793463680893183
40.0,0.0015520153101533651
44.0,0.0012729924637824297
48.0,0.0010316867846995592
52.0,0.0006780760013498366
56.0,0.0006586258532479405
60.0,0.0008639421430416405
64.0,0.0006974997231736779
72.0,0.0004729286883957684
80.0,0.0007037205505184829
88.0,0.001090265461243689
96.0,0.0009706267155706882
104.0,0.000932409951929003
112.0,0.0007371851825155318
120.0,0.0005946593591943383
128.0,0.0003675801563076675
144.0,0.00030595995485782623
160.0,0.00046791337081231177
176.0,0.0007170962053351104
192.0,0.0008565359748899937
208.0,0.00030690780840814114
224.0,-0.0001492800220148638
240.0,9.801259147934616e-05
256.0,2.2999818611424416e-05
288.0,0.0001997045474126935
320.0,0.0009960685856640339
352.0,0.0004929548013024032
384.0,0.00035143294371664524
416.0,0.0004426195228006691
448.0,-0.0003054511616937816
480.0,-0.000264324015006423
512.0,0.00034096394665539265
576.0,-3.648881465778686e-05
640.0,-0.0003406005853321403
704.0,-0.000562721339520067
768.0,-0.0004810707177966833
832.0,-0.000569474941585213
896.0,-9.394795779371634e-05
960.0,0.0001392920094076544
1024.0,0.0002059583639493212
1152.0,-0.00022052007261663675
1280.0,-0.0002847498981282115
1408.0,0.0003548173699527979
1536.0,-5.5877910199342296e-05
1664.0,0.0001161248073913157
1792.0,-8.948807226261124e-05
1920.0,-7.125086085579824e-06
2048.0,-0.000383726175641641
2304.0,-0.0003376671811565757
2560.0,-0.00018437232938595116
2816.0,7.791746611474082e-05
3072.0,-4.51225605502259e-05
3328.0,-1.154177766693465e-06
3584.0,-0.00020313487038947642
3840.0,5.485360452439636e-05
4096.0,0.0004731983062811196
4608.0,-3.5508960536390077e-06
5120.0,-0.00013001482875552028
5632.0,0.00013421752373687923
6144.0,-0.0001918208581628278
6656.0,1.1613941751420498e-05
7168.0,-0.0001398692256771028
7680.0,-0.00013992075400892645
8192.0,0.0003441004955675453
9216.0,7.126767741283402e-05
10240.0,-7.632039341842756e-05
11264.0,-0.0005629514926113188
12288.0,0.000507115910295397
13312.0,0.00016167512512765825
14336.0,-0.0010972715681418777
end
