version,3.0
numOfCh,1
type,point
parent_name,1-cuts
ch_type,1_1
kcount,1
numberNandB,1
brightnessNandB,1
carpet pos,0
pc,0
Time (ms),CH1 Auto-Correlation
1.0,0.027288062497973442
2.0,0.022490262985229492
3.0,0.01907297782599926
4.0,0.016507836058735847
5.0,0.01451890729367733
6.0,0.012687424197793007
7.0,0.011481358669698238
8.0,0.010410129092633724
9.0,0.00938367284834385
10.0,0.008761957287788391
11.0,0.008234625682234764
12.0,0.0076883588917553425
13.0,0.007282326463609934
14.0,0.00702340854331851
15.0,0.006435108836740255
16.0,0.00574936019256711
18.0,0.004895987454801798
20.0,0.004269510041922331
22.0,0.003680738154798746
24.0,0.003104433184489608
26.0,0.002930327318608761
28.0,0.0027430751360952854
30.0,0.0026052945759147406
32.0,0.0024664541706442833
36.0,0.0023968485184013844
40.0,0.002305343747138977
44.0,0.0021095226984471083
48.0,0.0016676920931786299
52.0,0.0012636538594961166
56.0,0.0015557513106614351
60.0,0.0016746370820328593
64.0,0.0016698386752977967
72.0,0.0015442233998328447
80.0,0.001555151422508061
88.0,0.0016105526592582464
96.0,0.0015826652524992824
104.0,0.0011444046394899487
112.0,0.0004624371649697423
120.0,0.00040758095565252006
128.0,0.00013682508142665029
144.0,-0.00046055266284383833
160.0,-0.0005279963370412588
176.0,5.447150761028752e-05
192.0,8.848006109474227e-05
208.0,-0.001065445365384221
224.0,-0.0010133552132174373
240.0,-0.00028129672864452004
256.0,-0.00019293585501145571
288.0,-0.00037409079959616065
320.0,-0.0007904536323621869
352.0,-0.00017224530165549368
384.0,-0.00011280792386969551
416.0,-0.000740259769372642
448.0,-0.0006252019666135311
480.0,-0.0011775331804528832
512.0,-0.0005186352645978332
576.0,-0.00046240523806773126
640.0,-6.5475478550069965e-06
704.0,0.0007663613650947809
768.0,0.0006356714875437319
832.0,0.000619515951257199
896.0,-0.0010379835730418563
960.0,-0.0008059658575803041
1024.0,0.0002831079764291644
1152.0,0.0010494989110156894
1280.0,0.00014974168152548373
1408.0,-0.00015376359806396067
1536.0,-0.00036779328365810215
1664.0,-0.0011930778855457902
1792.0,-0.0002786299737636
1920.0,0.0006671336013823748
2048.0,-0.0003354748187121004
2304.0,-0.00023565406445413828
2560.0,0.0002312693395651877
2816.0,-0.0005794274620711803
3072.0,0.00019369489746168256
3328.0,0.0005770607385784388
3584.0,-9.085713099921122e-05
3840.0,-0.00021474569803103805
4096.0,0.0002866001450456679
4608.0,0.0002500378468539566
5120.0,-0.0004561155801638961
5632.0,0.00044054360478185117
6144.0,-0.00046750475303269923
6656.0,0.0001430024713044986
7168.0,-0.00034267589217051864
7680.0,-4.037826329295058e-06
8192.0,-0.00011704862117767334
9216.0,0.00016883935313671827
10240.0,-3.7629856706189457e-06
11264.0,-0.0003511258983053267
12288.0,-0.00010736851982073858
13312.0,0.0001057779008988291
14336.0,-6.870306242490187e-05
end
