version,3.0
numOfCh,1
type,point
parent_name,1-cuts
ch_type,1_1
kcount,1
numberNandB,1
brightnessNandB,1
carpet pos,0
pc,0
Time (ms),CH1 Auto-Correlation
1.0,0.01653808355331421
2.0,0.013796430081129074
3.0,0.011727441102266312
4.0,0.010229704901576042
5.0,0.009169252589344978
6.0,0.008357778191566467
7.0,0.0075815701857209206
8.0,0.006929965689778328
9.0,0.006373963318765163
10.0,0.005976135842502117
11.0,0.00550743518397212
12.0,0.005010244902223349
13.0,0.004591488745063543
14.0,0.004391112364828587
15.0,0.004152051638811827
16.0,0.003921564668416977
18.0,0.0035339973401278257
20.0,0.0031182600650936365
22.0,0.002747874241322279
24.0,0.0025398500729352236
26.0,0.00241093966178596
28.0,0.0023251629900187254
30.0,0.0021209740079939365
32.0,0.0020130581688135862
36.0,0.0015584860229864717
40.0,0.0011877326760441065
44.0,0.0009693244937807322
48.0,0.0010302996961399913
52.0,0.0012335606152191758
56.0,0.0012171203270554543
60.0,0.0010351499076932669
64.0,0.0008877287618815899
72.0,0.0010580698726698756
80.0,0.0010955003090202808
88.0,0.0007752692326903343
96.0,0.0005839127697981894
104.0,0.00037398101994767785
112.0,0.0002811583108268678
120.0,0.000452071224572137
128.0,0.0003086258075200021
144.0,0.0007691312930546701
160.0,0.0009165085502900183
176.0,0.0004287946503609419
192.0,0.00041723798494786024
208.0,0.0006322980625554919
224.0,0.0007399450987577438
240.0,0.0006031247903592885
256.0,0.0005486785667017102
288.0,0.00013773819955531508
320.0,0.0001459515915485099
352.0,4.093521783943288e-05
384.0,-0.00014521385310217738
416.0,0.00015158718451857567
448.0,0.00024090794613584876
480.0,0.0006387101020663977
512.0,0.00020516221411526203
576.0,-2.151121043425519e-05
640.0,9.29755115066655e-05
704.0,0.00011617178097367287
768.0,-3.4200700611108914e-05
832.0,-0.00015971562243066728
896.0,-0.00035447790287435055
960.0,-0.0002028095186688006
1024.0,-0.000271733442787081
1152.0,-0.00046385402674786747
1280.0,-1.66103636729531e-05
1408.0,0.00031863534240983427
1536.0,0.0001929412392200902
1664.0,-0.0002101881109410897
1792.0,-0.00022470972908195108
1920.0,0.0001777047145878896
2048.0,-3.615129389800131e-05
2304.0,0.00016124130343087018
2560.0,0.00032894188188947737
2816.0,0.0003053239779546857
3072.0,0.00022234109928831458
3328.0,-0.0002125098108081147
3584.0,-0.0004541803791653365
3840.0,-0.0003816020325757563
4096.0,-0.00017953061615116894
4608.0,0.00044706970220431685
5120.0,-1.1436878594395239e-05
5632.0,-0.0007273931987583637
6144.0,-2.9099583116476424e-05
6656.0,-0.00018206521053798497
7168.0,3.0745297408429906e-05
7680.0,9.726425196276978e-05
8192.0,-0.00021948425273876637
9216.0,0.0001471837895223871
10240.0,-0.00030561810126528144
11264.0,8.220651216106489e-05
12288.0,-3.6591332900570706e-05
13312.0,-0.00031482463236898184
14336.0,-4.5314402086660266e-05
end
