version,3.0
numOfCh,1
type,point
parent_name,1-cuts
ch_type,1_1
kcount,1
numberNandB,1
brightnessNandB,1
carpet pos,0
pc,0
Time (ms),CH1 Auto-Correlation
1.0,0.016527265310287476
2.0,0.013549089431762695
3.0,0.011506549082696438
4.0,0.009987744502723217
5.0,0.008737846277654171
6.0,0.007867613807320595
7.0,0.007110645063221455
8.0,0.006404361221939325
9.0,0.005789979826658964
10.0,0.005307300016283989
11.0,0.004851487930864096
12.0,0.00460434053093195
13.0,0.004331992007791996
14.0,0.004011467099189758
15.0,0.0037618381902575493
16.0,0.003476001787930727
18.0,0.003079531481489539
20.0,0.0028230147436261177
22.0,0.002661215839907527
24.0,0.0025702130515128374
26.0,0.002519667614251375
28.0,0.0024041435681283474
30.0,0.00224018725566566
32.0,0.0020390620920807123
36.0,0.0016694472869858146
40.0,0.0016421221662312746
44.0,0.0018532118992879987
48.0,0.0017715359572321177
52.0,0.0017103825230151415
56.0,0.0015147860394790769
60.0,0.0015463901218026876
64.0,0.0012650404823943973
72.0,0.000886736495885998
80.0,0.0007996380445547402
88.0,0.0004258946282789111
96.0,0.0003275932394899428
104.0,0.0005057355738244951
112.0,0.0006825529271736741
120.0,0.0007248941110447049
128.0,0.000678561395034194
144.0,0.0004269672790542245
160.0,0.0007181317778304219
176.0,0.00036794619518332183
192.0,0.0001873659493867308
208.0,-0.0003855857939925045
224.0,-0.00010066039249068126
240.0,0.0002448280283715576
256.0,-1.99133028218057e-05
288.0,1.4868768403175636e-06
320.0,0.00035671365913003683
352.0,-9.061884338734671e-05
384.0,-0.0008356181206181645
416.0,-0.0006053323158994317
448.0,-0.000260204920778051
480.0,-0.00022403370530810207
512.0,0.00038798144669272006
576.0,-0.000333352480083704
640.0,-0.0003240635560359806
704.0,-0.0004857344611082226
768.0,-0.0004918837803415954
832.0,0.00018431076023261994
896.0,-0.00041616373346187174
960.0,-0.00042137285345233977
1024.0,-0.00024261634098365903
1152.0,-0.00021125219063833356
1280.0,-5.797285484732129e-05
1408.0,-8.892744517652318e-05
1536.0,0.00017393208690918982
1664.0,-0.00022549208370037377
1792.0,0.00010798194125527516
1920.0,-0.0003572207351680845
2048.0,-0.00048638973385095596
2304.0,0.00040858075954020023
2560.0,-0.00044100178638473153
2816.0,5.9743146266555414e-05
3072.0,0.00025801206356845796
3328.0,-6.250542355701327e-05
3584.0,-7.8440298239002e-06
3840.0,8.767695544520393e-05
4096.0,1.4796619325352367e-05
4608.0,-0.00024618723546154797
5120.0,-1.26366912809317e-05
5632.0,0.0003039271105080843
6144.0,-1.6580240753683029e-06
6656.0,-0.0001536575291538611
7168.0,-2.8528852453746367e-06
7680.0,5.0651258789002895e-05
8192.0,0.0001504635001765564
9216.0,-5.085873635835014e-05
10240.0,-0.00010903455404331908
11264.0,-0.0001332842803094536
12288.0,6.624171510338783e-05
13312.0,0.00020714843412861228
14336.0,-2.8633850888581946e-05
end
