version,3.0
numOfCh,1
type,point
parent_name,1-cuts
ch_type,1_1
kcount,1
numberNandB,1
brightnessNandB,1
carpet pos,0
pc,0
Time (ms),CH1 Auto-Correlation
1.0,0.016047893092036247
2.0,0.013214356265962124
3.0,0.01119458768516779
4.0,0.009625968523323536
5.0,0.0084614222869277
6.0,0.007544931955635548
7.0,0.006788128986954689
8.0,0.006134033668786287
9.0,0.005598730873316526
10.0,0.005212193354964256
11.0,0.004852553829550743
12.0,0.004604469519108534
13.0,0.004393570125102997
14.0,0.004269441589713097
15.0,0.004149856977164745
16.0,0.003958333749324083
18.0,0.0036754377651959658
20.0,0.0033509705681353807
22.0,0.002913394011557102
24.0,0.002671804279088974
26.0,0.002350808121263981
28.0,0.002185621066018939
30.0,0.001978497952222824
32.0,0.0018243524245917797
36.0,0.0016401789616793394
40.0,0.001682444242760539
44.0,0.0016706472961232066
48.0,0.0013738045236095786
52.0,0.0011985590681433678
56.0,0.0012304114643484354
60.0,0.001150162541307509
64.0,0.000878146558534354
72.0,0.0007281660218723118
80.0,0.0007775184931233525
88.0,0.0006240977090783417
96.0,0.0003948553348891437
104.0,0.00024020719865802675
112.0,0.00010572776955086738
120.0,0.0002319344348507002
128.0,0.00030938233248889446
144.0,0.00024772906908765435
160.0,4.1338842038385337e-07
176.0,-0.0005429590819403529
192.0,-0.0008453144109807909
208.0,-0.0005197349819354713
224.0,-0.0004358098085504025
240.0,-0.00011181388981640339
256.0,7.223961438285187e-05
288.0,0.00033143992186523974
320.0,-3.9442911656806245e-05
352.0,1.8615495719132014e-05
384.0,0.00039846921572461724
416.0,0.0003596947353798896
448.0,-5.984373274259269e-05
480.0,-6.291657336987555e-05
512.0,0.00020330653933342546
576.0,-0.0006419999408535659
640.0,1.5723904652986676e-05
704.0,0.0002512696955818683
768.0,0.00036043673753738403
832.0,-0.00033383670961484313
896.0,0.00010853099956875667
960.0,4.630827606888488e-05
1024.0,3.7414814869407564e-05
1152.0,-0.00016401098400820047
1280.0,0.00028659525560215116
1408.0,0.0003714525664690882
1536.0,0.0008215217385441065
1664.0,0.0006308681331574917
1792.0,0.00036072678631171584
1920.0,0.00034314460936002433
2048.0,-0.00015135062858462334
2304.0,7.81795461080037e-05
2560.0,9.268224675906822e-05
2816.0,9.916921408148482e-05
3072.0,0.0001713441452011466
3328.0,4.411677218740806e-05
3584.0,6.465007027145475e-05
3840.0,0.00025387704954482615
4096.0,-0.00016406206123065203
4608.0,6.643409869866446e-05
5120.0,-8.961356070358306e-05
5632.0,-8.571965008741245e-05
6144.0,4.446487764653284e-06
6656.0,-0.00023706247156951576
7168.0,-0.000203142553800717
7680.0,-0.00011651025124592707
8192.0,-0.00042393896728754044
9216.0,-0.00012690277071669698
10240.0,-0.0003015062538906932
11264.0,-0.00014517473755404353
12288.0,-0.0003319868410471827
13312.0,-3.279762950114673e-06
14336.0,-0.0001002306307782419
end
