version,3.0
numOfCh,1
type,point
parent_name,1-cuts
ch_type,1_1
kcount,1
numberNandB,1
brightnessNandB,1
carpet pos,0
pc,0
Time (ms),CH1 Auto-Correlation
1.0,0.027149122208356857
2.0,0.022200267761945724
3.0,0.018699439242482185
4.0,0.015938131138682365
5.0,0.013975625857710838
6.0,0.0122755141928792
7.0,0.010864445939660072
8.0,0.009780350141227245
9.0,0.00897914543747902
10.0,0.008047525770962238
11.0,0.007362755015492439
12.0,0.0068227872252464294
13.0,0.006412328686565161
14.0,0.0061407615430653095
15.0,0.005750120617449284
16.0,0.005452074110507965
18.0,0.004945958033204079
20.0,0.004157307557761669
22.0,0.0034462534822523594
24.0,0.003157176310196519
26.0,0.0027566575445234776
28.0,0.0023628592025488615
30.0,0.0020695601124316454
32.0,0.0017860188381746411
36.0,0.001504247193224728
40.0,0.0009820214472711086
44.0,0.00035569973988458514
48.0,0.00018243024533148855
52.0,0.0005257987068034708
56.0,0.0007685174350626767
60.0,0.0007051157881505787
64.0,0.0006333871278911829
72.0,0.0003699399530887604
80.0,0.00040522823110222816
88.0,0.00043065662612207234
96.0,0.0001104009133996442
104.0,-8.687146328156814e-05
112.0,-0.00020713044796139002
120.0,-4.1517479985486716e-05
128.0,-0.00016994609904941171
144.0,1.676007013884373e-05
160.0,-0.00022236441145651042
176.0,-0.00039381158421747386
192.0,0.0002542975125834346
208.0,7.293574162758887e-05
224.0,0.00038544187555089593
240.0,0.00039425422437489033
256.0,5.9655019867932424e-05
288.0,0.001136520178988576
320.0,0.00027676293393597007
352.0,0.00046869428479112685
384.0,-6.60490186419338e-05
416.0,-0.0001705028844298795
448.0,-9.792696073418483e-05
480.0,-0.0006642049993388355
512.0,-0.0008897543884813786
576.0,-0.00039280165219679475
640.0,0.0004727040359284729
704.0,-3.2902426028158516e-05
768.0,-0.00010277669207425788
832.0,0.0004431535489857197
896.0,0.0004975691554136574
960.0,0.0004552803875412792
1024.0,0.0002446993603371084
1152.0,-0.000414880458265543
1280.0,-0.0005882407422177494
1408.0,-0.0003198623890057206
1536.0,0.00016155384946614504
1664.0,-0.0002291122655151412
1792.0,0.00030513358069583774
1920.0,0.0007191908662207425
2048.0,0.0005890890606679022
2304.0,0.00033046872704289854
2560.0,2.7768779546022415e-05
2816.0,-5.92462565691676e-05
3072.0,0.0002827460702974349
3328.0,-8.744632941670716e-05
3584.0,3.8190912164282054e-05
3840.0,-0.00020133197540417314
4096.0,-0.000287399539956823
4608.0,0.0002279864129377529
5120.0,0.00013044574006926268
5632.0,-0.0002351976145291701
6144.0,-0.00013624092389363796
6656.0,-9.115401189774275e-05
7168.0,-0.00015958982112351805
7680.0,-0.0004562658432405442
8192.0,-7.805087079759687e-05
9216.0,-0.0002965605817735195
10240.0,-1.9643252016976476e-05
11264.0,-0.0001969789300346747
12288.0,-0.00037006966886110604
13312.0,0.0006055002450011671
14336.0,-0.0007757967105135322
end
