version,3.0
numOfCh,1
type,point
parent_name,1-cuts
ch_type,1_1
kcount,1
numberNandB,1
brightnessNandB,1
carpet pos,0
pc,0
Time (ms),CH1 Auto-Correlation
1.0,0.016170216724276543
2.0,0.013369022868573666
3.0,0.011424693278968334
4.0,0.009901328012347221
5.0,0.008798428811132908
6.0,0.007893749512732029
7.0,0.007180437911301851
8.0,0.006528952624648809
9.0,0.005907490383833647
10.0,0.005478447303175926
11.0,0.005161684937775135
12.0,0.004854099825024605
13.0,0.0046485126949846745
14.0,0.004553617909550667
15.0,0.0044664558954536915
16.0,0.004374504089355469
18.0,0.003999046050012112
20.0,0.0038030343130230904
22.0,0.00346968206577003
24.0,0.003338770940899849
26.0,0.0033286940306425095
28.0,0.0032735979184508324
30.0,0.0032025915570557117
32.0,0.0029355648439377546
36.0,0.0025113625451922417
40.0,0.0022417414002120495
44.0,0.0016903580399230123
48.0,0.0014434981858357787
52.0,0.0015464299358427525
56.0,0.0014435523189604282
60.0,0.001198415644466877
64.0,0.0011024640407413244
72.0,0.001028762781061232
80.0,0.0009166309027932584
88.0,0.0007440507179126143
96.0,0.0007467360701411963
104.0,0.0007383660413324833
112.0,0.0009025888866744936
120.0,0.000466163590317592
128.0,2.6120183974853717e-05
144.0,-0.00030288269044831395
160.0,1.4944230315450113e-05
176.0,-0.00027776992646977305
192.0,0.0002474494685884565
208.0,0.0005981846479699016
224.0,0.0010996853234246373
240.0,0.001136895501986146
256.0,0.0012665161630138755
288.0,0.0010579212103039026
320.0,0.0008731508278287947
352.0,0.0014022651594132185
384.0,0.00082787947030738
416.0,0.0006323222769424319
448.0,0.0003516982833389193
480.0,0.0006282881367951632
512.0,0.0005666461074724793
576.0,0.0006432957015931606
640.0,0.00020184129243716598
704.0,0.0004102009115740657
768.0,0.0005745855742134154
832.0,0.00039016400114633143
896.0,0.0004361575993243605
960.0,0.0010095733450725675
1024.0,0.0008016441715881228
1152.0,0.0004754098772536963
1280.0,0.00010194872447755188
1408.0,0.0006603321526199579
1536.0,0.00012280857481528074
1664.0,0.00026534422067925334
1792.0,0.00022439351596403867
1920.0,0.0001182826526928693
2048.0,5.769726340076886e-05
2304.0,0.0003289692394901067
2560.0,0.0006740722456015646
2816.0,0.0007012434653006494
3072.0,0.00043069361709058285
3328.0,0.0001395932922605425
3584.0,0.00022809681831859052
3840.0,-7.826692308299243e-05
4096.0,-0.0001457555772503838
4608.0,-0.000344403728377074
5120.0,0.00011311085108900443
5632.0,0.00010209996980847791
6144.0,-0.00012238409544806927
6656.0,5.446262548503e-06
7168.0,-0.0002124561433447525
7680.0,-0.00022865284699946642
8192.0,-0.00017351401038467884
9216.0,-0.0006104467320255935
10240.0,-0.0006089247763156891
11264.0,-0.0010431051487103105
12288.0,-0.0007397920708172023
13312.0,-0.0009091449319384992
14336.0,-0.0004791385435964912
end
