version,3.0
numOfCh,1
type,point
parent_name,1-cuts
ch_type,1_1
kcount,1
numberNandB,1
brightnessNandB,1
carpet pos,0
pc,0
Time (ms),CH1 Auto-Correlation
1.0,0.016526641324162483
2.0,0.013575956225395203
3.0,0.01148078590631485
4.0,0.009844668209552765
5.0,0.008663083426654339
6.0,0.007870234549045563
7.0,0.00714570377022028
8.0,0.0065948935225605965
9.0,0.006052738055586815
10.0,0.0054575540125370026
11.0,0.00500066252425313
12.0,0.004635901656001806
13.0,0.004341044928878546
14.0,0.0042076995596289635
15.0,0.004051879979670048
16.0,0.003807326778769493
18.0,0.0033835936337709427
20.0,0.0031613276805728674
22.0,0.0029287522193044424
24.0,0.0026744757778942585
26.0,0.0024518270511180162
28.0,0.002289191819727421
30.0,0.0021923009771853685
32.0,0.0020657593850046396
36.0,0.001984203001484275
40.0,0.0019771477673202753
44.0,0.0018593443091958761
48.0,0.0015512298559769988
52.0,0.0011902154656127095
56.0,0.0010368929943069816
60.0,0.0008514493820257485
64.0,0.0005748835392296314
72.0,0.0004976941272616386
80.0,0.0005580900469794869
88.0,0.0007328817155212164
96.0,0.0006551695405505598
104.0,0.0006387732573784888
112.0,0.000297333812341094
120.0,0.00019412292749620974
128.0,0.0003177908365614712
144.0,0.00046829081838950515
160.0,-2.7816578949568793e-05
176.0,-4.977437492925674e-05
192.0,0.0003062186297029257
208.0,-8.558575063943863e-05
224.0,5.7865956478053704e-05
240.0,0.0005490591283887625
256.0,0.0005732599529437721
288.0,0.0006575937150046229
320.0,0.0006926865316927433
352.0,-1.7035165001288988e-05
384.0,-4.602770786732435e-05
416.0,-0.0005161496810615063
448.0,-0.00036888461909256876
480.0,-0.0003999285981990397
512.0,-0.00032804193324409425
576.0,-0.0006426775944419205
640.0,0.00038455575122497976
704.0,0.0002742780779954046
768.0,-7.311052468139678e-05
832.0,0.00012098562729079276
896.0,0.00016542017692700028
960.0,0.0004072846786584705
1024.0,0.00045937165850773454
1152.0,-0.0001936728658620268
1280.0,-0.00041198660619556904
1408.0,-0.000959359051194042
1536.0,-0.00016598506772425026
1664.0,4.789141894434579e-05
1792.0,-8.59586289152503e-05
1920.0,0.0003923727781511843
2048.0,-0.0004002805217169225
2304.0,0.00014450242451857775
2560.0,-0.0003803340659942478
2816.0,-0.00016281430725939572
3072.0,0.00033958538551814854
3328.0,1.5414387235068716e-05
3584.0,-0.00028387128259055316
3840.0,-2.0453016986721195e-05
4096.0,6.150097760837525e-05
4608.0,0.0001377915614284575
5120.0,-8.900310058379546e-05
5632.0,-0.00015659078781027347
6144.0,-0.00017998651310335845
6656.0,-2.60478445852641e-05
7168.0,0.00017269380623474717
7680.0,-5.267324377200566e-05
8192.0,-0.0002193737745983526
9216.0,-0.00020686151401605457
10240.0,-0.00015429330233018845
11264.0,0.00025475487927906215
12288.0,0.00024982503964565694
13312.0,-6.308912270469591e-05
14336.0,-0.00015262911620084196
end
