version,3.0
numOfCh,1
type,point
parent_name,1-cuts
ch_type,1_1
kcount,1
numberNandB,1
brightnessNandB,1
carpet pos,0
pc,0
Time (ms),CH1 Auto-Correlation
1.0,0.028222916647791862
2.0,0.0233346875756979
3.0,0.019774314016103745
4.0,0.01700785383582115
5.0,0.014899607747793198
6.0,0.013183259405195713
7.0,0.01177031546831131
8.0,0.01057934295386076
9.0,0.009546132758259773
10.0,0.008664016611874104
11.0,0.00790483970195055
12.0,0.007208829279989004
13.0,0.006802241317927837
14.0,0.006543640047311783
15.0,0.006182048469781876
16.0,0.005833622068166733
18.0,0.005358884576708078
20.0,0.004598837811499834
22.0,0.004034800920635462
24.0,0.0037140497006475925
26.0,0.0032121334224939346
28.0,0.0029299790039658546
30.0,0.002918458543717861
32.0,0.0026622305158525705
36.0,0.002085291314870119
40.0,0.00140533153899014
44.0,0.001014375826343894
48.0,0.0013038243632763624
52.0,0.0012240010546520352
56.0,0.0008614445105195045
60.0,0.001218963647261262
64.0,0.001269833417609334
72.0,0.0008862020913511515
80.0,0.001135439146310091
88.0,0.0007339580915868282
96.0,0.0011489088647067547
104.0,0.0010462639620527625
112.0,0.00130240130238235
120.0,0.0010028855176642537
128.0,0.0009346862207166851
144.0,0.0009060204611159861
160.0,0.0007317091221921146
176.0,0.0008178777061402798
192.0,0.0007662587449885905
208.0,0.001238740049302578
224.0,0.00040486498619429767
240.0,0.0002137984847649932
256.0,-0.000276993028819561
288.0,-0.00022652842744719237
320.0,0.0009099392918869853
352.0,0.001266313367523253
384.0,-0.0005156121915206313
416.0,-0.00024731148732826114
448.0,0.0008404800319112837
480.0,0.001066416036337614
512.0,0.0004786749486811459
576.0,-0.00018359952082391828
640.0,-0.0005076988018117845
704.0,-7.457878382410854e-05
768.0,0.0003693223698064685
832.0,-0.0004189728351775557
896.0,-0.0005368880229070783
960.0,-0.0003403943555895239
1024.0,-0.000736372428946197
1152.0,-0.0003905638586729765
1280.0,9.410310303792357e-05
1408.0,0.00043239709339104593
1536.0,0.0007414903957396746
1664.0,0.0005430835299193859
1792.0,2.0338593458291143e-05
1920.0,0.00040418325806967914
2048.0,0.00042992649832740426
2304.0,-0.00020741502521559596
2560.0,-0.00018850959895644337
2816.0,9.290972229791805e-05
3072.0,-0.00012042665184708312
3328.0,0.00024691526778042316
3584.0,0.00031825812766328454
3840.0,-0.0001235581876244396
4096.0,0.00012299008085392416
4608.0,-0.0002811887243296951
5120.0,-0.00042328782728873193
5632.0,-5.328689076122828e-05
6144.0,0.00020685092022176832
6656.0,1.1745051779143978e-05
7168.0,-8.15619932836853e-05
7680.0,0.00012978687300346792
8192.0,-0.0001403538481099531
9216.0,1.4557430404238403e-05
10240.0,0.00011065314902225509
11264.0,-0.0002556187682785094
12288.0,-0.0002883421257138252
13312.0,-0.0009763216366991401
14336.0,-0.0012012041406705976
end
