version,3.0
numOfCh,1
type,point
parent_name,1-cuts
ch_type,1_1
kcount,1
numberNandB,1
brightnessNandB,1
carpet pos,0
pc,0
Time (ms),CH1 Auto-Correlation
1.0,0.015942780300974846
2.0,0.013044096529483795
3.0,0.011008799076080322
4.0,0.009401614777743816
5.0,0.008157320320606232
6.0,0.007172505371272564
7.0,0.006411552894860506
8.0,0.0057832831516861916
9.0,0.00524629931896925
10.0,0.0048143924213945866
11.0,0.004334640223532915
12.0,0.003993724472820759
13.0,0.00368426158092916
14.0,0.0033627101220190525
15.0,0.0030905085150152445
16.0,0.0028288878966122866
18.0,0.002216097665950656
20.0,0.0018630073172971606
22.0,0.0016071452992036939
24.0,0.0013837411534041166
26.0,0.0013944648671895266
28.0,0.0012209056876599789
30.0,0.0011897088261321187
32.0,0.0010725745232775807
36.0,0.000904429645743221
40.0,0.0007311382214538753
44.0,0.0004543595132417977
48.0,0.00040569037082605064
52.0,0.00028146299882791936
56.0,0.00018903333693742752
60.0,9.656928887125105e-05
64.0,0.00010199179814662784
72.0,6.696303171338513e-05
80.0,9.321501238446217e-06
88.0,3.712455145432614e-05
96.0,-0.0002722198551055044
104.0,-0.00018114648992195725
112.0,-0.00028091977583244443
120.0,-0.00019211630569770932
128.0,-0.00022935723245609552
144.0,3.784993168665096e-05
160.0,0.0004574785998556763
176.0,0.0005205498309805989
192.0,0.0008519461844116449
208.0,0.000532858248334378
224.0,0.00021231120626907796
240.0,0.00025757952244021
256.0,-4.73546824650839e-05
288.0,-9.510191739536822e-05
320.0,-0.00035669351927936077
352.0,-0.00016515589959453791
384.0,0.00022648464073427022
416.0,0.00029301701579242945
448.0,-1.1107778846053407e-05
480.0,-0.0001464911620132625
512.0,-0.00032578036189079285
576.0,0.00047631561756134033
640.0,2.529802077333443e-05
704.0,-3.6793969684367767e-06
768.0,-2.863205736503005e-05
832.0,-0.00016724651504773647
896.0,0.00011359392374288291
960.0,6.931422831257805e-05
1024.0,-0.00030458191758953035
1152.0,0.00034990854328498244
1280.0,-0.0005231457762420177
1408.0,0.00010172883776249364
1536.0,-8.757538307690993e-05
1664.0,-0.0004950923612341285
1792.0,-0.00011827082198578864
1920.0,1.1465255738585256e-05
2048.0,5.8944293414242566e-05
2304.0,8.166963380062953e-05
2560.0,0.00040908902883529663
2816.0,-0.00017009940347634256
3072.0,3.129685137537308e-05
3328.0,5.088417310616933e-05
3584.0,0.0002145342732546851
3840.0,-7.982664101291448e-05
4096.0,-3.954057319788262e-05
4608.0,-0.0001802270853659138
5120.0,-0.00013707626203540713
5632.0,-8.49069983814843e-05
6144.0,0.00019923578656744212
6656.0,0.00012179793702671304
7168.0,-1.2356368642940652e-05
7680.0,-0.00019539192726369947
8192.0,-0.0001738610299071297
9216.0,0.00022430444369092584
10240.0,0.00017659539298620075
11264.0,-5.649905506288633e-05
12288.0,2.190224768128246e-05
13312.0,-0.0002973297087009996
14336.0,-0.000510196725372225
end
