version,3.0
numOfCh,1
type,point
parent_name,1-cuts
ch_type,1_1
kcount,1
numberNandB,1
brightnessNandB,1
carpet pos,0
pc,0
Time (ms),CH1 Auto-Correlation
1.0,0.01578211784362793
2.0,0.0129767544567585
3.0,0.010879245586693287
4.0,0.009364563971757889
5.0,0.008129248395562172
6.0,0.007110359612852335
7.0,0.006353186909109354
8.0,0.005615179426968098
9.0,0.005142625886946917
10.0,0.00469108996912837
11.0,0.00443763192743063
12.0,0.004212543368339539
13.0,0.003932061605155468
14.0,0.0037204877007752657
15.0,0.0034523596987128258
16.0,0.0032657587435096502
18.0,0.002974302740767598
20.0,0.0026998543180525303
22.0,0.0023954357020556927
24.0,0.002054553711786866
26.0,0.001936603686772287
28.0,0.001815133960917592
30.0,0.001687707961536944
32.0,0.0014331979909911752
36.0,0.0012686892878264189
40.0,0.0012355255894362926
44.0,0.0013287869514897466
48.0,0.0015086751664057374
52.0,0.001493296935223043
56.0,0.0014935111394152045
60.0,0.001513425842858851
64.0,0.0015888690249994397
72.0,0.0011633257381618023
80.0,0.0009597449097782373
88.0,0.0008976719109341502
96.0,0.0006859663990326226
104.0,0.000618202961049974
112.0,0.0003589630068745464
120.0,-0.0001880620839074254
128.0,-0.00022129602439235896
144.0,0.0001828863169066608
160.0,-9.910934750223532e-05
176.0,0.0001320909650530666
192.0,0.00027025400777347386
208.0,0.00035801855847239494
224.0,-0.00015246191469486803
240.0,-0.00023582400172017515
256.0,0.00010676743841031566
288.0,-0.0005920969997532666
320.0,-0.0004283756425138563
352.0,-0.00040689072920940816
384.0,-0.00017366884276270866
416.0,-0.00010387939255451784
448.0,-0.0003276015049777925
480.0,0.0002705780207179487
512.0,6.068290167604573e-05
576.0,0.00030670847627334297
640.0,0.0003124215581919998
704.0,0.00016004766803234816
768.0,-2.2556236217496917e-05
832.0,-0.00014128557813819498
896.0,0.00011512236233102158
960.0,6.63335231365636e-05
1024.0,6.869069329695776e-05
1152.0,0.000422793033067137
1280.0,0.00030588393565267324
1408.0,0.0003889219951815903
1536.0,0.0003687347925733775
1664.0,0.0006528509547933936
1792.0,-0.0004950230941176414
1920.0,-0.0005224753404036164
2048.0,-0.0003760622057598084
2304.0,-5.13100931129884e-05
2560.0,0.0001824846985982731
2816.0,-0.0002288497780682519
3072.0,5.5307536968030035e-06
3328.0,-0.0002251031983178109
3584.0,-0.0004566657298710197
3840.0,0.0006861272850073874
4096.0,-0.000457403133623302
4608.0,-0.00013631113688461483
5120.0,0.0003605438978411257
5632.0,-7.378579903161153e-05
6144.0,5.424821938504465e-05
6656.0,0.0003817412070930004
7168.0,-0.00011852790339617059
7680.0,-8.414015610469505e-05
8192.0,4.2694828152889386e-05
9216.0,-0.00022979620553087443
10240.0,0.00021343992557376623
11264.0,9.802613931242377e-05
12288.0,-4.3715677747968584e-05
13312.0,-0.00030336921918205917
14336.0,-0.0013929797569289804
end
