version,3.0
numOfCh,1
type,point
parent_name,1-cuts
ch_type,1_1
kcount,1
numberNandB,1
brightnessNandB,1
carpet pos,0
pc,0
Time (ms),CH1 Auto-Correlation
1.0,0.01590633951127529
2.0,0.013170166872441769
3.0,0.011304639279842377
4.0,0.009788689203560352
5.0,0.008617537096142769
6.0,0.007582626771181822
7.0,0.006814246065914631
8.0,0.006187858060002327
9.0,0.0056247045285999775
10.0,0.005133400205522776
11.0,0.004743379540741444
12.0,0.00439626257866621
13.0,0.004125775303691626
14.0,0.0038910419680178165
15.0,0.003631334751844406
16.0,0.003373880637809634
18.0,0.0029371390119194984
20.0,0.002607665490359068
22.0,0.0021329158917069435
24.0,0.0017961497651413083
26.0,0.001642085611820221
28.0,0.001542494515888393
30.0,0.0015430940547958016
32.0,0.0014940856490284204
36.0,0.0012656658655032516
40.0,0.000995416659861803
44.0,0.0007048760307952762
48.0,0.0005069561302661896
52.0,0.0004083728708792478
56.0,0.00033249525586143136
60.0,0.00015858378901612014
64.0,0.00014348367403727025
72.0,4.302528395783156e-05
80.0,-0.00022774680110160261
88.0,-0.0002137967967428267
96.0,1.3871102055418305e-05
104.0,0.0004871019918937236
112.0,0.0002928913163486868
120.0,-1.2653927115024999e-05
128.0,0.00032351541449315846
144.0,0.0006093729753047228
160.0,0.0006506010540761054
176.0,0.00045747458352707326
192.0,-0.00011956370872212574
208.0,-0.0002562770969234407
224.0,-0.00046154941082932055
240.0,-0.000312882533762604
256.0,0.00014944640861358494
288.0,0.000360644276952371
320.0,0.0003771364863496274
352.0,4.288203126634471e-05
384.0,3.5924527765018865e-05
416.0,-6.895644764881581e-05
448.0,-0.00035410147393122315
480.0,-0.0002774308668449521
512.0,-0.00033152109244838357
576.0,-0.0004300347645767033
640.0,-0.00013797954306937754
704.0,0.00034075151779688895
768.0,-0.0006836836691945791
832.0,-3.6390938475960866e-05
896.0,-0.0001720356085570529
960.0,-6.831147038610652e-05
1024.0,0.00035949648008681834
1152.0,-0.00033501299913041294
1280.0,-0.00011494189675431699
1408.0,-0.0004579651285894215
1536.0,-0.00023716958821751177
1664.0,8.207738574128598e-05
1792.0,-0.0002572418306954205
1920.0,-8.623172107036225e-06
2048.0,4.599576641339809e-05
2304.0,0.00021001427376177162
2560.0,0.00040175343747250736
2816.0,0.0001713438396109268
3072.0,-0.0001102773385355249
3328.0,-0.00024880259297788143
3584.0,-0.0005987804033793509
3840.0,-0.0003993480349890888
4096.0,8.400101069128141e-05
4608.0,9.744972885528114e-06
5120.0,0.0003146196831949055
5632.0,1.4929470353308716e-06
6144.0,-0.00034412540844641626
6656.0,0.000256559083936736
7168.0,9.908223000820726e-05
7680.0,5.6693672377150506e-05
8192.0,0.00011438820365583524
9216.0,-0.0001122834873967804
10240.0,-3.1211970053846017e-05
11264.0,-8.912976045394316e-05
12288.0,0.0001655157102504745
13312.0,9.873230737866834e-06
14336.0,-8.551911741960794e-05
end
