version,3.0
numOfCh,1
type,point
parent_name,1-cuts
ch_type,1_1
kcount,1
numberNandB,1
brightnessNandB,1
carpet pos,0
pc,0
Time (ms),CH1 Auto-Correlation
1.0,0.025967590510845184
2.0,0.021036963909864426
3.0,0.017758134752511978
4.0,0.015327886678278446
5.0,0.01345212571322918
6.0,0.011928131803870201
7.0,0.0106344697996974
8.0,0.009706873446702957
9.0,0.008900743909180164
10.0,0.00835440494120121
11.0,0.008022678084671497
12.0,0.007544361986219883
13.0,0.007031335029751062
14.0,0.006609813310205936
15.0,0.006183127872645855
16.0,0.005749613977968693
18.0,0.005144950468093157
20.0,0.00456348666921258
22.0,0.004114766139537096
24.0,0.004010762553662062
26.0,0.0040093376301229
28.0,0.003908358979970217
30.0,0.0035874450113624334
32.0,0.003159324871376157
36.0,0.002849309239536524
40.0,0.002335981698706746
44.0,0.001914421678520739
48.0,0.0020681447349488735
52.0,0.0022690757177770138
56.0,0.002139150630682707
60.0,0.0016959791537374258
64.0,0.0014975134981796145
72.0,0.001091254292987287
80.0,0.0013210740871727467
88.0,0.001495284028351307
96.0,0.0011476060608401895
104.0,0.0006208184640854597
112.0,0.0004141900863032788
120.0,0.0007067444385029376
128.0,0.0007675535161979496
144.0,0.0007834223797544837
160.0,0.0004382929182611406
176.0,0.0005395615589804947
192.0,0.0012442298466339707
208.0,0.0004484893870539963
224.0,0.00020822453370783478
240.0,0.0005742139765061438
256.0,7.4188251346640754e-06
288.0,0.0001674834784353152
320.0,0.0002794342872221023
352.0,0.0001567221333971247
384.0,-0.0006656172918155789
416.0,-0.0006780956755392253
448.0,-9.282743849325925e-05
480.0,-0.00043946527875959873
512.0,-0.00011000558151863515
576.0,-0.00036366391577757895
640.0,0.0007173334015533328
704.0,0.0005060280091129243
768.0,-0.0003002044395543635
832.0,0.00015045670443214476
896.0,-0.00014209907385520637
960.0,-3.111024489044212e-05
1024.0,-0.00021052593365311623
1152.0,-0.000427610008046031
1280.0,-0.0010770972585305572
1408.0,-0.0009029174689203501
1536.0,2.9249111321405508e-05
1664.0,0.00023256917484104633
1792.0,-0.00020556090748868883
1920.0,-0.00012371415505185723
2048.0,-2.116289033438079e-05
2304.0,0.0005521152634173632
2560.0,0.0002783085801638663
2816.0,0.0002878320519812405
3072.0,-0.00026987562887370586
3328.0,0.000709443527739495
3584.0,-0.0007013166323304176
3840.0,-0.0005808150744996965
4096.0,-0.00026870841975323856
4608.0,3.853678208542988e-05
5120.0,0.0001644104195293039
5632.0,-0.00039023224962875247
6144.0,-0.00030020641861483455
6656.0,0.00019082300423178822
7168.0,-0.00039530053618364036
7680.0,0.0003860874567180872
8192.0,-7.210570765892044e-05
9216.0,-0.0001676150131970644
10240.0,-9.15921846171841e-05
11264.0,0.0005108611076138914
12288.0,0.00013796637358609587
13312.0,-0.0005674061249010265
14336.0,0.0020121594425290823
end
