version,3.0
numOfCh,1
type,point
parent_name,1-cuts
ch_type,1_1
kcount,1
numberNandB,1
brightnessNandB,1
carpet pos,0
pc,0
Time (ms),CH1 Auto-Correlation
1.0,0.016838885843753815
2.0,0.013914484530687332
3.0,0.011902025900781155
4.0,0.01047060638666153
5.0,0.009267563000321388
6.0,0.008281290531158447
7.0,0.0074046915397048
8.0,0.006774383597075939
9.0,0.006207606289535761
10.0,0.005741110537201166
11.0,0.005209854803979397
12.0,0.004778118338435888
13.0,0.004404480569064617
14.0,0.004075611475855112
15.0,0.0038108981680125
16.0,0.0035887586418539286
18.0,0.0031743559520691633
20.0,0.003064773278310895
22.0,0.0030165957286953926
24.0,0.0028332204092293978
26.0,0.0025465465150773525
28.0,0.0023214775137603283
30.0,0.002122933976352215
32.0,0.001831906964071095
36.0,0.0013950482243672013
40.0,0.0012712610187008977
44.0,0.0013101734220981598
48.0,0.0009723561815917492
52.0,0.0006238836795091629
56.0,0.00047440652269870043
60.0,0.0004069936112500727
64.0,0.0005869075539521873
72.0,0.00036778231151401997
80.0,0.00034294166835024953
88.0,0.00037768829497508705
96.0,0.0002990062930621207
104.0,0.0005990006611682475
112.0,0.0007660227711312473
120.0,0.0007200465770438313
128.0,0.0005386369884945452
144.0,0.0007873710710555315
160.0,0.0005130947683937848
176.0,0.0006444694590754807
192.0,0.000592832628171891
208.0,0.0007900393102318048
224.0,0.0007733582751825452
240.0,0.00033668463584035635
256.0,-6.57946793580777e-06
288.0,-0.00024624919751659036
320.0,-0.00030508945928886533
352.0,-0.0004297838604543358
384.0,-0.00018200794875156134
416.0,0.00014760970952920616
448.0,0.0009334075730293989
480.0,0.0002886367728933692
512.0,-1.3137515452399384e-05
576.0,0.0004008717951364815
640.0,0.0002565711329225451
704.0,0.0001436066086171195
768.0,9.543436317471787e-05
832.0,0.00039614769048057497
896.0,0.00021445713355205953
960.0,-0.0001948691497091204
1024.0,0.00044192071072757244
1152.0,9.399608097737655e-05
1280.0,0.0004314314282964915
1408.0,0.00017624029715079814
1536.0,-0.00016002662596292794
1664.0,1.0448210559843574e-05
1792.0,-7.690580241614953e-05
1920.0,-0.0001486483379267156
2048.0,5.1799848733935505e-05
2304.0,0.00017287800437770784
2560.0,-0.00030910756322555244
2816.0,-2.5282731712650275e-06
3072.0,4.810356585949194e-06
3328.0,0.00016426356160081923
3584.0,-0.000208863930311054
3840.0,-0.0002953344373963773
4096.0,-0.000185763172339648
4608.0,-0.0002294218575116247
5120.0,-0.0002943789295386523
5632.0,0.00018987609655596316
6144.0,9.374677756568417e-05
6656.0,-0.00015702491509728134
7168.0,-8.0487643572269e-06
7680.0,-7.287926564458758e-05
8192.0,-0.0005495577934198081
9216.0,-4.758424256579019e-05
10240.0,-0.00020142467110417783
11264.0,-0.00018891917716246098
12288.0,0.00021951316739432514
13312.0,0.0005661434843204916
14336.0,-0.0006399833946488798
end
