version,3.0
numOfCh,1
type,point
parent_name,fe81d_0dot069-1dot0
ch_type,1_1
kcount,1
numberNandB,1
brightnessNandB,1
carpet pos,0
pc,0
Time (ms),CH1 Auto-Correlation
1.0,0.09164465218782425
2.0,0.0907508134841919
3.0,0.08996210247278214
4.0,0.08921439945697784
5.0,0.08847077935934067
6.0,0.0877973809838295
7.0,0.08717827498912811
8.0,0.08653959631919861
9.0,0.08595559746026993
10.0,0.0853857696056366
11.0,0.0848049521446228
12.0,0.08427294343709946
13.0,0.08371783792972565
14.0,0.08320672810077667
15.0,0.0827305018901825
16.0,0.0822511613368988
18.0,0.08129238337278366
20.0,0.08035372197628021
22.0,0.07943777740001678
24.0,0.07848498225212097
26.0,0.07758738845586777
28.0,0.07673390209674835
30.0,0.07588360458612442
32.0,0.07504336535930634
36.0,0.07342107594013214
40.0,0.07187964022159576
44.0,0.07034745812416077
48.0,0.06896238029003143
52.0,0.06759995967149734
56.0,0.06630769371986389
60.0,0.06510093808174133
64.0,0.06385405361652374
72.0,0.06149062514305115
80.0,0.05911301448941231
88.0,0.056978147476911545
96.0,0.05482659116387367
104.0,0.05288573354482651
112.0,0.051150254905223846
120.0,0.04935305565595627
128.0,0.04778631031513214
144.0,0.044667333364486694
160.0,0.04155303165316582
176.0,0.0385122112929821
192.0,0.03653869032859802
208.0,0.03480774536728859
224.0,0.03328195586800575
240.0,0.03179929032921791
256.0,0.030939890071749687
288.0,0.02884172834455967
320.0,0.027206413447856903
352.0,0.02608504705131054
384.0,0.024197619408369064
416.0,0.022141925990581512
448.0,0.02203739434480667
480.0,0.0219698715955019
512.0,0.021292222663760185
576.0,0.01990770921111107
640.0,0.01797533966600895
704.0,0.015462324023246765
768.0,0.011209988966584206
832.0,0.00851318147033453
896.0,0.006968264002352953
960.0,0.010347869247198105
1024.0,0.012202615849673748
1152.0,0.01332397386431694
1280.0,0.009811051189899445
1408.0,0.004111794289201498
1536.0,0.00039292118162848055
1664.0,0.0065374597907066345
1792.0,0.009110849350690842
1920.0,0.006910481955856085
2048.0,0.004213128238916397
2304.0,-0.0019883918575942516
2560.0,-0.007603043224662542
2816.0,-0.011721362359821796
3072.0,-0.009206617251038551
3328.0,-0.000546053983271122
3584.0,0.0004131700552534312
3840.0,-0.0152283301576972
4096.0,-0.0188420582562685
4608.0,-0.01718316413462162
5120.0,-0.012701200321316719
5632.0,-0.004651979543268681
6144.0,-0.00804241094738245
6656.0,0.0066950139589607716
7168.0,0.014035413041710854
7680.0,0.00842147134244442
8192.0,0.009316794574260712
end
