version,3.0
numOfCh,1
type,point
parent_name,fe81d_0dot069-1dot0
ch_type,1_1
kcount,1
numberNandB,1
brightnessNandB,1
carpet pos,0
pc,0
Time (ms),CH1 Auto-Correlation
1.0,0.09356953948736191
2.0,0.09232482314109802
3.0,0.0913495123386383
4.0,0.09058938920497894
5.0,0.08980736881494522
6.0,0.08907606452703476
7.0,0.08836565911769867
8.0,0.08763311058282852
9.0,0.08699265867471695
10.0,0.08636457473039627
11.0,0.08569617569446564
12.0,0.08512136340141296
13.0,0.08448494970798492
14.0,0.08386150747537613
15.0,0.08327490836381912
16.0,0.08269084990024567
18.0,0.08158702403306961
20.0,0.08049972355365753
22.0,0.07947833836078644
24.0,0.0786556527018547
26.0,0.07776245474815369
28.0,0.07690609991550446
30.0,0.07602805644273758
32.0,0.07508116960525513
36.0,0.07333026081323624
40.0,0.07169465720653534
44.0,0.07015660405158997
48.0,0.06871051341295242
52.0,0.06731609255075455
56.0,0.06604161113500595
60.0,0.06490352004766464
64.0,0.06366536021232605
72.0,0.06134148687124252
80.0,0.058935169130563736
88.0,0.056292884051799774
96.0,0.0539141520857811
104.0,0.05218283459544182
112.0,0.050609052181243896
120.0,0.04915877431631088
128.0,0.04792109504342079
144.0,0.046140626072883606
160.0,0.04459439218044281
176.0,0.04351438954472542
192.0,0.04354720935225487
208.0,0.04314372316002846
224.0,0.042713627219200134
240.0,0.0421418733894825
256.0,0.04144086316227913
288.0,0.03795959800481796
320.0,0.034890975803136826
352.0,0.03147668018937111
384.0,0.030435727909207344
416.0,0.0314309261739254
448.0,0.03014185279607773
480.0,0.029448073357343674
512.0,0.027997618541121483
576.0,0.0251625943928957
640.0,0.02258233167231083
704.0,0.016697267070412636
768.0,0.011458750814199448
832.0,0.005704902578145266
896.0,0.0007910295971669257
960.0,-0.0033754664473235607
1024.0,-0.003995859995484352
1152.0,-0.005922713782638311
1280.0,-0.007970855571329594
1408.0,-0.010401937179267406
1536.0,-0.013565879315137863
1664.0,-0.011147279292345047
1792.0,-0.007357569877058268
1920.0,-0.0055451286025345325
2048.0,-0.00417533703148365
2304.0,-0.002913364674896002
2560.0,-0.0031346026808023453
2816.0,-0.0068131680600345135
3072.0,-0.01215788722038269
3328.0,-0.012844604440033436
3584.0,-0.009739154018461704
3840.0,-0.00663091940805316
4096.0,-0.005062576849013567
4608.0,-0.004333901219069958
5120.0,-0.013131147250533104
5632.0,-0.020463384687900543
6144.0,-0.010212739929556847
6656.0,0.011036376468837261
7168.0,0.02144131064414978
7680.0,0.00030715749016962945
8192.0,-0.023970190435647964
end
