version,3.0
numOfCh,1
type,point
parent_name,fe81d_0dot069-1dot0
ch_type,1_1
kcount,1
numberNandB,1
brightnessNandB,1
carpet pos,0
pc,0
Time (ms),CH1 Auto-Correlation
1.0,0.08273419737815857
2.0,0.08158597350120544
3.0,0.08051944524049759
4.0,0.07957189530134201
5.0,0.07868294417858124
6.0,0.07793846726417542
7.0,0.07720303535461426
8.0,0.07649872452020645
9.0,0.07583002001047134
10.0,0.07524651288986206
11.0,0.0746522769331932
12.0,0.07409565150737762
13.0,0.07351536303758621
14.0,0.07286393642425537
15.0,0.07219679653644562
16.0,0.07154489308595657
18.0,0.07021915912628174
20.0,0.06897561252117157
22.0,0.06783824414014816
24.0,0.0666513442993164
26.0,0.0655461996793747
28.0,0.06447957456111908
30.0,0.06350701302289963
32.0,0.062457866966724396
36.0,0.0603780560195446
40.0,0.05840549245476723
44.0,0.05645724758505821
48.0,0.05444111302495003
52.0,0.052611760795116425
56.0,0.05110647901892662
60.0,0.04973355308175087
64.0,0.04858580231666565
72.0,0.046008188277482986
80.0,0.04337327182292938
88.0,0.04097229987382889
96.0,0.038463935256004333
104.0,0.03590746596455574
112.0,0.033678945153951645
120.0,0.03192101791501045
128.0,0.03040379099547863
144.0,0.02731373719871044
160.0,0.024362744763493538
176.0,0.021109208464622498
192.0,0.01754436269402504
208.0,0.014614509418606758
224.0,0.012792956084012985
240.0,0.01197046972811222
256.0,0.011989711783826351
288.0,0.011118859052658081
320.0,0.011310754343867302
352.0,0.011185971088707447
384.0,0.010684063658118248
416.0,0.010680872946977615
448.0,0.010474859736859798
480.0,0.01091182790696621
512.0,0.011960732750594616
576.0,0.014284538105130196
640.0,0.01194288581609726
704.0,0.006918970961123705
768.0,0.003446168964728713
832.0,0.00048059216351248324
896.0,0.000133899666252546
960.0,-0.0029627785552293062
1024.0,-0.0073278071358799934
1152.0,-0.004019665066152811
1280.0,-0.004169067367911339
1408.0,-0.0009660724317654967
1536.0,-0.0026864022947847843
1664.0,-0.0015541247557848692
1792.0,0.0008148098131641746
1920.0,-0.003091577673330903
2048.0,-0.0050849453546106815
2304.0,0.0018581575714051723
2560.0,-0.0056943707168102264
2816.0,-0.007534360513091087
3072.0,0.004841364920139313
3328.0,-0.0028248182497918606
3584.0,0.004563549533486366
3840.0,0.007371874991804361
4096.0,0.0024751864839345217
4608.0,-0.0034390436485409737
5120.0,-0.005203387700021267
5632.0,0.0032969715539366007
6144.0,0.0008494790527038276
6656.0,-0.01184843946248293
7168.0,0.011753353290259838
7680.0,0.011337941512465477
8192.0,-0.009691056795418262
end
