version,3.0
numOfCh,1
type,point
parent_name,fe81d_0dot069-1dot0
ch_type,1_1
kcount,1
numberNandB,1
brightnessNandB,1
carpet pos,0
pc,0
Time (ms),CH1 Auto-Correlation
1.0,0.06413555890321732
2.0,0.06307720392942429
3.0,0.06214139237999916
4.0,0.061440546065568924
5.0,0.06068800389766693
6.0,0.060012590140104294
7.0,0.05941613018512726
8.0,0.05879422649741173
9.0,0.05818363279104233
10.0,0.057586099952459335
11.0,0.056973326951265335
12.0,0.0564119815826416
13.0,0.055904608219861984
14.0,0.05541222542524338
15.0,0.05491120368242264
16.0,0.05439208447933197
18.0,0.05349027365446091
20.0,0.05258088558912277
22.0,0.05171850696206093
24.0,0.05093251168727875
26.0,0.05009714886546135
28.0,0.04928486794233322
30.0,0.04861363768577576
32.0,0.04800509661436081
36.0,0.04666413739323616
40.0,0.045234814286231995
44.0,0.043877311050891876
48.0,0.0426284484565258
52.0,0.0414736270904541
56.0,0.04043693095445633
60.0,0.03933006152510643
64.0,0.038206566125154495
72.0,0.036309871822595596
80.0,0.034717269241809845
88.0,0.03312009572982788
96.0,0.0316205658018589
104.0,0.03049514815211296
112.0,0.029521306976675987
120.0,0.02833416871726513
128.0,0.026925571262836456
144.0,0.02356192283332348
160.0,0.020766636356711388
176.0,0.019182950258255005
192.0,0.018702968955039978
208.0,0.018245937302708626
224.0,0.017893770709633827
240.0,0.01736733876168728
256.0,0.016302822157740593
288.0,0.01441795751452446
320.0,0.012954550795257092
352.0,0.01107157114893198
384.0,0.00970418844372034
416.0,0.008511407300829887
448.0,0.008220079354941845
480.0,0.005924996454268694
512.0,0.0031621798407286406
576.0,-0.0009361198171973228
640.0,-0.0013510570861399174
704.0,-0.002335704630240798
768.0,-0.003263559890910983
832.0,-0.0036105061881244183
896.0,-0.0016192353796213865
960.0,-0.002184990094974637
1024.0,-0.0017548364121466875
1152.0,-0.003092737402766943
1280.0,-0.0033488536719232798
1408.0,-0.004208683967590332
1536.0,-0.006200895644724369
1664.0,-0.005758391693234444
1792.0,-0.004635247867554426
1920.0,-0.008363303728401661
2048.0,-0.004690118134021759
2304.0,-0.0016920892521739006
2560.0,-0.0028558007907122374
2816.0,-0.002236345550045371
3072.0,-0.004658634774386883
3328.0,-0.007810752373188734
3584.0,-0.0012442116858437657
3840.0,-0.000110733846668154
4096.0,-0.0024769038427621126
4608.0,0.00040450075175613165
5120.0,0.006576203275471926
5632.0,-0.007293363101780415
6144.0,-0.0021742230746895075
6656.0,0.00750755425542593
7168.0,-0.003537009470164776
7680.0,-0.010415324941277504
8192.0,-0.00960955023765564
end
