version,3.0
numOfCh,1
type,point
parent_name,fe81d_0dot069-1dot0
ch_type,1_1
kcount,1
numberNandB,1
brightnessNandB,1
carpet pos,0
pc,0
Time (ms),CH1 Auto-Correlation
1.0,0.08494015038013458
2.0,0.08413881063461304
3.0,0.08342801779508591
4.0,0.08274678140878677
5.0,0.08213354647159576
6.0,0.08152918517589569
7.0,0.08092579990625381
8.0,0.08032223582267761
9.0,0.0797533392906189
10.0,0.07914747297763824
11.0,0.07858245819807053
12.0,0.07805559039115906
13.0,0.07752064615488052
14.0,0.07699273526668549
15.0,0.07646545767784119
16.0,0.07596898078918457
18.0,0.07499118894338608
20.0,0.07409051060676575
22.0,0.07321634888648987
24.0,0.07242237031459808
26.0,0.07167605310678482
28.0,0.07094401121139526
30.0,0.070218026638031
32.0,0.06953035295009613
36.0,0.06826457381248474
40.0,0.06694019585847855
44.0,0.06576912850141525
48.0,0.06466592103242874
52.0,0.06372103095054626
56.0,0.06288551539182663
60.0,0.06212569400668144
64.0,0.06144127622246742
72.0,0.05989454686641693
80.0,0.058309413492679596
88.0,0.05674146115779877
96.0,0.05518709123134613
104.0,0.053917620331048965
112.0,0.052684683352708817
120.0,0.05149175971746445
128.0,0.050383761525154114
144.0,0.048773933202028275
160.0,0.047546084970235825
176.0,0.04699625074863434
192.0,0.04563582316040993
208.0,0.044210273772478104
224.0,0.04268012195825577
240.0,0.04137526825070381
256.0,0.04051285237073898
288.0,0.039300449192523956
320.0,0.038237445056438446
352.0,0.037691522389650345
384.0,0.03689197823405266
416.0,0.035716939717531204
448.0,0.0348079651594162
480.0,0.03510892391204834
512.0,0.035161785781383514
576.0,0.03360128402709961
640.0,0.030043723061680794
704.0,0.025021402165293694
768.0,0.02263423055410385
832.0,0.022689269855618477
896.0,0.02337082102894783
960.0,0.021090921014547348
1024.0,0.022628644481301308
1152.0,0.020489269867539406
1280.0,0.014489054679870605
1408.0,0.012358555570244789
1536.0,0.011349798180162907
1664.0,0.007024719845503569
1792.0,0.003671755315735936
1920.0,0.0035212761722505093
2048.0,0.005114235449582338
2304.0,0.004687761887907982
2560.0,0.0024815797805786133
2816.0,-0.0017995847156271338
3072.0,-0.0029517628718167543
3328.0,-0.002710494212806225
3584.0,-0.0012689681025221944
3840.0,-0.005531101021915674
4096.0,-0.008765246719121933
4608.0,-0.012230399996042252
5120.0,-0.023263704031705856
5632.0,-0.020771391689777374
6144.0,-0.005126339383423328
6656.0,-0.003319045528769493
7168.0,0.0033749917056411505
7680.0,-0.012138704769313335
8192.0,-0.01005663350224495
end
