version,3.0
numOfCh,1
type,point
parent_name,fe81d_0dot069-1dot0
ch_type,1_1
kcount,1
numberNandB,1
brightnessNandB,1
carpet pos,0
pc,0
Time (ms),CH1 Auto-Correlation
1.0,0.10551094263792038
2.0,0.10486665368080139
3.0,0.10428372770547867
4.0,0.1037096232175827
5.0,0.10314027220010757
6.0,0.10258758813142776
7.0,0.10204192250967026
8.0,0.10152914375066757
9.0,0.10105536878108978
10.0,0.10057929903268814
11.0,0.10009700059890747
12.0,0.09963151812553406
13.0,0.09918126463890076
14.0,0.09875544160604477
15.0,0.09832406789064407
16.0,0.09790351986885071
18.0,0.09711649268865585
20.0,0.09632177650928497
22.0,0.09556396305561066
24.0,0.09483181685209274
26.0,0.09415449947118759
28.0,0.09351961314678192
30.0,0.09292008727788925
32.0,0.09233691543340683
36.0,0.09113598614931107
40.0,0.08991560339927673
44.0,0.08875301480293274
48.0,0.08764935284852982
52.0,0.08663090318441391
56.0,0.08559586852788925
60.0,0.08456718176603317
64.0,0.08354523777961731
72.0,0.08163131773471832
80.0,0.07984772324562073
88.0,0.07818826287984848
96.0,0.07682189345359802
104.0,0.07508997619152069
112.0,0.0734291598200798
120.0,0.07179705053567886
128.0,0.07020527124404907
144.0,0.0675782710313797
160.0,0.06466386467218399
176.0,0.0611153319478035
192.0,0.057457927614450455
208.0,0.054173629730939865
224.0,0.051585689187049866
240.0,0.04929438978433609
256.0,0.047078076750040054
288.0,0.04264272749423981
320.0,0.037663284689188004
352.0,0.034522004425525665
384.0,0.03208097442984581
416.0,0.030754329636693
448.0,0.029342569410800934
480.0,0.02908756211400032
512.0,0.029417896643280983
576.0,0.02934451960027218
640.0,0.029190216213464737
704.0,0.027482258155941963
768.0,0.02532327175140381
832.0,0.02366376481950283
896.0,0.020162245258688927
960.0,0.017359087243676186
1024.0,0.01474640890955925
1152.0,0.008204475976526737
1280.0,-0.0006601588102057576
1408.0,-0.007910693995654583
1536.0,-0.010430889204144478
1664.0,-0.010925212875008583
1792.0,-0.012621117755770683
1920.0,-0.018399421125650406
2048.0,-0.024186214432120323
2304.0,-0.020868919789791107
2560.0,-0.010882236994802952
2816.0,-0.012131255120038986
3072.0,-0.0013340732548385859
3328.0,0.009686341509222984
3584.0,0.00012095208512619138
3840.0,0.0010243478463962674
4096.0,0.001781165017746389
4608.0,-0.014125684276223183
5120.0,-0.0061983950436115265
5632.0,-0.01338892336934805
6144.0,-0.009541588835418224
6656.0,0.00334314932115376
7168.0,-0.004477677401155233
7680.0,0.0008057423983700573
8192.0,-0.0010311083169654012
end
