version,3.0
numOfCh,1
type,point
parent_name,fe81d_0dot069-1dot0
ch_type,1_1
kcount,1
numberNandB,1
brightnessNandB,1
carpet pos,0
pc,0
Time (ms),CH1 Auto-Correlation
1.0,0.07216259837150574
2.0,0.0714440867304802
3.0,0.07076159864664078
4.0,0.07011586427688599
5.0,0.06948497146368027
6.0,0.06890411674976349
7.0,0.06833181530237198
8.0,0.06777647882699966
9.0,0.06722250580787659
10.0,0.06671936810016632
11.0,0.06622298806905746
12.0,0.06574636697769165
13.0,0.06523957848548889
14.0,0.06473252922296524
15.0,0.06424034386873245
16.0,0.06375513225793839
18.0,0.062784343957901
20.0,0.061833638697862625
22.0,0.06092466413974762
24.0,0.06010083109140396
26.0,0.05931856855750084
28.0,0.058500178158283234
30.0,0.057686951011419296
32.0,0.05689047649502754
36.0,0.05551875755190849
40.0,0.054168451577425
44.0,0.05281134322285652
48.0,0.05154404789209366
52.0,0.0504138246178627
56.0,0.04932832345366478
60.0,0.04826466739177704
64.0,0.047248609364032745
72.0,0.04534777253866196
80.0,0.043581146746873856
88.0,0.04178209602832794
96.0,0.04027141258120537
104.0,0.03891734778881073
112.0,0.03768226131796837
120.0,0.036551155149936676
128.0,0.03567900508642197
144.0,0.034514088183641434
160.0,0.033107854425907135
176.0,0.03146641328930855
192.0,0.029545733705163002
208.0,0.028459543362259865
224.0,0.028007660061120987
240.0,0.02745281159877777
256.0,0.02635478600859642
288.0,0.023874670267105103
320.0,0.021176718175411224
352.0,0.019212203100323677
384.0,0.01827332004904747
416.0,0.01808024011552334
448.0,0.01798757165670395
480.0,0.017704913392663002
512.0,0.016949856653809547
576.0,0.014089329168200493
640.0,0.013133913278579712
704.0,0.010302048176527023
768.0,0.007494072429835796
832.0,0.004969431087374687
896.0,0.0020571104250848293
960.0,0.0013761201407760382
1024.0,-0.0002455931971780956
1152.0,-0.005360801704227924
1280.0,-0.0069017247296869755
1408.0,-0.003347780555486679
1536.0,0.00046966574154794216
1664.0,0.0036322178784757853
1792.0,0.002263409784063697
1920.0,-0.0012628277763724327
2048.0,-0.0015642492799088359
2304.0,-0.0038206716999411583
2560.0,-0.005747493356466293
2816.0,-0.015141099691390991
3072.0,-0.01797276735305786
3328.0,-0.010000050999224186
3584.0,-0.007685601245611906
3840.0,-0.0036387539003044367
4096.0,0.001589441206306219
4608.0,-0.000678889686241746
5120.0,-0.002847737167030573
5632.0,-0.005638524889945984
6144.0,0.0066760024055838585
6656.0,0.007435231003910303
7168.0,0.00024809001479297876
7680.0,-0.004703190177679062
8192.0,4.107979839318432e-05
end
