version,3.0
numOfCh,1
type,point
parent_name,fe81d_0dot069-1dot0
ch_type,1_1
kcount,1
numberNandB,1
brightnessNandB,1
carpet pos,0
pc,0
Time (ms),CH1 Auto-Correlation
1.0,0.07569529861211777
2.0,0.07451694458723068
3.0,0.07344582676887512
4.0,0.0725303664803505
5.0,0.07176147401332855
6.0,0.0709616094827652
7.0,0.07023938745260239
8.0,0.06942243129014969
9.0,0.06864649802446365
10.0,0.0680077001452446
11.0,0.0673614963889122
12.0,0.06666423380374908
13.0,0.06597436219453812
14.0,0.06536545604467392
15.0,0.06479462236166
16.0,0.06420043110847473
18.0,0.06300313770771027
20.0,0.061892274767160416
22.0,0.06095555052161217
24.0,0.059853021055459976
26.0,0.05880536511540413
28.0,0.05786895751953125
30.0,0.056807659566402435
32.0,0.05575187876820564
36.0,0.053934697061777115
40.0,0.05224974825978279
44.0,0.050715185701847076
48.0,0.04917190968990326
52.0,0.04763687402009964
56.0,0.04638539254665375
60.0,0.04518929123878479
64.0,0.04398944228887558
72.0,0.04159298539161682
80.0,0.03914174810051918
88.0,0.03693873807787895
96.0,0.035006988793611526
104.0,0.03329280763864517
112.0,0.03155243396759033
120.0,0.030479727312922478
128.0,0.02962629124522209
144.0,0.027597032487392426
160.0,0.025231197476387024
176.0,0.023083709180355072
192.0,0.020491676405072212
208.0,0.017307013273239136
224.0,0.014003846794366837
240.0,0.01089830044656992
256.0,0.008642775937914848
288.0,0.005609407089650631
320.0,0.00472288066521287
352.0,0.0036485169548541307
384.0,0.0017479286761954427
416.0,0.00012728497677017003
448.0,0.0007194737554527819
480.0,0.0011470321333035827
512.0,0.0026147132739424706
576.0,0.004490493796765804
640.0,0.007881388068199158
704.0,0.0069982861168682575
768.0,0.006283787544816732
832.0,0.006184325087815523
896.0,0.006989720277488232
960.0,0.006392431445419788
1024.0,0.0028996127657592297
1152.0,-0.001897557289339602
1280.0,0.0011437800712883472
1408.0,0.006777778267860413
1536.0,0.00556967593729496
1664.0,-0.0010085286339744925
1792.0,-0.004382222890853882
1920.0,-0.0039574019610881805
2048.0,0.0007627512095496058
2304.0,0.006845071446150541
2560.0,0.012564443983137608
2816.0,0.009754220023751259
3072.0,0.008445501327514648
3328.0,0.005422955844551325
3584.0,-0.0014789191773161292
3840.0,0.008405479602515697
4096.0,0.0044531505554914474
4608.0,-0.002345723332837224
5120.0,-0.00506663927808404
5632.0,0.003969847224652767
6144.0,-0.007644206285476685
6656.0,-0.009051100350916386
7168.0,3.656500484794378e-05
7680.0,-0.008492576889693737
8192.0,0.002220148453488946
end
