version,3.0
numOfCh,1
type,point
parent_name,fe81d_0dot069-1dot0
ch_type,1_1
kcount,1
numberNandB,1
brightnessNandB,1
carpet pos,0
pc,0
Time (ms),CH1 Auto-Correlation
1.0,0.07625632733106613
2.0,0.07544044405221939
3.0,0.07473364472389221
4.0,0.07404664903879166
5.0,0.07335999608039856
6.0,0.07269424945116043
7.0,0.07208817452192307
8.0,0.07150053977966309
9.0,0.07096913456916809
10.0,0.07040750980377197
11.0,0.06988871842622757
12.0,0.06937690824270248
13.0,0.06889524310827255
14.0,0.06839419156312943
15.0,0.06789032369852066
16.0,0.06738684326410294
18.0,0.06638947129249573
20.0,0.06535544246435165
22.0,0.06438177824020386
24.0,0.06343326717615128
26.0,0.06249815598130226
28.0,0.06152409315109253
30.0,0.060617461800575256
32.0,0.059711162000894547
36.0,0.0580081082880497
40.0,0.05634996294975281
44.0,0.05460638552904129
48.0,0.052979033440351486
52.0,0.05140424892306328
56.0,0.049898747354745865
60.0,0.04835733026266098
64.0,0.046795956790447235
72.0,0.04380475729703903
80.0,0.04097949340939522
88.0,0.03805625066161156
96.0,0.035711973905563354
104.0,0.0337357260286808
112.0,0.03178104758262634
120.0,0.03002392128109932
128.0,0.028428461402654648
144.0,0.025695601478219032
160.0,0.022893782705068588
176.0,0.020365780219435692
192.0,0.01760903373360634
208.0,0.01555594801902771
224.0,0.014125311747193336
240.0,0.012537267990410328
256.0,0.011012068949639797
288.0,0.008359909988939762
320.0,0.004273360129445791
352.0,0.0002790606231428683
384.0,-0.0022586726117879152
416.0,-0.0032665166072547436
448.0,-0.0025814964901655912
480.0,-0.0007447064272128046
512.0,0.001973491394892335
576.0,0.004952880088239908
640.0,0.004802199080586433
704.0,0.004505657125264406
768.0,0.004549811128526926
832.0,0.00339717511087656
896.0,0.003409752855077386
960.0,0.003091855440288782
1024.0,0.0008415689808316529
1152.0,-0.0007725384784862399
1280.0,-0.0032181311398744583
1408.0,0.0035020934883505106
1536.0,0.012980892322957516
1664.0,0.012114232406020164
1792.0,0.009293577633798122
1920.0,-0.000922256731428206
2048.0,-0.004439168609678745
2304.0,-0.002233229810371995
2560.0,0.000803394999820739
2816.0,0.006178211886435747
3072.0,0.004871733952313662
3328.0,0.00231255148537457
3584.0,-0.0013966911938041449
3840.0,-0.00641205720603466
4096.0,-0.010914793238043785
4608.0,-0.005422456655651331
5120.0,-0.002643683459609747
5632.0,0.005856799427419901
6144.0,-0.005441941786557436
6656.0,0.007522666826844215
7168.0,0.006648214068263769
7680.0,-0.0032236475963145494
8192.0,0.013187617994844913
end
