version,3.0
numOfCh,1
type,point
parent_name,fe81d_0dot069-1dot0
ch_type,1_1
kcount,1
numberNandB,1
brightnessNandB,1
carpet pos,0
pc,0
Time (ms),CH1 Auto-Correlation
1.0,0.0952148512005806
2.0,0.0941588431596756
3.0,0.09325045347213745
4.0,0.09246037155389786
5.0,0.0917627364397049
6.0,0.09103164821863174
7.0,0.09036801755428314
8.0,0.0897168293595314
9.0,0.08920170366764069
10.0,0.08869777619838715
11.0,0.08822014182806015
12.0,0.08763724565505981
13.0,0.08710259199142456
14.0,0.08654165267944336
15.0,0.0860302522778511
16.0,0.08554036170244217
18.0,0.0845872014760971
20.0,0.08360664546489716
22.0,0.08267150074243546
24.0,0.08165354281663895
26.0,0.08075818419456482
28.0,0.08000077307224274
30.0,0.07931287586688995
32.0,0.07861088961362839
36.0,0.07723399251699448
40.0,0.07577010244131088
44.0,0.07441136240959167
48.0,0.0731954276561737
52.0,0.071974977850914
56.0,0.07080147415399551
60.0,0.06975328922271729
64.0,0.06860872358083725
72.0,0.0662689283490181
80.0,0.06398521363735199
88.0,0.06174562871456146
96.0,0.05940844863653183
104.0,0.05726858600974083
112.0,0.05510394275188446
120.0,0.05274747312068939
128.0,0.050856009125709534
144.0,0.047994647175073624
160.0,0.045025862753391266
176.0,0.042116664350032806
192.0,0.03990641236305237
208.0,0.037599314004182816
224.0,0.03478910028934479
240.0,0.03188534453511238
256.0,0.02891281060874462
288.0,0.02322024293243885
320.0,0.020043794065713882
352.0,0.019291073083877563
384.0,0.019033977761864662
416.0,0.019537711516022682
448.0,0.019244292750954628
480.0,0.019313717260956764
512.0,0.021404298022389412
576.0,0.025641564279794693
640.0,0.02785445563495159
704.0,0.027220072224736214
768.0,0.025939535349607468
832.0,0.024560805410146713
896.0,0.022537775337696075
960.0,0.020793341100215912
1024.0,0.019283486530184746
1152.0,0.018089011311531067
1280.0,0.01640220545232296
1408.0,0.012435310520231724
1536.0,0.010341975837945938
1664.0,0.008698880672454834
1792.0,0.006496337242424488
1920.0,0.010472052730619907
2048.0,0.016072846949100494
2304.0,0.011453513987362385
2560.0,0.010823710821568966
2816.0,0.009276628494262695
3072.0,-0.0024199909530580044
3328.0,-0.016226140782237053
3584.0,-0.013592759147286415
3840.0,-0.013119236566126347
4096.0,-0.024828201159834862
4608.0,-0.008778698742389679
5120.0,-0.011002521961927414
5632.0,-0.012879121117293835
6144.0,-0.030024999752640724
6656.0,-0.018069563433527946
7168.0,-0.014599575661122799
7680.0,-0.0013710465282201767
8192.0,-0.011502359993755817
end
