version,3.0
numOfCh,1
type,point
parent_name,fe81d_0dot069-1dot0
ch_type,1_1
kcount,1
numberNandB,1
brightnessNandB,1
carpet pos,0
pc,0
Time (ms),CH1 Auto-Correlation
1.0,0.0782364085316658
2.0,0.07748729735612869
3.0,0.0768536627292633
4.0,0.0762409195303917
5.0,0.07561515271663666
6.0,0.07500001788139343
7.0,0.07443580776453018
8.0,0.07384789735078812
9.0,0.07326745241880417
10.0,0.07273658365011215
11.0,0.07225009799003601
12.0,0.07176273316144943
13.0,0.07125752419233322
14.0,0.07072984427213669
15.0,0.0702141672372818
16.0,0.06969781965017319
18.0,0.06869644671678543
20.0,0.06769968569278717
22.0,0.06665121018886566
24.0,0.06572184711694717
26.0,0.06480586528778076
28.0,0.06388818472623825
30.0,0.06300728768110275
32.0,0.062140755355358124
36.0,0.0603986531496048
40.0,0.058760933578014374
44.0,0.05720584839582443
48.0,0.05575322359800339
52.0,0.05431628227233887
56.0,0.05287366360425949
60.0,0.05159605294466019
64.0,0.050384271889925
72.0,0.04804442450404167
80.0,0.04557715728878975
88.0,0.04286035895347595
96.0,0.04040149971842766
104.0,0.03786430135369301
112.0,0.03572459891438484
120.0,0.033660318702459335
128.0,0.031595174223184586
144.0,0.027646593749523163
160.0,0.024938087910413742
176.0,0.023120373487472534
192.0,0.021117832511663437
208.0,0.019246915355324745
224.0,0.017758328467607498
240.0,0.01682143472135067
256.0,0.016644710674881935
288.0,0.01732790842652321
320.0,0.017378464341163635
352.0,0.018168440088629723
384.0,0.01869577169418335
416.0,0.017906781286001205
448.0,0.016770780086517334
480.0,0.016439156606793404
512.0,0.016459694132208824
576.0,0.01599828712642193
640.0,0.013272067531943321
704.0,0.012620504945516586
768.0,0.013897363096475601
832.0,0.01586940325796604
896.0,0.014198758639395237
960.0,0.011195221915841103
1024.0,0.00789701845496893
1152.0,0.005651131737977266
1280.0,0.0010106671834364533
1408.0,-0.0035203429870307446
1536.0,-0.003158107167109847
1664.0,-0.005287108942866325
1792.0,-0.010512142442166805
1920.0,-0.01058436743915081
2048.0,-0.010805374942719936
2304.0,-0.004108091816306114
2560.0,-0.006000538356602192
2816.0,-0.004949924070388079
3072.0,-0.002131362911313772
3328.0,-0.0024274627212435007
3584.0,-0.0004527542332652956
3840.0,0.0016590559389442205
4096.0,0.004842072259634733
4608.0,0.0037993257865309715
5120.0,0.005514972843229771
5632.0,-0.002321325708180666
6144.0,-0.006230980157852173
6656.0,-0.005501481704413891
7168.0,-0.0025062658824026585
7680.0,-0.0023045851849019527
8192.0,0.0009974202839657664
end
