version,3.0
numOfCh,1
type,point
parent_name,fe81d_0dot069-1dot0
ch_type,1_1
kcount,1
numberNandB,1
brightnessNandB,1
carpet pos,0
pc,0
Time (ms),CH1 Auto-Correlation
1.0,0.07281311601400375
2.0,0.07137738913297653
3.0,0.07010282576084137
4.0,0.06880916655063629
5.0,0.06793028116226196
6.0,0.06717856228351593
7.0,0.06647351384162903
8.0,0.06586705893278122
9.0,0.06535140424966812
10.0,0.06483272463083267
11.0,0.06424630433320999
12.0,0.06373517960309982
13.0,0.06326642632484436
14.0,0.06285247206687927
15.0,0.06250190734863281
16.0,0.06203640252351761
18.0,0.061105310916900635
20.0,0.06015574559569359
22.0,0.05925031751394272
24.0,0.05846099555492401
26.0,0.05752868577837944
28.0,0.05651053041219711
30.0,0.05562537536025047
32.0,0.054753322154283524
36.0,0.05304256081581116
40.0,0.0515313558280468
44.0,0.050015199929475784
48.0,0.04843882471323013
52.0,0.04705262556672096
56.0,0.04566175863146782
60.0,0.0443606860935688
64.0,0.04294770956039429
72.0,0.040188513696193695
80.0,0.03766992688179016
88.0,0.035561636090278625
96.0,0.03362567350268364
104.0,0.03181164339184761
112.0,0.029928360134363174
120.0,0.02808462642133236
128.0,0.02614470012485981
144.0,0.022808367386460304
160.0,0.020116275176405907
176.0,0.01789388805627823
192.0,0.015856878831982613
208.0,0.013626067899167538
224.0,0.012121534906327724
240.0,0.01138204988092184
256.0,0.011061211116611958
288.0,0.010135017335414886
320.0,0.008930961601436138
352.0,0.006859348155558109
384.0,0.003340391907840967
416.0,0.00039953869418241084
448.0,-0.002055421005934477
480.0,-0.004667120520025492
512.0,-0.004969973582774401
576.0,-0.0027740709483623505
640.0,0.0023435393813997507
704.0,0.006569191347807646
768.0,0.008752644062042236
832.0,0.010866725817322731
896.0,0.012012594379484653
960.0,0.01264510490000248
1024.0,0.015173079445958138
1152.0,0.00972543191164732
1280.0,0.00010111123265232891
1408.0,-0.0014756022719666362
1536.0,0.004743573255836964
1664.0,0.010427102446556091
1792.0,0.013402371667325497
1920.0,0.015395857393741608
2048.0,0.008620510809123516
2304.0,0.006812917999923229
2560.0,0.0034682368859648705
2816.0,0.0022067285608500242
3072.0,0.006356462370604277
3328.0,0.007845976389944553
3584.0,0.007067466154694557
3840.0,0.006938636768609285
4096.0,0.00013875446165911853
4608.0,-0.006025122944265604
5120.0,-0.008510993793606758
5632.0,-0.0031791641376912594
6144.0,-0.009778217412531376
6656.0,-0.005422030109912157
7168.0,-0.006917072460055351
7680.0,-0.01025533676147461
8192.0,-0.011759629473090172
end
