version,3.0
numOfCh,1
type,point
parent_name,fe81d_0dot069-1dot0
ch_type,1_1
kcount,1
numberNandB,1
brightnessNandB,1
carpet pos,0
pc,0
Time (ms),CH1 Auto-Correlation
1.0,0.11708264797925949
2.0,0.11597941815853119
3.0,0.1152060329914093
4.0,0.11453072726726532
5.0,0.11386734992265701
6.0,0.11322393268346786
7.0,0.11262216418981552
8.0,0.11203211545944214
9.0,0.1114111840724945
10.0,0.11079798638820648
11.0,0.11018411070108414
12.0,0.10958822071552277
13.0,0.10901796817779541
14.0,0.10841269046068192
15.0,0.10779238492250443
16.0,0.10719595849514008
18.0,0.10599338263273239
20.0,0.10482152551412582
22.0,0.10364673286676407
24.0,0.10256136208772659
26.0,0.10150229930877686
28.0,0.10048384219408035
30.0,0.0994727835059166
32.0,0.09848015755414963
36.0,0.09639429301023483
40.0,0.09439824521541595
44.0,0.092426598072052
48.0,0.09059002250432968
52.0,0.08881250023841858
56.0,0.08719510585069656
60.0,0.08577079325914383
64.0,0.08442001044750214
72.0,0.08129603415727615
80.0,0.07806424796581268
88.0,0.07498966157436371
96.0,0.0719723254442215
104.0,0.06902457773685455
112.0,0.06641826778650284
120.0,0.0640036016702652
128.0,0.06176016107201576
144.0,0.05744241550564766
160.0,0.05363021790981293
176.0,0.05009625852108002
192.0,0.04705265909433365
208.0,0.04453695937991142
224.0,0.04218849539756775
240.0,0.03959536552429199
256.0,0.03697563707828522
288.0,0.03292527049779892
320.0,0.029643377289175987
352.0,0.02543296292424202
384.0,0.02068510092794895
416.0,0.016297997906804085
448.0,0.01409117691218853
480.0,0.013021807186305523
512.0,0.011520524509251118
576.0,0.006743612699210644
640.0,0.002424383070319891
704.0,-0.003105785697698593
768.0,-0.009148940443992615
832.0,-0.014420278370380402
896.0,-0.018456455320119858
960.0,-0.017318734899163246
1024.0,-0.016746774315834045
1152.0,-0.012638963758945465
1280.0,-0.003551593516021967
1408.0,-0.002024597255513072
1536.0,-7.648661994608119e-05
1664.0,0.007770445663481951
1792.0,0.012407563626766205
1920.0,0.020145338028669357
2048.0,0.024238402023911476
2304.0,0.018374884501099586
2560.0,0.003110600169748068
2816.0,-0.017216062173247337
3072.0,-0.02186155878007412
3328.0,-0.010558170266449451
3584.0,-0.008238060399889946
3840.0,-0.0035991978365927935
4096.0,0.00432626623660326
4608.0,-0.0021323650144040585
5120.0,-0.009670852683484554
5632.0,0.00923714879900217
6144.0,0.005722352769225836
6656.0,-0.005520595703274012
7168.0,-0.015906600281596184
7680.0,0.015667563304305077
8192.0,0.017233872786164284
end
