version,3.0
numOfCh,1
type,point
parent_name,fe81d_0dot069-1dot0
ch_type,1_1
kcount,1
numberNandB,1
brightnessNandB,1
carpet pos,0
pc,0
Time (ms),CH1 Auto-Correlation
1.0,0.06980394572019577
2.0,0.06888493150472641
3.0,0.06807194650173187
4.0,0.06730767339468002
5.0,0.0666322335600853
6.0,0.06598696857690811
7.0,0.06537393480539322
8.0,0.06479241698980331
9.0,0.06419150531291962
10.0,0.06364147365093231
11.0,0.06307102739810944
12.0,0.06250783801078796
13.0,0.06197455897927284
14.0,0.061457306146621704
15.0,0.06098682060837746
16.0,0.06047563627362251
18.0,0.05951822176575661
20.0,0.05859360471367836
22.0,0.057718731462955475
24.0,0.05682728812098503
26.0,0.056004855781793594
28.0,0.055213287472724915
30.0,0.0544399730861187
32.0,0.05371489003300667
36.0,0.052391260862350464
40.0,0.05111885443329811
44.0,0.04984922334551811
48.0,0.048566143959760666
52.0,0.0473526269197464
56.0,0.04615789279341698
60.0,0.04494808241724968
64.0,0.04403158277273178
72.0,0.04223111644387245
80.0,0.040328480303287506
88.0,0.038440484553575516
96.0,0.03680853918194771
104.0,0.03528892993927002
112.0,0.03405028209090233
120.0,0.03280145302414894
128.0,0.03159266710281372
144.0,0.02942044846713543
160.0,0.02695561945438385
176.0,0.02454334683716297
192.0,0.022961106151342392
208.0,0.02209455519914627
224.0,0.022642042487859726
240.0,0.02315027453005314
256.0,0.023285595700144768
288.0,0.02256723865866661
320.0,0.021592065691947937
352.0,0.01962406374514103
384.0,0.017856145277619362
416.0,0.015383008867502213
448.0,0.014054453000426292
480.0,0.012811756692826748
512.0,0.010813920758664608
576.0,0.00825171172618866
640.0,0.006432631053030491
704.0,0.005157525185495615
768.0,0.005681383423507214
832.0,0.005122212693095207
896.0,0.005058931186795235
960.0,0.007516556419432163
1024.0,0.006692478433251381
1152.0,0.0036736063193529844
1280.0,0.002302461536601186
1408.0,0.001033224631100893
1536.0,0.0031728148460388184
1664.0,0.001707529998384416
1792.0,-0.0004495862522162497
1920.0,0.0019174705957993865
2048.0,0.0009901269804686308
2304.0,0.0019456279696896672
2560.0,-0.0012448796769604087
2816.0,-0.0096222423017025
3072.0,-0.015678511932492256
3328.0,-0.012210048735141754
3584.0,-0.011983221396803856
3840.0,-0.01076111476868391
4096.0,-0.009491506963968277
4608.0,0.015081284567713737
5120.0,0.008473043330013752
5632.0,0.0024498794227838516
6144.0,0.008973815478384495
6656.0,0.0037860271986573935
7168.0,0.0025900453329086304
7680.0,-0.01197885349392891
8192.0,-0.01616656221449375
end
