version,3.0
numOfCh,1
type,point
parent_name,fe81d_0dot069-1dot0
ch_type,1_1
kcount,1
numberNandB,1
brightnessNandB,1
carpet pos,0
pc,0
Time (ms),CH1 Auto-Correlation
1.0,0.07271840423345566
2.0,0.07135631144046783
3.0,0.07019653916358948
4.0,0.06914368271827698
5.0,0.06835787743330002
6.0,0.06757405400276184
7.0,0.06673473119735718
8.0,0.06588953733444214
9.0,0.06518455594778061
10.0,0.06449846178293228
11.0,0.06390403211116791
12.0,0.0633024200797081
13.0,0.06265232712030411
14.0,0.06204729899764061
15.0,0.061509352177381516
16.0,0.060967281460762024
18.0,0.05983078107237816
20.0,0.05883849039673805
22.0,0.05790708586573601
24.0,0.05695897340774536
26.0,0.05607711896300316
28.0,0.05529677867889404
30.0,0.05455581843852997
32.0,0.05377648398280144
36.0,0.05227138474583626
40.0,0.05084075406193733
44.0,0.0494949109852314
48.0,0.048220451921224594
52.0,0.04683109000325203
56.0,0.04541994258761406
60.0,0.04411701858043671
64.0,0.042992834001779556
72.0,0.04124962538480759
80.0,0.039560671895742416
88.0,0.03772888705134392
96.0,0.0362267941236496
104.0,0.03484083712100983
112.0,0.03347141668200493
120.0,0.03217901661992073
128.0,0.030847804620862007
144.0,0.028122005984187126
160.0,0.025625770911574364
176.0,0.023377804085612297
192.0,0.02132190391421318
208.0,0.018938083201646805
224.0,0.016519218683242798
240.0,0.014840778894722462
256.0,0.014044729061424732
288.0,0.01243190374225378
320.0,0.010802708566188812
352.0,0.008414532989263535
384.0,0.007376158144325018
416.0,0.007029954344034195
448.0,0.005355478264391422
480.0,0.002932312898337841
512.0,0.0006432356312870979
576.0,0.00015109761443454772
640.0,-0.0026540695689618587
704.0,-0.004270298406481743
768.0,-0.006627582013607025
832.0,-0.0062454151920974255
896.0,-0.00641366234049201
960.0,-0.0073092179372906685
1024.0,-0.006694569252431393
1152.0,-0.005366187542676926
1280.0,-0.0038001975044608116
1408.0,0.0011767661198973656
1536.0,0.007709415629506111
1664.0,0.006680361460894346
1792.0,0.0012204499216750264
1920.0,0.0006668097921647131
2048.0,-0.0037477845326066017
2304.0,-0.0034026375506073236
2560.0,0.0023757945746183395
2816.0,0.0077115073800086975
3072.0,0.00958592351526022
3328.0,0.004745165817439556
3584.0,-0.0031852906104177237
3840.0,6.007381671224721e-05
4096.0,0.006736899726092815
4608.0,-0.005551356356590986
5120.0,-0.006287236697971821
5632.0,0.000696585513651371
6144.0,-0.0029983173590153456
6656.0,-0.007322676479816437
7168.0,-0.01647186651825905
7680.0,-0.006731204688549042
8192.0,0.001262999838218093
end
