version,3.0
numOfCh,1
type,point
parent_name,fe81d_0dot069-1dot0
ch_type,1_1
kcount,1
numberNandB,1
brightnessNandB,1
carpet pos,0
pc,0
Time (ms),CH1 Auto-Correlation
1.0,0.07330743968486786
2.0,0.07235564291477203
3.0,0.07147734612226486
4.0,0.07076509296894073
5.0,0.07009699195623398
6.0,0.06946023553609848
7.0,0.06885319948196411
8.0,0.06827058643102646
9.0,0.06766225397586823
10.0,0.0670619010925293
11.0,0.06649468094110489
12.0,0.06590631604194641
13.0,0.0653596967458725
14.0,0.06486518681049347
15.0,0.06437578797340393
16.0,0.0638236254453659
18.0,0.0628545880317688
20.0,0.06194199621677399
22.0,0.06113005056977272
24.0,0.060334134846925735
26.0,0.05954931303858757
28.0,0.05876228213310242
30.0,0.057976510375738144
32.0,0.05720268189907074
36.0,0.05576915666460991
40.0,0.05440651625394821
44.0,0.05310754477977753
48.0,0.051881399005651474
52.0,0.05082309618592262
56.0,0.04973751679062843
60.0,0.048712052404880524
64.0,0.04779549315571785
72.0,0.04613851383328438
80.0,0.04457145556807518
88.0,0.04326499626040459
96.0,0.042089201509952545
104.0,0.04078665003180504
112.0,0.03945386782288551
120.0,0.037855420261621475
128.0,0.03618886321783066
144.0,0.03361792862415314
160.0,0.03090064600110054
176.0,0.028750771656632423
192.0,0.02714526280760765
208.0,0.02587060257792473
224.0,0.024502631276845932
240.0,0.023175518959760666
256.0,0.02211397886276245
288.0,0.01868707500398159
320.0,0.01632370799779892
352.0,0.013470814563333988
384.0,0.009173290804028511
416.0,0.0052480557933449745
448.0,0.0015280318912118673
480.0,-0.002056852914392948
512.0,-0.005592586938291788
576.0,-0.005967208184301853
640.0,-0.0063592614606022835
704.0,-0.007835980504751205
768.0,-0.010011319071054459
832.0,-0.009711803868412971
896.0,-0.006974451709538698
960.0,-0.0019519452471286058
1024.0,0.0008236502762883902
1152.0,0.0031564352102577686
1280.0,0.009289075620472431
1408.0,0.013861274346709251
1536.0,0.007719635963439941
1664.0,0.004440227523446083
1792.0,-0.0011980202980339527
1920.0,-0.00906933844089508
2048.0,-0.012044601142406464
2304.0,-0.011921408586204052
2560.0,-0.0043939766474068165
2816.0,0.004033236298710108
3072.0,0.007143789902329445
3328.0,-0.004152512643486261
3584.0,-0.013769938610494137
3840.0,-0.013988548889756203
4096.0,-0.001216957694850862
4608.0,-0.007257990073412657
5120.0,-0.012355872429907322
5632.0,0.006430985406041145
6144.0,0.0030599532183259726
6656.0,0.004788415506482124
7168.0,0.017661675810813904
7680.0,0.010380144231021404
8192.0,0.0024178659077733755
end
