version,3.0
numOfCh,1
type,point
parent_name,fe81d_0dot069-1dot0
ch_type,1_1
kcount,1
numberNandB,1
brightnessNandB,1
carpet pos,0
pc,0
Time (ms),CH1 Auto-Correlation
1.0,0.0761445015668869
2.0,0.07510791718959808
3.0,0.07426656037569046
4.0,0.07350760698318481
5.0,0.07284044474363327
6.0,0.07221725583076477
7.0,0.07162179797887802
8.0,0.07105410844087601
9.0,0.07051359862089157
10.0,0.06995543092489243
11.0,0.06940317898988724
12.0,0.06885727494955063
13.0,0.06832295656204224
14.0,0.06782315671443939
15.0,0.06733214110136032
16.0,0.06684714555740356
18.0,0.06594555079936981
20.0,0.0650642067193985
22.0,0.0643073245882988
24.0,0.06355641782283783
26.0,0.06279494613409042
28.0,0.062114614993333817
30.0,0.06134591996669769
32.0,0.06052614748477936
36.0,0.05888716131448746
40.0,0.05736507475376129
44.0,0.055971670895814896
48.0,0.05449186637997627
52.0,0.05322808027267456
56.0,0.05193803086876869
60.0,0.05071797966957092
64.0,0.04955817759037018
72.0,0.0471450537443161
80.0,0.044795237481594086
88.0,0.04263667017221451
96.0,0.040783412754535675
104.0,0.03905148804187775
112.0,0.03723007068037987
120.0,0.035367246717214584
128.0,0.03355671092867851
144.0,0.031108001247048378
160.0,0.029325859621167183
176.0,0.026964066550135612
192.0,0.024968743324279785
208.0,0.023547649383544922
224.0,0.022475870326161385
240.0,0.021207170560956
256.0,0.020353373140096664
288.0,0.018895551562309265
320.0,0.01874457485973835
352.0,0.02004818618297577
384.0,0.02065345086157322
416.0,0.020573636516928673
448.0,0.019319117069244385
480.0,0.017730243504047394
512.0,0.01644938625395298
576.0,0.01269880123436451
640.0,0.010598381981253624
704.0,0.01093718409538269
768.0,0.013558216392993927
832.0,0.01630827784538269
896.0,0.014350791461765766
960.0,0.012713835574686527
1024.0,0.008459354750812054
1152.0,0.006638921331614256
1280.0,0.007521823514252901
1408.0,0.003361608600243926
1536.0,0.0036189835518598557
1664.0,0.006212912499904633
1792.0,0.003257816657423973
1920.0,4.7616260417271405e-05
2048.0,0.003805651096627116
2304.0,0.0042956373654305935
2560.0,-0.0038116227369755507
2816.0,-0.011721272952854633
3072.0,-0.017819318920373917
3328.0,-0.01696145348250866
3584.0,-0.020672889426350594
3840.0,-0.016467737033963203
4096.0,-0.017817046493291855
4608.0,-0.016141748055815697
5120.0,-0.01533790398389101
5632.0,-0.009226908907294273
6144.0,-0.0073187993839383125
6656.0,-0.0014767979737371206
7168.0,0.01286246720701456
7680.0,0.019746189936995506
8192.0,0.01622207835316658
end
