version,3.0
numOfCh,1
type,point
parent_name,fe81d_0dot069-1dot0
ch_type,1_1
kcount,1
numberNandB,1
brightnessNandB,1
carpet pos,0
pc,0
Time (ms),CH1 Auto-Correlation
1.0,0.08341104537248611
2.0,0.0825323536992073
3.0,0.08172821253538132
4.0,0.08098217099905014
5.0,0.08025479316711426
6.0,0.0796213448047638
7.0,0.0790010392665863
8.0,0.07837298512458801
9.0,0.07775774598121643
10.0,0.07711729407310486
11.0,0.07649558782577515
12.0,0.07589048147201538
13.0,0.07532408088445663
14.0,0.07473596185445786
15.0,0.07419180124998093
16.0,0.07364121824502945
18.0,0.07256422936916351
20.0,0.07152815163135529
22.0,0.07050859928131104
24.0,0.06954739987850189
26.0,0.06860116869211197
28.0,0.06769546866416931
30.0,0.06684780865907669
32.0,0.06603939831256866
36.0,0.06445960700511932
40.0,0.06303051114082336
44.0,0.06182047724723816
48.0,0.06048651039600372
52.0,0.059088051319122314
56.0,0.05777576193213463
60.0,0.05649977922439575
64.0,0.05525253713130951
72.0,0.05258792266249657
80.0,0.04994746670126915
88.0,0.047494761645793915
96.0,0.045004624873399734
104.0,0.04279240220785141
112.0,0.04074372723698616
120.0,0.03874929994344711
128.0,0.03675861656665802
144.0,0.0334530733525753
160.0,0.03051641769707203
176.0,0.02761686220765114
192.0,0.024514099583029747
208.0,0.022274844348430634
224.0,0.021376853808760643
240.0,0.021243255585432053
256.0,0.02064531482756138
288.0,0.018717290833592415
320.0,0.017754502594470978
352.0,0.01655377820134163
384.0,0.01511773094534874
416.0,0.013027159497141838
448.0,0.01030923891812563
480.0,0.008783036842942238
512.0,0.009102788753807545
576.0,0.004269959405064583
640.0,-0.0016296160174533725
704.0,-0.004554337356239557
768.0,-0.006229877471923828
832.0,-0.006985826417803764
896.0,-0.0066018314100801945
960.0,-0.008831268176436424
1024.0,-0.012483860366046429
1152.0,-0.019528023898601532
1280.0,-0.012918517924845219
1408.0,-0.003986503463238478
1536.0,-0.001223997795023024
1664.0,-0.0018502422608435154
1792.0,0.00305861234664917
1920.0,-0.0025285794399678707
2048.0,-0.0011935355141758919
2304.0,0.010663162916898727
2560.0,0.010411285795271397
2816.0,0.0016963959205895662
3072.0,-0.0030761118978261948
3328.0,-0.01590517722070217
3584.0,-0.021145140752196312
3840.0,-0.011684012599289417
4096.0,-0.005864442326128483
4608.0,0.003979553934186697
5120.0,-0.0002732574357651174
5632.0,0.012014905922114849
6144.0,-0.0030570398084819317
6656.0,-0.015738748013973236
7168.0,-0.0016166347777470946
7680.0,0.006050017196685076
8192.0,-0.008120117709040642
end
