version,3.0
numOfCh,1
type,point
parent_name,34a6d_0dot1-1dot0
ch_type,1_1
kcount,1
numberNandB,1
brightnessNandB,1
carpet pos,0
pc,0
Time (ms),CH1 Auto-Correlation
1.0,0.04249110445380211
2.0,0.04202636331319809
3.0,0.04159010201692581
4.0,0.041169628500938416
5.0,0.040770355612039566
6.0,0.040378548204898834
7.0,0.04000919684767723
8.0,0.03967256471514702
9.0,0.03936120122671127
10.0,0.03906339034438133
11.0,0.0387854278087616
12.0,0.038502443581819534
13.0,0.03820547088980675
14.0,0.0379190631210804
15.0,0.037642836570739746
16.0,0.03735800087451935
18.0,0.03678285330533981
20.0,0.03623059391975403
22.0,0.035690441727638245
24.0,0.03517541289329529
26.0,0.03468736261129379
28.0,0.03425615280866623
30.0,0.033832743763923645
32.0,0.0334056057035923
36.0,0.032507311552762985
40.0,0.03160601481795311
44.0,0.030747106298804283
48.0,0.029916539788246155
52.0,0.029130438342690468
56.0,0.02839805744588375
60.0,0.027638908475637436
64.0,0.026901468634605408
72.0,0.025780437514185905
80.0,0.024774963036179543
88.0,0.02379341796040535
96.0,0.022784685716032982
104.0,0.02181759662926197
112.0,0.020833948627114296
120.0,0.01973874121904373
128.0,0.018727058544754982
144.0,0.01735210046172142
160.0,0.016052113845944405
176.0,0.014227584935724735
192.0,0.012589438818395138
208.0,0.011237655766308308
224.0,0.009893938899040222
240.0,0.008776802569627762
256.0,0.008140015415847301
288.0,0.007645873818546534
320.0,0.006918576546013355
352.0,0.0063353232108056545
384.0,0.00662315683439374
416.0,0.0071104601956903934
448.0,0.007700660265982151
480.0,0.007681957446038723
512.0,0.0074746026657521725
576.0,0.006231099367141724
640.0,0.0055175842717289925
704.0,0.003795469645410776
768.0,0.003006772371008992
832.0,0.005214858800172806
896.0,0.004787370562553406
960.0,0.0024001013953238726
1024.0,-0.0009157779859378934
1152.0,-0.004931871313601732
1280.0,-0.002540837274864316
1408.0,-0.0011962495045736432
1536.0,-0.0009384002187289298
1664.0,-0.0026283874176442623
1792.0,-0.004077543038874865
1920.0,-0.007361216004937887
2048.0,-0.0077246688306331635
2304.0,-0.0041140299290418625
2560.0,-0.0075742281042039394
2816.0,-0.011526424437761307
3072.0,-0.005781351123005152
3328.0,-0.005090269725769758
3584.0,0.00038641528226435184
3840.0,7.479936903109774e-05
4096.0,0.0019919932819902897
4608.0,0.00215334165841341
5120.0,0.003724535694345832
5632.0,-0.001517199445515871
6144.0,-0.004439649172127247
6656.0,-0.0001695744867902249
7168.0,-0.00269441120326519
7680.0,0.0051704756915569305
8192.0,0.002214099746197462
end
