version,3.0
numOfCh,1
type,point
parent_name,34a6d_0dot1-1dot0
ch_type,1_1
kcount,1
numberNandB,1
brightnessNandB,1
carpet pos,0
pc,0
Time (ms),CH1 Auto-Correlation
1.0,0.04518880322575569
2.0,0.04474523290991783
3.0,0.044317878782749176
4.0,0.04390522465109825
5.0,0.04349585250020027
6.0,0.04310532659292221
7.0,0.04273146763443947
8.0,0.042356204241514206
9.0,0.04200196638703346
10.0,0.04165474697947502
11.0,0.041302818804979324
12.0,0.04095219448208809
13.0,0.040621258318424225
14.0,0.0402924083173275
15.0,0.03996356204152107
16.0,0.03963740915060043
18.0,0.0390043631196022
20.0,0.03839551657438278
22.0,0.037816695868968964
24.0,0.03724364936351776
26.0,0.03667933866381645
28.0,0.036156270653009415
30.0,0.03565603494644165
32.0,0.03517161309719086
36.0,0.03428218886256218
40.0,0.03344013914465904
44.0,0.032664090394973755
48.0,0.03188078850507736
52.0,0.03106926754117012
56.0,0.030309339985251427
60.0,0.029585042968392372
64.0,0.02887718379497528
72.0,0.027609262615442276
80.0,0.02651476114988327
88.0,0.025461062788963318
96.0,0.024425622075796127
104.0,0.023413773626089096
112.0,0.02251909114420414
120.0,0.021810082718729973
128.0,0.021155985072255135
144.0,0.01992528699338436
160.0,0.018899191170930862
176.0,0.017815517261624336
192.0,0.01643962413072586
208.0,0.015109370462596416
224.0,0.014480075798928738
240.0,0.013862907886505127
256.0,0.013306504115462303
288.0,0.012840868905186653
320.0,0.011929283849895
352.0,0.010768147185444832
384.0,0.00918558519333601
416.0,0.007496928796172142
448.0,0.007027620915323496
480.0,0.006962232291698456
512.0,0.0074585783295333385
576.0,0.007910139858722687
640.0,0.007902979850769043
704.0,0.007530683651566505
768.0,0.0067203594371676445
832.0,0.0054337140172719955
896.0,0.0029470722656697035
960.0,0.002314449055120349
1024.0,0.002950875321403146
1152.0,7.560660014860332e-05
1280.0,-0.0018136738799512386
1408.0,-0.0017802922520786524
1536.0,-0.004457782953977585
1664.0,-0.007518715225160122
1792.0,-0.007611987181007862
1920.0,-0.00741933099925518
2048.0,-0.004461416509002447
2304.0,-0.002698739757761359
2560.0,-0.003969596233218908
2816.0,-0.0016123499954119325
3072.0,-0.0006610493874177337
3328.0,-0.0009216223261319101
3584.0,-0.0022631539031863213
3840.0,-0.0028173874597996473
4096.0,-0.0027637050952762365
4608.0,-0.004739304073154926
5120.0,-0.003420029766857624
5632.0,-0.000685286708176136
6144.0,0.0016000187024474144
6656.0,0.005693626590073109
7168.0,0.003102667862549424
7680.0,-0.004870699718594551
8192.0,-0.0033473351504653692
end
