version,3.0
numOfCh,1
type,point
parent_name,34a6d_0dot1-1dot0
ch_type,1_1
kcount,1
numberNandB,1
brightnessNandB,1
carpet pos,0
pc,0
Time (ms),CH1 Auto-Correlation
1.0,0.03612908720970154
2.0,0.035597749054431915
3.0,0.035120755434036255
4.0,0.034641169011592865
5.0,0.034173958003520966
6.0,0.03374283015727997
7.0,0.03331850841641426
8.0,0.03293031454086304
9.0,0.03254474699497223
10.0,0.032181937247514725
11.0,0.031819313764572144
12.0,0.031505417078733444
13.0,0.031201565638184547
14.0,0.03092176839709282
15.0,0.030635444447398186
16.0,0.03034842200577259
18.0,0.029766744002699852
20.0,0.0291841309517622
22.0,0.028593137860298157
24.0,0.027980882674455643
26.0,0.02743537351489067
28.0,0.026910705491900444
30.0,0.026455266401171684
32.0,0.026008326560258865
36.0,0.02514064498245716
40.0,0.02432478778064251
44.0,0.023513855412602425
48.0,0.02274562604725361
52.0,0.022089432924985886
56.0,0.021483061835169792
60.0,0.02087368629872799
64.0,0.020298687741160393
72.0,0.01911064051091671
80.0,0.017983855679631233
88.0,0.016978437080979347
96.0,0.015954406931996346
104.0,0.015026555396616459
112.0,0.014306733384728432
120.0,0.013439234346151352
128.0,0.0125509575009346
144.0,0.010464412160217762
160.0,0.008347615599632263
176.0,0.006419261451810598
192.0,0.004701999481767416
208.0,0.0033510832581669092
224.0,0.002356888260692358
240.0,0.0013228527968749404
256.0,0.00013067774125374854
288.0,-0.001485477201640606
320.0,-0.0025218103546649218
352.0,-0.003413763362914324
384.0,-0.004061177372932434
416.0,-0.004345962777733803
448.0,-0.003918009344488382
480.0,-0.003068027086555958
512.0,-0.002615896752104163
576.0,-0.0011100280098617077
640.0,0.001948379329405725
704.0,0.005349638871848583
768.0,0.006088869646191597
832.0,0.0056669097393751144
896.0,0.004258229862898588
960.0,0.003066001459956169
1024.0,0.001796104246750474
1152.0,-0.0014020474627614021
1280.0,-0.002986135194078088
1408.0,-0.000726069905795157
1536.0,0.003025491489097476
1664.0,0.001286057522520423
1792.0,-0.0029157311655580997
1920.0,-0.005090773571282625
2048.0,-0.00438119750469923
2304.0,0.001230007503181696
2560.0,4.887239992967807e-05
2816.0,-0.0014526204904541373
3072.0,-0.0018575453432276845
3328.0,-0.0012023571180179715
3584.0,-0.00421565305441618
3840.0,0.0039013363420963287
4096.0,-0.0027252626605331898
4608.0,-0.0024185192305594683
5120.0,-0.0014726259978488088
5632.0,-0.001406144117936492
6144.0,0.0007932656444609165
6656.0,-0.00300537864677608
7168.0,-0.002125362167134881
7680.0,0.0030539382714778185
8192.0,0.0014023098628968
end
