version,3.0
numOfCh,1
type,point
parent_name,34a6d_0dot1-1dot0
ch_type,1_1
kcount,1
numberNandB,1
brightnessNandB,1
carpet pos,0
pc,0
Time (ms),CH1 Auto-Correlation
1.0,0.03823598101735115
2.0,0.0378035232424736
3.0,0.037377357482910156
4.0,0.03698040172457695
5.0,0.03659932687878609
6.0,0.036236971616744995
7.0,0.035886626690626144
8.0,0.03552974388003349
9.0,0.035191647708415985
10.0,0.0348651185631752
11.0,0.03451837971806526
12.0,0.034168343991041183
13.0,0.03383699432015419
14.0,0.03351974859833717
15.0,0.03321642428636551
16.0,0.03292372077703476
18.0,0.03229081258177757
20.0,0.031663861125707626
22.0,0.031044377014040947
24.0,0.030443033203482628
26.0,0.029878905043005943
28.0,0.029339490458369255
30.0,0.028808239847421646
32.0,0.028273960575461388
36.0,0.027196010574698448
40.0,0.026183295994997025
44.0,0.025182032957673073
48.0,0.024236690253019333
52.0,0.023366093635559082
56.0,0.022573228925466537
60.0,0.02181106247007847
64.0,0.021123364567756653
72.0,0.01985873654484749
80.0,0.01857987605035305
88.0,0.01739504188299179
96.0,0.016285918653011322
104.0,0.015421519987285137
112.0,0.014802718535065651
120.0,0.014287463389337063
128.0,0.013839136809110641
144.0,0.013143425807356834
160.0,0.012678874656558037
176.0,0.012135489843785763
192.0,0.011811966076493263
208.0,0.01176635455340147
224.0,0.011657806113362312
240.0,0.011444274336099625
256.0,0.011298359371721745
288.0,0.010504048317670822
320.0,0.00977164413779974
352.0,0.009926331229507923
384.0,0.010527330450713634
416.0,0.010030563920736313
448.0,0.009449637494981289
480.0,0.008993156254291534
512.0,0.00864742137491703
576.0,0.007544255815446377
640.0,0.006876894272863865
704.0,0.007311936002224684
768.0,0.007858086377382278
832.0,0.005920462775975466
896.0,0.004972150549292564
960.0,0.00523009430617094
1024.0,0.005399143323302269
1152.0,0.0060105836018919945
1280.0,0.006336656864732504
1408.0,0.003370776306837797
1536.0,0.003153146943077445
1664.0,0.000259655702393502
1792.0,-0.0003316993243061006
1920.0,-0.0017279688036069274
2048.0,-0.0033981511369347572
2304.0,-0.0028982223011553288
2560.0,-0.0016686676535755396
2816.0,-0.0050940122455358505
3072.0,-0.004744826816022396
3328.0,-0.0059106736443936825
3584.0,-0.005611796863377094
3840.0,-0.004499515984207392
4096.0,-0.008371184580028057
4608.0,-0.0070585329085588455
5120.0,-0.005116595886647701
5632.0,-0.0025147078558802605
6144.0,-0.002628057962283492
6656.0,-0.0015820389380678535
7168.0,0.0005638020229525864
7680.0,-0.0007465834496542811
8192.0,0.00255988840945065
end
