version,3.0
numOfCh,1
type,point
parent_name,34a6d_0dot1-1dot0
ch_type,1_1
kcount,1
numberNandB,1
brightnessNandB,1
carpet pos,0
pc,0
Time (ms),CH1 Auto-Correlation
1.0,0.04447698965668678
2.0,0.04403137043118477
3.0,0.04361988976597786
4.0,0.04323188588023186
5.0,0.042846087366342545
6.0,0.04246921464800835
7.0,0.042097970843315125
8.0,0.04173851013183594
9.0,0.04138603061437607
10.0,0.04105491563677788
11.0,0.04071946069598198
12.0,0.04040185734629631
13.0,0.04006657004356384
14.0,0.03975353762507439
15.0,0.0394325852394104
16.0,0.039125896990299225
18.0,0.03852280601859093
20.0,0.03793248534202576
22.0,0.03736482933163643
24.0,0.036827459931373596
26.0,0.03630492836236954
28.0,0.03577728196978569
30.0,0.03526104614138603
32.0,0.03473837673664093
36.0,0.033743903040885925
40.0,0.03283644840121269
44.0,0.0320122092962265
48.0,0.03125616908073425
52.0,0.0305134616792202
56.0,0.029810156673192978
60.0,0.029144996777176857
64.0,0.028563087806105614
72.0,0.02748156152665615
80.0,0.026416223496198654
88.0,0.025486735627055168
96.0,0.024493522942066193
104.0,0.023343494161963463
112.0,0.022104617208242416
120.0,0.021066227927803993
128.0,0.020075088366866112
144.0,0.018037809059023857
160.0,0.01653737761080265
176.0,0.01560121402144432
192.0,0.014682532288134098
208.0,0.014030995778739452
224.0,0.013278975151479244
240.0,0.012925676070153713
256.0,0.01285814680159092
288.0,0.01229760330170393
320.0,0.01159374788403511
352.0,0.010361753404140472
384.0,0.010067407973110676
416.0,0.009778202511370182
448.0,0.009815874509513378
480.0,0.010039339773356915
512.0,0.010465603321790695
576.0,0.010860192589461803
640.0,0.010582387447357178
704.0,0.009621023200452328
768.0,0.009314712136983871
832.0,0.008498858660459518
896.0,0.005768844857811928
960.0,0.0025171481538563967
1024.0,0.0004960286314599216
1152.0,-0.0002679454628378153
1280.0,0.003369046375155449
1408.0,0.004235346335917711
1536.0,0.0026413099840283394
1664.0,0.0012718851212412119
1792.0,0.0008791189175099134
1920.0,0.002403850667178631
2048.0,0.002713942900300026
2304.0,0.0016378050204366446
2560.0,-0.0032940919045358896
2816.0,-0.0014340615598484874
3072.0,-0.0022695979569107294
3328.0,-0.004464971367269754
3584.0,0.0013937922194600105
3840.0,0.0012813819339498878
4096.0,-0.00027626834344118834
4608.0,-1.4316408396553015e-06
5120.0,-0.0005442296387627721
5632.0,-0.005817335564643145
6144.0,-0.005326154176145792
6656.0,-0.00248720939271152
7168.0,-0.00235288986004889
7680.0,-0.008750311098992825
8192.0,-0.004384367261081934
end
