version,3.0
numOfCh,1
type,point
parent_name,34a6d_0dot1-1dot0
ch_type,1_1
kcount,1
numberNandB,1
brightnessNandB,1
carpet pos,0
pc,0
Time (ms),CH1 Auto-Correlation
1.0,0.027676114812493324
2.0,0.027287570759654045
3.0,0.02692055143415928
4.0,0.026581360027194023
5.0,0.026242319494485855
6.0,0.025898609310388565
7.0,0.025564901530742645
8.0,0.02522900328040123
9.0,0.024897877126932144
10.0,0.024577949196100235
11.0,0.024258293211460114
12.0,0.02394026517868042
13.0,0.023635461926460266
14.0,0.023343287408351898
15.0,0.023052211850881577
16.0,0.02276480756700039
18.0,0.022214172407984734
20.0,0.02167905867099762
22.0,0.021174103021621704
24.0,0.02067871205508709
26.0,0.020185479894280434
28.0,0.019730061292648315
30.0,0.01932310312986374
32.0,0.01894526556134224
36.0,0.018255067989230156
40.0,0.017642904072999954
44.0,0.01708289608359337
48.0,0.016524236649274826
52.0,0.015949875116348267
56.0,0.01532626524567604
60.0,0.014709671959280968
64.0,0.014119694009423256
72.0,0.013000824488699436
80.0,0.011999101378023624
88.0,0.011123602278530598
96.0,0.010373574681580067
104.0,0.009583811275660992
112.0,0.00877183023840189
120.0,0.008071688003838062
128.0,0.007538717705756426
144.0,0.0068083698861300945
160.0,0.006054401397705078
176.0,0.005110462196171284
192.0,0.004379171412438154
208.0,0.003897195216268301
224.0,0.003959673456847668
240.0,0.003774691140279174
256.0,0.003415673738345504
288.0,0.00348009099252522
320.0,0.0033011960331350565
352.0,0.0029788187239319086
384.0,0.002416238421574235
416.0,0.001836738782003522
448.0,0.0008211962413042784
480.0,0.0004521326336544007
512.0,0.0002747146354522556
576.0,-0.0005573572125285864
640.0,-0.000608069880399853
704.0,0.00041089890873990953
768.0,0.001853867550380528
832.0,0.0022463821806013584
896.0,0.0009127099765464664
960.0,-0.0011730808764696121
1024.0,-0.0015719522489234805
1152.0,-0.004311356693506241
1280.0,-0.005383418872952461
1408.0,-0.0042206584475934505
1536.0,-0.002615152858197689
1664.0,-0.0017929022433236241
1792.0,-0.0013960422948002815
1920.0,-0.0013408828526735306
2048.0,-0.0037410883232951164
2304.0,-0.0005657125147990882
2560.0,0.002037682104855776
2816.0,0.0004449476837180555
3072.0,-0.0002925724838860333
3328.0,0.001588460523635149
3584.0,0.0003699895751196891
3840.0,-0.0008574955281801522
4096.0,-0.0005994810489937663
4608.0,-0.0004867852258030325
5120.0,-0.0010183821432292461
5632.0,-0.002531806007027626
6144.0,-0.0017510912148281932
6656.0,0.004065465182065964
7168.0,0.003977683838456869
7680.0,-0.0003322879783809185
8192.0,-0.0042405156418681145
end
