version,3.0
numOfCh,1
type,point
parent_name,34a6d_0dot1-1dot0
ch_type,1_1
kcount,1
numberNandB,1
brightnessNandB,1
carpet pos,0
pc,0
Time (ms),CH1 Auto-Correlation
1.0,0.03562892973423004
2.0,0.03513989970088005
3.0,0.03470484912395477
4.0,0.03429190441966057
5.0,0.03387023136019707
6.0,0.033470917493104935
7.0,0.03307522460818291
8.0,0.032706454396247864
9.0,0.03234640136361122
10.0,0.03200891986489296
11.0,0.031676314771175385
12.0,0.031353652477264404
13.0,0.03104182705283165
14.0,0.03072071634232998
15.0,0.03039666637778282
16.0,0.030074650421738625
18.0,0.029474716633558273
20.0,0.028889251872897148
22.0,0.028328219428658485
24.0,0.027784042060375214
26.0,0.0272427499294281
28.0,0.02675015851855278
30.0,0.026260437443852425
32.0,0.025771470740437508
36.0,0.02481825090944767
40.0,0.023892611265182495
44.0,0.02294342778623104
48.0,0.02202383615076542
52.0,0.021190045401453972
56.0,0.020424481481313705
60.0,0.01967770978808403
64.0,0.01892072893679142
72.0,0.017482975497841835
80.0,0.01626962423324585
88.0,0.015165681019425392
96.0,0.014072082936763763
104.0,0.012958797626197338
112.0,0.011797690764069557
120.0,0.010709910653531551
128.0,0.009772183373570442
144.0,0.007913980633020401
160.0,0.0064962077885866165
176.0,0.005421960260719061
192.0,0.004304387141019106
208.0,0.0032958597876131535
224.0,0.00254993187263608
240.0,0.002115615177899599
256.0,0.0015941852470859885
288.0,0.001945051713846624
320.0,0.002594932448118925
352.0,0.0022548935376107693
384.0,0.0009099047165364027
416.0,0.00015433567750733346
448.0,0.0004063288797624409
480.0,0.0007661888375878334
512.0,0.0006020110449753702
576.0,0.0006740760873071849
640.0,0.0007102390518411994
704.0,-0.000172161846421659
768.0,-0.0013866497902199626
832.0,-0.001329803722910583
896.0,-0.000930243986658752
960.0,-0.001704747905023396
1024.0,-0.004147641360759735
1152.0,-0.004354454111307859
1280.0,-0.0009136639419011772
1408.0,-0.0015413707587867975
1536.0,-0.001641030772589147
1664.0,-3.115916115348227e-05
1792.0,-0.0009612743742763996
1920.0,-0.0016303155571222305
2048.0,-0.00035070691956207156
2304.0,0.0002720509364735335
2560.0,0.0037561373319476843
2816.0,0.0015204520896077156
3072.0,0.00024102746101561934
3328.0,-0.0047502233646810055
3584.0,-0.0024022210855036974
3840.0,0.001251773675903678
4096.0,-0.001810452900826931
4608.0,-0.002411763882264495
5120.0,0.000958526914473623
5632.0,-0.0014581852592527866
6144.0,-0.0044760936871171
6656.0,0.001987593015655875
7168.0,-0.0007171095348894596
7680.0,0.0012276644119992852
8192.0,0.006417864002287388
end
