version,3.0
numOfCh,1
type,point
parent_name,34a6d_0dot1-1dot0
ch_type,1_1
kcount,1
numberNandB,1
brightnessNandB,1
carpet pos,0
pc,0
Time (ms),CH1 Auto-Correlation
1.0,0.04037594422698021
2.0,0.03979051113128662
3.0,0.039262522011995316
4.0,0.03876827284693718
5.0,0.03830410912632942
6.0,0.03785238787531853
7.0,0.03741667419672012
8.0,0.03699064254760742
9.0,0.03657487779855728
10.0,0.036166708916425705
11.0,0.035826366394758224
12.0,0.035470928996801376
13.0,0.03510817885398865
14.0,0.03475029394030571
15.0,0.034402552992105484
16.0,0.034054916352033615
18.0,0.03340306133031845
20.0,0.032793331891298294
22.0,0.032212838530540466
24.0,0.03167933225631714
26.0,0.031177474185824394
28.0,0.03070964850485325
30.0,0.030250512063503265
32.0,0.029766123741865158
36.0,0.028884002938866615
40.0,0.02796623483300209
44.0,0.027121711522340775
48.0,0.026306482031941414
52.0,0.025470927357673645
56.0,0.024609049782156944
60.0,0.023869432508945465
64.0,0.023077979683876038
72.0,0.021489417180418968
80.0,0.01994115114212036
88.0,0.018469663336873055
96.0,0.017004599794745445
104.0,0.015651356428861618
112.0,0.014582556672394276
120.0,0.0134816849604249
128.0,0.012588242068886757
144.0,0.011058386415243149
160.0,0.009663710370659828
176.0,0.008783056400716305
192.0,0.008064444176852703
208.0,0.0071831196546554565
224.0,0.006341070402413607
240.0,0.0057691726833581924
256.0,0.0052818479016423225
288.0,0.004408988635987043
320.0,0.0034482614137232304
352.0,0.0012952296528965235
384.0,-0.0011763606453314424
416.0,-0.002138197887688875
448.0,-0.0026612412184476852
480.0,-0.003135537263005972
512.0,-0.0033701974898576736
576.0,-0.0038647851906716824
640.0,-0.004113481845706701
704.0,-0.001464053988456726
768.0,0.0004266802279744297
832.0,0.0011951146880164742
896.0,0.001975748222321272
960.0,0.0019987623672932386
1024.0,0.0005622156895697117
1152.0,-0.000492274237331003
1280.0,-0.004395373165607452
1408.0,-0.008456253446638584
1536.0,-0.006810691673308611
1664.0,-0.004362163133919239
1792.0,-0.0008284726063720882
1920.0,-0.0004185689031146467
2048.0,-0.0030158397275954485
2304.0,0.001901042414829135
2560.0,0.0019200202077627182
2816.0,0.0014559188857674599
3072.0,-0.0007773392717354
3328.0,0.0009570212569087744
3584.0,-0.0005894691566936672
3840.0,-0.0004910901188850403
4096.0,0.0006972671253606677
4608.0,-0.00032844507950358093
5120.0,-0.0016129373107105494
5632.0,0.00019162653188686818
6144.0,-0.003375738626345992
6656.0,-0.0028401222079992294
7168.0,0.0012696781195700169
7680.0,-0.0018309027655050159
8192.0,0.0005950374179519713
end
