version,3.0
numOfCh,1
type,point
parent_name,34a6d_0dot1-1dot0
ch_type,1_1
kcount,1
numberNandB,1
brightnessNandB,1
carpet pos,0
pc,0
Time (ms),CH1 Auto-Correlation
1.0,0.042009610682725906
2.0,0.04142812266945839
3.0,0.04090964049100876
4.0,0.04044187068939209
5.0,0.04000316560268402
6.0,0.0395895354449749
7.0,0.03920542821288109
8.0,0.03878627344965935
9.0,0.038391608744859695
10.0,0.03803669288754463
11.0,0.037682414054870605
12.0,0.03732643648982048
13.0,0.03696316108107567
14.0,0.03660574555397034
15.0,0.03625922277569771
16.0,0.035921234637498856
18.0,0.03528165817260742
20.0,0.03471030294895172
22.0,0.03415233641862869
24.0,0.033577755093574524
26.0,0.03301152586936951
28.0,0.03247729316353798
30.0,0.03196602314710617
32.0,0.03143841773271561
36.0,0.030413713306188583
40.0,0.02936455048620701
44.0,0.028367651626467705
48.0,0.027414025738835335
52.0,0.0265842042863369
56.0,0.02582894265651703
60.0,0.025178812444210052
64.0,0.02453332394361496
72.0,0.023463206365704536
80.0,0.022348321974277496
88.0,0.0213362704962492
96.0,0.020369388163089752
104.0,0.019445551559329033
112.0,0.018563028424978256
120.0,0.01775297336280346
128.0,0.017083117738366127
144.0,0.01621546782553196
160.0,0.015752583742141724
176.0,0.015678266063332558
192.0,0.015474486164748669
208.0,0.015549428761005402
224.0,0.015459204092621803
240.0,0.015362420119345188
256.0,0.01505446806550026
288.0,0.014277009293437004
320.0,0.013664252124726772
352.0,0.012607790529727936
384.0,0.011058519594371319
416.0,0.01009294856339693
448.0,0.009552676230669022
480.0,0.00900429580360651
512.0,0.008444034494459629
576.0,0.006946281064301729
640.0,0.004462895914912224
704.0,0.005577439442276955
768.0,0.005670277867466211
832.0,0.004306056536734104
896.0,0.002431942382827401
960.0,0.0018469110364094377
1024.0,0.0023569168988615274
1152.0,0.0007694122032262385
1280.0,-0.00015628199616912752
1408.0,-0.00021690086578018963
1536.0,-0.0010433169081807137
1664.0,-0.002939242636784911
1792.0,-0.004475326277315617
1920.0,-0.0035992139019072056
2048.0,-0.004708974622189999
2304.0,-0.0025380610022693872
2560.0,0.003336359281092882
2816.0,0.004550211131572723
3072.0,0.002124370774254203
3328.0,-0.00341385742649436
3584.0,-0.008161823265254498
3840.0,-0.007384536322206259
4096.0,-0.0060118986293673515
4608.0,-0.00776198785752058
5120.0,-0.0006925747729837894
5632.0,0.005232777446508408
6144.0,-0.0015856549143791199
6656.0,-0.0032444684766232967
7168.0,-0.0035193406511098146
7680.0,-0.0042025442235171795
8192.0,0.006448779255151749
end
