version,3.0
numOfCh,1
type,point
parent_name,34a6d_0dot1-1dot0
ch_type,1_1
kcount,1
numberNandB,1
brightnessNandB,1
carpet pos,0
pc,0
Time (ms),CH1 Auto-Correlation
1.0,0.03942479193210602
2.0,0.038866911083459854
3.0,0.038356222212314606
4.0,0.037908025085926056
5.0,0.03747990354895592
6.0,0.03706544637680054
7.0,0.03667043522000313
8.0,0.03625765070319176
9.0,0.03583908826112747
10.0,0.03541991487145424
11.0,0.035020262002944946
12.0,0.03463368862867355
13.0,0.034250784665346146
14.0,0.03386254608631134
15.0,0.03346194699406624
16.0,0.03307646885514259
18.0,0.032351501286029816
20.0,0.03170669078826904
22.0,0.031084787100553513
24.0,0.03054678812623024
26.0,0.030076220631599426
28.0,0.02964288555085659
30.0,0.029214750975370407
32.0,0.028818760067224503
36.0,0.028127428144216537
40.0,0.02747735008597374
44.0,0.026819581165909767
48.0,0.026176031678915024
52.0,0.025613021105527878
56.0,0.025076866149902344
60.0,0.02453375793993473
64.0,0.02393139712512493
72.0,0.022850031033158302
80.0,0.021945668384432793
88.0,0.02097451686859131
96.0,0.01998698152601719
104.0,0.01908300630748272
112.0,0.018338443711400032
120.0,0.017867669463157654
128.0,0.017400000244379044
144.0,0.016732752323150635
160.0,0.015832528471946716
176.0,0.014984493143856525
192.0,0.014374318532645702
208.0,0.013863793574273586
224.0,0.01345854252576828
240.0,0.013015730306506157
256.0,0.012024188414216042
288.0,0.011248771101236343
320.0,0.00970829650759697
352.0,0.007927863858640194
384.0,0.006062793079763651
416.0,0.005411451682448387
448.0,0.004957213532179594
480.0,0.004566169809550047
512.0,0.004040179308503866
576.0,0.003339288756251335
640.0,0.00413039093837142
704.0,0.0045415195636451244
768.0,0.004711376503109932
832.0,0.003648304147645831
896.0,0.003289866028353572
960.0,0.002132977358996868
1024.0,0.0027358499355614185
1152.0,0.005701173096895218
1280.0,0.0069243027828633785
1408.0,0.009196177124977112
1536.0,0.009483803994953632
1664.0,0.009542684070765972
1792.0,0.00992666371166706
1920.0,0.009794957004487514
2048.0,0.006811714731156826
2304.0,0.0045225960202515125
2560.0,0.0052480860613286495
2816.0,0.003777243895456195
3072.0,0.00021628073591273278
3328.0,-0.003196622245013714
3584.0,-0.0031695347279310226
3840.0,0.00012466631596907973
4096.0,0.003280611941590905
4608.0,-0.004073299001902342
5120.0,-0.009071518667042255
5632.0,-0.004585420247167349
6144.0,-0.00538203539326787
6656.0,-0.00763196824118495
7168.0,-0.011307707987725735
7680.0,-0.00931303296238184
8192.0,-0.005455777049064636
end
