version,3.0
numOfCh,1
type,point
parent_name,34a6d_0dot1-1dot0
ch_type,1_1
kcount,1
numberNandB,1
brightnessNandB,1
carpet pos,0
pc,0
Time (ms),CH1 Auto-Correlation
1.0,0.04030947759747505
2.0,0.03979961574077606
3.0,0.039332251995801926
4.0,0.038897570222616196
5.0,0.03850695863366127
6.0,0.03814343735575676
7.0,0.03780539333820343
8.0,0.03744371235370636
9.0,0.037088003009557724
10.0,0.036744870245456696
11.0,0.0363958403468132
12.0,0.036060936748981476
13.0,0.03576105460524559
14.0,0.03544827550649643
15.0,0.03516179695725441
16.0,0.03487623482942581
18.0,0.034353554248809814
20.0,0.03389804810285568
22.0,0.033473480492830276
24.0,0.03305968642234802
26.0,0.03261599317193031
28.0,0.03221162408590317
30.0,0.03180041164159775
32.0,0.031376928091049194
36.0,0.030536899343132973
40.0,0.029724562540650368
44.0,0.0289299413561821
48.0,0.0281366016715765
52.0,0.027399852871894836
56.0,0.02675437554717064
60.0,0.026120007038116455
64.0,0.025546478107571602
72.0,0.024532532319426537
80.0,0.02356911636888981
88.0,0.02262389473617077
96.0,0.02184537798166275
104.0,0.02114628627896309
112.0,0.020322339609265327
120.0,0.019578833132982254
128.0,0.018896881490945816
144.0,0.017454368993639946
160.0,0.01607602648437023
176.0,0.014861083589494228
192.0,0.013886968605220318
208.0,0.013157365843653679
224.0,0.01255180686712265
240.0,0.012232505716383457
256.0,0.012358155101537704
288.0,0.012633626349270344
320.0,0.01311139203608036
352.0,0.013288864865899086
384.0,0.013438114896416664
416.0,0.012940729036927223
448.0,0.011639278382062912
480.0,0.010684343054890633
512.0,0.010012514889240265
576.0,0.009013498201966286
640.0,0.008034911938011646
704.0,0.00783574115484953
768.0,0.00741377379745245
832.0,0.007025084458291531
896.0,0.0058042025193572044
960.0,0.004163926932960749
1024.0,0.004488979931920767
1152.0,0.0036331936717033386
1280.0,-6.861159636173397e-05
1408.0,-0.002793645951896906
1536.0,-0.0027969088405370712
1664.0,-0.004136805422604084
1792.0,-0.007188348565250635
1920.0,-0.007904461584985256
2048.0,-0.006325164344161749
2304.0,-0.00630089221522212
2560.0,-0.006046850234270096
2816.0,-0.005877033341675997
3072.0,-0.0019323303131386638
3328.0,-0.001031561871059239
3584.0,-0.0023323320783674717
3840.0,-0.0006177521427161992
4096.0,0.004990220535546541
4608.0,0.002050199080258608
5120.0,-0.002152686705812812
5632.0,-0.0031507660169154406
6144.0,-0.010501029901206493
6656.0,-0.0074647883884608746
7168.0,-0.0014876786153763533
7680.0,0.0020477615762501955
8192.0,0.010088946670293808
end
