version,3.0
numOfCh,1
type,point
parent_name,34a6d_0dot1-1dot0
ch_type,1_1
kcount,1
numberNandB,1
brightnessNandB,1
carpet pos,0
pc,0
Time (ms),CH1 Auto-Correlation
1.0,0.04266878217458725
2.0,0.04220496863126755
3.0,0.04180590435862541
4.0,0.04143586754798889
5.0,0.0410766564309597
6.0,0.04071620851755142
7.0,0.040373533964157104
8.0,0.040057409554719925
9.0,0.03974630683660507
10.0,0.03943891078233719
11.0,0.03912645950913429
12.0,0.038827184587717056
13.0,0.0385289303958416
14.0,0.038230665028095245
15.0,0.03796074911952019
16.0,0.03769579157233238
18.0,0.037148524075746536
20.0,0.03660785034298897
22.0,0.03607749566435814
24.0,0.03557603806257248
26.0,0.035052888095378876
28.0,0.03455708175897598
30.0,0.03410302475094795
32.0,0.03365205600857735
36.0,0.03279740363359451
40.0,0.0319671705365181
44.0,0.031188294291496277
48.0,0.030466964468359947
52.0,0.02977912686765194
56.0,0.029059531167149544
60.0,0.028451455757021904
64.0,0.027933375909924507
72.0,0.026993410661816597
80.0,0.026131141930818558
88.0,0.02522512525320053
96.0,0.024321625009179115
104.0,0.023412449285387993
112.0,0.02252965420484543
120.0,0.021592026576399803
128.0,0.020665621384978294
144.0,0.018880551680922508
160.0,0.017414839938282967
176.0,0.01585201546549797
192.0,0.014307364821434021
208.0,0.012959701009094715
224.0,0.011737902648746967
240.0,0.010603181086480618
256.0,0.009410925209522247
288.0,0.0072373682633042336
320.0,0.005747504532337189
352.0,0.0048575690016150475
384.0,0.003876329166814685
416.0,0.00305197830311954
448.0,0.002972942776978016
480.0,0.003043962176889181
512.0,0.0025583484675735235
576.0,0.00195214687846601
640.0,0.0016768209170550108
704.0,0.00207901862449944
768.0,0.0018360298126935959
832.0,0.0009270448354072869
896.0,-0.0010751391528174281
960.0,-0.004117239732295275
1024.0,-0.0055289058946073055
1152.0,-0.004782035481184721
1280.0,-0.0036966579500585794
1408.0,-0.0024844850413501263
1536.0,-0.004331278149038553
1664.0,-0.005619563162326813
1792.0,-0.004258659202605486
1920.0,0.00021611966076307
2048.0,0.002931181574240327
2304.0,-0.002777385525405407
2560.0,-0.005062995944172144
2816.0,-0.0028688921593129635
3072.0,-0.009893673472106457
3328.0,-0.007509238552302122
3584.0,-0.00043770213960669935
3840.0,0.0012201449135318398
4096.0,0.009425727650523186
4608.0,0.011124365031719208
5120.0,-0.0017017846694216132
5632.0,-0.004568290896713734
6144.0,-0.0003946772194467485
6656.0,-0.00428971229121089
7168.0,-0.00913458876311779
7680.0,-0.006751650013029575
8192.0,0.006511434447020292
end
