version,3.0
numOfCh,1
type,point
parent_name,34a6d_0dot1-1dot0
ch_type,1_1
kcount,1
numberNandB,1
brightnessNandB,1
carpet pos,0
pc,0
Time (ms),CH1 Auto-Correlation
1.0,0.04143407195806503
2.0,0.04098623991012573
3.0,0.0405588299036026
4.0,0.04015963152050972
5.0,0.03978218883275986
6.0,0.039409931749105453
7.0,0.03905417397618294
8.0,0.03872252255678177
9.0,0.03837936371564865
10.0,0.03805168718099594
11.0,0.037712037563323975
12.0,0.037376634776592255
13.0,0.037052758038043976
14.0,0.036734603345394135
15.0,0.03642261028289795
16.0,0.036110974848270416
18.0,0.03549068048596382
20.0,0.034885793924331665
22.0,0.03430219367146492
24.0,0.033760495483875275
26.0,0.03324555233120918
28.0,0.032715506851673126
30.0,0.032219115644693375
32.0,0.03177787736058235
36.0,0.031020335853099823
40.0,0.030246252194046974
44.0,0.029447341337800026
48.0,0.028625328093767166
52.0,0.027852369472384453
56.0,0.027131114155054092
60.0,0.02639392763376236
64.0,0.025695033371448517
72.0,0.02441929094493389
80.0,0.0229463130235672
88.0,0.02165357954800129
96.0,0.02047905884683132
104.0,0.019395902752876282
112.0,0.018430793657898903
120.0,0.017488500103354454
128.0,0.016726262867450714
144.0,0.015466965734958649
160.0,0.014579332433640957
176.0,0.013707979582250118
192.0,0.013036839663982391
208.0,0.01235481072217226
224.0,0.011662645265460014
240.0,0.011094431392848492
256.0,0.010861579328775406
288.0,0.009999320842325687
320.0,0.009149965830147266
352.0,0.008339385502040386
384.0,0.008188683539628983
416.0,0.007724815048277378
448.0,0.007844791747629642
480.0,0.007373217958956957
512.0,0.006297482177615166
576.0,0.0038886438123881817
640.0,0.00456163939088583
704.0,0.004380394704639912
768.0,0.0038084853440523148
832.0,0.0031029158271849155
896.0,0.0032055426854640245
960.0,0.0033708014525473118
1024.0,0.001978463726118207
1152.0,0.001555490423925221
1280.0,0.0003870224463753402
1408.0,-0.004148560110479593
1536.0,-0.0037827736232429743
1664.0,-0.0026371609419584274
1792.0,-0.002716003218665719
1920.0,-0.0019781182054430246
2048.0,-0.0018596467562019825
2304.0,-0.0015943297185003757
2560.0,0.0006887207855470479
2816.0,-0.0010350473457947373
3072.0,-0.0003891709784511477
3328.0,-0.0009233619784936309
3584.0,-0.00365501013584435
3840.0,-0.006274323910474777
4096.0,-0.005011402536183596
4608.0,-0.006758518982678652
5120.0,-0.00370049593038857
5632.0,0.006660119630396366
6144.0,0.00965107325464487
6656.0,0.004985344130545855
7168.0,0.0019000943284481764
7680.0,-0.0024875691160559654
8192.0,-4.667350367526524e-05
end
