version,3.0
numOfCh,1
type,point
parent_name,34a6d_0dot1-1dot0
ch_type,1_1
kcount,1
numberNandB,1
brightnessNandB,1
carpet pos,0
pc,0
Time (ms),CH1 Auto-Correlation
1.0,0.04523243010044098
2.0,0.0447688028216362
3.0,0.04433982074260712
4.0,0.043924976140260696
5.0,0.043535295873880386
6.0,0.043173763900995255
7.0,0.04282866045832634
8.0,0.04249194636940956
9.0,0.04217544570565224
10.0,0.04187152907252312
11.0,0.041570309549570084
12.0,0.04127610847353935
13.0,0.0410069078207016
14.0,0.040731169283390045
15.0,0.04045058786869049
16.0,0.04017971456050873
18.0,0.03966905176639557
20.0,0.039178378880023956
22.0,0.03869222104549408
24.0,0.03823548182845116
26.0,0.037762321531772614
28.0,0.03730330616235733
30.0,0.03688874468207359
32.0,0.03649884834885597
36.0,0.03571442887187004
40.0,0.03491370007395744
44.0,0.03417390212416649
48.0,0.03346674144268036
52.0,0.03273656219244003
56.0,0.032058555632829666
60.0,0.03141464293003082
64.0,0.030735697597265244
72.0,0.029492536559700966
80.0,0.028134489431977272
88.0,0.02675212360918522
96.0,0.025448093190789223
104.0,0.02410438284277916
112.0,0.02298247441649437
120.0,0.022043710574507713
128.0,0.02106795646250248
144.0,0.01918082870543003
160.0,0.017486073076725006
176.0,0.01618531532585621
192.0,0.015097123570740223
208.0,0.013978434726595879
224.0,0.012781115248799324
240.0,0.011874317191541195
256.0,0.010910162702202797
288.0,0.009422654286026955
320.0,0.007921839132905006
352.0,0.0059439148753881454
384.0,0.004217144567519426
416.0,0.0029209349304437637
448.0,0.0014307928504422307
480.0,-0.0001838683820096776
512.0,-0.0009794790530577302
576.0,-0.0014279426541179419
640.0,-0.0004885991220362484
704.0,0.0005787033005617559
768.0,0.0012125071370974183
832.0,0.0014383230591192842
896.0,0.0022598779760301113
960.0,0.003682302078232169
1024.0,0.003352642059326172
1152.0,-0.00023095912183634937
1280.0,-0.0025507821701467037
1408.0,-0.0035440304782241583
1536.0,-0.0022774548269808292
1664.0,0.0004331601958256215
1792.0,-0.0007923891535028815
1920.0,-0.0028952634893357754
2048.0,-0.002560814842581749
2304.0,-0.0033608274534344673
2560.0,0.0001401807676302269
2816.0,0.0015154858119785786
3072.0,0.001278563286177814
3328.0,-0.0008140979334712029
3584.0,-0.0045974524691700935
3840.0,-0.00012891045480500907
4096.0,0.0038930189330130816
4608.0,0.0004255516978446394
5120.0,0.002628822810947895
5632.0,-0.003081068629398942
6144.0,0.0005525805172510445
6656.0,-0.007982715964317322
7168.0,-0.002273357240483165
7680.0,-0.003259585238993168
8192.0,-0.003785558510571718
end
