version,3.0
numOfCh,1
type,point
parent_name,34a6d_0dot1-1dot0
ch_type,1_1
kcount,1
numberNandB,1
brightnessNandB,1
carpet pos,0
pc,0
Time (ms),CH1 Auto-Correlation
1.0,0.028575915843248367
2.0,0.028170786798000336
3.0,0.027790425345301628
4.0,0.027411041781306267
5.0,0.027053100988268852
6.0,0.026693228632211685
7.0,0.026350637897849083
8.0,0.02600991539657116
9.0,0.025663945823907852
10.0,0.025319384410977364
11.0,0.024995582178235054
12.0,0.02467697486281395
13.0,0.02436305768787861
14.0,0.02405388094484806
15.0,0.023745601996779442
16.0,0.023453006520867348
18.0,0.022873258218169212
20.0,0.022311078384518623
22.0,0.02177233248949051
24.0,0.02124442160129547
26.0,0.020729176700115204
28.0,0.020240698009729385
30.0,0.019757745787501335
32.0,0.019310127943754196
36.0,0.018480084836483
40.0,0.017668908461928368
44.0,0.016883322969079018
48.0,0.016137821599841118
52.0,0.015428288839757442
56.0,0.014800826087594032
60.0,0.014258199371397495
64.0,0.013761135749518871
72.0,0.012879008427262306
80.0,0.012098300270736217
88.0,0.011472547426819801
96.0,0.010931264609098434
104.0,0.010415645316243172
112.0,0.00987003743648529
120.0,0.009366434998810291
128.0,0.008840898983180523
144.0,0.0076226224191486835
160.0,0.00642253877595067
176.0,0.0054289004765450954
192.0,0.004395743366330862
208.0,0.003600716358050704
224.0,0.0032160792034119368
240.0,0.002656560856848955
256.0,0.0018350551836192608
288.0,6.163372745504603e-05
320.0,-0.0006930922972969711
352.0,-0.000507138844113797
384.0,-5.795491597382352e-05
416.0,0.00033062792499549687
448.0,0.00048461195547133684
480.0,0.0008003895054571331
512.0,0.0006685889093205333
576.0,0.0015932002570480108
640.0,0.0036554085090756416
704.0,0.004799539688974619
768.0,0.005354532040655613
832.0,0.002840889384970069
896.0,0.0015633702278137207
960.0,0.0009168327087536454
1024.0,0.00014990971249062568
1152.0,0.0008330364944413304
1280.0,0.002557029714807868
1408.0,0.003045188495889306
1536.0,-0.0013611247995868325
1664.0,-0.0038470218423753977
1792.0,-0.0027727598790079355
1920.0,-0.003460608422756195
2048.0,-0.001616914407350123
2304.0,-0.0027957691345363855
2560.0,-0.0020878768991678953
2816.0,-0.002233990002423525
3072.0,-0.002894539153203368
3328.0,-0.004180614836513996
3584.0,-0.0023775314912199974
3840.0,-0.004292817786335945
4096.0,0.00014080472465138882
4608.0,-0.0003187514375895262
5120.0,0.003025756450369954
5632.0,0.0022679937537759542
6144.0,0.002000219887122512
6656.0,0.0004498783382587135
7168.0,-0.0006715373019687831
7680.0,-0.0009524669731035829
8192.0,-0.0026419826317578554
end
