version,3.0
numOfCh,1
type,point
parent_name,34a6d_0dot1-1dot0
ch_type,1_1
kcount,1
numberNandB,1
brightnessNandB,1
carpet pos,0
pc,0
Time (ms),CH1 Auto-Correlation
1.0,0.03553139045834541
2.0,0.03505288437008858
3.0,0.03460738807916641
4.0,0.03419576585292816
5.0,0.03379160538315773
6.0,0.03340180218219757
7.0,0.03304378315806389
8.0,0.03269379213452339
9.0,0.032333146780729294
10.0,0.031976036727428436
11.0,0.031632572412490845
12.0,0.031292855739593506
13.0,0.030953802168369293
14.0,0.030610602349042892
15.0,0.030281836166977882
16.0,0.029990868642926216
18.0,0.029378017410635948
20.0,0.028793690726161003
22.0,0.028234096243977547
24.0,0.02770679071545601
26.0,0.027176547795534134
28.0,0.026645787060260773
30.0,0.026165680959820747
32.0,0.025710172951221466
36.0,0.02479245699942112
40.0,0.02393537387251854
44.0,0.023176873102784157
48.0,0.022446945309638977
52.0,0.021746540442109108
56.0,0.02104196883738041
60.0,0.02035188302397728
64.0,0.019657228142023087
72.0,0.018472757190465927
80.0,0.017338952049613
88.0,0.016307957470417023
96.0,0.015454708598554134
104.0,0.014775796793401241
112.0,0.014179752208292484
120.0,0.013681870885193348
128.0,0.013282662257552147
144.0,0.012594994157552719
160.0,0.011982725001871586
176.0,0.01151961088180542
192.0,0.011210685595870018
208.0,0.010821654461324215
224.0,0.010426698252558708
240.0,0.009850017726421356
256.0,0.009110497310757637
288.0,0.00810265727341175
320.0,0.007659413851797581
352.0,0.0075521320104599
384.0,0.007308538071811199
416.0,0.006530871614813805
448.0,0.005667779594659805
480.0,0.005424393806606531
512.0,0.005449080839753151
576.0,0.004237936809659004
640.0,0.003610876388847828
704.0,0.0031215958297252655
768.0,0.0029029836878180504
832.0,0.0019681318663060665
896.0,0.0022119206842035055
960.0,0.00305555434897542
1024.0,0.004788584541529417
1152.0,0.002507451456040144
1280.0,0.0009329051245003939
1408.0,-0.00042929695337079465
1536.0,0.0007481997017748654
1664.0,0.0011021405225619674
1792.0,0.001089873956516385
1920.0,-1.3713758562516887e-05
2048.0,0.0008435581694357097
2304.0,0.0019689041655510664
2560.0,0.0012369997566565871
2816.0,0.00010082097287522629
3072.0,-0.002538061235100031
3328.0,-0.0023607630282640457
3584.0,-0.0030419568065553904
3840.0,-0.006255432032048702
4096.0,-0.008819574490189552
4608.0,-0.006111922673881054
5120.0,-0.002034335397183895
5632.0,-0.0030973535031080246
6144.0,-0.0014848060673102736
6656.0,-0.0011031576432287693
7168.0,0.00042131563532166183
7680.0,0.00298828212544322
8192.0,0.0037765726447105408
end
