version,3.0
numOfCh,1
type,point
parent_name,34a6d_0dot1-1dot0
ch_type,1_1
kcount,1
numberNandB,1
brightnessNandB,1
carpet pos,0
pc,0
Time (ms),CH1 Auto-Correlation
1.0,0.03181038051843643
2.0,0.03134896233677864
3.0,0.030918458476662636
4.0,0.03052227944135666
5.0,0.03014705330133438
6.0,0.029773496091365814
7.0,0.029419906437397003
8.0,0.02908303588628769
9.0,0.028748715296387672
10.0,0.028432471677660942
11.0,0.028110897168517113
12.0,0.027810921892523766
13.0,0.027517059817910194
14.0,0.027240755036473274
15.0,0.026967573910951614
16.0,0.02671235427260399
18.0,0.026237549260258675
20.0,0.025774041190743446
22.0,0.025285659357905388
24.0,0.02480357326567173
26.0,0.024341557174921036
28.0,0.02390320971608162
30.0,0.023501135408878326
32.0,0.02312859706580639
36.0,0.022421851754188538
40.0,0.02173955738544464
44.0,0.021114228293299675
48.0,0.02053886093199253
52.0,0.020067473873496056
56.0,0.01965354196727276
60.0,0.01918814703822136
64.0,0.018702857196331024
72.0,0.01761050336062908
80.0,0.016580935567617416
88.0,0.015556178987026215
96.0,0.014653149992227554
104.0,0.013816227205097675
112.0,0.013129081577062607
120.0,0.012500795535743237
128.0,0.011935226619243622
144.0,0.010731851682066917
160.0,0.009646580554544926
176.0,0.008810074999928474
192.0,0.00817178189754486
208.0,0.007955379784107208
224.0,0.007650683168321848
240.0,0.007373678032308817
256.0,0.0074803996831178665
288.0,0.007501558866351843
320.0,0.007749404292553663
352.0,0.008195227012038231
384.0,0.00754073541611433
416.0,0.00667464779689908
448.0,0.005146157927811146
480.0,0.004041924141347408
512.0,0.0037498788442462683
576.0,0.0033252702560275793
640.0,0.002992906142026186
704.0,0.002441768068820238
768.0,0.002541269874200225
832.0,0.004153597168624401
896.0,0.005159751046448946
960.0,0.005129422526806593
1024.0,0.004630016162991524
1152.0,0.004158110357820988
1280.0,0.00274155056104064
1408.0,-0.0023082327097654343
1536.0,-0.005945641081780195
1664.0,-0.006271692458540201
1792.0,-0.0059297773987054825
1920.0,-0.005126609466969967
2048.0,-0.0043137939646840096
2304.0,-0.0053855860605835915
2560.0,-0.0056561012752354145
2816.0,-0.005325561389327049
3072.0,-0.0019048944814130664
3328.0,-0.0032096339855343103
3584.0,0.00022973812883719802
3840.0,0.0027145552448928356
4096.0,0.0034760083071887493
4608.0,0.004157248884439468
5120.0,0.0011908040614798665
5632.0,-0.0019577699713408947
6144.0,-0.004958282690495253
6656.0,-0.0035895321052521467
7168.0,-0.000850162876304239
7680.0,0.00020477738871704787
8192.0,0.0018815750954672694
end
