version,3.0
numOfCh,1
type,point
parent_name,34a6d_0dot1-1dot0
ch_type,1_1
kcount,1
numberNandB,1
brightnessNandB,1
carpet pos,0
pc,0
Time (ms),CH1 Auto-Correlation
1.0,0.0348593145608902
2.0,0.0343693271279335
3.0,0.033935368061065674
4.0,0.03351786360144615
5.0,0.03313859552145004
6.0,0.03278687968850136
7.0,0.032420814037323
8.0,0.032067038118839264
9.0,0.03171829879283905
10.0,0.03135872632265091
11.0,0.030993517488241196
12.0,0.030646316707134247
13.0,0.030304281041026115
14.0,0.029962880536913872
15.0,0.02964336983859539
16.0,0.029326092451810837
18.0,0.028716204687952995
20.0,0.028111150488257408
22.0,0.027513310313224792
24.0,0.02695232257246971
26.0,0.026384934782981873
28.0,0.025834757834672928
30.0,0.02532137557864189
32.0,0.024831578135490417
36.0,0.023873060941696167
40.0,0.022973978891968727
44.0,0.022145269438624382
48.0,0.021363547071814537
52.0,0.020606646314263344
56.0,0.019862234592437744
60.0,0.019170844927430153
64.0,0.01851901039481163
72.0,0.017282668501138687
80.0,0.01623125933110714
88.0,0.015471500344574451
96.0,0.014970450662076473
104.0,0.014500386081635952
112.0,0.013932163827121258
120.0,0.013288820162415504
128.0,0.012614565901458263
144.0,0.011042606085538864
160.0,0.009410789236426353
176.0,0.008318797685205936
192.0,0.00784529559314251
208.0,0.007332037203013897
224.0,0.006917889695614576
240.0,0.00644190376624465
256.0,0.0056149219162762165
288.0,0.004124702885746956
320.0,0.003071354702115059
352.0,0.0016911050770431757
384.0,0.0007994379266165197
416.0,-0.00021991870016790926
448.0,-0.0006088324007578194
480.0,-0.0004800309252459556
512.0,-0.00034514357685111463
576.0,-0.0012599024921655655
640.0,-0.0005332630244083703
704.0,0.0003859908611048013
768.0,0.0014674634439870715
832.0,0.002135526854544878
896.0,0.0036188012454658747
960.0,0.004075539764016867
1024.0,0.003411167999729514
1152.0,0.0013705213787034154
1280.0,-0.0013320527505129576
1408.0,-0.0002442411205265671
1536.0,0.0034800509456545115
1664.0,0.0027916033286601305
1792.0,0.0014617173001170158
1920.0,-0.0004467720864340663
2048.0,-0.002245752839371562
2304.0,-0.003354510758072138
2560.0,0.0016514882445335388
2816.0,-0.003282556775957346
3072.0,-0.0007598815718665719
3328.0,0.0003219005011487752
3584.0,0.0028038446325808764
3840.0,-0.0024085761979222298
4096.0,-0.0006919553270563483
4608.0,0.0016849559033289552
5120.0,-0.007658099755644798
5632.0,-0.0017603914020583034
6144.0,-0.0008696980657987297
6656.0,-0.0005005719722248614
7168.0,-0.003538302844390273
7680.0,6.239329377422109e-05
8192.0,0.006297612562775612
end
