version,3.0
numOfCh,1
type,point
parent_name,34a6d_0dot1-1dot0
ch_type,1_1
kcount,1
numberNandB,1
brightnessNandB,1
carpet pos,0
pc,0
Time (ms),CH1 Auto-Correlation
1.0,0.03820953890681267
2.0,0.03770417347550392
3.0,0.037264708429574966
4.0,0.03685135394334793
5.0,0.0364573635160923
6.0,0.03606591373682022
7.0,0.03570343926548958
8.0,0.03536076098680496
9.0,0.03502004221081734
10.0,0.034706730395555496
11.0,0.03438900038599968
12.0,0.03409624099731445
13.0,0.03381071239709854
14.0,0.033484961837530136
15.0,0.03317571431398392
16.0,0.032877855002880096
18.0,0.03224287927150726
20.0,0.03163481503725052
22.0,0.031064219772815704
24.0,0.030473746359348297
26.0,0.029911454766988754
28.0,0.029330505058169365
30.0,0.02874116413295269
32.0,0.02816835232079029
36.0,0.02717616781592369
40.0,0.02628914639353752
44.0,0.025452101603150368
48.0,0.02462928183376789
52.0,0.023825813084840775
56.0,0.023065276443958282
60.0,0.022287927567958832
64.0,0.0214969664812088
72.0,0.020159834995865822
80.0,0.01887710951268673
88.0,0.017801202833652496
96.0,0.016949137672781944
104.0,0.016269205138087273
112.0,0.01561429351568222
120.0,0.015022268518805504
128.0,0.01461771596223116
144.0,0.014114653691649437
160.0,0.013856538571417332
176.0,0.01346911583095789
192.0,0.012907666154205799
208.0,0.012479493394494057
224.0,0.011922210454940796
240.0,0.011165549047291279
256.0,0.010457124561071396
288.0,0.00829028058797121
320.0,0.007264115381985903
352.0,0.006144289392977953
384.0,0.005159232299774885
416.0,0.004194760695099831
448.0,0.004271569661796093
480.0,0.004263048525899649
512.0,0.0031540505588054657
576.0,0.0012886308832094073
640.0,0.0017599632265046239
704.0,0.0029696491546928883
768.0,0.0028417068533599377
832.0,0.001904548378661275
896.0,0.0015913232928141952
960.0,0.0014415447367355227
1024.0,-0.0004617315426003188
1152.0,-0.001260984456166625
1280.0,-0.002831245306879282
1408.0,-0.003652178216725588
1536.0,-0.0004743048921227455
1664.0,0.0015707795973867178
1792.0,0.0007178363157436252
1920.0,0.0006245808908715844
2048.0,8.514229557476938e-05
2304.0,-0.0004187214362900704
2560.0,0.00135632767342031
2816.0,0.005771237425506115
3072.0,0.008300276473164558
3328.0,0.007674250286072493
3584.0,0.004560718312859535
3840.0,0.004799487069249153
4096.0,0.000989203224889934
4608.0,-0.003864414058625698
5120.0,-0.0011953330831602216
5632.0,-0.0033760815858840942
6144.0,-0.0034644438419491053
6656.0,0.004077895078808069
7168.0,0.0009195480379275978
7680.0,-0.005664126481860876
8192.0,-0.00698156887665391
end
