version,3.0
numOfCh,1
type,point
parent_name,34a6d_0dot1-1dot0
ch_type,1_1
kcount,1
numberNandB,1
brightnessNandB,1
carpet pos,0
pc,0
Time (ms),CH1 Auto-Correlation
1.0,0.0577099584043026
2.0,0.05722368136048317
3.0,0.05679720640182495
4.0,0.05639795586466789
5.0,0.05602632835507393
6.0,0.055672455579042435
7.0,0.055309318006038666
8.0,0.05495662987232208
9.0,0.05462341010570526
10.0,0.05428401008248329
11.0,0.05396594479680061
12.0,0.053642116487026215
13.0,0.05333440378308296
14.0,0.053028255701065063
15.0,0.05271006003022194
16.0,0.0524199977517128
18.0,0.051881685853004456
20.0,0.05133076384663582
22.0,0.05076748877763748
24.0,0.05026258900761604
26.0,0.049766041338443756
28.0,0.04931483045220375
30.0,0.0488649383187294
32.0,0.048429857939481735
36.0,0.047582659870386124
40.0,0.04685080051422119
44.0,0.046142298728227615
48.0,0.04540697857737541
52.0,0.04468858242034912
56.0,0.04396842047572136
60.0,0.04321769252419472
64.0,0.04248841851949692
72.0,0.04115557298064232
80.0,0.03986186161637306
88.0,0.03877673298120499
96.0,0.03789534047245979
104.0,0.037038110196590424
112.0,0.035996146500110626
120.0,0.03490216284990311
128.0,0.033637482672929764
144.0,0.0316067636013031
160.0,0.029975002631545067
176.0,0.028667937964200974
192.0,0.027327297255396843
208.0,0.025983506813645363
224.0,0.02484840713441372
240.0,0.023537179455161095
256.0,0.022424614056944847
288.0,0.021144310012459755
320.0,0.01958225481212139
352.0,0.018448946997523308
384.0,0.01721438392996788
416.0,0.016100924462080002
448.0,0.015258555300533772
480.0,0.01476364303380251
512.0,0.013369129970669746
576.0,0.009999190457165241
640.0,0.00868736021220684
704.0,0.005560498218983412
768.0,0.0027060459833592176
832.0,0.0006175459129735827
896.0,-0.0015453415689989924
960.0,-0.001421357155777514
1024.0,-0.0042679025791585445
1152.0,-0.006773098837584257
1280.0,-0.009855559095740318
1408.0,-0.01262586284428835
1536.0,-0.012573848478496075
1664.0,-0.012227705679833889
1792.0,-0.010176386684179306
1920.0,-0.007197523955255747
2048.0,-0.007370844017714262
2304.0,-0.009990083053708076
2560.0,-0.006934762932360172
2816.0,-0.007141528185456991
3072.0,0.001415317296050489
3328.0,0.003380359150469303
3584.0,0.00713147921487689
3840.0,0.010115186683833599
4096.0,0.011410932056605816
4608.0,0.004604890942573547
5120.0,-0.004811633378267288
5632.0,-0.008728761225938797
6144.0,-0.00881519727408886
6656.0,-0.008238164708018303
7168.0,-0.0005159177235327661
7680.0,0.0018093048129230738
8192.0,-0.0024791057221591473
end
