version,3.0
numOfCh,1
type,point
parent_name,34a6d_0dot1-1dot0
ch_type,1_1
kcount,1
numberNandB,1
brightnessNandB,1
carpet pos,0
pc,0
Time (ms),CH1 Auto-Correlation
1.0,0.04000943899154663
2.0,0.039607204496860504
3.0,0.039234716445207596
4.0,0.03886805474758148
5.0,0.03851427510380745
6.0,0.038170915096998215
7.0,0.037836913019418716
8.0,0.037492528557777405
9.0,0.037150248885154724
10.0,0.03681419789791107
11.0,0.03647872060537338
12.0,0.03615613281726837
13.0,0.03584117069840431
14.0,0.035533372312784195
15.0,0.03523147478699684
16.0,0.0349276028573513
18.0,0.0343652218580246
20.0,0.033814411610364914
22.0,0.0332811139523983
24.0,0.03277938812971115
26.0,0.03231120854616165
28.0,0.03184950351715088
30.0,0.03138565644621849
32.0,0.030925845727324486
36.0,0.029998626559972763
40.0,0.029088716953992844
44.0,0.028252223506569862
48.0,0.027510149404406548
52.0,0.026790298521518707
56.0,0.026069199666380882
60.0,0.02536582201719284
64.0,0.02467113733291626
72.0,0.02353581041097641
80.0,0.02255445159971714
88.0,0.021674584597349167
96.0,0.02095525711774826
104.0,0.020211236551404
112.0,0.019472692161798477
120.0,0.01894982159137726
128.0,0.018588218837976456
144.0,0.01795039512217045
160.0,0.017318015918135643
176.0,0.01640021614730358
192.0,0.01563992165029049
208.0,0.01491606142371893
224.0,0.014259393326938152
240.0,0.013772466219961643
256.0,0.013198706321418285
288.0,0.012824826873838902
320.0,0.012055475264787674
352.0,0.01189122162759304
384.0,0.011604003608226776
416.0,0.010747707448899746
448.0,0.010853897780179977
480.0,0.010408857837319374
512.0,0.010490572080016136
576.0,0.009981406852602959
640.0,0.009780151769518852
704.0,0.008162721060216427
768.0,0.007945005781948566
832.0,0.007009070832282305
896.0,0.006858802400529385
960.0,0.0068757240660488605
1024.0,0.007662251126021147
1152.0,0.005203027743846178
1280.0,0.002948727458715439
1408.0,0.002452273853123188
1536.0,0.0031644939444959164
1664.0,0.0036942949518561363
1792.0,-0.00032063128310255706
1920.0,-0.002769803162664175
2048.0,-0.004749967250972986
2304.0,-0.00353035400621593
2560.0,-0.003718443913385272
2816.0,-0.0046857986599206924
3072.0,-0.0027362473774701357
3328.0,-0.0033379923552274704
3584.0,-0.004766880068928003
3840.0,-0.0038382825441658497
4096.0,-0.00392004894092679
4608.0,-0.002899052109569311
5120.0,-0.005517424084246159
5632.0,-7.602709956699982e-05
6144.0,0.005512214731425047
6656.0,0.002098619006574154
7168.0,0.004983284045010805
7680.0,0.006636349484324455
8192.0,0.0019068724941462278
end
