version,3.0
numOfCh,1
type,point
parent_name,34a6d_0dot1-1dot0
ch_type,1_1
kcount,1
numberNandB,1
brightnessNandB,1
carpet pos,0
pc,0
Time (ms),CH1 Auto-Correlation
1.0,0.04992629960179329
2.0,0.04933859035372734
3.0,0.04881859943270683
4.0,0.04839057847857475
5.0,0.04792921245098114
6.0,0.047461070120334625
7.0,0.04704853519797325
8.0,0.04663484916090965
9.0,0.04620945453643799
10.0,0.04578240215778351
11.0,0.04539356008172035
12.0,0.04499657079577446
13.0,0.04458998888731003
14.0,0.04419352114200592
15.0,0.04380789399147034
16.0,0.04343570023775101
18.0,0.04267588630318642
20.0,0.041961681097745895
22.0,0.04125002771615982
24.0,0.04059711843729019
26.0,0.03998953476548195
28.0,0.03934317082166672
30.0,0.03873087093234062
32.0,0.03810149431228638
36.0,0.036898788064718246
40.0,0.03588484227657318
44.0,0.03506384789943695
48.0,0.034240175038576126
52.0,0.03348318114876747
56.0,0.03287583589553833
60.0,0.03227344900369644
64.0,0.03181535750627518
72.0,0.03104053996503353
80.0,0.030202282592654228
88.0,0.029297705739736557
96.0,0.028429552912712097
104.0,0.027543239295482635
112.0,0.026781296357512474
120.0,0.0260578915476799
128.0,0.025327149778604507
144.0,0.024402469396591187
160.0,0.023562343791127205
176.0,0.02254992350935936
192.0,0.02140059694647789
208.0,0.02048119343817234
224.0,0.01998746395111084
240.0,0.019169554114341736
256.0,0.01817362941801548
288.0,0.015603282488882542
320.0,0.013297607190907001
352.0,0.012384189292788506
384.0,0.011593061499297619
416.0,0.01021397765725851
448.0,0.009856651537120342
480.0,0.009864849038422108
512.0,0.009915225207805634
576.0,0.008445278741419315
640.0,0.006031096912920475
704.0,0.0037727991584688425
768.0,0.0019670946057885885
832.0,0.0010577765060588717
896.0,0.0002743490331340581
960.0,7.282871229108423e-05
1024.0,0.0006549378158524632
1152.0,-0.0002653537958394736
1280.0,-0.001577475923113525
1408.0,-0.0026558588724583387
1536.0,-0.004281856119632721
1664.0,-0.008711340837180614
1792.0,-0.011870606802403927
1920.0,-0.010029356926679611
2048.0,-0.005123102571815252
2304.0,-0.0012374534271657467
2560.0,-0.003458587219938636
2816.0,-0.0069579556584358215
3072.0,-0.01057349145412445
3328.0,-0.011906364932656288
3584.0,-0.006962009705603123
3840.0,0.0011765497038140893
4096.0,0.0033854187931865454
4608.0,0.010002672672271729
5120.0,0.011254195123910904
5632.0,-0.001148850191384554
6144.0,-0.006566205527633429
6656.0,-0.000659891520626843
7168.0,-0.0003729206509888172
7680.0,-0.0015069631626829505
8192.0,-0.01065028365701437
end
