version,3.0
numOfCh,1
type,point
parent_name,34a6d_0dot1-1dot0
ch_type,1_1
kcount,1
numberNandB,1
brightnessNandB,1
carpet pos,0
pc,0
Time (ms),CH1 Auto-Correlation
1.0,0.03740828484296799
2.0,0.03692365437746048
3.0,0.03648177161812782
4.0,0.036088984459638596
5.0,0.035712774842977524
6.0,0.03533919155597687
7.0,0.03497286140918732
8.0,0.03459881991147995
9.0,0.03421907126903534
10.0,0.03385447338223457
11.0,0.033467765897512436
12.0,0.0331021212041378
13.0,0.03274000436067581
14.0,0.03239089250564575
15.0,0.032034981995821
16.0,0.0316915325820446
18.0,0.031070716679096222
20.0,0.030467672273516655
22.0,0.029862895607948303
24.0,0.029317127540707588
26.0,0.028810273855924606
28.0,0.028323955833911896
30.0,0.02786373533308506
32.0,0.027447955682873726
36.0,0.026590801775455475
40.0,0.025828490033745766
44.0,0.025137096643447876
48.0,0.024490121752023697
52.0,0.02388978749513626
56.0,0.02331235073506832
60.0,0.022810015827417374
64.0,0.02223403938114643
72.0,0.020958969369530678
80.0,0.019840626046061516
88.0,0.018828021362423897
96.0,0.018128668889403343
104.0,0.017540259286761284
112.0,0.016978180035948753
120.0,0.01640390418469906
128.0,0.015803039073944092
144.0,0.014470427297055721
160.0,0.01323991734534502
176.0,0.012068871408700943
192.0,0.011107546277344227
208.0,0.010460715740919113
224.0,0.00969463400542736
240.0,0.008673039264976978
256.0,0.007852463982999325
288.0,0.006377057172358036
320.0,0.0047143916599452496
352.0,0.002586115151643753
384.0,0.0016778878634795547
416.0,0.001322465599514544
448.0,0.0012991399271413684
480.0,0.0014061075635254383
512.0,0.0013779043219983578
576.0,-5.743060683016665e-05
640.0,-0.0006817562389187515
704.0,-0.002615417120978236
768.0,-0.0037238402292132378
832.0,-0.0033866993617266417
896.0,-0.002855616854503751
960.0,-0.0039186603389680386
1024.0,-0.004621502943336964
1152.0,-0.007928861305117607
1280.0,-0.00907865073531866
1408.0,-0.006400021258741617
1536.0,-0.0011758418986573815
1664.0,7.157545667269005e-08
1792.0,-0.0015433452790603042
1920.0,-0.004011225420981646
2048.0,-0.0024939533323049545
2304.0,-0.0007003115606494248
2560.0,0.0010150441667065024
2816.0,-0.0011451293248683214
3072.0,-0.00018530695524532348
3328.0,0.0006249559810385108
3584.0,0.0023780097253620625
3840.0,0.0021400046534836292
4096.0,0.0027871651109308004
4608.0,0.0010013452265411615
5120.0,-0.003688204800710082
5632.0,0.00015910608635749668
6144.0,0.006977548357099295
6656.0,-0.0019288893090561032
7168.0,-0.004857489373534918
7680.0,-0.0011887875152751803
8192.0,-0.0013316420372575521
end
