version,3.0
numOfCh,1
type,point
parent_name,34a6d_0dot1-1dot0
ch_type,1_1
kcount,1
numberNandB,1
brightnessNandB,1
carpet pos,0
pc,0
Time (ms),CH1 Auto-Correlation
1.0,0.039696648716926575
2.0,0.03924558684229851
3.0,0.03882480040192604
4.0,0.03842485323548317
5.0,0.03801453858613968
6.0,0.0376233272254467
7.0,0.037229858338832855
8.0,0.03685127571225166
9.0,0.036483198404312134
10.0,0.03614090010523796
11.0,0.0358089804649353
12.0,0.03547428920865059
13.0,0.03513805940747261
14.0,0.03481126204133034
15.0,0.034483402967453
16.0,0.03414866328239441
18.0,0.03352627530694008
20.0,0.03293969854712486
22.0,0.03239305689930916
24.0,0.03189164400100708
26.0,0.031376391649246216
28.0,0.030840687453746796
30.0,0.030289344489574432
32.0,0.029736191034317017
36.0,0.028707163408398628
40.0,0.02778976410627365
44.0,0.026889542117714882
48.0,0.02594617009162903
52.0,0.02501545287668705
56.0,0.02410021610558033
60.0,0.023174317553639412
64.0,0.022246409207582474
72.0,0.020548691973090172
80.0,0.019023125991225243
88.0,0.01766725443303585
96.0,0.016395753249526024
104.0,0.015189215540885925
112.0,0.013979843817651272
120.0,0.012778948061168194
128.0,0.011703133583068848
144.0,0.00965651124715805
160.0,0.007983295246958733
176.0,0.00665622390806675
192.0,0.005634796340018511
208.0,0.004562244284898043
224.0,0.0037154546007514
240.0,0.0029454780742526054
256.0,0.0026392682921141386
288.0,0.002778596244752407
320.0,0.002576598431915045
352.0,0.001795441610738635
384.0,0.0016968433046713471
416.0,0.0015246293041855097
448.0,0.0018006714526563883
480.0,0.002455528359860182
512.0,0.0023416532203555107
576.0,0.0010254071094095707
640.0,0.0008297563763335347
704.0,0.0014467713190242648
768.0,0.00247245654463768
832.0,0.0017512748017907143
896.0,0.0005931286723352969
960.0,0.0016936743631958961
1024.0,0.0038592286873608828
1152.0,0.007580252829939127
1280.0,0.00638690497726202
1408.0,0.0002916215162258595
1536.0,-0.0005453090416267514
1664.0,9.354253415949643e-05
1792.0,0.0004902065265923738
1920.0,-0.0019289738265797496
2048.0,-0.003053616965189576
2304.0,0.0006494739791378379
2560.0,2.9862834708183073e-05
2816.0,-0.0031650476157665253
3072.0,-0.001553514157421887
3328.0,-0.006109909620136023
3584.0,0.0002913634816650301
3840.0,0.0021303254179656506
4096.0,-0.003302044468000531
4608.0,-0.0013685777084901929
5120.0,-0.0018842502031475306
5632.0,-0.0023960741236805916
6144.0,-0.004136436153203249
6656.0,0.0002365010150242597
7168.0,-0.0032792913261801004
7680.0,-0.0013955793110653758
8192.0,0.00266319140791893
end
