version,3.0
numOfCh,1
type,point
parent_name,34a6d_0dot1-1dot0
ch_type,1_1
kcount,1
numberNandB,1
brightnessNandB,1
carpet pos,0
pc,0
Time (ms),CH1 Auto-Correlation
1.0,0.04332065209746361
2.0,0.04267949238419533
3.0,0.04218144342303276
4.0,0.04170101508498192
5.0,0.041300706565380096
6.0,0.04091362655162811
7.0,0.040526360273361206
8.0,0.04015323892235756
9.0,0.03981400653719902
10.0,0.03947277367115021
11.0,0.03914956375956535
12.0,0.038803402334451675
13.0,0.038458555936813354
14.0,0.0381128154695034
15.0,0.037791766226291656
16.0,0.037476442754268646
18.0,0.03690456226468086
20.0,0.03644238039851189
22.0,0.03595586121082306
24.0,0.03547747805714607
26.0,0.035026293247938156
28.0,0.034568481147289276
30.0,0.034076184034347534
32.0,0.03358754143118858
36.0,0.03272804617881775
40.0,0.03185798600316048
44.0,0.03093974106013775
48.0,0.030174175277352333
52.0,0.02946745976805687
56.0,0.02873900532722473
60.0,0.02803637646138668
64.0,0.0273410826921463
72.0,0.02602853626012802
80.0,0.02487105131149292
88.0,0.023910297080874443
96.0,0.022947492077946663
104.0,0.02188846282660961
112.0,0.02111024223268032
120.0,0.02040513977408409
128.0,0.019656039774417877
144.0,0.01814853586256504
160.0,0.017037490382790565
176.0,0.015962833538651466
192.0,0.014890208840370178
208.0,0.01388579048216343
224.0,0.013081580400466919
240.0,0.012400209903717041
256.0,0.011954200454056263
288.0,0.011610213667154312
320.0,0.011188623495399952
352.0,0.011046605184674263
384.0,0.011386641301214695
416.0,0.012014449574053288
448.0,0.01225130632519722
480.0,0.011519983410835266
512.0,0.011017359793186188
576.0,0.009975921362638474
640.0,0.007892929948866367
704.0,0.006890005897730589
768.0,0.006690814159810543
832.0,0.004809884820133448
896.0,0.0024182992056012154
960.0,-0.0016201591352000833
1024.0,-0.0028382849413901567
1152.0,-0.003113328944891691
1280.0,-0.0005999244749546051
1408.0,-0.0014571105130016804
1536.0,-0.0026493517216295004
1664.0,-0.00047323398757725954
1792.0,0.0006591929122805595
1920.0,-0.0034404005855321884
2048.0,-0.0022649159654974937
2304.0,-0.0012833729851990938
2560.0,-0.0021904839668422937
2816.0,-0.0006427077460102737
3072.0,-0.00027611610130406916
3328.0,0.0007506458787247539
3584.0,-0.001199947902932763
3840.0,-0.004910946823656559
4096.0,-0.002309739589691162
4608.0,-0.002620907500386238
5120.0,-0.0018686330877244473
5632.0,-0.004791188053786755
6144.0,-0.0034507466480135918
6656.0,0.0008091377676464617
7168.0,-0.0011893060291185975
7680.0,-0.005858104210346937
8192.0,-0.0007586978026665747
end
