version,3.0
numOfCh,1
type,point
parent_name,34a6d_0dot1-1dot0
ch_type,1_1
kcount,1
numberNandB,1
brightnessNandB,1
carpet pos,0
pc,0
Time (ms),CH1 Auto-Correlation
1.0,0.0380924791097641
2.0,0.03753272444009781
3.0,0.03703497350215912
4.0,0.036598920822143555
5.0,0.036204993724823
6.0,0.035809628665447235
7.0,0.03545120358467102
8.0,0.035111203789711
9.0,0.034781865775585175
10.0,0.03444661572575569
11.0,0.0340830534696579
12.0,0.03372257202863693
13.0,0.03338086977601051
14.0,0.03302580490708351
15.0,0.03269524127244949
16.0,0.032315272837877274
18.0,0.03168117627501488
20.0,0.03102782554924488
22.0,0.03046414628624916
24.0,0.029876936227083206
26.0,0.029315531253814697
28.0,0.028796203434467316
30.0,0.02829638123512268
32.0,0.027840927243232727
36.0,0.02693425491452217
40.0,0.026052318513393402
44.0,0.025330018252134323
48.0,0.02467413805425167
52.0,0.024029919877648354
56.0,0.023335274308919907
60.0,0.02263159118592739
64.0,0.02197650633752346
72.0,0.020748702809214592
80.0,0.019629672169685364
88.0,0.018666451796889305
96.0,0.01786206290125847
104.0,0.01709655113518238
112.0,0.01640026643872261
120.0,0.015747876837849617
128.0,0.015115766786038876
144.0,0.013819077983498573
160.0,0.012350489385426044
176.0,0.011301463469862938
192.0,0.010693643242120743
208.0,0.010194461792707443
224.0,0.009540433064103127
240.0,0.009016072377562523
256.0,0.008435956202447414
288.0,0.006514865905046463
320.0,0.00532133411616087
352.0,0.004447754006832838
384.0,0.003972822800278664
416.0,0.0032855942845344543
448.0,0.0028666157741099596
480.0,0.002225062344223261
512.0,0.001410171389579773
576.0,0.001701300498098135
640.0,0.004026319365948439
704.0,0.004465002100914717
768.0,0.004624238237738609
832.0,0.0034549867268651724
896.0,0.0018969408702105284
960.0,-0.0012953195255249739
1024.0,-0.0028279321268200874
1152.0,-0.0015573360724374652
1280.0,-0.0003122916677966714
1408.0,0.0005784459644928575
1536.0,-0.0025601617526263
1664.0,-0.002499289344996214
1792.0,-0.004026154987514019
1920.0,-0.004105764906853437
2048.0,-0.004334690514951944
2304.0,-0.009722504764795303
2560.0,-0.005342143587768078
2816.0,-0.004634513519704342
3072.0,-0.00984727218747139
3328.0,-0.003019047435373068
3584.0,0.003136897459626198
3840.0,0.002024441957473755
4096.0,0.0018959959270432591
4608.0,0.003852059366181493
5120.0,0.0031766134779900312
5632.0,0.004470352549105883
6144.0,0.0032195488456636667
6656.0,-0.0038764234632253647
7168.0,-0.005777099635452032
7680.0,-0.0026253482792526484
8192.0,0.00052207603584975
end
