version,3.0
numOfCh,1
type,point
parent_name,dirty_0dot069-0dot1
ch_type,1_1
kcount,1
numberNandB,1
brightnessNandB,1
carpet pos,0
pc,0
Time (ms),CH1 Auto-Correlation
1.0,1.1299996376037598
2.0,1.1189496517181396
3.0,1.108088493347168
4.0,1.0972843170166016
5.0,1.0865122079849243
6.0,1.075752854347229
7.0,1.0655449628829956
8.0,1.0557447671890259
9.0,1.0460113286972046
10.0,1.0366134643554688
11.0,1.0277544260025024
12.0,1.0193332433700562
13.0,1.0110362768173218
14.0,1.0032682418823242
15.0,0.995592474937439
16.0,0.9883564114570618
18.0,0.9739388227462769
20.0,0.9599551558494568
22.0,0.9461494088172913
24.0,0.9331672191619873
26.0,0.9207168817520142
28.0,0.9071356654167175
30.0,0.8949364423751831
32.0,0.8837590217590332
36.0,0.8621765971183777
40.0,0.8421717286109924
44.0,0.8176321983337402
48.0,0.7916065454483032
52.0,0.7660745978355408
56.0,0.7411836981773376
60.0,0.7166281938552856
64.0,0.691468358039856
72.0,0.6384008526802063
80.0,0.5972026586532593
88.0,0.555401086807251
96.0,0.5136657357215881
104.0,0.4733612537384033
112.0,0.438449889421463
120.0,0.4024946093559265
128.0,0.37418821454048157
144.0,0.32037538290023804
160.0,0.27791938185691833
176.0,0.2480345219373703
192.0,0.22227619588375092
208.0,0.20725755393505096
224.0,0.20417073369026184
240.0,0.2010715901851654
256.0,0.21103604137897491
288.0,0.25034698843955994
320.0,0.26643189787864685
352.0,0.2691887319087982
384.0,0.253131240606308
416.0,0.2237335443496704
448.0,0.15896660089492798
480.0,0.09099190682172775
512.0,0.06355760246515274
576.0,0.04275587946176529
640.0,0.03786233067512512
704.0,0.06258328258991241
768.0,0.1090204119682312
832.0,0.10811556130647659
896.0,0.038315434008836746
960.0,-0.016208333894610405
1024.0,-0.054923102259635925
1152.0,-0.02756490185856819
1280.0,0.041236959397792816
1408.0,0.03221827372908592
1536.0,0.042467135936021805
1664.0,-0.02587438002228737
1792.0,-0.07291378080844879
1920.0,-0.020534899085760117
2048.0,-0.0040456391870975494
2304.0,0.007449707947671413
2560.0,-0.05627002567052841
2816.0,-0.06530752778053284
3072.0,-0.09675037115812302
3328.0,-0.08152799308300018
3584.0,-0.10968033224344254
3840.0,0.036465659737586975
4096.0,-0.05210942029953003
4608.0,0.07605893164873123
5120.0,0.12449804693460464
5632.0,-0.022113462910056114
6144.0,0.13259296119213104
6656.0,0.10760508477687836
7168.0,-0.09749329835176468
7680.0,-0.11700283735990524
8192.0,-0.14649651944637299
9216.0,-0.06775655597448349
10240.0,-0.10186222195625305
11264.0,-0.05264055356383324
12288.0,-0.08653289079666138
13312.0,-0.030705060809850693
14336.0,0.09519162029027939
end
