version,3.0
numOfCh,1
type,point
parent_name,dirty_0dot069-0dot1
ch_type,1_1
kcount,1
numberNandB,1
brightnessNandB,1
carpet pos,0
pc,0
Time (ms),CH1 Auto-Correlation
1.0,0.1626845747232437
2.0,0.16176870465278625
3.0,0.1608145534992218
4.0,0.15968914330005646
5.0,0.158672496676445
6.0,0.15755027532577515
7.0,0.1566908061504364
8.0,0.15549622476100922
9.0,0.15428060293197632
10.0,0.15303610265254974
11.0,0.15151755511760712
12.0,0.14997652173042297
13.0,0.14824886620044708
14.0,0.1463097482919693
15.0,0.1444496512413025
16.0,0.14251913130283356
18.0,0.13848040997982025
20.0,0.13488250970840454
22.0,0.13112647831439972
24.0,0.12726779282093048
26.0,0.12313968688249588
28.0,0.11900374293327332
30.0,0.11502201110124588
32.0,0.11154001951217651
36.0,0.10502006113529205
40.0,0.09853154420852661
44.0,0.09286823868751526
48.0,0.0878886729478836
52.0,0.08273757249116898
56.0,0.07825073599815369
60.0,0.07402525097131729
64.0,0.06972511112689972
72.0,0.061854537576436996
80.0,0.05453212559223175
88.0,0.04862704128026962
96.0,0.04435158893465996
104.0,0.04147293046116829
112.0,0.039669305086135864
120.0,0.03849402442574501
128.0,0.03773367404937744
144.0,0.03638264536857605
160.0,0.035481251776218414
176.0,0.03531093895435333
192.0,0.03474359214305878
208.0,0.03331383317708969
224.0,0.032234303653240204
240.0,0.03187911584973335
256.0,0.031114868819713593
288.0,0.0283132903277874
320.0,0.026868265122175217
352.0,0.02630678564310074
384.0,0.026738902553915977
416.0,0.025173993781208992
448.0,0.02588125318288803
480.0,0.026845306158065796
512.0,0.024415913969278336
576.0,0.019981909543275833
640.0,0.016839902848005295
704.0,0.016538534313440323
768.0,0.01173077616840601
832.0,0.010142283514142036
896.0,0.013978935778141022
960.0,0.016564972698688507
1024.0,0.015077980235219002
1152.0,0.006480062380433083
1280.0,0.002770337276160717
1408.0,-0.00335274962708354
1536.0,-0.007181308697909117
1664.0,-0.006960008293390274
1792.0,-0.004072409123182297
1920.0,-0.00394467543810606
2048.0,-0.0031906776130199432
2304.0,-0.004903858993202448
2560.0,-0.009053435176610947
2816.0,-0.016586439684033394
3072.0,-0.016555000096559525
3328.0,-0.012724521569907665
3584.0,-0.01298251561820507
3840.0,-0.01569686457514763
4096.0,-0.00679657980799675
4608.0,0.007110158447176218
5120.0,0.0024052374064922333
5632.0,0.0033535705879330635
6144.0,-0.0026109865866601467
6656.0,-0.006392629351466894
7168.0,0.005230348091572523
7680.0,0.007724317256361246
8192.0,0.003105059964582324
9216.0,-0.017860818654298782
10240.0,-0.023336036130785942
11264.0,-0.02445652149617672
12288.0,0.012205757200717926
13312.0,0.024296680465340614
14336.0,0.012255322188138962
end
