version,3.0
numOfCh,1
type,point
parent_name,dirty_0dot069-0dot1
ch_type,1_1
kcount,1
numberNandB,1
brightnessNandB,1
carpet pos,0
pc,0
Time (ms),CH1 Auto-Correlation
1.0,1.3270598649978638
2.0,1.3194180727005005
3.0,1.3124178647994995
4.0,1.3055437803268433
5.0,1.2976559400558472
6.0,1.2895092964172363
7.0,1.2803446054458618
8.0,1.2719926834106445
9.0,1.2632732391357422
10.0,1.2536892890930176
11.0,1.2442634105682373
12.0,1.235141396522522
13.0,1.226012945175171
14.0,1.2173634767532349
15.0,1.2090811729431152
16.0,1.200783610343933
18.0,1.1840355396270752
20.0,1.1672842502593994
22.0,1.150448203086853
24.0,1.1336541175842285
26.0,1.1170891523361206
28.0,1.1016027927398682
30.0,1.0875600576400757
32.0,1.074350357055664
36.0,1.0504908561706543
40.0,1.0303593873977661
44.0,1.0096899271011353
48.0,0.987210214138031
52.0,0.9656519293785095
56.0,0.9447962641716003
60.0,0.9243639707565308
64.0,0.9064583778381348
72.0,0.8766723871231079
80.0,0.8492116332054138
88.0,0.8311282396316528
96.0,0.8186439275741577
104.0,0.8051174879074097
112.0,0.7893379926681519
120.0,0.7662776112556458
128.0,0.7427504062652588
144.0,0.7198418378829956
160.0,0.7164254188537598
176.0,0.7126070261001587
192.0,0.7123151421546936
208.0,0.7075048685073853
224.0,0.7089632749557495
240.0,0.7190086245536804
256.0,0.7119765877723694
288.0,0.6553637981414795
320.0,0.5998315215110779
352.0,0.550431489944458
384.0,0.48187705874443054
416.0,0.4106098711490631
448.0,0.3532090187072754
480.0,0.3258912265300751
512.0,0.3468298614025116
576.0,0.4717002511024475
640.0,0.4601655900478363
704.0,0.3855423629283905
768.0,0.3457876741886139
832.0,0.3345836102962494
896.0,0.2823220491409302
960.0,0.19306054711341858
1024.0,0.09417758882045746
1152.0,-0.01728922128677368
1280.0,-0.07324042171239853
1408.0,-0.08947243541479111
1536.0,-0.09613754600286484
1664.0,-0.0866859033703804
1792.0,-0.07567983865737915
1920.0,-0.08723296225070953
2048.0,-0.10282827913761139
2304.0,-0.14787988364696503
2560.0,-0.16180767118930817
2816.0,-0.1862962692975998
3072.0,-0.22477175295352936
3328.0,-0.2533766031265259
3584.0,-0.26047858595848083
3840.0,-0.23167677223682404
4096.0,-0.24477548897266388
4608.0,-0.19994205236434937
5120.0,-0.17715589702129364
5632.0,0.05374009907245636
6144.0,0.14019060134887695
6656.0,0.29270562529563904
7168.0,0.03557518869638443
7680.0,0.0035798114258795977
8192.0,-0.04619435593485832
9216.0,-0.16321270167827606
10240.0,-0.1833144873380661
11264.0,0.0082956338301301
12288.0,0.0974019393324852
13312.0,0.15447191894054413
14336.0,0.17630839347839355
end
