version,3.0
numOfCh,1
type,point
parent_name,dirty_0dot069-0dot1
ch_type,1_1
kcount,1
numberNandB,1
brightnessNandB,1
carpet pos,0
pc,0
Time (ms),CH1 Auto-Correlation
1.0,0.07551885396242142
2.0,0.07508214563131332
3.0,0.07462987303733826
4.0,0.07421330362558365
5.0,0.07379033416509628
6.0,0.07338126003742218
7.0,0.07296564429998398
8.0,0.0725463330745697
9.0,0.07214383780956268
10.0,0.07173443585634232
11.0,0.07134468853473663
12.0,0.07093676179647446
13.0,0.07051670551300049
14.0,0.07009443640708923
15.0,0.06968360394239426
16.0,0.06927002221345901
18.0,0.06845499575138092
20.0,0.06766951829195023
22.0,0.06691481918096542
24.0,0.06616178154945374
26.0,0.06540977209806442
28.0,0.0646260678768158
30.0,0.0638519674539566
32.0,0.06309972703456879
36.0,0.061626333743333817
40.0,0.060240019112825394
44.0,0.05884938687086105
48.0,0.05749375745654106
52.0,0.05619985982775688
56.0,0.05490275099873543
60.0,0.053648922592401505
64.0,0.05243009328842163
72.0,0.04989911615848541
80.0,0.047453731298446655
88.0,0.04532746970653534
96.0,0.04357262700796127
104.0,0.04196188226342201
112.0,0.040588296949863434
120.0,0.03945913910865784
128.0,0.03863830864429474
144.0,0.0374535396695137
160.0,0.036691803485155106
176.0,0.03616972640156746
192.0,0.03571966663002968
208.0,0.035076357424259186
224.0,0.034296389669179916
240.0,0.03330080956220627
256.0,0.03200170770287514
288.0,0.02855868637561798
320.0,0.025469588115811348
352.0,0.02281617932021618
384.0,0.022030901163816452
416.0,0.022746078670024872
448.0,0.023082386702299118
480.0,0.022093692794442177
512.0,0.019130945205688477
576.0,0.013037932105362415
640.0,0.012600579299032688
704.0,0.014696573838591576
768.0,0.014513125643134117
832.0,0.013644625432789326
896.0,0.011484316550195217
960.0,0.009669095277786255
1024.0,0.007194421254098415
1152.0,0.005318985786288977
1280.0,0.0009212579461745918
1408.0,-0.003800707869231701
1536.0,-0.0038358084857463837
1664.0,-0.001727891038171947
1792.0,-0.0016698259860277176
1920.0,0.0005621356540359557
2048.0,0.0025526536628603935
2304.0,0.0015600435435771942
2560.0,-0.0002364222309552133
2816.0,-0.0016637415392324328
3072.0,-0.0011744758812710643
3328.0,-0.014018404297530651
3584.0,-0.02031104825437069
3840.0,-0.01735646277666092
4096.0,-0.011819927021861076
4608.0,-0.0041572158224880695
5120.0,0.009012262336909771
5632.0,6.952387047931552e-05
6144.0,0.0053800861351192
6656.0,0.0001579347881488502
7168.0,0.010970862582325935
7680.0,-0.003269554115831852
8192.0,-0.011560174636542797
9216.0,-0.007197714876383543
10240.0,-0.008837365545332432
11264.0,-0.017565948888659477
12288.0,0.014842959120869637
13312.0,0.0008028841693885624
14336.0,-0.003998240921646357
end
