version,3.0
numOfCh,1
type,point
parent_name,dirty_0dot069-0dot1
ch_type,1_1
kcount,1
numberNandB,1
brightnessNandB,1
carpet pos,0
pc,0
Time (ms),CH1 Auto-Correlation
1.0,0.5398271679878235
2.0,0.5337766408920288
3.0,0.5276246666908264
4.0,0.5214093923568726
5.0,0.5151845812797546
6.0,0.5092984437942505
7.0,0.5030609369277954
8.0,0.4963871240615845
9.0,0.4894547164440155
10.0,0.4826065003871918
11.0,0.4759066104888916
12.0,0.4690436124801636
13.0,0.46219760179519653
14.0,0.45547449588775635
15.0,0.44920673966407776
16.0,0.4433651268482208
18.0,0.43140140175819397
20.0,0.4193333089351654
22.0,0.4079097509384155
24.0,0.3971715569496155
26.0,0.38694703578948975
28.0,0.37718215584754944
30.0,0.3673727214336395
32.0,0.3580651879310608
36.0,0.3403772711753845
40.0,0.32269054651260376
44.0,0.306578129529953
48.0,0.29187530279159546
52.0,0.27981600165367126
56.0,0.2689158320426941
60.0,0.2585323452949524
64.0,0.24867142736911774
72.0,0.23105426132678986
80.0,0.21411526203155518
88.0,0.20080173015594482
96.0,0.18954047560691833
104.0,0.17551830410957336
112.0,0.16071677207946777
120.0,0.14326009154319763
128.0,0.12546144425868988
144.0,0.09212996810674667
160.0,0.06563074886798859
176.0,0.04476436972618103
192.0,0.034162092953920364
208.0,0.034767553210258484
224.0,0.03806813433766365
240.0,0.03579683601856232
256.0,0.03091091476380825
288.0,0.04030421003699303
320.0,0.05001462996006012
352.0,0.043662965297698975
384.0,0.048400603234767914
416.0,0.04836469143629074
448.0,0.030709989368915558
480.0,0.035541512072086334
512.0,0.04513445496559143
576.0,0.07293464988470078
640.0,0.08992460370063782
704.0,0.07980788499116898
768.0,0.023016270250082016
832.0,0.011689371429383755
896.0,0.02969408594071865
960.0,0.055901337414979935
1024.0,0.049670297652482986
1152.0,0.039547838270664215
1280.0,0.04116971790790558
1408.0,0.006293395068496466
1536.0,-0.026277830824255943
1664.0,-0.02554873377084732
1792.0,-0.024307629093527794
1920.0,-0.03487331047654152
2048.0,-0.02284565381705761
2304.0,0.009728076867759228
2560.0,-0.03064902499318123
2816.0,0.02963934652507305
3072.0,0.023533623665571213
3328.0,0.031218716874718666
3584.0,0.03716921806335449
3840.0,0.0389343686401844
4096.0,-0.02045242302119732
4608.0,-0.03185892477631569
5120.0,-0.04728740081191063
5632.0,-0.055341172963380814
6144.0,-0.06470175832509995
6656.0,-0.041868481785058975
7168.0,-0.03580165281891823
7680.0,-0.039615996181964874
8192.0,-0.0394233763217926
9216.0,-0.026247046887874603
10240.0,-0.03350438177585602
11264.0,0.03152618184685707
12288.0,0.026988590136170387
13312.0,0.040280066430568695
14336.0,0.03833085298538208
end
