version,3.0
numOfCh,1
type,point
parent_name,dirty_0dot069-0dot1
ch_type,1_1
kcount,1
numberNandB,1
brightnessNandB,1
carpet pos,0
pc,0
Time (ms),CH1 Auto-Correlation
1.0,0.3991652727127075
2.0,0.39530235528945923
3.0,0.3914864957332611
4.0,0.38769885897636414
5.0,0.3835080862045288
6.0,0.37924036383628845
7.0,0.3748573958873749
8.0,0.3705684542655945
9.0,0.36646467447280884
10.0,0.36275553703308105
11.0,0.35869455337524414
12.0,0.354912132024765
13.0,0.35118764638900757
14.0,0.34820303320884705
15.0,0.34537842869758606
16.0,0.34203168749809265
18.0,0.33474889397621155
20.0,0.3275485336780548
22.0,0.32039228081703186
24.0,0.3130834996700287
26.0,0.3059062063694
28.0,0.2986609935760498
30.0,0.29252102971076965
32.0,0.2867039740085602
36.0,0.277923047542572
40.0,0.270798921585083
44.0,0.266142874956131
48.0,0.2630443871021271
52.0,0.2593764364719391
56.0,0.2560375928878784
60.0,0.25318291783332825
64.0,0.2515557110309601
72.0,0.2501802444458008
80.0,0.24445824325084686
88.0,0.23220239579677582
96.0,0.21796965599060059
104.0,0.20540809631347656
112.0,0.19252851605415344
120.0,0.1831328123807907
128.0,0.176102414727211
144.0,0.1632636934518814
160.0,0.1588156670331955
176.0,0.14949676394462585
192.0,0.14038047194480896
208.0,0.13326863944530487
224.0,0.1183399111032486
240.0,0.10075433552265167
256.0,0.07563674449920654
288.0,0.03879107907414436
320.0,0.023107144981622696
352.0,0.015412276610732079
384.0,0.015485139563679695
416.0,0.01858263835310936
448.0,0.013576047495007515
480.0,0.009028967469930649
512.0,0.008597646839916706
576.0,0.00924587156623602
640.0,0.005853426642715931
704.0,0.001883113058283925
768.0,0.0016992742894217372
832.0,-0.004638848826289177
896.0,-0.011681899428367615
960.0,-0.008402666077017784
1024.0,-0.004696182440966368
1152.0,-0.013664345256984234
1280.0,-0.035686418414115906
1408.0,-0.049927420914173126
1536.0,-0.04171205684542656
1664.0,-0.03190341964364052
1792.0,-0.03601594641804695
1920.0,-0.05362940952181816
2048.0,-0.06635092198848724
2304.0,-0.06788954883813858
2560.0,-0.02948485128581524
2816.0,0.053466666489839554
3072.0,0.022610962390899658
3328.0,-0.0008579224813729525
3584.0,-0.004709787201136351
3840.0,0.003520970232784748
4096.0,-0.004651778843253851
4608.0,0.02053951658308506
5120.0,-0.012077942490577698
5632.0,-0.004225638695061207
6144.0,0.007289605680853128
6656.0,-0.014698461629450321
7168.0,-0.009504922665655613
7680.0,-0.03793920576572418
8192.0,0.006867506075650454
9216.0,0.006580110173672438
10240.0,0.0039276243187487125
11264.0,0.004344915505498648
12288.0,0.004608831834048033
13312.0,-0.0016800620360299945
14336.0,0.009230840019881725
end
