version,3.0
numOfCh,1
type,point
parent_name,dirty_0dot069-0dot1
ch_type,1_1
kcount,1
numberNandB,1
brightnessNandB,1
carpet pos,0
pc,0
Time (ms),CH1 Auto-Correlation
1.0,0.41888177394866943
2.0,0.4133107364177704
3.0,0.4078606069087982
4.0,0.4025554060935974
5.0,0.39728736877441406
6.0,0.39223554730415344
7.0,0.38769853115081787
8.0,0.383857786655426
9.0,0.38008278608322144
10.0,0.3767835199832916
11.0,0.3729702830314636
12.0,0.36923712491989136
13.0,0.365945965051651
14.0,0.3620748519897461
15.0,0.35829925537109375
16.0,0.35410869121551514
18.0,0.34498634934425354
20.0,0.3352317810058594
22.0,0.3268604576587677
24.0,0.3183805048465729
26.0,0.31052327156066895
28.0,0.3028911054134369
30.0,0.29473206400871277
32.0,0.2872380018234253
36.0,0.2736104428768158
40.0,0.26224878430366516
44.0,0.2507873773574829
48.0,0.2387620210647583
52.0,0.2284301370382309
56.0,0.2215236872434616
60.0,0.214949831366539
64.0,0.20734240114688873
72.0,0.19240334630012512
80.0,0.1796620488166809
88.0,0.17236584424972534
96.0,0.17021912336349487
104.0,0.1712309718132019
112.0,0.16857372224330902
120.0,0.16544267535209656
128.0,0.15894319117069244
144.0,0.14896690845489502
160.0,0.13984405994415283
176.0,0.12557151913642883
192.0,0.1044238954782486
208.0,0.09067089110612869
224.0,0.0776427835226059
240.0,0.0668039545416832
256.0,0.060322340577840805
288.0,0.054835494607686996
320.0,0.024480745196342468
352.0,0.011603029444813728
384.0,-0.0026947292499244213
416.0,-0.007868957705795765
448.0,-0.011421453207731247
480.0,-0.011873763985931873
512.0,-0.01793164759874344
576.0,-0.01728416606783867
640.0,-0.01871389150619507
704.0,-0.01933210901916027
768.0,-0.0026783638168126345
832.0,0.007642698008567095
896.0,0.007943026721477509
960.0,0.008134131319820881
1024.0,0.004452794790267944
1152.0,-0.0004261089488863945
1280.0,-0.0069900271482765675
1408.0,-0.003542189719155431
1536.0,-0.0007188379531726241
1664.0,-0.007873328402638435
1792.0,-0.01972060836851597
1920.0,-0.02266366221010685
2048.0,-0.011554202064871788
2304.0,-0.01526114996522665
2560.0,-0.014522128738462925
2816.0,0.049077652394771576
3072.0,0.17172914743423462
3328.0,0.009804992936551571
3584.0,-0.007419857662171125
3840.0,0.015116067603230476
4096.0,0.019371328875422478
4608.0,-0.026281412690877914
5120.0,-0.02891293168067932
5632.0,-0.015587733127176762
6144.0,0.04309963434934616
6656.0,0.01064600981771946
7168.0,-0.005602465942502022
7680.0,-0.0032737581059336662
8192.0,-0.015418610535562038
9216.0,-0.009919984266161919
10240.0,0.015476124361157417
11264.0,-0.05563922971487045
12288.0,-0.05061870813369751
13312.0,0.009442818351089954
14336.0,-0.07864334434270859
end
