version,3.0
numOfCh,1
type,point
parent_name,dirty_0dot069-0dot1
ch_type,1_1
kcount,1
numberNandB,1
brightnessNandB,1
carpet pos,0
pc,0
Time (ms),CH1 Auto-Correlation
1.0,1.0745718479156494
2.0,1.0667364597320557
3.0,1.059422492980957
4.0,1.0527276992797852
5.0,1.0465131998062134
6.0,1.0406848192214966
7.0,1.0343327522277832
8.0,1.0278414487838745
9.0,1.0215245485305786
10.0,1.0154263973236084
11.0,1.0096771717071533
12.0,1.0042195320129395
13.0,0.9988763928413391
14.0,0.9931126236915588
15.0,0.987471342086792
16.0,0.9818395376205444
18.0,0.9703599214553833
20.0,0.9596995711326599
22.0,0.9479192495346069
24.0,0.9374141693115234
26.0,0.9266481995582581
28.0,0.9153282046318054
30.0,0.9043565392494202
32.0,0.8932077884674072
36.0,0.874491274356842
40.0,0.8574091196060181
44.0,0.8416531085968018
48.0,0.8240050077438354
52.0,0.8075653314590454
56.0,0.7923360466957092
60.0,0.7801008820533752
64.0,0.7694498896598816
72.0,0.7524208426475525
80.0,0.7398407459259033
88.0,0.725875973701477
96.0,0.7072895169258118
104.0,0.69251948595047
112.0,0.6835735440254211
120.0,0.6759806871414185
128.0,0.6702528595924377
144.0,0.6598759889602661
160.0,0.6533241868019104
176.0,0.6388288736343384
192.0,0.6067960858345032
208.0,0.574219286441803
224.0,0.5436784029006958
240.0,0.5191015005111694
256.0,0.49013185501098633
288.0,0.45643872022628784
320.0,0.46060097217559814
352.0,0.46854647994041443
384.0,0.45965325832366943
416.0,0.43631711602211
448.0,0.417068213224411
480.0,0.43688419461250305
512.0,0.4551319181919098
576.0,0.43409502506256104
640.0,0.4049808979034424
704.0,0.3741147518157959
768.0,0.37972521781921387
832.0,0.38435834646224976
896.0,0.35164788365364075
960.0,0.3487459421157837
1024.0,0.34112122654914856
1152.0,0.2517765760421753
1280.0,0.18352331221103668
1408.0,0.2138524353504181
1536.0,0.21330787241458893
1664.0,0.1561853438615799
1792.0,0.1537453979253769
1920.0,0.20501567423343658
2048.0,0.19901587069034576
2304.0,0.0763457864522934
2560.0,-0.008997373282909393
2816.0,-0.03181542083621025
3072.0,-0.022737115621566772
3328.0,-0.05027987062931061
3584.0,-0.06904048472642899
3840.0,-0.07097329199314117
4096.0,-0.07290184497833252
4608.0,-0.08741316944360733
5120.0,-0.09766443073749542
5632.0,-0.08802888542413712
6144.0,-0.025540413334965706
6656.0,-0.05092392861843109
7168.0,-0.03820322826504707
7680.0,-0.0190044566988945
8192.0,0.03623310476541519
9216.0,-0.09326308220624924
10240.0,-0.12906956672668457
11264.0,-0.21244463324546814
12288.0,-0.4310857057571411
13312.0,-0.6809186935424805
14336.0,-0.5319063067436218
end
