version,3.0
numOfCh,1
type,point
parent_name,dirty_0dot069-0dot1
ch_type,1_1
kcount,1
numberNandB,1
brightnessNandB,1
carpet pos,0
pc,0
Time (ms),CH1 Auto-Correlation
1.0,1.2851791381835938
2.0,1.2735291719436646
3.0,1.2619664669036865
4.0,1.2507423162460327
5.0,1.2393567562103271
6.0,1.22769296169281
7.0,1.2167307138442993
8.0,1.2055332660675049
9.0,1.1946430206298828
10.0,1.1847065687179565
11.0,1.1747616529464722
12.0,1.1649911403656006
13.0,1.1552404165267944
14.0,1.1453989744186401
15.0,1.1352826356887817
16.0,1.1256033182144165
18.0,1.107149362564087
20.0,1.0887794494628906
22.0,1.0703281164169312
24.0,1.05270516872406
26.0,1.0356640815734863
28.0,1.0193349123001099
30.0,1.0039061307907104
32.0,0.9892690777778625
36.0,0.9627323746681213
40.0,0.9390878677368164
44.0,0.9187610745429993
48.0,0.8996422290802002
52.0,0.8778454661369324
56.0,0.8555294275283813
60.0,0.8332071900367737
64.0,0.8095771074295044
72.0,0.7577288746833801
80.0,0.7078934907913208
88.0,0.667687714099884
96.0,0.6288677453994751
104.0,0.5957861542701721
112.0,0.5722303986549377
120.0,0.547650158405304
128.0,0.5211852192878723
144.0,0.47699254751205444
160.0,0.4455977976322174
176.0,0.4200352728366852
192.0,0.38992050290107727
208.0,0.3563030958175659
224.0,0.31588441133499146
240.0,0.2692389190196991
256.0,0.22486907243728638
288.0,0.12897604703903198
320.0,0.0650700032711029
352.0,0.03317303583025932
384.0,0.013044357299804688
416.0,-0.011107825674116611
448.0,-0.04067084938287735
480.0,-0.05458340048789978
512.0,-0.04963640496134758
576.0,0.015553955920040607
640.0,0.036524347960948944
704.0,-0.013391749933362007
768.0,-0.04994945228099823
832.0,-0.07605480402708054
896.0,-0.10564678907394409
960.0,-0.08320612460374832
1024.0,-0.05892667919397354
1152.0,-0.042409367859363556
1280.0,-0.04908810555934906
1408.0,-0.09006908535957336
1536.0,-0.10072436928749084
1664.0,-0.04598937928676605
1792.0,0.0060367342084646225
1920.0,0.014966809190809727
2048.0,-0.031447675079107285
2304.0,-0.01568838395178318
2560.0,-0.028785016387701035
2816.0,0.19806009531021118
3072.0,0.3816226124763489
3328.0,0.08893445134162903
3584.0,-0.1022556945681572
3840.0,-0.09865181148052216
4096.0,-0.05878450348973274
4608.0,0.0164949931204319
5120.0,-0.04977290704846382
5632.0,-0.12985940277576447
6144.0,-0.09064122289419174
6656.0,-0.11391543596982956
7168.0,0.04755428805947304
7680.0,0.035557594150304794
8192.0,-0.13560819625854492
9216.0,-0.14817261695861816
10240.0,0.10395168513059616
11264.0,-0.143852099776268
12288.0,0.0359596386551857
13312.0,0.10754162073135376
14336.0,0.014136933721601963
end
