version,3.0
numOfCh,1
type,point
parent_name,dirty_0dot069-0dot1
ch_type,1_1
kcount,1
numberNandB,1
brightnessNandB,1
carpet pos,0
pc,0
Time (ms),CH1 Auto-Correlation
1.0,1.4049162864685059
2.0,1.39070725440979
3.0,1.3774927854537964
4.0,1.3643550872802734
5.0,1.3504393100738525
6.0,1.335773229598999
7.0,1.3210434913635254
8.0,1.3070136308670044
9.0,1.2929496765136719
10.0,1.2798271179199219
11.0,1.2665809392929077
12.0,1.2539641857147217
13.0,1.242010235786438
14.0,1.2298065423965454
15.0,1.2176779508590698
16.0,1.2060377597808838
18.0,1.182851791381836
20.0,1.1587055921554565
22.0,1.1350659132003784
24.0,1.1135095357894897
26.0,1.0913457870483398
28.0,1.0696663856506348
30.0,1.04832124710083
32.0,1.0283536911010742
36.0,0.9900410771369934
40.0,0.9527255892753601
44.0,0.9177671074867249
48.0,0.8849772214889526
52.0,0.8578874468803406
56.0,0.8336330652236938
60.0,0.8114184737205505
64.0,0.7905727028846741
72.0,0.7465752959251404
80.0,0.6995649933815002
88.0,0.6604733467102051
96.0,0.6211036443710327
104.0,0.587744414806366
112.0,0.5523424744606018
120.0,0.5174282193183899
128.0,0.49410325288772583
144.0,0.4367465674877167
160.0,0.3715372681617737
176.0,0.32901978492736816
192.0,0.3050154149532318
208.0,0.30147090554237366
224.0,0.3028935194015503
240.0,0.2902382016181946
256.0,0.2730759382247925
288.0,0.19146212935447693
320.0,0.14870412647724152
352.0,0.13161160051822662
384.0,0.12812142074108124
416.0,0.1364343911409378
448.0,0.1836215853691101
480.0,0.2136317789554596
512.0,0.21950431168079376
576.0,0.1901317834854126
640.0,0.14162519574165344
704.0,0.1642388105392456
768.0,0.18538641929626465
832.0,0.14392437040805817
896.0,0.16952486336231232
960.0,0.21157875657081604
1024.0,0.2657598555088043
1152.0,0.29025331139564514
1280.0,0.23399066925048828
1408.0,0.08776483684778214
1536.0,0.13378989696502686
1664.0,0.381518691778183
1792.0,0.3448725640773773
1920.0,0.210678830742836
2048.0,0.07986929267644882
2304.0,-0.005579199641942978
2560.0,0.026000209152698517
2816.0,0.02401217631995678
3072.0,-0.11807458102703094
3328.0,-0.06797058135271072
3584.0,-0.04743184894323349
3840.0,-0.05114702135324478
4096.0,-0.19189688563346863
4608.0,-0.1820569634437561
5120.0,-0.21893873810768127
5632.0,-0.23509034514427185
6144.0,-0.17137117683887482
6656.0,-0.16659162938594818
7168.0,-0.16232886910438538
7680.0,-0.1637740433216095
8192.0,-0.14211493730545044
9216.0,-0.06846583634614944
10240.0,0.0036146168131381273
11264.0,0.06465897709131241
12288.0,0.08256908506155014
13312.0,0.14910338819026947
14336.0,0.16158945858478546
end
