version,3.0
numOfCh,1
type,point
parent_name,dirty_0dot069-0dot1
ch_type,1_1
kcount,1
numberNandB,1
brightnessNandB,1
carpet pos,0
pc,0
Time (ms),CH1 Auto-Correlation
1.0,1.0370433330535889
2.0,1.0250706672668457
3.0,1.0136659145355225
4.0,1.0029656887054443
5.0,0.9919627904891968
6.0,0.9809990525245667
7.0,0.9705368280410767
8.0,0.9604676961898804
9.0,0.9499180316925049
10.0,0.9393088817596436
11.0,0.9296054840087891
12.0,0.9199205040931702
13.0,0.9111688137054443
14.0,0.9023030996322632
15.0,0.893520176410675
16.0,0.8842272162437439
18.0,0.8659349083900452
20.0,0.8484507203102112
22.0,0.8330826759338379
24.0,0.8176373839378357
26.0,0.8009355664253235
28.0,0.7843337655067444
30.0,0.7679637670516968
32.0,0.7523916363716125
36.0,0.7249081134796143
40.0,0.6989894509315491
44.0,0.675014317035675
48.0,0.6535162925720215
52.0,0.6337308287620544
56.0,0.6120779514312744
60.0,0.590141236782074
64.0,0.5660108327865601
72.0,0.5216076970100403
80.0,0.4863853454589844
88.0,0.4582776129245758
96.0,0.4333812892436981
104.0,0.41520121693611145
112.0,0.39987701177597046
120.0,0.38735342025756836
128.0,0.38916632533073425
144.0,0.41321861743927
160.0,0.4344959855079651
176.0,0.44123220443725586
192.0,0.4434203505516052
208.0,0.4355425238609314
224.0,0.41595181822776794
240.0,0.39264339208602905
256.0,0.35180458426475525
288.0,0.25672611594200134
320.0,0.21732480823993683
352.0,0.19053345918655396
384.0,0.1972523331642151
416.0,0.19323711097240448
448.0,0.17967337369918823
480.0,0.136774480342865
512.0,0.09357555955648422
576.0,0.0567508228123188
640.0,0.04840709641575813
704.0,0.0035655826795846224
768.0,0.03293043375015259
832.0,0.03781294450163841
896.0,0.03776705265045166
960.0,0.018777046352624893
1024.0,-0.028350047767162323
1152.0,-0.09075741469860077
1280.0,-0.06244782358407974
1408.0,-0.09725973755121231
1536.0,-0.08159077167510986
1664.0,-0.09530900418758392
1792.0,-0.13317281007766724
1920.0,-0.12168824672698975
2048.0,-0.1410442292690277
2304.0,-0.04723851755261421
2560.0,0.05794883146882057
2816.0,0.03397584706544876
3072.0,-0.029022464528679848
3328.0,-0.09531939774751663
3584.0,-0.10984982550144196
3840.0,-0.14885294437408447
4096.0,-0.15659838914871216
4608.0,-0.10818330943584442
5120.0,-0.030128220096230507
5632.0,-0.0568477064371109
6144.0,0.052696749567985535
6656.0,0.058230023831129074
7168.0,0.03183881565928459
7680.0,0.0801583081483841
8192.0,0.15627595782279968
9216.0,-0.02869180217385292
10240.0,-0.23346087336540222
11264.0,0.19678327441215515
12288.0,-0.06641509383916855
13312.0,-0.0789906308054924
14336.0,0.14764204621315002
end
