version,3.0
numOfCh,1
type,point
parent_name,dirty_0dot069-0dot1
ch_type,1_1
kcount,1
numberNandB,1
brightnessNandB,1
carpet pos,0
pc,0
Time (ms),CH1 Auto-Correlation
1.0,1.1996811628341675
2.0,1.1894872188568115
3.0,1.1783806085586548
4.0,1.1671212911605835
5.0,1.1559065580368042
6.0,1.1442760229110718
7.0,1.1333569288253784
8.0,1.1232070922851562
9.0,1.1134381294250488
10.0,1.1032823324203491
11.0,1.0944998264312744
12.0,1.085701584815979
13.0,1.0770455598831177
14.0,1.0683947801589966
15.0,1.0600569248199463
16.0,1.0515908002853394
18.0,1.034008264541626
20.0,1.0180106163024902
22.0,1.0048407316207886
24.0,0.9902377724647522
26.0,0.9725343585014343
28.0,0.9531962871551514
30.0,0.9353583455085754
32.0,0.9197536706924438
36.0,0.8951165676116943
40.0,0.8726333975791931
44.0,0.8494318127632141
48.0,0.8201358914375305
52.0,0.7879002690315247
56.0,0.7614685893058777
60.0,0.7377789616584778
64.0,0.711894154548645
72.0,0.6565080285072327
80.0,0.6105149984359741
88.0,0.5858579874038696
96.0,0.5558957457542419
104.0,0.5234197378158569
112.0,0.4957987368106842
120.0,0.46322593092918396
128.0,0.43281078338623047
144.0,0.38951531052589417
160.0,0.36420363187789917
176.0,0.32953134179115295
192.0,0.28714707493782043
208.0,0.22913359105587006
224.0,0.16103693842887878
240.0,0.10496091842651367
256.0,0.07148492336273193
288.0,0.05613182485103607
320.0,0.07171999663114548
352.0,0.10573471337556839
384.0,0.14641684293746948
416.0,0.16318140923976898
448.0,0.1643533557653427
480.0,0.15949128568172455
512.0,0.12206560373306274
576.0,0.09284178167581558
640.0,0.041486382484436035
704.0,-0.014330958016216755
768.0,-0.024280939251184464
832.0,-0.03691042959690094
896.0,-0.048573337495326996
960.0,-0.04685811698436737
1024.0,-0.03820814937353134
1152.0,-0.05344975367188454
1280.0,-0.04718359187245369
1408.0,-0.03575045242905617
1536.0,-0.04352952539920807
1664.0,-0.05118449032306671
1792.0,-0.0490262508392334
1920.0,0.006274845451116562
2048.0,0.09043160825967789
2304.0,0.1497398018836975
2560.0,0.06882728636264801
2816.0,0.09337285161018372
3072.0,-0.03603120520710945
3328.0,0.03099171258509159
3584.0,-0.019341610372066498
3840.0,0.009770830161869526
4096.0,-0.004173894878476858
4608.0,-0.05291581153869629
5120.0,-0.06083275377750397
5632.0,0.016021864488720894
6144.0,0.18013039231300354
6656.0,0.049779053777456284
7168.0,-0.0717511922121048
7680.0,-0.06469323486089706
8192.0,-0.017434505745768547
9216.0,-0.035234980285167694
10240.0,-0.10546362400054932
11264.0,-0.13171952962875366
12288.0,-0.1960255354642868
13312.0,-0.19773182272911072
14336.0,-0.07683080434799194
end
