version,3.0
numOfCh,1
type,point
parent_name,dirty_0dot069-0dot1
ch_type,1_1
kcount,1
numberNandB,1
brightnessNandB,1
carpet pos,0
pc,0
Time (ms),CH1 Auto-Correlation
1.0,1.5424054861068726
2.0,1.5320862531661987
3.0,1.5225213766098022
4.0,1.5123571157455444
5.0,1.5019774436950684
6.0,1.491621732711792
7.0,1.4812901020050049
8.0,1.4708738327026367
9.0,1.4609097242355347
10.0,1.451125979423523
11.0,1.4412732124328613
12.0,1.4314963817596436
13.0,1.421463131904602
14.0,1.411337971687317
15.0,1.4014885425567627
16.0,1.3923593759536743
18.0,1.3733104467391968
20.0,1.3555541038513184
22.0,1.3380327224731445
24.0,1.3212487697601318
26.0,1.3048384189605713
28.0,1.28847074508667
30.0,1.2723532915115356
32.0,1.257248044013977
36.0,1.227442979812622
40.0,1.196376919746399
44.0,1.166711449623108
48.0,1.139660120010376
52.0,1.1160757541656494
56.0,1.0962183475494385
60.0,1.079158067703247
64.0,1.064178228378296
72.0,1.039583444595337
80.0,1.0157287120819092
88.0,0.9948498606681824
96.0,0.9748077988624573
104.0,0.9547793865203857
112.0,0.9321722388267517
120.0,0.9098780751228333
128.0,0.8885679841041565
144.0,0.8502755165100098
160.0,0.8189704418182373
176.0,0.7848272323608398
192.0,0.7559574842453003
208.0,0.7437874674797058
224.0,0.7343065738677979
240.0,0.702335000038147
256.0,0.6593708992004395
288.0,0.6106744408607483
320.0,0.6036733388900757
352.0,0.571552038192749
384.0,0.530460000038147
416.0,0.5026738047599792
448.0,0.47669294476509094
480.0,0.4652479290962219
512.0,0.450602263212204
576.0,0.48009854555130005
640.0,0.5071917176246643
704.0,0.48546308279037476
768.0,0.45348086953163147
832.0,0.37800994515419006
896.0,0.2620205581188202
960.0,0.191488116979599
1024.0,0.19643902778625488
1152.0,0.1649622619152069
1280.0,0.18210287392139435
1408.0,0.21547608077526093
1536.0,0.2120206654071808
1664.0,0.042284462600946426
1792.0,-0.018562201410531998
1920.0,0.09912201017141342
2048.0,0.06123282387852669
2304.0,0.18970845639705658
2560.0,0.1573619395494461
2816.0,0.18162719905376434
3072.0,0.10054139792919159
3328.0,-0.021687908098101616
3584.0,-0.18100735545158386
3840.0,-0.15138663351535797
4096.0,-0.2481694370508194
4608.0,-0.31761011481285095
5120.0,-0.23694340884685516
5632.0,-0.26035192608833313
6144.0,-0.27980101108551025
6656.0,-0.26667991280555725
7168.0,-0.18433035910129547
7680.0,-0.042217981070280075
8192.0,-0.12577040493488312
9216.0,-0.2530471682548523
10240.0,-0.13348042964935303
11264.0,-0.06809711456298828
12288.0,0.015710128471255302
13312.0,0.13138119876384735
14336.0,0.2869912087917328
end
