version,3.0
numOfCh,1
type,point
parent_name,dirty_0dot069-0dot1
ch_type,1_1
kcount,1
numberNandB,1
brightnessNandB,1
carpet pos,0
pc,0
Time (ms),CH1 Auto-Correlation
1.0,1.1592315435409546
2.0,1.14393150806427
3.0,1.12881338596344
4.0,1.1146076917648315
5.0,1.101677417755127
6.0,1.0891063213348389
7.0,1.077214241027832
8.0,1.0660399198532104
9.0,1.0551058053970337
10.0,1.0441815853118896
11.0,1.0336360931396484
12.0,1.0244287252426147
13.0,1.0150196552276611
14.0,1.005473256111145
15.0,0.9949387311935425
16.0,0.9848077297210693
18.0,0.9667274951934814
20.0,0.9507451057434082
22.0,0.9364282488822937
24.0,0.9222685694694519
26.0,0.9085171818733215
28.0,0.8961394429206848
30.0,0.8849183320999146
32.0,0.8741791844367981
36.0,0.8555036783218384
40.0,0.8394631743431091
44.0,0.8239022493362427
48.0,0.807227611541748
52.0,0.7868485450744629
56.0,0.7660890221595764
60.0,0.7452060580253601
64.0,0.7249330878257751
72.0,0.6922164559364319
80.0,0.6588168740272522
88.0,0.6262068152427673
96.0,0.5968422889709473
104.0,0.570300817489624
112.0,0.5458729863166809
120.0,0.5245152115821838
128.0,0.5064742565155029
144.0,0.4758703112602234
160.0,0.44284242391586304
176.0,0.39491885900497437
192.0,0.3613712191581726
208.0,0.32623741030693054
224.0,0.28782084584236145
240.0,0.2676866948604584
256.0,0.25477761030197144
288.0,0.22399450838565826
320.0,0.20891739428043365
352.0,0.1806037425994873
384.0,0.15193137526512146
416.0,0.13110683858394623
448.0,0.10795454680919647
480.0,0.11528835445642471
512.0,0.13078252971172333
576.0,0.22691914439201355
640.0,0.24086672067642212
704.0,0.20117473602294922
768.0,0.10029399394989014
832.0,0.03979746997356415
896.0,0.012118402868509293
960.0,0.007314532063901424
1024.0,-0.01775006763637066
1152.0,-0.015398522838950157
1280.0,0.11334822326898575
1408.0,0.13837604224681854
1536.0,0.10551328212022781
1664.0,0.02813572622835636
1792.0,-0.07010146230459213
1920.0,-0.10808694362640381
2048.0,-0.06286352127790451
2304.0,0.06298313289880753
2560.0,0.09905054420232773
2816.0,0.24121634662151337
3072.0,0.1806575357913971
3328.0,0.04499327018857002
3584.0,-0.0814242884516716
3840.0,-0.1535116285085678
4096.0,-0.15357491374015808
4608.0,-0.11490102112293243
5120.0,-0.07091367989778519
5632.0,0.10066810250282288
6144.0,0.02145744115114212
6656.0,-0.22375115752220154
7168.0,-0.25032082200050354
7680.0,-0.23126617074012756
8192.0,-0.15212468802928925
9216.0,-0.02456541359424591
10240.0,-0.06117485836148262
11264.0,0.0045569660142064095
12288.0,0.0075068692676723
13312.0,-0.06669767946004868
14336.0,0.0015752703184261918
end
