version,3.0
numOfCh,1
type,point
parent_name,dirty_0dot069-0dot1
ch_type,1_1
kcount,1
numberNandB,1
brightnessNandB,1
carpet pos,0
pc,0
Time (ms),CH1 Auto-Correlation
1.0,1.1145631074905396
2.0,1.10397469997406
3.0,1.0932022333145142
4.0,1.0828137397766113
5.0,1.071966528892517
6.0,1.0612359046936035
7.0,1.0515289306640625
8.0,1.0416641235351562
9.0,1.031448483467102
10.0,1.0208312273025513
11.0,1.010855793952942
12.0,1.0012238025665283
13.0,0.9923084378242493
14.0,0.9835309982299805
15.0,0.9755948185920715
16.0,0.9675062894821167
18.0,0.9521520137786865
20.0,0.936695396900177
22.0,0.9207807779312134
24.0,0.9044573307037354
26.0,0.888654351234436
28.0,0.8719881772994995
30.0,0.85429447889328
32.0,0.834545373916626
36.0,0.7921996712684631
40.0,0.7512881755828857
44.0,0.7144671678543091
48.0,0.6787093281745911
52.0,0.6423841714859009
56.0,0.6099215149879456
60.0,0.5797243118286133
64.0,0.5523650646209717
72.0,0.5121405124664307
80.0,0.4844474494457245
88.0,0.47085583209991455
96.0,0.4624914228916168
104.0,0.4554828405380249
112.0,0.4535773694515228
120.0,0.44806113839149475
128.0,0.43668651580810547
144.0,0.38494449853897095
160.0,0.3115708529949188
176.0,0.23487423360347748
192.0,0.18436641991138458
208.0,0.16195961833000183
224.0,0.1579689383506775
240.0,0.16674266755580902
256.0,0.18028689920902252
288.0,0.15939101576805115
320.0,0.12590795755386353
352.0,0.14235523343086243
384.0,0.18689343333244324
416.0,0.19460158050060272
448.0,0.17600873112678528
480.0,0.15326769649982452
512.0,0.12210256606340408
576.0,0.03082113340497017
640.0,0.004454426001757383
704.0,0.04697700962424278
768.0,0.06492653489112854
832.0,0.022457217797636986
896.0,-0.007125479634851217
960.0,-0.006954546086490154
1024.0,-0.030867107212543488
1152.0,-0.04993605241179466
1280.0,-0.09157394617795944
1408.0,-0.05370951071381569
1536.0,0.08457189798355103
1664.0,0.25501376390457153
1792.0,0.14601367712020874
1920.0,0.06522763520479202
2048.0,0.049340806901454926
2304.0,0.011267117224633694
2560.0,0.04394936561584473
2816.0,0.06373018771409988
3072.0,-0.06799797713756561
3328.0,-0.08413349092006683
3584.0,-0.08913744240999222
3840.0,-0.020018940791487694
4096.0,-0.05483252927660942
4608.0,0.04777483642101288
5120.0,-0.08656956255435944
5632.0,-0.14974606037139893
6144.0,-0.13333633542060852
6656.0,-0.10751171410083771
7168.0,-0.10832013934850693
7680.0,-0.09154891222715378
8192.0,-0.13923370838165283
9216.0,-0.06424468755722046
10240.0,-0.038009967654943466
11264.0,0.06473510712385178
12288.0,0.10119187086820602
13312.0,0.10853342711925507
14336.0,0.09784075617790222
end
