version,3.0
numOfCh,1
type,point
parent_name,dirty_0dot069-0dot1
ch_type,1_1
kcount,1
numberNandB,1
brightnessNandB,1
carpet pos,0
pc,0
Time (ms),CH1 Auto-Correlation
1.0,0.6217149496078491
2.0,0.6169494986534119
3.0,0.6119750738143921
4.0,0.6074122786521912
5.0,0.6025969386100769
6.0,0.5976848006248474
7.0,0.593097984790802
8.0,0.5885471105575562
9.0,0.584181547164917
10.0,0.580268144607544
11.0,0.5766657590866089
12.0,0.5731249451637268
13.0,0.5695589780807495
14.0,0.5658605098724365
15.0,0.562251091003418
16.0,0.5584063529968262
18.0,0.5507091283798218
20.0,0.5433786511421204
22.0,0.5358083248138428
24.0,0.5288444757461548
26.0,0.5212412476539612
28.0,0.5127688646316528
30.0,0.5044745206832886
32.0,0.4978850781917572
36.0,0.4877122640609741
40.0,0.4792846739292145
44.0,0.47130006551742554
48.0,0.4633246660232544
52.0,0.4550774395465851
56.0,0.44609859585762024
60.0,0.4374660551548004
64.0,0.42906853556632996
72.0,0.4069552421569824
80.0,0.38132116198539734
88.0,0.3572372794151306
96.0,0.33222833275794983
104.0,0.3083454966545105
112.0,0.28609421849250793
120.0,0.26528435945510864
128.0,0.24882422387599945
144.0,0.22950735688209534
160.0,0.2139722853899002
176.0,0.19227607548236847
192.0,0.16944454610347748
208.0,0.15275271236896515
224.0,0.14144091308116913
240.0,0.1324811577796936
256.0,0.12320424616336823
288.0,0.09315558522939682
320.0,0.07221167534589767
352.0,0.0545402429997921
384.0,0.03943713754415512
416.0,0.03631541505455971
448.0,0.04212271422147751
480.0,0.05481266230344772
512.0,0.07533897459506989
576.0,0.09607511013746262
640.0,0.10214653611183167
704.0,0.11148196458816528
768.0,0.10710293799638748
832.0,0.0630624070763588
896.0,0.009037351235747337
960.0,-0.013350690715014935
1024.0,-0.004483326338231564
1152.0,0.03436025604605675
1280.0,0.08393717557191849
1408.0,0.041672348976135254
1536.0,-0.03448078781366348
1664.0,-0.02604689635336399
1792.0,-0.020828813314437866
1920.0,-0.013972780667245388
2048.0,-0.0032152929343283176
2304.0,-0.02948359213769436
2560.0,-0.04383239522576332
2816.0,-0.04429846256971359
3072.0,-0.019907286390662193
3328.0,-0.03202243149280548
3584.0,-0.08375982940196991
3840.0,-0.10810191184282303
4096.0,-0.12745797634124756
4608.0,-0.092793308198452
5120.0,-0.06707540154457092
5632.0,-0.02502276748418808
6144.0,-0.01472189649939537
6656.0,-0.008351253345608711
7168.0,0.014947675168514252
7680.0,0.07124665379524231
8192.0,0.09600178152322769
9216.0,0.054042305797338486
10240.0,-0.05395009368658066
11264.0,-0.01834922656416893
12288.0,-0.013140872120857239
13312.0,-0.018254702910780907
14336.0,-0.008509956300258636
end
