version,3.0
numOfCh,1
type,point
parent_name,dirty_0dot069-0dot1
ch_type,1_1
kcount,1
numberNandB,1
brightnessNandB,1
carpet pos,0
pc,0
Time (ms),CH1 Auto-Correlation
1.0,0.6320835947990417
2.0,0.6237185001373291
3.0,0.6151970028877258
4.0,0.6064162850379944
5.0,0.597780704498291
6.0,0.5905735492706299
7.0,0.583425760269165
8.0,0.5769258141517639
9.0,0.5706049203872681
10.0,0.5645373463630676
11.0,0.5589091777801514
12.0,0.5531562566757202
13.0,0.5476300120353699
14.0,0.5423476099967957
15.0,0.5368340611457825
16.0,0.5313852429389954
18.0,0.5209074020385742
20.0,0.5101175904273987
22.0,0.49911564588546753
24.0,0.4885559678077698
26.0,0.4776597023010254
28.0,0.4663721024990082
30.0,0.4549911618232727
32.0,0.4437987506389618
36.0,0.42826324701309204
40.0,0.41368812322616577
44.0,0.3953157067298889
48.0,0.3777713477611542
52.0,0.3670712411403656
56.0,0.3594677746295929
60.0,0.3534131646156311
64.0,0.34851592779159546
72.0,0.3339582085609436
80.0,0.3270506262779236
88.0,0.31504663825035095
96.0,0.2990688383579254
104.0,0.2916347086429596
112.0,0.2825303077697754
120.0,0.2737559974193573
128.0,0.26359906792640686
144.0,0.2376280575990677
160.0,0.2077510952949524
176.0,0.17640726268291473
192.0,0.1457844376564026
208.0,0.11216165125370026
224.0,0.09155435115098953
240.0,0.0742940753698349
256.0,0.06111438572406769
288.0,0.04734716936945915
320.0,0.04514476656913757
352.0,0.05203506723046303
384.0,0.04837170988321304
416.0,0.05808962881565094
448.0,0.07715695351362228
480.0,0.09435243904590607
512.0,0.11289004236459732
576.0,0.15265774726867676
640.0,0.13532906770706177
704.0,0.11620292067527771
768.0,0.08247409760951996
832.0,0.0506848581135273
896.0,0.03775273635983467
960.0,0.03430480509996414
1024.0,0.03642901033163071
1152.0,0.02706749178469181
1280.0,0.021314743906259537
1408.0,0.013894142583012581
1536.0,0.007824958302080631
1664.0,0.007783775217831135
1792.0,0.0055679213255643845
1920.0,-0.0027480130083858967
2048.0,0.0008790747378952801
2304.0,0.020444806665182114
2560.0,0.010281036607921124
2816.0,0.009455535560846329
3072.0,0.007234215270727873
3328.0,0.03414280712604523
3584.0,0.035281952470541
3840.0,0.012703913263976574
4096.0,0.014744292013347149
4608.0,-0.045203059911727905
5120.0,-0.03681503236293793
5632.0,-0.081788070499897
6144.0,-0.06423086673021317
6656.0,-0.01576814241707325
7168.0,0.07016268372535706
7680.0,-0.004186466336250305
8192.0,-0.08133586496114731
9216.0,-0.007268297486007214
10240.0,-0.011540714651346207
11264.0,-0.021551216021180153
12288.0,-0.07912009954452515
13312.0,-0.07159554958343506
14336.0,-0.11080017685890198
end
