version,3.0
numOfCh,1
type,point
parent_name,dirty_0dot069-0dot1
ch_type,1_1
kcount,1
numberNandB,1
brightnessNandB,1
carpet pos,0
pc,0
Time (ms),CH1 Auto-Correlation
1.0,0.6587094664573669
2.0,0.6501883268356323
3.0,0.6422684192657471
4.0,0.6349608898162842
5.0,0.6275030970573425
6.0,0.6207149624824524
7.0,0.6141172051429749
8.0,0.6072397232055664
9.0,0.6008371710777283
10.0,0.593828558921814
11.0,0.5863383412361145
12.0,0.5781691670417786
13.0,0.5704097747802734
14.0,0.5625539422035217
15.0,0.5556938648223877
16.0,0.5493381023406982
18.0,0.5375041365623474
20.0,0.5255589485168457
22.0,0.5133964419364929
24.0,0.5025079250335693
26.0,0.49301716685295105
28.0,0.484500527381897
30.0,0.4753054678440094
32.0,0.465984970331192
36.0,0.44982773065567017
40.0,0.4357534945011139
44.0,0.42611414194107056
48.0,0.41745635867118835
52.0,0.40952152013778687
56.0,0.4045969247817993
60.0,0.40113863348960876
64.0,0.3980511724948883
72.0,0.3894742429256439
80.0,0.38130077719688416
88.0,0.37079331278800964
96.0,0.3594897985458374
104.0,0.3440043032169342
112.0,0.32680997252464294
120.0,0.3097504675388336
128.0,0.2969419062137604
144.0,0.28129586577415466
160.0,0.27164989709854126
176.0,0.25597572326660156
192.0,0.24466364085674286
208.0,0.24270883202552795
224.0,0.24618807435035706
240.0,0.2369828075170517
256.0,0.23396816849708557
288.0,0.20706887543201447
320.0,0.22273463010787964
352.0,0.2368030995130539
384.0,0.2205200344324112
416.0,0.1962335854768753
448.0,0.15989671647548676
480.0,0.12845256924629211
512.0,0.11781186610460281
576.0,0.10890015214681625
640.0,0.09945143759250641
704.0,0.09379558265209198
768.0,0.0761215090751648
832.0,0.05057140067219734
896.0,0.05648522078990936
960.0,0.07248077541589737
1024.0,0.07562946528196335
1152.0,0.05751578137278557
1280.0,0.04387572407722473
1408.0,0.04520084336400032
1536.0,0.024727705866098404
1664.0,0.035631828010082245
1792.0,0.037027161568403244
1920.0,0.032598838210105896
2048.0,0.05711105838418007
2304.0,0.020039541646838188
2560.0,-0.03393884375691414
2816.0,-0.06395553052425385
3072.0,-0.102642722427845
3328.0,-0.11552955955266953
3584.0,-0.09796804934740067
3840.0,-0.0855628103017807
4096.0,-0.10081294178962708
4608.0,-0.11245890706777573
5120.0,-0.07289721071720123
5632.0,-0.08625519275665283
6144.0,-0.1084287241101265
6656.0,-0.11051829904317856
7168.0,-0.06356240063905716
7680.0,-0.06100697070360184
8192.0,-0.05335566774010658
9216.0,0.0659339651465416
10240.0,0.04278986155986786
11264.0,0.3375389575958252
12288.0,0.08097189664840698
13312.0,0.011913522146642208
14336.0,-0.2346390336751938
end
