version,3.0
numOfCh,1
type,point
parent_name,dirty_0dot069-0dot1
ch_type,1_1
kcount,1
numberNandB,1
brightnessNandB,1
carpet pos,0
pc,0
Time (ms),CH1 Auto-Correlation
1.0,0.2802720367908478
2.0,0.2775210738182068
3.0,0.2748999297618866
4.0,0.2724413275718689
5.0,0.26973628997802734
6.0,0.2669220566749573
7.0,0.26420655846595764
8.0,0.261321097612381
9.0,0.2586461007595062
10.0,0.25587308406829834
11.0,0.2533985376358032
12.0,0.25103244185447693
13.0,0.2485959380865097
14.0,0.24621546268463135
15.0,0.24373801052570343
16.0,0.24116098880767822
18.0,0.23586174845695496
20.0,0.23068974912166595
22.0,0.22579455375671387
24.0,0.22114846110343933
26.0,0.21670465171337128
28.0,0.21259188652038574
30.0,0.2081114500761032
32.0,0.20333702862262726
36.0,0.1931035965681076
40.0,0.18329118192195892
44.0,0.17495796084403992
48.0,0.16811807453632355
52.0,0.16190367937088013
56.0,0.15656426548957825
60.0,0.15280134975910187
64.0,0.14922897517681122
72.0,0.14171646535396576
80.0,0.13715599477291107
88.0,0.13532698154449463
96.0,0.1355692744255066
104.0,0.13505546748638153
112.0,0.13690458238124847
120.0,0.13768480718135834
128.0,0.1355574131011963
144.0,0.12420375645160675
160.0,0.10860269516706467
176.0,0.09006495028734207
192.0,0.07546783238649368
208.0,0.0642574355006218
224.0,0.057392667979002
240.0,0.05574231594800949
256.0,0.050023455172777176
288.0,0.030668925493955612
320.0,0.021256189793348312
352.0,0.019215092062950134
384.0,0.02168831042945385
416.0,0.026181776076555252
448.0,0.037595923990011215
480.0,0.0433531329035759
512.0,0.03984026983380318
576.0,0.040459468960762024
640.0,0.036913931369781494
704.0,0.02884724922478199
768.0,0.022201713174581528
832.0,0.015035641379654408
896.0,0.008914380334317684
960.0,0.01164647564291954
1024.0,0.007333759684115648
1152.0,0.012455052696168423
1280.0,0.005839795805513859
1408.0,0.005808321293443441
1536.0,0.016964802518486977
1664.0,0.02496342919766903
1792.0,0.029800107702612877
1920.0,0.018431784585118294
2048.0,0.014873878099024296
2304.0,0.03704847767949104
2560.0,-0.008256170898675919
2816.0,0.024170739576220512
3072.0,0.014415716752409935
3328.0,-0.00979175791144371
3584.0,0.02436378411948681
3840.0,0.0028831069357693195
4096.0,0.015607833862304688
4608.0,0.019861683249473572
5120.0,-0.011006169952452183
5632.0,-0.021211721003055573
6144.0,-0.024882398545742035
6656.0,-0.01770142652094364
7168.0,-0.031773559749126434
7680.0,-0.0297981109470129
8192.0,-0.03846623748540878
9216.0,-0.03446293994784355
10240.0,-0.029761340469121933
11264.0,-0.0205696914345026
12288.0,-0.01357963401824236
13312.0,-0.008355582132935524
14336.0,0.006292157806456089
end
