version,3.0
numOfCh,1
type,point
parent_name,dirty_0dot069-0dot1
ch_type,1_1
kcount,1
numberNandB,1
brightnessNandB,1
carpet pos,0
pc,0
Time (ms),CH1 Auto-Correlation
1.0,1.4010943174362183
2.0,1.387887716293335
3.0,1.375285029411316
4.0,1.3628793954849243
5.0,1.3507956266403198
6.0,1.338998556137085
7.0,1.327656865119934
8.0,1.3166725635528564
9.0,1.3063430786132812
10.0,1.2956815958023071
11.0,1.2858484983444214
12.0,1.2754533290863037
13.0,1.2653448581695557
14.0,1.2558118104934692
15.0,1.246360182762146
16.0,1.2377235889434814
18.0,1.2203043699264526
20.0,1.203690767288208
22.0,1.187257170677185
24.0,1.1718361377716064
26.0,1.1573193073272705
28.0,1.1448813676834106
30.0,1.133621335029602
32.0,1.1210349798202515
36.0,1.0942095518112183
40.0,1.0680006742477417
44.0,1.0411651134490967
48.0,1.0134931802749634
52.0,0.984924852848053
56.0,0.9578861594200134
60.0,0.9312505722045898
64.0,0.9074574708938599
72.0,0.8703510165214539
80.0,0.8372639417648315
88.0,0.8081837296485901
96.0,0.7816532850265503
104.0,0.7627794146537781
112.0,0.7525843381881714
120.0,0.7466947436332703
128.0,0.7384160161018372
144.0,0.7220442295074463
160.0,0.7107909917831421
176.0,0.7090923190116882
192.0,0.6897299289703369
208.0,0.6685517430305481
224.0,0.6627797484397888
240.0,0.6560872197151184
256.0,0.6448177099227905
288.0,0.6159105896949768
320.0,0.6084249019622803
352.0,0.6133004426956177
384.0,0.6023426055908203
416.0,0.5770590305328369
448.0,0.5456771850585938
480.0,0.5251895189285278
512.0,0.5102456212043762
576.0,0.4737268388271332
640.0,0.4408598840236664
704.0,0.4475555419921875
768.0,0.4177343249320984
832.0,0.35957229137420654
896.0,0.302121639251709
960.0,0.25736939907073975
1024.0,0.2310066521167755
1152.0,0.3500969111919403
1280.0,0.2182929813861847
1408.0,0.09817219525575638
1536.0,0.05846871808171272
1664.0,-0.07279886305332184
1792.0,-0.04198571667075157
1920.0,-0.03829500451683998
2048.0,-0.03037247061729431
2304.0,-0.03163846209645271
2560.0,-0.04918771982192993
2816.0,-0.08684201538562775
3072.0,-0.08937687426805496
3328.0,-0.0620853565633297
3584.0,-0.09816226363182068
3840.0,-0.1224682554602623
4096.0,-0.10731828957796097
4608.0,-0.11700361222028732
5120.0,-0.1482524573802948
5632.0,-0.1767568588256836
6144.0,-0.21104608476161957
6656.0,-0.21563974022865295
7168.0,-0.1834711879491806
7680.0,-0.07922720909118652
8192.0,-0.01901339925825596
9216.0,0.017271747812628746
10240.0,0.06993763893842697
11264.0,-0.020467663183808327
12288.0,-0.23713113367557526
13312.0,-0.1739347279071808
14336.0,-0.5552806854248047
end
