version,3.0
numOfCh,1
type,point
parent_name,dirty_0dot069-0dot1
ch_type,1_1
kcount,1
numberNandB,1
brightnessNandB,1
carpet pos,0
pc,0
Time (ms),CH1 Auto-Correlation
1.0,0.6858534812927246
2.0,0.6791267991065979
3.0,0.6720125079154968
4.0,0.6646574139595032
5.0,0.6578404903411865
6.0,0.6513667702674866
7.0,0.6450510025024414
8.0,0.6388306021690369
9.0,0.6326163411140442
10.0,0.6264278292655945
11.0,0.6204665303230286
12.0,0.614873468875885
13.0,0.6097594499588013
14.0,0.6051520109176636
15.0,0.6009635329246521
16.0,0.5965707898139954
18.0,0.5886355638504028
20.0,0.5810026526451111
22.0,0.5736177563667297
24.0,0.5661454200744629
26.0,0.5588932633399963
28.0,0.5523830652236938
30.0,0.5470410585403442
32.0,0.542869508266449
36.0,0.538347601890564
40.0,0.5353823900222778
44.0,0.5298210382461548
48.0,0.5191839933395386
52.0,0.5045877695083618
56.0,0.4909035563468933
60.0,0.47851601243019104
64.0,0.4659004509449005
72.0,0.44062262773513794
80.0,0.4215846657752991
88.0,0.4058097302913666
96.0,0.38493943214416504
104.0,0.36371171474456787
112.0,0.3470325171947479
120.0,0.33503812551498413
128.0,0.32271096110343933
144.0,0.29005226492881775
160.0,0.2626246213912964
176.0,0.2466450184583664
192.0,0.2308327853679657
208.0,0.20475637912750244
224.0,0.1798502802848816
240.0,0.15916520357131958
256.0,0.1452629119157791
288.0,0.12090154737234116
320.0,0.10665630549192429
352.0,0.09420961886644363
384.0,0.09394735097885132
416.0,0.0777035802602768
448.0,0.06662879139184952
480.0,0.061566486954689026
512.0,0.0574033297598362
576.0,0.06947784125804901
640.0,0.056580800563097
704.0,0.049344394356012344
768.0,0.06723751127719879
832.0,0.08674681931734085
896.0,0.09395048022270203
960.0,0.10701890289783478
1024.0,0.08664913475513458
1152.0,0.050993483513593674
1280.0,0.08175871521234512
1408.0,0.17132095992565155
1536.0,0.12884235382080078
1664.0,0.07798203080892563
1792.0,0.07837633043527603
1920.0,0.05510411038994789
2048.0,0.02709175832569599
2304.0,0.017636287957429886
2560.0,0.007801235653460026
2816.0,-0.030790576711297035
3072.0,-0.020817968994379044
3328.0,-0.015374538488686085
3584.0,0.0405232273042202
3840.0,-0.03464219346642494
4096.0,-0.021702110767364502
4608.0,-0.03782368451356888
5120.0,0.06382965296506882
5632.0,-0.015134179033339024
6144.0,-0.021903641521930695
6656.0,-0.02254493534564972
7168.0,-0.032594721764326096
7680.0,-0.04348604753613472
8192.0,-0.04632407799363136
9216.0,-0.05576686933636665
10240.0,-0.05964468792080879
11264.0,-0.048269789665937424
12288.0,-0.08424418419599533
13312.0,-0.12551839649677277
14336.0,-0.24597367644309998
end
