version,3.0
numOfCh,1
type,point
parent_name,800-cuts
ch_type,1_1
kcount,1
numberNandB,1
brightnessNandB,1
carpet pos,0
pc,0
Time (ms),CH1 Auto-Correlation
1.0,0.03869282454252243
2.0,0.03643621876835823
3.0,0.034298770129680634
4.0,0.032266974449157715
5.0,0.030274035409092903
6.0,0.028374314308166504
7.0,0.026541603729128838
8.0,0.024757668375968933
9.0,0.02305343747138977
10.0,0.021440936252474785
11.0,0.019955389201641083
12.0,0.018557826057076454
13.0,0.017279667779803276
14.0,0.016071509569883347
15.0,0.014923376962542534
16.0,0.013831285759806633
18.0,0.012071962468326092
20.0,0.010709003545343876
22.0,0.00952405110001564
24.0,0.008449201472103596
26.0,0.007297503296285868
28.0,0.006153562106192112
30.0,0.005178400315344334
32.0,0.0044535985216498375
36.0,0.003405143739655614
40.0,0.0025553579907864332
44.0,0.0017875592457130551
48.0,0.001470202230848372
52.0,0.0010524182580411434
56.0,0.0008224666817113757
60.0,0.0008816916379146278
64.0,0.0008722446509636939
72.0,0.0007830651011317968
80.0,0.0005398178473114967
88.0,0.0010432956041768193
96.0,0.002080867299810052
104.0,0.0024458228144794703
112.0,0.0012688079150393605
120.0,0.0009375602239742875
128.0,0.0009351626504212618
144.0,0.0001990281161852181
160.0,0.0009619349148124456
176.0,0.0006224712124094367
192.0,-0.0008697163430042565
208.0,-0.0009714687475934625
224.0,-0.000975836010184139
240.0,-0.0017165238969027996
256.0,-0.0019835999701172113
288.0,-0.0010567535646259785
320.0,-0.0021975445561110973
352.0,-0.0011107019381597638
384.0,-0.0006902341265231371
416.0,-0.0022431504912674427
448.0,-0.0023206635378301144
480.0,-0.002409247914329171
512.0,0.00045333089656196535
576.0,0.001349579426459968
640.0,0.000756771769374609
704.0,0.0009756917716003954
768.0,0.0016800614539533854
832.0,0.000603582477197051
896.0,-0.0016617990331724286
960.0,-0.0010445552179589868
1024.0,0.00013312230294104666
1152.0,0.00033944068127311766
1280.0,0.00019110404537059367
1408.0,-0.0012772554764524102
1536.0,-0.0009191361605189741
1664.0,-0.0009076799033209682
1792.0,0.0009496554266661406
1920.0,0.0004401204932946712
2048.0,0.00021899161220062524
2304.0,-0.00012115803110646084
2560.0,0.00027060016873292625
2816.0,0.001075651845894754
3072.0,-0.00010235505760647357
3328.0,-0.0005084408330731094
3584.0,0.0008173036039806902
3840.0,-0.00023530230100732297
4096.0,0.00019242652342654765
4608.0,-0.0010127376299351454
5120.0,0.0010629551252350211
5632.0,-0.0004741050652228296
6144.0,0.000422045704908669
6656.0,-0.00014671530516352504
7168.0,-0.000440264237113297
7680.0,0.0006397532997652888
8192.0,-0.00023033579054754227
9216.0,-0.00046087513328529894
10240.0,-6.159187614684924e-05
11264.0,1.423986213922035e-05
12288.0,-0.00035776529693976045
13312.0,0.000423998135374859
14336.0,-0.000718044291716069
end
