version,3.0
numOfCh,1
type,point
parent_name,800-cuts
ch_type,1_1
kcount,1
numberNandB,1
brightnessNandB,1
carpet pos,0
pc,0
Time (ms),CH1 Auto-Correlation
1.0,0.06184673309326172
2.0,0.05828811228275299
3.0,0.054925017058849335
4.0,0.0517827533185482
5.0,0.04883211851119995
6.0,0.04608176276087761
7.0,0.04341522231698036
8.0,0.04093318060040474
9.0,0.03855375573039055
10.0,0.036273762583732605
11.0,0.03414580598473549
12.0,0.03211340308189392
13.0,0.030116556212306023
14.0,0.028145208954811096
15.0,0.02627347968518734
16.0,0.024621453136205673
18.0,0.021824004128575325
20.0,0.019175760447978973
22.0,0.016890617087483406
24.0,0.014790443703532219
26.0,0.013094538822770119
28.0,0.011593046598136425
30.0,0.010447918437421322
32.0,0.009346095845103264
36.0,0.007525917608290911
40.0,0.005770092364400625
44.0,0.004159530159085989
48.0,0.0029555337969213724
52.0,0.002103732666000724
56.0,0.00197041523642838
60.0,0.002107145031914115
64.0,0.002426743507385254
72.0,0.00265651592053473
80.0,0.0020641020964831114
88.0,0.0010587164433673024
96.0,0.0007546592387370765
104.0,0.0005102912546135485
112.0,0.00063090561889112
120.0,0.0008577397675253451
128.0,0.000628649489954114
144.0,-6.329737516352907e-05
160.0,-0.0021837831009179354
176.0,-0.001140376552939415
192.0,-0.0010332228848710656
208.0,-0.002073971088975668
224.0,-0.0037976412568241358
240.0,-0.004600984510034323
256.0,-0.002679661847651005
288.0,-0.002391065936535597
320.0,-0.0018058470450341702
352.0,-0.0017679454758763313
384.0,-0.002343950793147087
416.0,0.0004607923037838191
448.0,-0.001652283244766295
480.0,-0.001033505890518427
512.0,0.0004105077823624015
576.0,0.0015399707481265068
640.0,0.00024845803272910416
704.0,0.0034871757961809635
768.0,0.003804960288107395
832.0,-0.00033744072425179183
896.0,-0.003383335890248418
960.0,-0.0010997887002304196
1024.0,-0.0007367697544395924
1152.0,0.0005525195738300681
1280.0,0.00024713113089092076
1408.0,-0.0014121405547484756
1536.0,-0.00022312735382001847
1664.0,-0.0016681302804499865
1792.0,-0.0018135275458917022
1920.0,0.0003823724982794374
2048.0,0.00203132932074368
2304.0,-0.0012294159969314933
2560.0,-0.00138181634247303
2816.0,0.0010551984887570143
3072.0,0.00028810653020627797
3328.0,-0.00028648326406255364
3584.0,-0.0008731498965062201
3840.0,0.0006969106616452336
4096.0,0.0008591741207055748
4608.0,-0.0007987331482581794
5120.0,0.00016626212163828313
5632.0,-0.00020683706679847091
6144.0,0.0004492459702305496
6656.0,-0.0002633781114127487
7168.0,-0.00025240497780032456
7680.0,-0.00087243557209149
8192.0,-0.00026091141626238823
9216.0,0.0008054347708821297
10240.0,6.986715743551031e-05
11264.0,4.203660864732228e-05
12288.0,-0.0006382860010489821
13312.0,0.00018812362395692617
14336.0,0.000786437769420445
end
