version,3.0
numOfCh,1
type,point
parent_name,800-cuts
ch_type,1_1
kcount,1
numberNandB,1
brightnessNandB,1
carpet pos,0
pc,0
Time (ms),CH1 Auto-Correlation
1.0,0.026982758194208145
2.0,0.025572091341018677
3.0,0.02425677515566349
4.0,0.02299506589770317
5.0,0.021756302565336227
6.0,0.02058299072086811
7.0,0.019538437947630882
8.0,0.018522216007113457
9.0,0.017579756677150726
10.0,0.01670140027999878
11.0,0.015893371775746346
12.0,0.015144235454499722
13.0,0.014412383548915386
14.0,0.013708570040762424
15.0,0.013065919280052185
16.0,0.012465916574001312
18.0,0.011326701380312443
20.0,0.010236852802336216
22.0,0.009205253794789314
24.0,0.008256121538579464
26.0,0.007331670727580786
28.0,0.006513697560876608
30.0,0.00573680130764842
32.0,0.005081444978713989
36.0,0.0039883265271782875
40.0,0.003323937999084592
44.0,0.002887421753257513
48.0,0.0025199365336447954
52.0,0.0020091161131858826
56.0,0.001512777293100953
60.0,0.0010547756683081388
64.0,0.000678693235386163
72.0,0.00038210678030736744
80.0,0.0001221580896526575
88.0,1.2789058018825017e-05
96.0,-0.00021733327594120055
104.0,-0.0005030371248722076
112.0,-0.0004940579528920352
120.0,-0.000234913473832421
128.0,-0.0004914256278425455
144.0,-0.0008492207271046937
160.0,-0.0003934040723834187
176.0,0.0002775012399069965
192.0,0.0002369921130593866
208.0,-0.00014619535068050027
224.0,-0.00020888751896563917
240.0,0.0004108285065740347
256.0,0.00024012819631025195
288.0,0.0006195128662511706
320.0,0.0015965118072926998
352.0,0.00023107339802663773
384.0,0.001765005523338914
416.0,0.0017406669212505221
448.0,-0.00031580141512677073
480.0,-0.0003875753900501877
512.0,6.814672815380618e-05
576.0,0.00032153085339814425
640.0,-0.0013400817988440394
704.0,-0.001102400361560285
768.0,-0.0002255843864986673
832.0,0.00042342039523646235
896.0,-0.00047073294990696013
960.0,-6.420472800527932e-06
1024.0,-0.0005709571996703744
1152.0,-0.0010521064978092909
1280.0,0.00010376934369560331
1408.0,-0.0004770350642502308
1536.0,-0.0011916894000023603
1664.0,-0.0004228905017953366
1792.0,-0.0007404288044199347
1920.0,-0.0009201456559821963
2048.0,-0.0003134526195935905
2304.0,0.00036642150371335447
2560.0,0.0003552486596163362
2816.0,-0.00039411100442521274
3072.0,-1.1090002089986228e-06
3328.0,-0.00021321879466995597
3584.0,-0.00010992561146849766
3840.0,0.00035117825609631836
4096.0,0.0007365880883298814
4608.0,-5.7695947361935396e-06
5120.0,-0.0004801494942512363
5632.0,-0.0004979348159395158
6144.0,0.00011277448356850073
6656.0,0.0005072588683106005
7168.0,0.00023136124946177006
7680.0,6.651690637227148e-05
8192.0,0.00013950055290479213
9216.0,-0.0008994427626021206
10240.0,-0.00014851558080408722
11264.0,0.0009626313694752753
12288.0,-6.821324495831504e-05
13312.0,0.0003111952973995358
14336.0,-0.0010814195265993476
end
