version,3.0
numOfCh,1
type,point
parent_name,800-cuts
ch_type,1_1
kcount,1
numberNandB,1
brightnessNandB,1
carpet pos,0
pc,0
Time (ms),CH1 Auto-Correlation
1.0,0.02723720669746399
2.0,0.025773730129003525
3.0,0.024389175698161125
4.0,0.023061364889144897
5.0,0.021812032908201218
6.0,0.020652255043387413
7.0,0.019554905593395233
8.0,0.01855318807065487
9.0,0.01761608012020588
10.0,0.016740363091230392
11.0,0.015908025205135345
12.0,0.015119521878659725
13.0,0.014334635809063911
14.0,0.013611617498099804
15.0,0.012925608083605766
16.0,0.012276007793843746
18.0,0.011063284240663052
20.0,0.009900220669806004
22.0,0.008842181414365768
24.0,0.007868191227316856
26.0,0.0070028300397098064
28.0,0.006266987882554531
30.0,0.00565025070682168
32.0,0.005058065988123417
36.0,0.0038484015967696905
40.0,0.002799459733068943
44.0,0.0020321395713835955
48.0,0.0014538952382281423
52.0,0.0010046270908787847
56.0,0.000618273566942662
60.0,0.00025815426488406956
64.0,1.2984060049348045e-06
72.0,-0.00013977338676340878
80.0,-0.00032875104807317257
88.0,-0.0002249507961096242
96.0,3.8220969145186245e-05
104.0,-0.00011727671517292038
112.0,-0.0004644966684281826
120.0,-0.0007674056687392294
128.0,-0.0005063117714598775
144.0,0.00043055962305516005
160.0,0.0011611002264544368
176.0,0.0010201723780483007
192.0,-0.00013686886813957244
208.0,-0.0011530782794579864
224.0,-0.0013304009335115552
240.0,-0.0011998523259535432
256.0,-0.0007617275114171207
288.0,0.0002712135319598019
320.0,0.0002254849678138271
352.0,0.0005032549379393458
384.0,0.0009178784093819559
416.0,0.000979300937615335
448.0,0.0009382193093188107
480.0,-0.0008477175724692643
512.0,-0.0009325847495347261
576.0,0.0007664606673642993
640.0,-0.001744734705425799
704.0,-0.0005494860815815628
768.0,0.0002360085491091013
832.0,-0.0006734008202329278
896.0,7.603909762110561e-05
960.0,-0.0004374777199700475
1024.0,-0.0013818908482789993
1152.0,0.00018570211250334978
1280.0,-0.0005103573203086853
1408.0,-0.0004513022140599787
1536.0,-0.00014948011084925383
1664.0,0.00017089406901504844
1792.0,0.0002683708444237709
1920.0,0.00038335053250193596
2048.0,-0.00047063545207493007
2304.0,-0.0003872632805723697
2560.0,-0.0006759975221939385
2816.0,-0.0004040526691824198
3072.0,-1.897322181321215e-05
3328.0,-0.0002242518967250362
3584.0,-5.529711052076891e-05
3840.0,0.00019078096374869347
4096.0,0.00012385063746478409
4608.0,0.0005345337558537722
5120.0,6.46986745778122e-06
5632.0,0.0005754951271228492
6144.0,-0.00027428087196312845
6656.0,-0.00020037197100464255
7168.0,-0.0007915504393167794
7680.0,0.00026944061391986907
8192.0,-0.00024340952222701162
9216.0,6.09650305705145e-06
10240.0,0.00016797301941551268
11264.0,-6.895601109135896e-05
12288.0,2.9210708817117848e-05
13312.0,4.869650729233399e-05
14336.0,-0.00048411343595944345
end
