version,3.0
numOfCh,1
type,point
parent_name,800-cuts
ch_type,1_1
kcount,1
numberNandB,1
brightnessNandB,1
carpet pos,0
pc,0
Time (ms),CH1 Auto-Correlation
1.0,0.05855761468410492
2.0,0.0556425116956234
3.0,0.05288748815655708
4.0,0.05022989585995674
5.0,0.047733500599861145
6.0,0.045303136110305786
7.0,0.042951881885528564
8.0,0.04074554145336151
9.0,0.03865082561969757
10.0,0.03667917102575302
11.0,0.03475452959537506
12.0,0.033008985221385956
13.0,0.03134733438491821
14.0,0.029725003987550735
15.0,0.02818836085498333
16.0,0.026646671816706657
18.0,0.023736538365483284
20.0,0.021079061552882195
22.0,0.018893303349614143
24.0,0.016949735581874847
26.0,0.015179936774075031
28.0,0.013622588478028774
30.0,0.012199736200273037
32.0,0.010879648849368095
36.0,0.008523325435817242
40.0,0.006603476125746965
44.0,0.0048872074112296104
48.0,0.0034173175226897
52.0,0.0021089587826281786
56.0,0.0010167149594053626
60.0,0.0003453661047387868
64.0,0.0001309679792029783
72.0,-0.0002834624901879579
80.0,-0.0006864983006380498
88.0,-0.0011260883184149861
96.0,-0.0010676747187972069
104.0,-0.0008333956939168274
112.0,-0.0009972844272851944
120.0,-0.0008540758863091469
128.0,0.00023514284112025052
144.0,0.0018756311619654298
160.0,0.002498788060620427
176.0,0.002558997133746743
192.0,0.0018128333613276482
208.0,0.0006412958027794957
224.0,-0.0014067309675738215
240.0,-0.002590429037809372
256.0,-0.0039849053137004375
288.0,0.00010962590749841183
320.0,0.002470926847308874
352.0,-0.00023508559388574213
384.0,-0.0018048059428110719
416.0,-0.0006128974491730332
448.0,0.0009672828018665314
480.0,-0.00030611094553023577
512.0,-0.0026368245016783476
576.0,-0.0003107742522843182
640.0,0.0018038939451798797
704.0,-0.0001761986204655841
768.0,0.0031532219145447016
832.0,-0.0005199864972382784
896.0,0.001800502184778452
960.0,0.0030585741624236107
1024.0,0.0007924381061457098
1152.0,-0.002266345778480172
1280.0,0.000216946194996126
1408.0,0.0013466051314026117
1536.0,0.0021613757126033306
1664.0,-0.00038744573248550296
1792.0,0.0009815923403948545
1920.0,0.001998115796595812
2048.0,-0.0016414244892075658
2304.0,0.001129376352764666
2560.0,0.0016319765709340572
2816.0,0.0008600034052506089
3072.0,-0.0012008413905277848
3328.0,0.0016999050276353955
3584.0,4.452868233784102e-05
3840.0,-0.0005873569170944393
4096.0,0.0018916025292128325
4608.0,-0.0009501444874331355
5120.0,0.0003033005923498422
5632.0,0.0004146370047237724
6144.0,-0.0017989336047321558
6656.0,0.00022664216521661729
7168.0,-0.0011006849817931652
7680.0,-0.0012742863036692142
8192.0,4.550660742097534e-05
9216.0,0.00021613971330225468
10240.0,-0.0015405096346512437
11264.0,-0.0017689145170152187
12288.0,-0.0005515703232958913
13312.0,0.00029322702903300524
14336.0,-0.0004023231449536979
end
