version,3.0
numOfCh,1
type,point
parent_name,800-cuts
ch_type,1_1
kcount,1
numberNandB,1
brightnessNandB,1
carpet pos,0
pc,0
Time (ms),CH1 Auto-Correlation
1.0,0.10747923702001572
2.0,0.10308672487735748
3.0,0.09890903532505035
4.0,0.09489571303129196
5.0,0.09100888669490814
6.0,0.0873398631811142
7.0,0.08391308784484863
8.0,0.08064376562833786
9.0,0.07749170809984207
10.0,0.07451622188091278
11.0,0.07165165990591049
12.0,0.06887087970972061
13.0,0.0662757158279419
14.0,0.0638597160577774
15.0,0.06154678389430046
16.0,0.059368766844272614
18.0,0.05527617782354355
20.0,0.051397185772657394
22.0,0.04783988371491432
24.0,0.044699110090732574
26.0,0.0419551320374012
28.0,0.03965368494391441
30.0,0.03763142600655556
32.0,0.03570957109332085
36.0,0.03248406574130058
40.0,0.03032694384455681
44.0,0.028365718200802803
48.0,0.026470065116882324
52.0,0.0244548711925745
56.0,0.022807495668530464
60.0,0.021672222763299942
64.0,0.02074769325554371
72.0,0.01928645931184292
80.0,0.016445694491267204
88.0,0.014038411900401115
96.0,0.012512397021055222
104.0,0.012199879623949528
112.0,0.011370723135769367
120.0,0.010066674090921879
128.0,0.008156821131706238
144.0,0.008792196400463581
160.0,0.011392783373594284
176.0,0.013237438164651394
192.0,0.011182566173374653
208.0,0.007870852947235107
224.0,0.00462406687438488
240.0,0.0015108684310689569
256.0,-0.00047799080493859947
288.0,-0.0029512615874409676
320.0,-0.00016793418035376817
352.0,0.0004496978363022208
384.0,-0.0016889696707949042
416.0,0.0013289381749927998
448.0,0.0004828797827940434
480.0,-0.0011338077019900084
512.0,-0.005245384760200977
576.0,-0.004160945303738117
640.0,-0.00832279585301876
704.0,-0.007859200239181519
768.0,-0.0033833289053291082
832.0,-0.0014471819158643484
896.0,-0.0034104720689356327
960.0,-0.00384713988751173
1024.0,-0.003464550245553255
1152.0,-0.000247221760218963
1280.0,0.0028733701910823584
1408.0,0.006175969261676073
1536.0,0.0044834003783762455
1664.0,-0.003807361237704754
1792.0,-0.00431198300793767
1920.0,-0.006736051291227341
2048.0,-0.006312645506113768
2304.0,0.001900149742141366
2560.0,0.0023236763663589954
2816.0,0.000683835765812546
3072.0,-0.0014375608880072832
3328.0,-0.0018165040528401732
3584.0,0.0003813487710431218
3840.0,0.004959858022630215
4096.0,-0.006594785023480654
4608.0,0.0013153383042663336
5120.0,0.004763179924339056
5632.0,0.0026690978556871414
6144.0,-0.003940036054700613
6656.0,-0.0009557102457620203
7168.0,0.0029147176537662745
7680.0,-0.0017520227702334523
8192.0,0.0012408269103616476
9216.0,-0.0025551598519086838
10240.0,0.0015984086785465479
11264.0,-0.0014294004067778587
12288.0,0.0004020724445581436
13312.0,-0.0021539023146033287
14336.0,-0.0011022168910130858
end
