version,3.0
numOfCh,1
type,point
parent_name,800-cuts
ch_type,1_1
kcount,1
numberNandB,1
brightnessNandB,1
carpet pos,0
pc,0
Time (ms),CH1 Auto-Correlation
1.0,0.07789211720228195
2.0,0.07367940992116928
3.0,0.06957405060529709
4.0,0.0657697468996048
5.0,0.062211863696575165
6.0,0.05886887013912201
7.0,0.05582505464553833
8.0,0.05298766866326332
9.0,0.05020582303404808
10.0,0.04744129627943039
11.0,0.04498349875211716
12.0,0.04274037107825279
13.0,0.04054488614201546
14.0,0.038390230387449265
15.0,0.03623740002512932
16.0,0.034276776015758514
18.0,0.03050003945827484
20.0,0.02695465087890625
22.0,0.024077074602246284
24.0,0.021609565243124962
26.0,0.01964723691344261
28.0,0.018027182668447495
30.0,0.016710804775357246
32.0,0.015560616739094257
36.0,0.014020784758031368
40.0,0.01299107912927866
44.0,0.01149209588766098
48.0,0.00953556690365076
52.0,0.00800834596157074
56.0,0.006896174978464842
60.0,0.006075827870517969
64.0,0.005742207635194063
72.0,0.006023372523486614
80.0,0.0052753170020878315
88.0,0.0044906553812325
96.0,0.004428437910974026
104.0,0.003540250938385725
112.0,0.0016990704461932182
120.0,-0.0006245239055715501
128.0,-0.0013129027793183923
144.0,-0.0018442879663780332
160.0,-0.0029165828600525856
176.0,-0.00349597679451108
192.0,-0.0036969990469515324
208.0,-0.0016246249433606863
224.0,0.00012640257773455232
240.0,-0.003626102115958929
256.0,-0.006367999128997326
288.0,-0.0022055308800190687
320.0,-0.0008985820459201932
352.0,0.001035752589814365
384.0,0.0018843190046027303
416.0,0.0008269421523436904
448.0,0.002699013100937009
480.0,0.00039901971467770636
512.0,-0.00028231754549779
576.0,-0.0009842977160587907
640.0,0.000537585117854178
704.0,0.0003378187248017639
768.0,0.0018073719693347812
832.0,0.0055387127213180065
896.0,-0.0005025321734137833
960.0,5.7483481214148924e-05
1024.0,-0.000462966418126598
1152.0,-0.0022779423743486404
1280.0,0.0014048950979486108
1408.0,-0.0005934199434705079
1536.0,-0.0001806728687370196
1664.0,-0.0008447061409242451
1792.0,-0.0001706636685412377
1920.0,0.0017384096281602979
2048.0,0.006435975432395935
2304.0,-0.0002165367768611759
2560.0,0.001167852315120399
2816.0,1.1259960047027562e-05
3072.0,-0.00012989893730264157
3328.0,-0.0014947423478588462
3584.0,0.0007069014827720821
3840.0,0.00024449804914183915
4096.0,-0.0007891920395195484
4608.0,0.0001056195906130597
5120.0,-0.004600171465426683
5632.0,0.00020273582777008414
6144.0,-0.0009471236262470484
6656.0,0.00013418823073152453
7168.0,-0.003630307735875249
7680.0,0.0001682617439655587
8192.0,-0.001060350681655109
9216.0,-0.0017406884580850601
10240.0,0.001840363023802638
11264.0,-0.0007209926843643188
12288.0,0.0010899828048422933
13312.0,0.002058456651866436
14336.0,0.0007892483263276517
end
