version,3.0
numOfCh,1
type,point
parent_name,800-cuts
ch_type,1_1
kcount,1
numberNandB,1
brightnessNandB,1
carpet pos,0
pc,0
Time (ms),CH1 Auto-Correlation
1.0,0.03051426075398922
2.0,0.028702858835458755
3.0,0.02700815536081791
4.0,0.025433925911784172
5.0,0.0239243283867836
6.0,0.022467229515314102
7.0,0.021097980439662933
8.0,0.019809339195489883
9.0,0.018619166687130928
10.0,0.017472757026553154
11.0,0.016412753611803055
12.0,0.015428069978952408
13.0,0.014536775648593903
14.0,0.013707995414733887
15.0,0.012990250252187252
16.0,0.012344027869403362
18.0,0.011105316691100597
20.0,0.010072266682982445
22.0,0.009204810485243797
24.0,0.008416238240897655
26.0,0.007675706874579191
28.0,0.0070439730770885944
30.0,0.006439038552343845
32.0,0.005964283831417561
36.0,0.005335513036698103
40.0,0.004847677890211344
44.0,0.004482544958591461
48.0,0.0040602306835353374
52.0,0.003502936102449894
56.0,0.003046816447749734
60.0,0.0025115516036748886
64.0,0.002080885460600257
72.0,0.0016011814586818218
80.0,0.0007090193103067577
88.0,-0.0001691018114797771
96.0,-0.0005120271816849709
104.0,-0.0005950941704213619
112.0,-0.0005399778601713479
120.0,-0.00030051200883463025
128.0,-0.00025685346918180585
144.0,0.0003720907843671739
160.0,0.0004495242319535464
176.0,7.374849519692361e-05
192.0,-0.0007935349713079631
208.0,-8.888557204045355e-05
224.0,-0.00017466061399318278
240.0,-0.00026260377489961684
256.0,0.00016047130338847637
288.0,0.00042981706792488694
320.0,0.00040276357321999967
352.0,-0.0007204207358881831
384.0,-0.0017951538320630789
416.0,-0.0012469124048948288
448.0,-0.00037453684490174055
480.0,3.246116466470994e-05
512.0,-0.0007990942685864866
576.0,-0.0014994575176388025
640.0,-0.0008251579129137099
704.0,0.00024204929650295526
768.0,-0.0007976299966685474
832.0,-0.0005924852448515594
896.0,0.00021012767683714628
960.0,0.00058035331312567
1024.0,0.0011395042529329658
1152.0,0.0006715958006680012
1280.0,0.00015921973681543022
1408.0,-0.0006204942474141717
1536.0,-0.0002501610142644495
1664.0,-0.0010235827649012208
1792.0,-0.0006609227857552469
1920.0,-4.021359927719459e-05
2048.0,-0.0006273746257647872
2304.0,0.00018185302906204015
2560.0,-0.0006071882671676576
2816.0,-0.00030973239336162806
3072.0,0.00032016311888583004
3328.0,0.00038903544191271067
3584.0,-8.256230103143025e-06
3840.0,-0.0005309206317178905
4096.0,0.0003561316698323935
4608.0,-0.0005005772109143436
5120.0,-9.368285827804357e-05
5632.0,-0.000949150591623038
6144.0,0.0006182138458825648
6656.0,0.00023880356457084417
7168.0,-4.212671046843752e-05
7680.0,0.0007455962477251887
8192.0,-0.000691323250066489
9216.0,0.00010378063598182052
10240.0,0.0004148906737100333
11264.0,-6.906968792463886e-06
12288.0,-0.00031373577076010406
13312.0,-3.8684454921167344e-05
14336.0,7.86277960287407e-05
end
