version,3.0
numOfCh,1
type,point
parent_name,800-cuts
ch_type,1_1
kcount,1
numberNandB,1
brightnessNandB,1
carpet pos,0
pc,0
Time (ms),CH1 Auto-Correlation
1.0,0.026981746777892113
2.0,0.02557019703090191
3.0,0.024289723485708237
4.0,0.023100506514310837
5.0,0.02198096364736557
6.0,0.02089274488389492
7.0,0.019811727106571198
8.0,0.018810050562024117
9.0,0.017933500930666924
10.0,0.017094291746616364
11.0,0.016281291842460632
12.0,0.015516098588705063
13.0,0.01476895809173584
14.0,0.014058388769626617
15.0,0.013381723314523697
16.0,0.012713221833109856
18.0,0.011474426835775375
20.0,0.010387333109974861
22.0,0.009399205446243286
24.0,0.00846075639128685
26.0,0.0075659435242414474
28.0,0.006815800443291664
30.0,0.006138704717159271
32.0,0.005597300361841917
36.0,0.004665701650083065
40.0,0.003858685027807951
44.0,0.0032542371191084385
48.0,0.0027678292244672775
52.0,0.0022113348823040724
56.0,0.0016818681033328176
60.0,0.0012473122915253043
64.0,0.0007994124316610396
72.0,0.0006046802154742181
80.0,0.0004796513239853084
88.0,0.000247721909545362
96.0,-0.00020883696561213583
104.0,-0.0007692265207879245
112.0,-0.0008651562966406345
120.0,-0.0008705013315193355
128.0,-0.0009656089823693037
144.0,1.658500696066767e-05
160.0,0.0009450038778595626
176.0,0.0006798593676649034
192.0,0.0012265663826838136
208.0,0.000724403711501509
224.0,-3.5582230339059606e-05
240.0,-0.00011446027929196134
256.0,0.00025873573031276464
288.0,0.0004691708891186863
320.0,0.001250691944733262
352.0,0.0015133335255086422
384.0,0.0013914628652855754
416.0,0.0012428286718204618
448.0,0.0011011484311893582
480.0,0.0010957285994663835
512.0,0.0013867183588445187
576.0,-0.00030333572067320347
640.0,-6.358527025440708e-05
704.0,-0.00017965424922294915
768.0,-0.00040697763324715197
832.0,-0.00020708014199044555
896.0,0.0007471732096746564
960.0,-0.0008339261403307319
1024.0,-0.0010627120500430465
1152.0,-0.00011715391156030819
1280.0,-0.0001429732801625505
1408.0,0.00036225272924639285
1536.0,0.0008970005437731743
1664.0,-0.0004616958322003484
1792.0,0.0011075689690187573
1920.0,-2.5746316168806516e-05
2048.0,-0.0014246898936107755
2304.0,-0.00015203446673694998
2560.0,-0.0007752613164484501
2816.0,-0.0004993692855350673
3072.0,-0.00017594883684068918
3328.0,0.000646254513412714
3584.0,0.00015220606292132288
3840.0,0.00029202704899944365
4096.0,0.0003364302101545036
4608.0,0.00011194606486242265
5120.0,0.0008436200441792607
5632.0,-0.0001480344944866374
6144.0,-0.00046623946400359273
6656.0,-0.0011414769105613232
7168.0,-0.0012280727969482541
7680.0,-0.00021497135458048433
8192.0,-0.0005050787585787475
9216.0,0.00032643950544297695
10240.0,-0.0003977689193561673
11264.0,-0.000344751839293167
12288.0,-0.00022981708752922714
13312.0,0.0008327685645781457
14336.0,0.00023115998192224652
end
