version,3.0
numOfCh,1
type,point
parent_name,800-cuts
ch_type,1_1
kcount,1
numberNandB,1
brightnessNandB,1
carpet pos,0
pc,0
Time (ms),CH1 Auto-Correlation
1.0,0.030299454927444458
2.0,0.028521209955215454
3.0,0.026899417862296104
4.0,0.02534695900976658
5.0,0.023980671539902687
6.0,0.022719569504261017
7.0,0.02153448946774006
8.0,0.020366404205560684
9.0,0.01927262730896473
10.0,0.018192432820796967
11.0,0.017188454046845436
12.0,0.01625870354473591
13.0,0.01533203013241291
14.0,0.01453183963894844
15.0,0.013796129263937473
16.0,0.013111808337271214
18.0,0.011816541664302349
20.0,0.010701976716518402
22.0,0.009723799303174019
24.0,0.008853492327034473
26.0,0.00804841984063387
28.0,0.007292311172932386
30.0,0.0065020970068871975
32.0,0.005747515708208084
36.0,0.00449343491345644
40.0,0.0032609242480248213
44.0,0.0021373722702264786
48.0,0.001042618416249752
52.0,0.0002766983525361866
56.0,-0.00017175414541270584
60.0,-0.000699843920301646
64.0,-0.001489040208980441
72.0,-0.002102842554450035
80.0,-0.0017633592942729592
88.0,-0.001517195370979607
96.0,-0.0014002270763739944
104.0,-0.001130102202296257
112.0,-0.0006334540667012334
120.0,5.429632801678963e-05
128.0,0.00037003259058110416
144.0,0.0005521475104615092
160.0,0.0003906640049535781
176.0,0.000528649368789047
192.0,0.0005214341217651963
208.0,0.00025400298181921244
224.0,0.0003521564358379692
240.0,-3.46943452314008e-05
256.0,-0.0007398906745947897
288.0,-0.002345453714951873
320.0,-0.0018888828344643116
352.0,7.805502718838397e-06
384.0,0.00016035218141041696
416.0,0.00065578892827034
448.0,0.0008309822878800333
480.0,0.0008751412387937307
512.0,7.000414916547015e-05
576.0,0.0006694859475828707
640.0,0.0009695189073681831
704.0,-0.00021769030718132854
768.0,-0.0005088098696433008
832.0,0.0007203519926406443
896.0,-0.0006263491814024746
960.0,0.00013196811778470874
1024.0,-0.0011211528908461332
1152.0,-8.346865797648206e-05
1280.0,0.0006085961940698326
1408.0,0.0005797174526378512
1536.0,0.0003670628648251295
1664.0,-2.7028334443457425e-05
1792.0,0.00011083898425567895
1920.0,-3.341418050695211e-05
2048.0,0.0005488907918334007
2304.0,0.00017822282097768039
2560.0,-5.653771040670108e-06
2816.0,0.0002830926387105137
3072.0,-0.0004912104923278093
3328.0,6.265622232604073e-06
3584.0,-0.00039572015521116555
3840.0,-0.0001282763696508482
4096.0,-0.00021528141223825514
4608.0,-0.0002088039182126522
5120.0,-0.0003992929123342037
5632.0,-0.00013006228255108
6144.0,2.804565883707255e-05
6656.0,-0.0003692470781970769
7168.0,-0.0003953886334784329
7680.0,-1.60417657752987e-05
8192.0,-0.00045960614806972444
9216.0,0.0001631407649256289
10240.0,-0.0003187305119354278
11264.0,2.702303208934609e-05
12288.0,-8.090450864983723e-05
13312.0,0.0005696036387234926
14336.0,0.0006585395894944668
end
