version,3.0
numOfCh,1
type,point
parent_name,800-cuts
ch_type,1_1
kcount,1
numberNandB,1
brightnessNandB,1
carpet pos,0
pc,0
Time (ms),CH1 Auto-Correlation
1.0,0.0799548327922821
2.0,0.07488341629505157
3.0,0.07046370208263397
4.0,0.06622031331062317
5.0,0.06213598698377609
6.0,0.05829053372144699
7.0,0.054809071123600006
8.0,0.051515575498342514
9.0,0.04831643030047417
10.0,0.04528125002980232
11.0,0.042428065091371536
12.0,0.039731595665216446
13.0,0.037157878279685974
14.0,0.03466616943478584
15.0,0.03233557567000389
16.0,0.030024489387869835
18.0,0.02582135610282421
20.0,0.022338032722473145
22.0,0.019331954419612885
24.0,0.01678074710071087
26.0,0.01434422004967928
28.0,0.012163148261606693
30.0,0.009987856261432171
32.0,0.008086482994258404
36.0,0.005428351927548647
40.0,0.00361446850001812
44.0,0.002144626108929515
48.0,0.0007255426025949419
52.0,-7.87899989518337e-05
56.0,-0.0003193741722498089
60.0,-0.00047043850645422935
64.0,-0.00045201965258456767
72.0,0.00043839888530783355
80.0,0.0008414572803303599
88.0,-4.4401520426617935e-05
96.0,-0.0004889190313406289
104.0,-0.0019043568754568696
112.0,-0.0035410388372838497
120.0,-0.0038081309758126736
128.0,-0.0029964169953018427
144.0,-0.0009071566164493561
160.0,0.0017283320194110274
176.0,0.004913623444736004
192.0,0.00309482729062438
208.0,-0.0010243983706459403
224.0,-0.005108696408569813
240.0,-0.005088211037218571
256.0,-0.005897419527173042
288.0,-0.004544180817902088
320.0,-0.0007100756047293544
352.0,0.002709186403080821
384.0,0.0032605850137770176
416.0,-0.0020482009276747704
448.0,-0.0015265516703948379
480.0,-0.001899822847917676
512.0,-0.0005866869469173253
576.0,-5.851686364621855e-05
640.0,-0.002345066051930189
704.0,-0.00011241262109251693
768.0,-0.000656546966638416
832.0,-0.0019918016623705626
896.0,0.001831931876949966
960.0,0.0013184197014197707
1024.0,-0.00023187039187178016
1152.0,-0.002665875945240259
1280.0,-0.0019321434665471315
1408.0,0.0019127923296764493
1536.0,-0.0011519831605255604
1664.0,-0.0010784058831632137
1792.0,0.0023586535826325417
1920.0,0.00299689918756485
2048.0,0.0011670332169160247
2304.0,-0.00234813941642642
2560.0,-0.0005344782257452607
2816.0,-0.000133588895550929
3072.0,0.0006435106624849141
3328.0,0.0007629235624335706
3584.0,-0.0010123626561835408
3840.0,0.0011396441841498017
4096.0,-0.002117815427482128
4608.0,0.0015218908665701747
5120.0,-0.0008909822790883482
5632.0,-0.0010888132965192199
6144.0,-0.0001789177185855806
6656.0,0.0013114395551383495
7168.0,-0.002419347409158945
7680.0,0.0011473860358819366
8192.0,5.330218482413329e-05
9216.0,0.0001798418816179037
10240.0,-0.0004273461236152798
11264.0,7.99117551650852e-05
12288.0,0.00010358292638557032
13312.0,-0.0004310451331548393
14336.0,-0.00040928396629169583
end
