version,3.0
numOfCh,1
type,point
parent_name,800-cuts
ch_type,1_1
kcount,1
numberNandB,1
brightnessNandB,1
carpet pos,0
pc,0
Time (ms),CH1 Auto-Correlation
1.0,0.08382996171712875
2.0,0.07896094024181366
3.0,0.07438864558935165
4.0,0.07001280039548874
5.0,0.06582079827785492
6.0,0.06185378134250641
7.0,0.05810709670186043
8.0,0.054612964391708374
9.0,0.051350291818380356
10.0,0.04809598997235298
11.0,0.04505632072687149
12.0,0.04231397062540054
13.0,0.03976009413599968
14.0,0.03728305175900459
15.0,0.03511715680360794
16.0,0.033216480165719986
18.0,0.02943255379796028
20.0,0.026113374158740044
22.0,0.02301553636789322
24.0,0.020406052470207214
26.0,0.018060345202684402
28.0,0.01614670641720295
30.0,0.014600523747503757
32.0,0.013091471046209335
36.0,0.010608411394059658
40.0,0.007996644824743271
44.0,0.00533832423388958
48.0,0.003937614616006613
52.0,0.003201972460374236
56.0,0.003093219129368663
60.0,0.0035860748030245304
64.0,0.004566286690533161
72.0,0.006171383894979954
80.0,0.006834183819591999
88.0,0.006104296538978815
96.0,0.005338416900485754
104.0,0.004535698797553778
112.0,0.0026764553040266037
120.0,0.0008408029098063707
128.0,0.0006633854354731739
144.0,0.00019290662021376193
160.0,-0.0005931498017162085
176.0,0.0008672469411976635
192.0,0.0030897916294634342
208.0,0.00478312699124217
224.0,0.0020651265513151884
240.0,-0.00108007388189435
256.0,-0.0016630419995635748
288.0,0.0024253507144749165
320.0,0.0004666194727178663
352.0,0.0035903698299080133
384.0,0.0005093304207548499
416.0,-0.00142498011700809
448.0,0.0002125127793988213
480.0,-0.0005342949298210442
512.0,-0.002362579805776477
576.0,-0.0027667407412081957
640.0,-0.000796015199739486
704.0,0.00017438670329283923
768.0,-0.0005370942526496947
832.0,-0.00016313133528456092
896.0,-0.0008651540847495198
960.0,-0.003123958595097065
1024.0,0.0008514095097780228
1152.0,0.0016849024686962366
1280.0,0.0006127524538896978
1408.0,-0.001445937785319984
1536.0,-0.0004812990373466164
1664.0,-0.0018094953848049045
1792.0,-0.004095303826034069
1920.0,-0.002551366575062275
2048.0,0.00014448758156504482
2304.0,0.0025264297146350145
2560.0,0.0003119763277936727
2816.0,0.0006875282851979136
3072.0,0.000888094597030431
3328.0,-0.0033641585614532232
3584.0,-0.0010269875638186932
3840.0,-0.0001123582260333933
4096.0,-0.001333574764430523
4608.0,-0.0009961759205907583
5120.0,0.003574499161913991
5632.0,0.0019576926715672016
6144.0,-0.0013369910884648561
6656.0,-0.0008463992853648961
7168.0,-0.0018798867240548134
7680.0,-0.0009326268336735666
8192.0,0.001336015178821981
9216.0,-0.002089145826175809
10240.0,0.0018690206343308091
11264.0,-0.0009328159503638744
12288.0,-0.0003126984229311347
13312.0,-0.0008615807164460421
14336.0,-0.0009135384461842477
end
