version,3.0
numOfCh,1
type,point
parent_name,800-cuts
ch_type,1_1
kcount,1
numberNandB,1
brightnessNandB,1
carpet pos,0
pc,0
Time (ms),CH1 Auto-Correlation
1.0,0.024270230904221535
2.0,0.02304476499557495
3.0,0.021879082545638084
4.0,0.02074638195335865
5.0,0.01967591978609562
6.0,0.01869586855173111
7.0,0.01772935688495636
8.0,0.016798697412014008
9.0,0.015905098989605904
10.0,0.015020085498690605
11.0,0.014201478101313114
12.0,0.013400377705693245
13.0,0.01261577196419239
14.0,0.011876431293785572
15.0,0.011197798885405064
16.0,0.010598631575703621
18.0,0.009544404223561287
20.0,0.008608374744653702
22.0,0.007730767596513033
24.0,0.006918712053447962
26.0,0.006115166004747152
28.0,0.005382200703024864
30.0,0.0047174966894090176
32.0,0.004175471141934395
36.0,0.0034412408713251352
40.0,0.002990334527567029
44.0,0.0027068741619586945
48.0,0.0024359754752367735
52.0,0.0021016644313931465
56.0,0.0017829317366704345
60.0,0.001544167404063046
64.0,0.0014389647403731942
72.0,0.001102625043131411
80.0,0.0008046739385463297
88.0,0.0006980646285228431
96.0,0.0006990332040004432
104.0,0.0010915909660980105
112.0,0.0015545566566288471
120.0,0.001699735876172781
128.0,0.0014266438083723187
144.0,0.0007979383808560669
160.0,0.00022907812672201544
176.0,1.0204967111349106e-05
192.0,0.0003688982396852225
208.0,0.0005291502457112074
224.0,0.0004093133029527962
240.0,-1.3415742614597548e-05
256.0,-0.00015677826013416052
288.0,-0.000984068843536079
320.0,-0.00013560618390329182
352.0,0.0003103587660007179
384.0,-0.0006329389289021492
416.0,-0.0014317926252260804
448.0,-0.0004785384517163038
480.0,3.5777941320702666e-06
512.0,-0.0007374589331448078
576.0,-0.0005863260012120008
640.0,-0.00031163214589469135
704.0,0.0003895599511452019
768.0,0.0005875133792869747
832.0,0.0006863138405606151
896.0,0.00021955612464807928
960.0,-0.0009138788445852697
1024.0,-0.0005309123662300408
1152.0,-0.0009331969195045531
1280.0,-0.00014900323003530502
1408.0,4.563090260489844e-05
1536.0,-0.0004987231804989278
1664.0,-0.0007317981799133122
1792.0,-7.548146095359698e-05
1920.0,0.0002722890058066696
2048.0,4.803315096069127e-05
2304.0,-7.819757593097165e-05
2560.0,0.0007061904179863632
2816.0,0.00021122978068888187
3072.0,4.5418164518196136e-06
3328.0,0.0007507957052439451
3584.0,-0.0002119774726452306
3840.0,0.00028999228379689157
4096.0,-0.00020252364629413933
4608.0,-0.0002638890000525862
5120.0,-0.000692115630954504
5632.0,2.325689092685934e-05
6144.0,0.0008231478277593851
6656.0,0.00026116197113879025
7168.0,-0.0003676610649563372
7680.0,-0.0004592409241013229
8192.0,-0.0008450265158899128
9216.0,0.000266166462097317
10240.0,-0.00026949599850922823
11264.0,-7.264985015353886e-06
12288.0,0.00018669800192583352
13312.0,-0.0001506826956756413
14336.0,-0.0005707510863430798
end
