version,3.0
numOfCh,1
type,point
parent_name,800-cuts
ch_type,1_1
kcount,1
numberNandB,1
brightnessNandB,1
carpet pos,0
pc,0
Time (ms),CH1 Auto-Correlation
1.0,0.034287530928850174
2.0,0.03245581313967705
3.0,0.0307606253772974
4.0,0.02912512607872486
5.0,0.02764221839606762
6.0,0.026229556649923325
7.0,0.024904409423470497
8.0,0.02360464632511139
9.0,0.022400712594389915
10.0,0.02126307040452957
11.0,0.02015770599246025
12.0,0.019091997295618057
13.0,0.018040845170617104
14.0,0.017110485583543777
15.0,0.01628151535987854
16.0,0.015491321682929993
18.0,0.014007551595568657
20.0,0.012651428580284119
22.0,0.011476019397377968
24.0,0.010414021089673042
26.0,0.00939997099339962
28.0,0.008425651118159294
30.0,0.007511058356612921
32.0,0.006725703366100788
36.0,0.005419766530394554
40.0,0.004357360303401947
44.0,0.0037566705141216516
48.0,0.003382772672921419
52.0,0.0030048154294490814
56.0,0.0026379378978163004
60.0,0.002278202213346958
64.0,0.002044839318841696
72.0,0.00204691500402987
80.0,0.002098448108881712
88.0,0.0026169477496296167
96.0,0.003462156280875206
104.0,0.0037493258714675903
112.0,0.003468912560492754
120.0,0.0035534105263650417
128.0,0.003346121869981289
144.0,0.0026660901494324207
160.0,0.002321623032912612
176.0,0.001568322186358273
192.0,0.0010476669995114207
208.0,0.0013315376127138734
224.0,0.0016373832477256656
240.0,0.0015702779637649655
256.0,0.0005206140340305865
288.0,-0.0008527422905899584
320.0,-0.0008096809615381062
352.0,0.00036782820825465024
384.0,-5.19215791427996e-05
416.0,0.0004952690796926618
448.0,0.00017609461792744696
480.0,-0.0005815895274281502
512.0,-0.0008403530227951705
576.0,0.0018843944417312741
640.0,0.0011131855426356196
704.0,0.0006838070112280548
768.0,0.002480951603502035
832.0,0.0005062076961621642
896.0,0.0004907613038085401
960.0,0.0006989865796640515
1024.0,-0.00034869703813456
1152.0,-0.000573264027480036
1280.0,-0.0009830468334257603
1408.0,-0.00020989932818338275
1536.0,-0.00026213721139356494
1664.0,-0.001120804576203227
1792.0,-0.0011630184017121792
1920.0,-0.0010539207141846418
2048.0,-0.0010686764726415277
2304.0,0.00012241628428455442
2560.0,-0.0006434042588807642
2816.0,-0.0012760856188833714
3072.0,-0.0005877588992007077
3328.0,0.0016184515552595258
3584.0,-0.0012566018849611282
3840.0,-0.000520267232786864
4096.0,-0.0002443792182020843
4608.0,-0.00023302953923121095
5120.0,-0.0014992374926805496
5632.0,-0.0005776057369075716
6144.0,0.0006521370378322899
6656.0,0.0014570016646757722
7168.0,0.0007142594549804926
7680.0,0.000965004728641361
8192.0,0.0004081089573446661
9216.0,-0.0007764843758195639
10240.0,0.000156963084009476
11264.0,-0.0005999428685754538
12288.0,-2.2630902094533667e-05
13312.0,0.0006138855824247003
14336.0,0.00015517626889050007
end
