version,3.0
numOfCh,1
type,point
parent_name,800-cuts
ch_type,1_1
kcount,1
numberNandB,1
brightnessNandB,1
carpet pos,0
pc,0
Time (ms),CH1 Auto-Correlation
1.0,0.06044917181134224
2.0,0.05696360394358635
3.0,0.05370902270078659
4.0,0.05069214850664139
5.0,0.04780786111950874
6.0,0.04508666321635246
7.0,0.042552705854177475
8.0,0.040166355669498444
9.0,0.03803180903196335
10.0,0.0359274297952652
11.0,0.03397951275110245
12.0,0.03216493874788284
13.0,0.03049805574119091
14.0,0.028918642550706863
15.0,0.02731575258076191
16.0,0.025746414437890053
18.0,0.022691648453474045
20.0,0.01994497887790203
22.0,0.017581673339009285
24.0,0.01559856440871954
26.0,0.013954523019492626
28.0,0.012745116837322712
30.0,0.011866682209074497
32.0,0.011077184230089188
36.0,0.009364045225083828
40.0,0.0077798375859856606
44.0,0.006228222977370024
48.0,0.004319759085774422
52.0,0.0020945363212376833
56.0,-0.00010163641854887828
60.0,-0.001773244934156537
64.0,-0.0028022651094943285
72.0,-0.0025359438732266426
80.0,-0.0012793091591447592
88.0,-0.00031377942650578916
96.0,0.0007296146359294653
104.0,0.0014714057324454188
112.0,0.002666052198037505
120.0,0.00353124993853271
128.0,0.0037048880476504564
144.0,0.000875842641107738
160.0,0.0006068070651963353
176.0,0.0007691539940424263
192.0,0.0012106330832466483
208.0,0.0015401968266814947
224.0,0.0015932477544993162
240.0,0.0011452226899564266
256.0,-0.0005116955726407468
288.0,-0.0008566173491999507
320.0,0.0005370128783397377
352.0,0.0018778563244268298
384.0,-0.00033968794741667807
416.0,-0.0014684731140732765
448.0,-0.0003732655895873904
480.0,-0.0003888282517436892
512.0,0.0008390919538214803
576.0,9.049139043781906e-05
640.0,0.0009271114831790328
704.0,-0.0004940486396662891
768.0,-0.0009103236952796578
832.0,-0.0009144347859546542
896.0,-0.0011610802030190825
960.0,-0.0008155592950060964
1024.0,0.0004901273059658706
1152.0,0.0012135198339819908
1280.0,0.0011115474626421928
1408.0,-0.0001355154236080125
1536.0,-0.0005254090065136552
1664.0,0.0007362707983702421
1792.0,0.0012625388335436583
1920.0,-0.00019659857207443565
2048.0,-0.0008108919719234109
2304.0,0.0005319478223100305
2560.0,0.0004281105939298868
2816.0,-0.0006433338858187199
3072.0,-0.0016098517226055264
3328.0,-0.00029609911143779755
3584.0,-0.0012455997057259083
3840.0,-2.124035199813079e-05
4096.0,0.0011989647755399346
4608.0,-0.0007655838853679597
5120.0,-0.0002526071039028466
5632.0,-0.0006877597770653665
6144.0,-0.0014374019810929894
6656.0,-0.0007019899203442037
7168.0,0.0001926204131450504
7680.0,-0.00012354862701613456
8192.0,-0.001671624486334622
9216.0,0.000497499480843544
10240.0,-0.0002457317023072392
11264.0,0.0010237034875899553
12288.0,-0.0003615768800955266
13312.0,0.0001651251659495756
14336.0,0.0006239388603717089
end
