version,3.0
numOfCh,1
type,point
parent_name,800-cuts
ch_type,1_1
kcount,1
numberNandB,1
brightnessNandB,1
carpet pos,0
pc,0
Time (ms),CH1 Auto-Correlation
1.0,0.10403549671173096
2.0,0.09850727766752243
3.0,0.0933150202035904
4.0,0.08839461207389832
5.0,0.08375077694654465
6.0,0.07933616638183594
7.0,0.07515255361795425
8.0,0.07123544812202454
9.0,0.0676216334104538
10.0,0.06426483392715454
11.0,0.06119216978549957
12.0,0.058152228593826294
13.0,0.05532572790980339
14.0,0.052597399801015854
15.0,0.04999960586428642
16.0,0.04764033108949661
18.0,0.04313944652676582
20.0,0.039096932858228683
22.0,0.035393476486206055
24.0,0.031867824494838715
26.0,0.028544742614030838
28.0,0.025380002334713936
30.0,0.022774934768676758
32.0,0.020752819254994392
36.0,0.018588241189718246
40.0,0.016329610720276833
44.0,0.014004087075591087
48.0,0.01165036205202341
52.0,0.009278136305510998
56.0,0.007901865057647228
60.0,0.007184713613241911
64.0,0.005854413844645023
72.0,0.0033060794230550528
80.0,0.0023390562273561954
88.0,0.00012098325532861054
96.0,-0.0006908039795234799
104.0,0.0004556300991680473
112.0,0.0012976048747077584
120.0,0.0014703747583553195
128.0,-0.0004891421995125711
144.0,-0.0018316492205485702
160.0,-0.0016616525826975703
176.0,-0.0016401505563408136
192.0,-0.0034138273913413286
208.0,-0.003601331263780594
224.0,-0.0025009424425661564
240.0,-0.0013040240155532956
256.0,-0.0006110442918725312
288.0,0.001541712204925716
320.0,0.0010831650579348207
352.0,-0.0007401177426800132
384.0,0.0010564463445916772
416.0,-0.0025339475832879543
448.0,-0.005893192254006863
480.0,-0.0033514448441565037
512.0,-0.003076844848692417
576.0,0.005074154119938612
640.0,0.0009722713148221374
704.0,0.0006876721745356917
768.0,-0.003903779201209545
832.0,0.00018196245946455747
896.0,0.0016464589862152934
960.0,-0.001558191841468215
1024.0,-0.0071816835552453995
1152.0,-0.0014621997252106667
1280.0,-0.003639915492385626
1408.0,0.0029914388433098793
1536.0,-0.0007537352503277361
1664.0,-0.004958563018590212
1792.0,-0.0006188309052959085
1920.0,0.0047385236248373985
2048.0,0.00042972664232365787
2304.0,4.7199071559589356e-05
2560.0,0.0010721998987719417
2816.0,0.0030890870839357376
3072.0,-0.003449629992246628
3328.0,0.0008840058580972254
3584.0,0.0021103143226355314
3840.0,-0.0043770549818873405
4096.0,0.001362623879685998
4608.0,-0.0021900967694818974
5120.0,-0.0007683495641686022
5632.0,-0.000348689645761624
6144.0,0.0004789335944224149
6656.0,-0.0007712059887126088
7168.0,0.0009588700486347079
7680.0,-0.0022985695395618677
8192.0,0.0007794979028403759
9216.0,0.0017626442713662982
10240.0,-0.00123168237041682
11264.0,0.003985214047133923
12288.0,-0.003875128226354718
13312.0,0.0026776071172207594
14336.0,-0.00302563956938684
end
