version,3.0
numOfCh,1
type,point
parent_name,800-cuts
ch_type,1_1
kcount,1
numberNandB,1
brightnessNandB,1
carpet pos,0
pc,0
Time (ms),CH1 Auto-Correlation
1.0,0.07345115393400192
2.0,0.0692855566740036
3.0,0.06531655788421631
4.0,0.0615079402923584
5.0,0.05806734785437584
6.0,0.05484521761536598
7.0,0.05182994529604912
8.0,0.04898340255022049
9.0,0.04624401405453682
10.0,0.04371475428342819
11.0,0.04141419380903244
12.0,0.03930065780878067
13.0,0.03727828711271286
14.0,0.03550459444522858
15.0,0.03395121917128563
16.0,0.03248297795653343
18.0,0.029575638473033905
20.0,0.026687271893024445
22.0,0.02391069382429123
24.0,0.021399833261966705
26.0,0.019140053540468216
28.0,0.016948172822594643
30.0,0.015014687553048134
32.0,0.013473101891577244
36.0,0.01126421894878149
40.0,0.009610419161617756
44.0,0.008403798565268517
48.0,0.007046193350106478
52.0,0.006017620675265789
56.0,0.004770468454807997
60.0,0.0036529202479869127
64.0,0.002914018929004669
72.0,0.0019408779917284846
80.0,0.0012251187581568956
88.0,-0.0005019897362217307
96.0,-0.0015195367159321904
104.0,-0.0027987933717668056
112.0,-0.00297300866805017
120.0,-0.0022576164919883013
128.0,-0.0019226707518100739
144.0,0.0001175316865555942
160.0,0.000783945492003113
176.0,0.0002023382839979604
192.0,-0.0001435870217392221
208.0,0.0008096325909718871
224.0,0.0039016627706587315
240.0,0.006870589219033718
256.0,0.005250786896795034
288.0,0.0013164171250537038
320.0,-0.0022253072820603848
352.0,-0.0021530799567699432
384.0,0.0012225210666656494
416.0,-0.0015061760786920786
448.0,-0.004921646788716316
480.0,-0.0035464109387248755
512.0,-0.0012590385740622878
576.0,0.00028474198188632727
640.0,0.0007939086062833667
704.0,0.0021395785734057426
768.0,0.0033234336879104376
832.0,0.00010952453885693103
896.0,6.5120606450364e-05
960.0,-0.0007585753919556737
1024.0,-0.0021534799598157406
1152.0,-0.0005729466211050749
1280.0,-0.001849562395364046
1408.0,0.0007620829856023192
1536.0,0.0005874338676221669
1664.0,-0.00011892022303072736
1792.0,-0.0008636840502731502
1920.0,-0.00024224109074566513
2048.0,-0.0015689495485275984
2304.0,-0.00011032281327061355
2560.0,-0.0005625315825454891
2816.0,-0.0008934448123909533
3072.0,-0.00053593167103827
3328.0,-0.0010812808759510517
3584.0,-0.0006327515002340078
3840.0,0.00033257200266234577
4096.0,-0.000826791045255959
4608.0,0.001721764449030161
5120.0,-3.022747114300728e-05
5632.0,-4.25598154834006e-05
6144.0,4.8171146772801876e-05
6656.0,7.217890470201382e-06
7168.0,-0.0032031559385359287
7680.0,0.0022044593933969736
8192.0,0.001116810366511345
9216.0,0.00113751704338938
10240.0,-0.0012241838267073035
11264.0,-0.001114102196879685
12288.0,-0.0006272257887758315
13312.0,0.00022026002989150584
14336.0,-0.00012513677938841283
end
