version,3.0
numOfCh,1
type,point
parent_name,800-cuts
ch_type,1_1
kcount,1
numberNandB,1
brightnessNandB,1
carpet pos,0
pc,0
Time (ms),CH1 Auto-Correlation
1.0,0.052852559834718704
2.0,0.04981757700443268
3.0,0.047037482261657715
4.0,0.04431980475783348
5.0,0.04171926528215408
6.0,0.039213452488183975
7.0,0.03687823936343193
8.0,0.03474537283182144
9.0,0.032669637352228165
10.0,0.030745510011911392
11.0,0.02891130931675434
12.0,0.027249278500676155
13.0,0.025738276541233063
14.0,0.02431398443877697
15.0,0.02290545217692852
16.0,0.021532567217946053
18.0,0.019164884462952614
20.0,0.017139019444584846
22.0,0.015282117761671543
24.0,0.013636333867907524
26.0,0.012204093858599663
28.0,0.01076472643762827
30.0,0.00954633578658104
32.0,0.00863147433847189
36.0,0.0069872308522462845
40.0,0.005586178973317146
44.0,0.004573923535645008
48.0,0.004356567747890949
52.0,0.004778510890901089
56.0,0.004835430532693863
60.0,0.004200753290206194
64.0,0.0035324622876942158
72.0,0.002390617039054632
80.0,0.001311269123107195
88.0,0.0008425131672993302
96.0,-1.369700112263672e-05
104.0,-0.0006400181446224451
112.0,-0.0017046997090801597
120.0,-0.0015728705329820514
128.0,-0.0002705940278246999
144.0,0.001208340167067945
160.0,0.0018170556286349893
176.0,0.0022894481662660837
192.0,0.00324018532410264
208.0,0.003019793191924691
224.0,0.002502027666196227
240.0,0.0012954280246049166
256.0,-0.0018353036139160395
288.0,-0.0015153990825638175
320.0,0.001799700316041708
352.0,0.000906378380022943
384.0,0.0029160049743950367
416.0,0.002690498949959874
448.0,0.0009135526488535106
480.0,0.0014385987306013703
512.0,-0.00041017538751475513
576.0,0.00020371003483887762
640.0,-0.0019890666007995605
704.0,-0.0008982833824120462
768.0,0.001585912425071001
832.0,-0.0005292592686600983
896.0,0.0004504357057157904
960.0,-0.0003868803905788809
1024.0,0.0010811924003064632
1152.0,0.0006583589711226523
1280.0,0.00010996698983944952
1408.0,0.0019874759018421173
1536.0,0.0008516497327946126
1664.0,0.0005947576137259603
1792.0,0.001729446230456233
1920.0,0.00028124009259045124
2048.0,-0.0008628342184238136
2304.0,-0.00038048307760618627
2560.0,-0.0005713283899240196
2816.0,-0.0014797566691413522
3072.0,0.00044327304931357503
3328.0,-0.001233976916410029
3584.0,-0.0011077654780820012
3840.0,0.0008045180002227426
4096.0,-0.0011858372017741203
4608.0,-0.0005942945717833936
5120.0,-0.00044082969543524086
5632.0,-0.0009568077512085438
6144.0,0.000211179576581344
6656.0,-0.001374888583086431
7168.0,-0.0011280108010396361
7680.0,0.000193922795006074
8192.0,0.0013272741343826056
9216.0,0.0002657031000126153
10240.0,0.0005012555629946291
11264.0,0.0010068874107673764
12288.0,-0.0029992186464369297
13312.0,-0.00038993146154098213
14336.0,0.0035162405110895634
end
