version,3.0
numOfCh,1
type,point
parent_name,800-cuts
ch_type,1_1
kcount,1
numberNandB,1
brightnessNandB,1
carpet pos,0
pc,0
Time (ms),CH1 Auto-Correlation
1.0,0.06118012219667435
2.0,0.05768167972564697
3.0,0.05442328751087189
4.0,0.05134924128651619
5.0,0.048468511551618576
6.0,0.04580182209610939
7.0,0.04329730197787285
8.0,0.04091660678386688
9.0,0.03871036693453789
10.0,0.036532703787088394
11.0,0.034482114017009735
12.0,0.032555777579545975
13.0,0.030781429260969162
14.0,0.029056202620267868
15.0,0.027419887483119965
16.0,0.025732794776558876
18.0,0.022547084838151932
20.0,0.01988614909350872
22.0,0.017595194280147552
24.0,0.015555597841739655
26.0,0.013594109565019608
28.0,0.01158786192536354
30.0,0.01004114095121622
32.0,0.00874088704586029
36.0,0.00685836561024189
40.0,0.005465899594128132
44.0,0.004317237064242363
48.0,0.0035596992820501328
52.0,0.0030495349783450365
56.0,0.0029050905723124743
60.0,0.0029806706588715315
64.0,0.0030096489936113358
72.0,0.002568930620327592
80.0,0.002623325912281871
88.0,0.0028350534848868847
96.0,0.0033736370969563723
104.0,0.0031664783600717783
112.0,0.0020560731645673513
120.0,0.0006282851099967957
128.0,-0.0014168599154800177
144.0,-0.0020386807154864073
160.0,-0.00010605072020553052
176.0,-0.0007270532660186291
192.0,-0.0022880721371620893
208.0,-0.0029998088721185923
224.0,-0.003411978716030717
240.0,-0.003621875075623393
256.0,-0.0019713900983333588
288.0,-0.0026356170419603586
320.0,1.1096355592599139e-05
352.0,0.000846575538162142
384.0,0.0023663099855184555
416.0,0.0007530960720032454
448.0,0.00032572049531154335
480.0,0.0015143235214054585
512.0,0.0009298096410930157
576.0,-9.682290692580864e-05
640.0,-0.0014808416599407792
704.0,0.00095849932404235
768.0,-0.00030367213184945285
832.0,-0.0020292731933295727
896.0,-0.0023353665601462126
960.0,-0.0011903351405635476
1024.0,-6.935480632819235e-05
1152.0,0.00025841090246103704
1280.0,-0.0009662288939580321
1408.0,0.0007862676284275949
1536.0,0.0010985203552991152
1664.0,0.0016015925211831927
1792.0,0.0010400917381048203
1920.0,-7.5011344051745255e-06
2048.0,0.0010803563054651022
2304.0,-0.0004771238309331238
2560.0,-0.0009328524465672672
2816.0,-0.001285951235331595
3072.0,0.00020401645451784134
3328.0,-0.0006493846303783357
3584.0,-0.0004742903693113476
3840.0,-0.0013313587987795472
4096.0,0.0005600881413556635
4608.0,-0.0005402271635830402
5120.0,-0.0015593486605212092
5632.0,-0.0003375789674464613
6144.0,0.0016222915146499872
6656.0,-0.00120462232735008
7168.0,0.0005586038460023701
7680.0,0.0009120915783569217
8192.0,0.00016611335740890354
9216.0,0.0003098072484135628
10240.0,4.0952363633550704e-05
11264.0,7.23275079508312e-05
12288.0,-0.0007038104813545942
13312.0,-0.00041999731911346316
14336.0,0.00031986975227482617
end
