version,3.0
numOfCh,1
type,point
parent_name,800-cuts
ch_type,1_1
kcount,1
numberNandB,1
brightnessNandB,1
carpet pos,0
pc,0
Time (ms),CH1 Auto-Correlation
1.0,0.05921994522213936
2.0,0.0559350810945034
3.0,0.05275522544980049
4.0,0.049792613834142685
5.0,0.04683966562151909
6.0,0.044072575867176056
7.0,0.04156302288174629
8.0,0.03921972215175629
9.0,0.03700388967990875
10.0,0.034915197640657425
11.0,0.03298826515674591
12.0,0.031212950125336647
13.0,0.029542598873376846
14.0,0.028035905212163925
15.0,0.026697328314185143
16.0,0.02549341879785061
18.0,0.0232655331492424
20.0,0.021163031458854675
22.0,0.018972380086779594
24.0,0.016805777326226234
26.0,0.014849364757537842
28.0,0.012996705248951912
30.0,0.011230041272938251
32.0,0.009757991880178452
36.0,0.007749918848276138
40.0,0.006193759385496378
44.0,0.004609465133398771
48.0,0.002872626995667815
52.0,0.0009309292072430253
56.0,-0.0006570733385160565
60.0,-0.0015931493835523725
64.0,-0.0023086227010935545
72.0,-0.0028432642575353384
80.0,-0.0024212368298321962
88.0,-0.0018031244399026036
96.0,-0.0008516423986293375
104.0,0.00039355512126348913
112.0,0.001119486871175468
120.0,0.0012504232581704855
128.0,0.0013876681914553046
144.0,0.00039941276190802455
160.0,0.0003337291127536446
176.0,0.000770249345805496
192.0,0.002428426407277584
208.0,0.0014671843964606524
224.0,0.00013286995817907155
240.0,-0.00027257410692982376
256.0,-0.00012144370703026652
288.0,0.0020981440320611
320.0,0.0021525262854993343
352.0,0.0026494807098060846
384.0,6.818112979090074e-06
416.0,-0.00021687972184736282
448.0,0.0017386010149493814
480.0,0.0006551730912178755
512.0,-0.00046720585669390857
576.0,0.0013608864974230528
640.0,-0.0009113663109019399
704.0,-0.001861648983322084
768.0,-0.0006014152895659208
832.0,0.0008671309915371239
896.0,-0.0034008987713605165
960.0,-0.002436581300571561
1024.0,0.00026038484065793455
1152.0,-0.0015778683591634035
1280.0,0.0003047015343327075
1408.0,-0.00016414531273767352
1536.0,0.0025018788874149323
1664.0,0.001886329147964716
1792.0,0.0007937052869237959
1920.0,0.0006057934369891882
2048.0,-0.00010050658602267504
2304.0,-0.0013285327004268765
2560.0,-0.001655715168453753
2816.0,-0.0010348696960136294
3072.0,-0.00028731152997352183
3328.0,0.0009117379086092114
3584.0,-0.0004080681537743658
3840.0,-0.0008481009863317013
4096.0,-0.0005837781354784966
4608.0,0.0009895565453916788
5120.0,0.0010381375905126333
5632.0,-0.0007535891490988433
6144.0,4.960200749337673e-05
6656.0,1.5274728866643272e-05
7168.0,-0.0019656228832900524
7680.0,0.0008788242121227086
8192.0,0.0006473857210949063
9216.0,-0.00032217317493632436
10240.0,-0.0003124101203866303
11264.0,-0.0009620038908906281
12288.0,-0.0015056722331792116
13312.0,0.0020640490110963583
14336.0,-3.575267692212947e-05
end
