version,3.0
numOfCh,1
type,point
parent_name,800-cuts
ch_type,1_1
kcount,1
numberNandB,1
brightnessNandB,1
carpet pos,0
pc,0
Time (ms),CH1 Auto-Correlation
1.0,0.06777605414390564
2.0,0.0638149231672287
3.0,0.05997217446565628
4.0,0.05633874237537384
5.0,0.05286914110183716
6.0,0.049644600600004196
7.0,0.04654872417449951
8.0,0.04373663663864136
9.0,0.04103347286581993
10.0,0.03844311833381653
11.0,0.036119624972343445
12.0,0.033870819956064224
13.0,0.031765107065439224
14.0,0.029803501442074776
15.0,0.027979688718914986
16.0,0.026190314441919327
18.0,0.02300395257771015
20.0,0.02033158205449581
22.0,0.018044115975499153
24.0,0.015801673755049706
26.0,0.01349369902163744
28.0,0.011466939933598042
30.0,0.0096293268725276
32.0,0.008056472055613995
36.0,0.006093720905482769
40.0,0.005034796893596649
44.0,0.0041475980542600155
48.0,0.002772356616333127
52.0,0.0016092447331175208
56.0,0.0006245024269446731
60.0,-0.00010757541167549789
64.0,-0.00042667731759138405
72.0,-0.0009417064138688147
80.0,-0.0015452736988663673
88.0,-0.0026900186203420162
96.0,-0.003119133412837982
104.0,-0.0021589091047644615
112.0,-0.0014482870465144515
120.0,-0.0005148460622876883
128.0,0.0006579161854460835
144.0,0.00316145783290267
160.0,0.0041366866789758205
176.0,0.004220893140882254
192.0,0.0031479329336434603
208.0,0.0002778675116132945
224.0,-0.0005854206974618137
240.0,-0.002298810286447406
256.0,-0.003224215703085065
288.0,-0.0012457063421607018
320.0,0.0012674347963184118
352.0,0.0018956245621666312
384.0,0.0009551048860885203
416.0,0.00021330708113964647
448.0,0.0016434526769444346
480.0,-0.00040222620009444654
512.0,-0.0023140273988246918
576.0,-0.002568687777966261
640.0,0.0006444260943681002
704.0,-0.0032734160777181387
768.0,0.0013476550811901689
832.0,0.0011625500628724694
896.0,-0.0029232583474367857
960.0,-0.0010318538406863809
1024.0,0.001282977988012135
1152.0,-2.9934475605841726e-05
1280.0,-0.0031399319414049387
1408.0,0.0004966427222825587
1536.0,-0.00104427058249712
1664.0,-0.0006966349319554865
1792.0,0.003565046004951
1920.0,0.0006364321452565491
2048.0,0.0002770732680801302
2304.0,-0.0005807526758871973
2560.0,0.001099522109143436
2816.0,0.00015329952293541282
3072.0,-0.0009640253847464919
3328.0,0.001148860901594162
3584.0,0.0009840972488746047
3840.0,-0.0020669822115451097
4096.0,-0.0014207216445356607
4608.0,0.0004408325476106256
5120.0,-0.0014856007182970643
5632.0,-0.00031278113601729274
6144.0,-0.00034964934457093477
6656.0,8.848934157867916e-06
7168.0,-0.0003947906952816993
7680.0,0.0005242572515271604
8192.0,-0.0013962192460894585
9216.0,-0.00042538929847069085
10240.0,5.237562072579749e-05
11264.0,0.002066734479740262
12288.0,-0.001846279134042561
13312.0,0.0016460587503388524
14336.0,-0.0007482444052584469
end
