version,3.0
numOfCh,1
type,point
parent_name,800-cuts
ch_type,1_1
kcount,1
numberNandB,1
brightnessNandB,1
carpet pos,0
pc,0
Time (ms),CH1 Auto-Correlation
1.0,0.07112933695316315
2.0,0.06732819229364395
3.0,0.0636308565735817
4.0,0.06013530492782593
5.0,0.05679938569664955
6.0,0.05357246473431587
7.0,0.05048761144280434
8.0,0.0475735068321228
9.0,0.04468625783920288
10.0,0.04198959842324257
11.0,0.0393756702542305
12.0,0.03689270094037056
13.0,0.03459997475147247
14.0,0.032424576580524445
15.0,0.03028320148587227
16.0,0.02831459231674671
18.0,0.025060774758458138
20.0,0.022222427651286125
22.0,0.01951746456325054
24.0,0.017167652025818825
26.0,0.015047640539705753
28.0,0.013250451534986496
30.0,0.011861322447657585
32.0,0.010694867931306362
36.0,0.009214311838150024
40.0,0.007998413406312466
44.0,0.0067323059774935246
48.0,0.005681280046701431
52.0,0.004990185145288706
56.0,0.00437985360622406
60.0,0.0036671895068138838
64.0,0.003540275152772665
72.0,0.003673781407997012
80.0,0.0032635005190968513
88.0,0.0020093710627406836
96.0,0.0005746912793256342
104.0,0.0006132340640760958
112.0,0.0012739663943648338
120.0,0.0018611643463373184
128.0,0.0037282060366123915
144.0,0.00597821269184351
160.0,0.007795918267220259
176.0,0.00628112256526947
192.0,0.0013416315196081996
208.0,-0.0020010359585285187
224.0,-0.0019395387498661876
240.0,-0.00019608861475717276
256.0,0.00027160707395523787
288.0,-0.0003178928163833916
320.0,0.0009977935114875436
352.0,0.000224646893911995
384.0,-0.000636566081084311
416.0,-0.0009931199019774795
448.0,0.0017088743625208735
480.0,0.002490215701982379
512.0,0.0015247594565153122
576.0,-0.003317821305245161
640.0,-0.001631688792258501
704.0,-0.002284010173752904
768.0,-0.002787222620099783
832.0,-0.0008754860609769821
896.0,-0.002219344023615122
960.0,0.0008845861884765327
1024.0,0.0007858956814743578
1152.0,0.0016327195335179567
1280.0,0.0010654525831341743
1408.0,0.0007939264178276062
1536.0,0.0006097827572375536
1664.0,0.0014767745742574334
1792.0,-0.001017551519908011
1920.0,-0.004022517241537571
2048.0,-0.003165803151205182
2304.0,-0.00031452777329832315
2560.0,-0.0014706413494423032
2816.0,0.0009708040743134916
3072.0,-0.0025562241207808256
3328.0,-0.0017631032969802618
3584.0,-0.0009938833536580205
3840.0,0.002563789952546358
4096.0,0.0008685106295160949
4608.0,-0.0017389004351571202
5120.0,0.0018400837434455752
5632.0,0.0010864532086998224
6144.0,-0.002158417599275708
6656.0,0.002211617538705468
7168.0,-0.0011578877456486225
7680.0,0.0010481684003025293
8192.0,-0.0009108866797760129
9216.0,0.00034823562600649893
10240.0,-0.0007323284517042339
11264.0,-0.0008371678995899856
12288.0,0.0005680599715560675
13312.0,0.0020653773099184036
14336.0,-0.0008702175691723824
end
