version,3.0
numOfCh,1
type,point
parent_name,800-cuts
ch_type,1_1
kcount,1
numberNandB,1
brightnessNandB,1
carpet pos,0
pc,0
Time (ms),CH1 Auto-Correlation
1.0,0.07154925167560577
2.0,0.06745661050081253
3.0,0.06361652165651321
4.0,0.060101304203271866
5.0,0.056655384600162506
6.0,0.05330909788608551
7.0,0.05018433555960655
8.0,0.04722784087061882
9.0,0.04445173963904381
10.0,0.04177718237042427
11.0,0.03913578391075134
12.0,0.036758627742528915
13.0,0.03453049436211586
14.0,0.03244825825095177
15.0,0.030461089685559273
16.0,0.028571443632245064
18.0,0.025158880278468132
20.0,0.022321615368127823
22.0,0.01987946778535843
24.0,0.01789890229701996
26.0,0.01619628816843033
28.0,0.01471177488565445
30.0,0.013186231255531311
32.0,0.011738470755517483
36.0,0.010068208910524845
40.0,0.008708360604941845
44.0,0.007222815882414579
48.0,0.005986651871353388
52.0,0.004921271465718746
56.0,0.004235789645463228
60.0,0.0037582169752568007
64.0,0.0032325757201761007
72.0,0.0018804398132488132
80.0,0.00045939002302475274
88.0,-0.0015674422029405832
96.0,-0.00352085311897099
104.0,-0.004039257299154997
112.0,-0.003659950802102685
120.0,-0.0025563256349414587
128.0,-0.0006355852237902582
144.0,0.0007454970618709922
160.0,0.0005235236021690071
176.0,-0.0004335964913479984
192.0,-0.0025318015832453966
208.0,-0.002722948556765914
224.0,-0.0008922888664528728
240.0,0.00023007040726952255
256.0,9.045847036759369e-06
288.0,-0.003131620120257139
320.0,0.0004917655605822802
352.0,-0.0027067449409514666
384.0,-0.0012329077580943704
416.0,0.00045053710346110165
448.0,-0.0003821949940174818
480.0,-5.651459650835022e-05
512.0,0.00010212613415205851
576.0,-0.0017864960245788097
640.0,-0.005680598318576813
704.0,-0.0017081546830013394
768.0,0.0009860818972811103
832.0,-0.002035680925473571
896.0,0.001461585401557386
960.0,0.00196907133795321
1024.0,0.0019402140751481056
1152.0,-6.619893611059524e-06
1280.0,-0.001997987274080515
1408.0,0.000144595091114752
1536.0,0.0021876904647797346
1664.0,-0.0014094555517658591
1792.0,0.002437761751934886
1920.0,-0.0008288410608656704
2048.0,0.0012038584100082517
2304.0,-0.00191251072101295
2560.0,-0.0007424970390275121
2816.0,0.00029199247364886105
3072.0,0.0025991681031882763
3328.0,-8.937672100728378e-05
3584.0,-9.77854597294936e-06
3840.0,-0.0006555843283422291
4096.0,0.00036930537316948175
4608.0,0.00047574323252774775
5120.0,-0.0004792296385858208
5632.0,-0.0006936705322004855
6144.0,-0.00013406157086137682
6656.0,0.0006374786025844514
7168.0,-0.0011417828500270844
7680.0,0.0022983048111200333
8192.0,-0.0016947677358984947
9216.0,-7.287815969903022e-05
10240.0,0.0011901786783710122
11264.0,-0.0018760096281766891
12288.0,0.000307703681755811
13312.0,0.00041051319567486644
14336.0,-0.002147830557078123
end
