version,3.0
numOfCh,1
type,point
parent_name,800-cuts
ch_type,1_1
kcount,1
numberNandB,1
brightnessNandB,1
carpet pos,0
pc,0
Time (ms),CH1 Auto-Correlation
1.0,0.022625410929322243
2.0,0.021341916173696518
3.0,0.020126618444919586
4.0,0.018942667171359062
5.0,0.017825458198785782
6.0,0.01677476055920124
7.0,0.0158192478120327
8.0,0.014936833642423153
9.0,0.014140070416033268
10.0,0.01337509322911501
11.0,0.012648518197238445
12.0,0.0119759077206254
13.0,0.011337438598275185
14.0,0.01073793787509203
15.0,0.010142981074750423
16.0,0.009593803435564041
18.0,0.008534871973097324
20.0,0.007517892401665449
22.0,0.0066278837621212006
24.0,0.005868887063115835
26.0,0.005154671147465706
28.0,0.004569538868963718
30.0,0.00406849617138505
32.0,0.003688478609547019
36.0,0.003058807225897908
40.0,0.002488860161975026
44.0,0.001852814806625247
48.0,0.0012710843002423644
52.0,0.0008690841495990753
56.0,0.00047985350829549134
60.0,0.00014261998876463622
64.0,-2.6692050596466288e-05
72.0,-0.0006885589682497084
80.0,-0.0011054787319153547
88.0,-0.0009803206194192171
96.0,-0.0006905828486196697
104.0,-0.0008174063405022025
112.0,-0.0010467729298397899
120.0,-0.0012844965094700456
128.0,-0.001006131642498076
144.0,-0.00011667351645883173
160.0,-4.647912282962352e-05
176.0,7.434139115503058e-05
192.0,0.00013932709407527
208.0,0.0007803894113749266
224.0,0.0011438498040661216
240.0,0.0010662964778020978
256.0,0.000568956311326474
288.0,6.136042065918446e-05
320.0,-0.0005580471479333937
352.0,-0.0006033362005837262
384.0,0.00026019164943136275
416.0,0.0008179771830327809
448.0,0.0010327650234103203
480.0,0.00024775826022960246
512.0,-0.0008163665188476443
576.0,-0.0007621081313118339
640.0,0.0006463294266723096
704.0,0.00020289263920858502
768.0,-0.0007525334367528558
832.0,-0.0008532695355825126
896.0,0.000607500784099102
960.0,-4.447692845133133e-05
1024.0,1.083396182366414e-05
1152.0,-5.8023957535624504e-05
1280.0,-0.00039057558751665056
1408.0,0.00021093376562930644
1536.0,-6.675510667264462e-05
1664.0,0.00027610783581621945
1792.0,0.00017159731942228973
1920.0,-0.0003651238221209496
2048.0,-0.0005291879642754793
2304.0,-4.4031174184056e-05
2560.0,-0.00021917856065556407
2816.0,1.8895290850196034e-05
3072.0,0.00033933998201973736
3328.0,-0.00012027087359456345
3584.0,-0.00035581283736974
3840.0,-0.0006250725709833205
4096.0,-3.012581328221131e-05
4608.0,0.0006260807858780026
5120.0,-0.00017277772712986916
5632.0,0.00025044672656804323
6144.0,0.0003148418909404427
6656.0,-0.00028410498634912074
7168.0,-0.0004125960113015026
7680.0,-0.0005904241115786135
8192.0,-0.0002920768747571856
9216.0,0.00018762476975098252
10240.0,-0.0001617133675608784
11264.0,0.0003607087128330022
12288.0,-0.0006987391388975084
13312.0,-0.00024054937239270657
14336.0,0.0004254317609593272
end
