version,3.0
numOfCh,1
type,point
parent_name,800-cuts
ch_type,1_1
kcount,1
numberNandB,1
brightnessNandB,1
carpet pos,0
pc,0
Time (ms),CH1 Auto-Correlation
1.0,0.025478597730398178
2.0,0.024021409451961517
3.0,0.0226631760597229
4.0,0.02142823114991188
5.0,0.020246075466275215
6.0,0.01915266364812851
7.0,0.018095018342137337
8.0,0.01709900051355362
9.0,0.016196509823203087
10.0,0.01530672051012516
11.0,0.014516644179821014
12.0,0.013781321235001087
13.0,0.013041417114436626
14.0,0.012350661680102348
15.0,0.01166174653917551
16.0,0.011060886085033417
18.0,0.009897558018565178
20.0,0.008824177086353302
22.0,0.007768153212964535
24.0,0.006804164964705706
26.0,0.005956211127340794
28.0,0.005171468481421471
30.0,0.004513690248131752
32.0,0.004016063176095486
36.0,0.003228415036574006
40.0,0.0026697353459894657
44.0,0.002221723785623908
48.0,0.0020252300892025232
52.0,0.0016884662909433246
56.0,0.0011440818198025227
60.0,0.0006840049172751606
64.0,0.00025097132311202586
72.0,-5.221593892201781e-05
80.0,2.173580833186861e-05
88.0,0.0004134063492529094
96.0,0.00033538046409375966
104.0,0.00027020208653993905
112.0,-0.00013767924974672496
120.0,-0.00019302073633298278
128.0,-0.00018721014203038067
144.0,-5.641211100737564e-05
160.0,0.00037455916753970087
176.0,0.00032251860830001533
192.0,0.0007292763330042362
208.0,0.0009400093113072217
224.0,0.00030670713749714196
240.0,0.0006640403298661113
256.0,0.0017879626248031855
288.0,0.0025746608152985573
320.0,0.0018155239522457123
352.0,0.0011832804884761572
384.0,-0.0002128174965037033
416.0,-0.0009971518302336335
448.0,-0.0008801779476925731
480.0,-0.0005996772088110447
512.0,-0.0009402200812473893
576.0,-0.0007224763976410031
640.0,0.0003262144164182246
704.0,-5.968318509985693e-05
768.0,-0.0007007013773545623
832.0,-0.0005038524395786226
896.0,-0.0005564528983086348
960.0,5.9364883782109246e-05
1024.0,-0.0005167054478079081
1152.0,0.0007744063623249531
1280.0,-9.416825923835859e-05
1408.0,7.092061423463747e-05
1536.0,-0.00047054581227712333
1664.0,-0.00010497760376892984
1792.0,-0.0005244333879090846
1920.0,0.00037068536039441824
2048.0,0.00020863450481556356
2304.0,0.00065357715357095
2560.0,0.00012837468239013106
2816.0,0.0003553469723556191
3072.0,6.428889491871814e-07
3328.0,-0.0005457477527670562
3584.0,-0.00016674448852427304
3840.0,0.0004093558818567544
4096.0,0.000634960422758013
4608.0,-0.00041844561928883195
5120.0,-0.0005330743151716888
5632.0,-0.0008756914758123457
6144.0,-0.00012023325689369813
6656.0,0.0005605915794149041
7168.0,-0.0005124011659063399
7680.0,-0.0011111592175439
8192.0,-0.0001459174236515537
9216.0,-0.00011592698865570128
10240.0,3.2569299946771935e-05
11264.0,-0.00015663867816329002
12288.0,0.0002615659323055297
13312.0,0.00044474861351773143
14336.0,0.0006463181925937533
end
