version,3.0
numOfCh,1
type,point
parent_name,800-cuts
ch_type,1_1
kcount,1
numberNandB,1
brightnessNandB,1
carpet pos,0
pc,0
Time (ms),CH1 Auto-Correlation
1.0,0.048154376447200775
2.0,0.04570699855685234
3.0,0.04335298016667366
4.0,0.041183896362781525
5.0,0.03914201259613037
6.0,0.03720977529883385
7.0,0.035389550030231476
8.0,0.03362675756216049
9.0,0.03193860873579979
10.0,0.030275598168373108
11.0,0.028736606240272522
12.0,0.02728199027478695
13.0,0.02593345008790493
14.0,0.024640683084726334
15.0,0.023385951295495033
16.0,0.02227267436683178
18.0,0.020122209563851357
20.0,0.018103478476405144
22.0,0.01614091731607914
24.0,0.014401907101273537
26.0,0.01282596681267023
28.0,0.011238929815590382
30.0,0.009710974059998989
32.0,0.008324612863361835
36.0,0.006162580102682114
40.0,0.004629018250852823
44.0,0.0033724596723914146
48.0,0.0021795984357595444
52.0,0.0010055946186184883
56.0,5.863768819835968e-05
60.0,-0.0005947044701315463
64.0,-0.0009860225254669785
72.0,-0.001426303992047906
80.0,-0.0020549457985907793
88.0,-0.002283600391820073
96.0,-0.0018663702066987753
104.0,-0.0007448156829923391
112.0,0.00018934949184767902
120.0,0.0003546676889527589
128.0,0.0002741774369496852
144.0,0.0005067981546744704
160.0,0.00042383329127915204
176.0,-2.1596220904029906e-05
192.0,-9.605614468455315e-05
208.0,0.000807379256002605
224.0,0.001965557225048542
240.0,0.0019188859732821584
256.0,0.00044515784247778356
288.0,-0.0022380773443728685
320.0,-0.002456675749272108
352.0,-0.0012652239529415965
384.0,-0.0015681051881983876
416.0,-0.0011274481657892466
448.0,-5.279546712699812e-06
480.0,0.00041224577580578625
512.0,-0.0004882966750301421
576.0,0.0005354261957108974
640.0,-0.0026085965801030397
704.0,-0.00032431213185191154
768.0,-0.00011891531175933778
832.0,0.0006734757917001843
896.0,5.71118071093224e-05
960.0,0.002088937908411026
1024.0,0.0017228892538696527
1152.0,0.0010379154700785875
1280.0,0.0012603572104126215
1408.0,-0.0003942691255360842
1536.0,-0.0004799304879270494
1664.0,-0.001021199394017458
1792.0,-0.002901539672166109
1920.0,0.001002378761768341
2048.0,0.0009069892694242299
2304.0,-0.00023022000095807016
2560.0,0.0004052889999002218
2816.0,-0.00012163381325080991
3072.0,-0.000525949930306524
3328.0,-0.0008151952060870826
3584.0,0.0013785940827801824
3840.0,-0.0016356102423742414
4096.0,-0.0008306410745717585
4608.0,3.366732562426478e-05
5120.0,-0.0009425831958651543
5632.0,-0.00015852024080231786
6144.0,-0.0008236903231590986
6656.0,-0.0002068537869490683
7168.0,0.0011156416730955243
7680.0,8.987226465251297e-05
8192.0,0.0007762282039038837
9216.0,0.0008275981526821852
10240.0,-7.677752000745386e-05
11264.0,-8.667053043609485e-05
12288.0,-0.0003893861430697143
13312.0,-0.0009846925968304276
14336.0,-9.882065933197737e-05
end
