version,3.0
numOfCh,1
type,point
parent_name,800-cuts
ch_type,1_1
kcount,1
numberNandB,1
brightnessNandB,1
carpet pos,0
pc,0
Time (ms),CH1 Auto-Correlation
1.0,0.027379842475056648
2.0,0.02583962120115757
3.0,0.024373067542910576
4.0,0.02302086353302002
5.0,0.021729350090026855
6.0,0.020523110404610634
7.0,0.019362205639481544
8.0,0.01824687235057354
9.0,0.017184076830744743
10.0,0.016141101717948914
11.0,0.01513698697090149
12.0,0.014240647666156292
13.0,0.013424479402601719
14.0,0.012686545960605145
15.0,0.012006952427327633
16.0,0.011366413906216621
18.0,0.010185380466282368
20.0,0.009094500914216042
22.0,0.008065063506364822
24.0,0.007093154359608889
26.0,0.006293912418186665
28.0,0.005662269424647093
30.0,0.005153411999344826
32.0,0.004683225881308317
36.0,0.0038803245406597853
40.0,0.0031447780784219503
44.0,0.002562574576586485
48.0,0.002081788843497634
52.0,0.0015923974569886923
56.0,0.0011930976761505008
60.0,0.0006428216584026814
64.0,0.00018403807189315557
72.0,-0.00017839307838585228
80.0,-0.0003742783737834543
88.0,-0.0006559367175213993
96.0,-0.0007602714467793703
104.0,-0.0006707597058266401
112.0,-0.0003780348924919963
120.0,-2.0422792204044526e-06
128.0,0.00044398452155292034
144.0,0.0008384824614040554
160.0,0.0017294252756983042
176.0,0.0014356866013258696
192.0,0.0010236980160698295
208.0,0.0009822242427617311
224.0,6.940944876987487e-05
240.0,-0.0012812952045351267
256.0,-0.0018451669020578265
288.0,-0.0012328921584412456
320.0,0.00023295823484659195
352.0,0.00021131288667675108
384.0,-1.7513302736915648e-05
416.0,0.00017779307381715626
448.0,0.0001388824312016368
480.0,0.0001430019474355504
512.0,-0.00047395811998285353
576.0,-0.0010966642294079065
640.0,-0.0002941465936601162
704.0,-0.00047271151561290026
768.0,0.00019299692939966917
832.0,0.0005678042653016746
896.0,0.000846671056933701
960.0,0.00047168805031105876
1024.0,-0.00031547402613796294
1152.0,-0.0010781242744997144
1280.0,-0.0009680410730652511
1408.0,-0.00027466873871162534
1536.0,0.0002818646898958832
1664.0,0.0003867983177769929
1792.0,-0.0012816543458029628
1920.0,0.0005018672673031688
2048.0,0.0007785773486830294
2304.0,0.000665942847263068
2560.0,0.0007666235906071961
2816.0,0.00017357023898512125
3072.0,-0.00032231619115918875
3328.0,-0.00014702207408845425
3584.0,-0.001981266774237156
3840.0,2.6143985451199114e-05
4096.0,5.444463386083953e-05
4608.0,0.0003304743440821767
5120.0,0.00021994260896462947
5632.0,-0.0003174415905959904
6144.0,-0.0004456677124835551
6656.0,9.718681394588202e-05
7168.0,0.0004063280066475272
7680.0,-1.190740135825763e-06
8192.0,-0.0003992209385614842
9216.0,-7.409049430862069e-05
10240.0,-0.00036390149034559727
11264.0,-0.0005313901929184794
12288.0,0.00020297519222367555
13312.0,0.00012005354801658541
14336.0,0.0009186271927319467
end
