version,3.0
numOfCh,1
type,point
parent_name,800-cuts
ch_type,1_1
kcount,1
numberNandB,1
brightnessNandB,1
carpet pos,0
pc,0
Time (ms),CH1 Auto-Correlation
1.0,0.09355166554450989
2.0,0.08823391050100327
3.0,0.08342325687408447
4.0,0.07891935855150223
5.0,0.07481829822063446
6.0,0.070870041847229
7.0,0.0672343373298645
8.0,0.0637889876961708
9.0,0.06056472286581993
10.0,0.05747142434120178
11.0,0.05442645773291588
12.0,0.05147743225097656
13.0,0.04868990182876587
14.0,0.04610786586999893
15.0,0.04350587725639343
16.0,0.0409780815243721
18.0,0.036263830959796906
20.0,0.03216688707470894
22.0,0.028507864102721214
24.0,0.02519475854933262
26.0,0.0220085047185421
28.0,0.019144322723150253
30.0,0.016676444560289383
32.0,0.014318618923425674
36.0,0.010771771892905235
40.0,0.008353174664080143
44.0,0.0071241711266338825
48.0,0.00582983810454607
52.0,0.004156454000622034
56.0,0.0025231039617210627
60.0,0.001734926481731236
64.0,0.0017095281509682536
72.0,0.0002213526313425973
80.0,-0.0006642231019213796
88.0,-0.0009158789180219173
96.0,-0.0010054168524220586
104.0,-0.0015386809827759862
112.0,-0.0009270473383367062
120.0,-9.82852652668953e-05
128.0,0.000995815615169704
144.0,0.0032812487334012985
160.0,0.0015855951933190227
176.0,0.0004370315873529762
192.0,-0.00035410310374572873
208.0,-0.0007986087002791464
224.0,0.0012605073861777782
240.0,0.003301427699625492
256.0,0.0036686318926513195
288.0,0.0016003776108846068
320.0,0.0006443204474635422
352.0,-0.0014160805149003863
384.0,-0.0010817412985488772
416.0,0.0023543257266283035
448.0,0.003499416634440422
480.0,0.004755356814712286
512.0,0.0024705147370696068
576.0,-0.0008498180541209877
640.0,-0.004543445538729429
704.0,-0.006317841820418835
768.0,-0.00630975142121315
832.0,0.00016572968161199242
896.0,-0.000215655512874946
960.0,-0.004048243165016174
1024.0,-0.0016339258290827274
1152.0,-0.001947823679074645
1280.0,-0.0013835907448083162
1408.0,0.0013046667445451021
1536.0,0.0015190248377621174
1664.0,-1.409007927577477e-05
1792.0,0.0006563468487001956
1920.0,0.00041678675916045904
2048.0,-0.0004226782766636461
2304.0,-0.0009796248050406575
2560.0,-0.0033120992593467236
2816.0,0.00035145485890097916
3072.0,0.002978845965117216
3328.0,0.00513345655053854
3584.0,0.004315344616770744
3840.0,-0.0036655410658568144
4096.0,-0.004280161112546921
4608.0,-0.0020573814399540424
5120.0,-0.000701397133525461
5632.0,0.0012581608025357127
6144.0,-0.00018046317563857883
6656.0,0.0005354827735573053
7168.0,-0.0018171991687268019
7680.0,-0.00012790257460437715
8192.0,-0.000612046045716852
9216.0,0.0009960551979020238
10240.0,-0.0002354248135816306
11264.0,0.0004453938454389572
12288.0,-5.965163290966302e-05
13312.0,0.00018337256915401667
14336.0,0.0002542934671510011
end
