version,3.0
numOfCh,1
type,point
parent_name,800-cuts
ch_type,1_1
kcount,1
numberNandB,1
brightnessNandB,1
carpet pos,0
pc,0
Time (ms),CH1 Auto-Correlation
1.0,0.03214983269572258
2.0,0.030363654717803
3.0,0.028658296912908554
4.0,0.027104860171675682
5.0,0.025597618892788887
6.0,0.02420603297650814
7.0,0.022923436015844345
8.0,0.021720604971051216
9.0,0.020611578598618507
10.0,0.019568543881177902
11.0,0.018586473539471626
12.0,0.017648445442318916
13.0,0.01672859489917755
14.0,0.015854855999350548
15.0,0.014947012066841125
16.0,0.014092490077018738
18.0,0.0125423613935709
20.0,0.011228510178625584
22.0,0.010087251663208008
24.0,0.00900303851813078
26.0,0.007933782413601875
28.0,0.00700790761038661
30.0,0.006281563080847263
32.0,0.005597892217338085
36.0,0.004378506448119879
40.0,0.003343300661072135
44.0,0.0024364280980080366
48.0,0.0016781737795099616
52.0,0.0014671592507511377
56.0,0.0013797827996313572
60.0,0.0013088108971714973
64.0,0.0013021527556702495
72.0,0.0011574788950383663
80.0,0.001602659816853702
88.0,0.0016585931880399585
96.0,0.0016807890497148037
104.0,0.0015505444025620818
112.0,0.0008793408051133156
120.0,3.0665516533190385e-05
128.0,-0.0008917076047509909
144.0,-0.0014246617211028934
160.0,-0.0011912669287994504
176.0,-0.0014524628641083837
192.0,-0.002535246778279543
208.0,-0.00327928364276886
224.0,-0.004045138601213694
240.0,-0.00434798002243042
256.0,-0.0036486380267888308
288.0,-0.001324684708379209
320.0,-0.0016096503240987659
352.0,-0.0005373221356421709
384.0,1.1905963219760451e-05
416.0,-0.0005149393109604716
448.0,0.000589751114603132
480.0,0.0005949136684648693
512.0,0.00012128648086218163
576.0,-0.0003630834398791194
640.0,-0.000887176429387182
704.0,-0.0008510885527357459
768.0,6.717054930049926e-05
832.0,-7.158512016758323e-05
896.0,0.002040129154920578
960.0,0.0021688935812562704
1024.0,-0.00025551163707859814
1152.0,-0.0013847588561475277
1280.0,-0.0011069870088249445
1408.0,-0.0005327287944965065
1536.0,-0.0008388771675527096
1664.0,0.0010069948621094227
1792.0,0.0014047962613403797
1920.0,-0.0011087572202086449
2048.0,-0.0005339519120752811
2304.0,-0.0002487730234861374
2560.0,0.0009519964805804193
2816.0,-0.0012201418867334723
3072.0,0.001712828641757369
3328.0,-0.0011986460303887725
3584.0,0.00036072370130568743
3840.0,0.00019911446725018322
4096.0,-0.00027706348919309676
4608.0,-0.0003340128168929368
5120.0,-4.3244199332548305e-05
5632.0,0.0006046659545972943
6144.0,9.737091022543609e-05
6656.0,3.595976158976555e-05
7168.0,-0.0006222096853889525
7680.0,-0.00031726769520901144
8192.0,6.658992060692981e-05
9216.0,0.0003249873116146773
10240.0,-0.0004335544945206493
11264.0,0.00015893457748461515
12288.0,0.0003175786405336112
13312.0,-0.00044504343532025814
14336.0,0.00017151134670712054
end
