version,3.0
numOfCh,1
type,point
parent_name,800-cuts
ch_type,1_1
kcount,1
numberNandB,1
brightnessNandB,1
carpet pos,0
pc,0
Time (ms),CH1 Auto-Correlation
1.0,0.030180126428604126
2.0,0.028379840776324272
3.0,0.026746457442641258
4.0,0.02521064691245556
5.0,0.02374662272632122
6.0,0.022387487813830376
7.0,0.021109113469719887
8.0,0.019894272089004517
9.0,0.01875191554427147
10.0,0.01768254116177559
11.0,0.01671087183058262
12.0,0.015815390273928642
13.0,0.014948937110602856
14.0,0.014127104543149471
15.0,0.013359692879021168
16.0,0.012669590301811695
18.0,0.011378882452845573
20.0,0.010281655006110668
22.0,0.009361432865262032
24.0,0.008555328473448753
26.0,0.007746364455670118
28.0,0.00709521071985364
30.0,0.006460209842771292
32.0,0.005798546597361565
36.0,0.004714261274784803
40.0,0.0038271727971732616
44.0,0.002934360643848777
48.0,0.0020722246263176203
52.0,0.0012945113703608513
56.0,0.0009004640742205083
60.0,0.0008285446092486382
64.0,0.0006607808172702789
72.0,0.0006150334374979138
80.0,0.0005570538924075663
88.0,0.000439175171777606
96.0,-0.00018847135652322322
104.0,-0.0002722499193623662
112.0,-0.00035029687569476664
120.0,-0.0005422991816885769
128.0,-0.0006578417960554361
144.0,-2.9107201044098474e-05
160.0,-0.000362451741239056
176.0,-0.001967637101188302
192.0,-0.0024824279826134443
208.0,-0.0016225673025473952
224.0,-0.0006769421161152422
240.0,0.0005850461311638355
256.0,0.0006509750965051353
288.0,0.0014700901228934526
320.0,0.0008096981327980757
352.0,-0.00023557884560432285
384.0,0.000300809508189559
416.0,0.0008006663993000984
448.0,0.0006120737525634468
480.0,0.00043821532744914293
512.0,0.0004374163690954447
576.0,-0.001296364702284336
640.0,-0.0013828324154019356
704.0,-0.0011299325851723552
768.0,-0.0007464928785338998
832.0,0.0009485333575867116
896.0,4.670493945013732e-05
960.0,-3.719182586792158e-06
1024.0,-0.0006088549853302538
1152.0,-0.0005843725521117449
1280.0,0.0014190253568813205
1408.0,0.00013081803626846522
1536.0,-0.0003697169595398009
1664.0,-0.00043370205094106495
1792.0,0.0003807800239883363
1920.0,0.00013241416309028864
2048.0,-0.0007554430048912764
2304.0,3.73653310816735e-05
2560.0,-0.00024671872961334884
2816.0,-0.0008892664918676019
3072.0,0.0002280870539834723
3328.0,0.0003806106105912477
3584.0,-0.00034452008549124
3840.0,-0.0005698460154235363
4096.0,-0.0009994455613195896
4608.0,-0.00018249430286232382
5120.0,0.0002798577188514173
5632.0,0.00019071837596129626
6144.0,-0.0007377269212156534
6656.0,0.0001390905090374872
7168.0,0.00025860764435492456
7680.0,-1.514601808594307e-05
8192.0,6.748963642166927e-05
9216.0,0.00041309933294542134
10240.0,-0.00024255715834442526
11264.0,0.00023208028869703412
12288.0,-8.30120625323616e-05
13312.0,-7.799032755428925e-05
14336.0,-8.163457096088678e-06
end
