version,3.0
numOfCh,1
type,point
parent_name,800-cuts
ch_type,1_1
kcount,1
numberNandB,1
brightnessNandB,1
carpet pos,0
pc,0
Time (ms),CH1 Auto-Correlation
1.0,0.06154768541455269
2.0,0.05821111425757408
3.0,0.055016037076711655
4.0,0.05200307443737984
5.0,0.049072593450546265
6.0,0.04633054882287979
7.0,0.0437115877866745
8.0,0.041225824505090714
9.0,0.03876557573676109
10.0,0.036371972411870956
11.0,0.03414592519402504
12.0,0.03206776827573776
13.0,0.030059928074479103
14.0,0.028179889544844627
15.0,0.026324788108468056
16.0,0.024572279304265976
18.0,0.021445654332637787
20.0,0.018834378570318222
22.0,0.01665189303457737
24.0,0.014839273877441883
26.0,0.013237109407782555
28.0,0.01173399481922388
30.0,0.010298307053744793
32.0,0.009049206040799618
36.0,0.006829333025962114
40.0,0.005350613500922918
44.0,0.004649109207093716
48.0,0.0039079138077795506
52.0,0.0027049556374549866
56.0,0.0018014999805018306
60.0,0.0014787438558414578
64.0,0.0013932246947661042
72.0,0.0013812039978802204
80.0,0.0009259203216060996
88.0,0.0006124329520389438
96.0,0.00018021416326519102
104.0,0.0002719509939197451
112.0,0.00034015357960015535
120.0,0.00044521555537357926
128.0,0.0008020505192689598
144.0,0.0006176310125738382
160.0,0.0014180362923070788
176.0,0.0010432446142658591
192.0,0.00014829736028332263
208.0,0.0006060037994757295
224.0,0.0004100679070688784
240.0,-0.00027799716917797923
256.0,-0.0006663264357484877
288.0,-0.00022208734299056232
320.0,-0.002271937672048807
352.0,-0.00042287138057872653
384.0,0.0013365682680159807
416.0,0.0008543541771359742
448.0,-0.0015049173962324858
480.0,-0.0013819604646414518
512.0,-0.000304023182252422
576.0,-0.0016084302915260196
640.0,0.0009004246676340699
704.0,0.00141573091968894
768.0,-2.159017458325252e-05
832.0,-0.00013214988575782627
896.0,0.0036001771222800016
960.0,0.0016397727886214852
1024.0,0.0004399597819428891
1152.0,-0.001057629007846117
1280.0,0.0012564199278131127
1408.0,0.0007005786173976958
1536.0,-0.001090993988327682
1664.0,0.00014216025010682642
1792.0,-0.000260175991570577
1920.0,0.002343687927350402
2048.0,0.0012361059198156
2304.0,-0.001833410351537168
2560.0,-0.0008786149555817246
2816.0,0.0005116755492053926
3072.0,0.000991628970950842
3328.0,-0.0004171501495875418
3584.0,-0.0010978393256664276
3840.0,0.0014047084841877222
4096.0,-0.0005252335104160011
4608.0,-0.0006903875037096441
5120.0,-0.0018977461149916053
5632.0,-0.000523858645465225
6144.0,-0.00152730627451092
6656.0,-0.0004272234800737351
7168.0,-0.0006563217029906809
7680.0,0.0008334487793035805
8192.0,-0.000819839013274759
9216.0,-0.00034478973248042166
10240.0,7.242761057568714e-05
11264.0,0.0009962673066183925
12288.0,-0.0007526181871071458
13312.0,0.0008770836866460741
14336.0,-1.5458053894690238e-05
end
