version,3.0
numOfCh,1
type,point
parent_name,800-cuts
ch_type,1_1
kcount,1
numberNandB,1
brightnessNandB,1
carpet pos,0
pc,0
Time (ms),CH1 Auto-Correlation
1.0,0.08769447356462479
2.0,0.08292330801486969
3.0,0.07847144454717636
4.0,0.07427186518907547
5.0,0.07031045854091644
6.0,0.06658776104450226
7.0,0.06307876110076904
8.0,0.05973042920231819
9.0,0.05663015693426132
10.0,0.05376497656106949
11.0,0.05109797790646553
12.0,0.04850087687373161
13.0,0.04602508619427681
14.0,0.0436493419110775
15.0,0.04148421064019203
16.0,0.039596494287252426
18.0,0.03623687103390694
20.0,0.033387441188097
22.0,0.03070283681154251
24.0,0.02826908603310585
26.0,0.02620112895965576
28.0,0.024496907368302345
30.0,0.022701092064380646
32.0,0.021011853590607643
36.0,0.01861427165567875
40.0,0.016639644280076027
44.0,0.014828107319772243
48.0,0.013352615758776665
52.0,0.011949269101023674
56.0,0.01024650875478983
60.0,0.008422691375017166
64.0,0.007129584439098835
72.0,0.005479855462908745
80.0,0.00413003284484148
88.0,0.004514811094850302
96.0,0.005233465693891048
104.0,0.005878187716007233
112.0,0.00688559003174305
120.0,0.006840569898486137
128.0,0.006457103881984949
144.0,0.003039510454982519
160.0,-0.0012677297927439213
176.0,-0.0031080106273293495
192.0,-0.0026538558304309845
208.0,-0.0030966082122176886
224.0,-0.0028306322637945414
240.0,-0.0023620727006345987
256.0,-0.0024056241381913424
288.0,0.0013918612385168672
320.0,0.0014594394015148282
352.0,0.002361422637477517
384.0,0.0019287326140329242
416.0,0.0004663382424041629
448.0,0.0023883390240371227
480.0,0.0013065513921901584
512.0,0.00025975899188779294
576.0,0.0037619140930473804
640.0,0.0028162356466054916
704.0,-4.389583864394808e-06
768.0,0.004001922905445099
832.0,0.0028712262865155935
896.0,0.001826179912313819
960.0,0.0006701110396534204
1024.0,0.003615790978074074
1152.0,-0.002903943182900548
1280.0,-0.0012206712272018194
1408.0,0.0027302002999931574
1536.0,-0.0020823378581553698
1664.0,-0.001227537402883172
1792.0,-0.00253280159085989
1920.0,-0.006862422917038202
2048.0,-0.0023317912127822638
2304.0,-0.0035344024654477835
2560.0,-0.002868535928428173
2816.0,-0.001581109594553709
3072.0,-0.0030507040210068226
3328.0,-0.0014444999396800995
3584.0,0.0011742908973246813
3840.0,0.0012320795794948936
4096.0,-0.0008811381412670016
4608.0,0.0019911793060600758
5120.0,-0.00017696771828923374
5632.0,0.00026902719400823116
6144.0,0.0011143722804263234
6656.0,0.0005970363272354007
7168.0,0.0011603536549955606
7680.0,-0.001491138362325728
8192.0,-2.1604437279165722e-05
9216.0,0.00014282915799412876
10240.0,-6.458994903368875e-05
11264.0,-0.0012565817451104522
12288.0,-0.0011480614775791764
13312.0,-0.00029005127726122737
14336.0,-0.00031916427542455494
end
