version,3.0
numOfCh,1
type,point
parent_name,800-cuts
ch_type,1_1
kcount,1
numberNandB,1
brightnessNandB,1
carpet pos,0
pc,0
Time (ms),CH1 Auto-Correlation
1.0,0.028632722795009613
2.0,0.027133870869874954
3.0,0.025757070630788803
4.0,0.024445481598377228
5.0,0.02320129983127117
6.0,0.022008774802088737
7.0,0.02086883783340454
8.0,0.01978830061852932
9.0,0.01877923682332039
10.0,0.017856240272521973
11.0,0.016992561519145966
12.0,0.016148487105965614
13.0,0.015365362167358398
14.0,0.014639943838119507
15.0,0.013956171460449696
16.0,0.013316812925040722
18.0,0.012095722369849682
20.0,0.01098898146301508
22.0,0.010070257820189
24.0,0.009235695004463196
26.0,0.008453628048300743
28.0,0.007724238559603691
30.0,0.007041325327008963
32.0,0.006475513800978661
36.0,0.005551425274461508
40.0,0.004749889951199293
44.0,0.004222677554935217
48.0,0.003979276400059462
52.0,0.0037990997079759836
56.0,0.0035835483577102423
60.0,0.003274820279330015
64.0,0.0029696309939026833
72.0,0.002405512146651745
80.0,0.0021536494605243206
88.0,0.0017898774240165949
96.0,0.0014701277250424027
104.0,0.00106720719486475
112.0,0.0006686313427053392
120.0,0.00023766564845573157
128.0,1.7239497537957504e-05
144.0,-0.0008681389153935015
160.0,-0.0016325438627973199
176.0,-0.0009442834416404366
192.0,-0.0010099721839651465
208.0,-0.0013748297933489084
224.0,-0.0009221213404089212
240.0,-0.0004817739245481789
256.0,-0.00036656277370639145
288.0,-0.0005388782592490315
320.0,-0.00018717786588240415
352.0,-0.00037207588320598006
384.0,-0.00031428475631400943
416.0,-0.0004963834071531892
448.0,0.0002550293575040996
480.0,-0.00010981989180436358
512.0,-0.0003256365016568452
576.0,-0.00038039960782043636
640.0,0.0002104220329783857
704.0,0.0007473592995665967
768.0,-1.793155570339877e-05
832.0,-0.00039973159437067807
896.0,-0.001031139981932938
960.0,-0.0004413086280692369
1024.0,0.000681371777318418
1152.0,-0.00045467817108146846
1280.0,-0.00041301173041574657
1408.0,0.0018307303544133902
1536.0,0.0012616605963557959
1664.0,-0.00010135170305147767
1792.0,0.0006220067734830081
1920.0,0.0006637527258135378
2048.0,-0.0003197339246980846
2304.0,0.00033410219475626945
2560.0,0.0004458635812625289
2816.0,0.00012997160956729203
3072.0,-0.0008989499765448272
3328.0,-0.0002757943875622004
3584.0,0.00020915735512971878
3840.0,-0.00017020512314047664
4096.0,0.0005645703640766442
4608.0,-0.0007686729659326375
5120.0,-3.9576909330207855e-05
5632.0,-0.0005443365662358701
6144.0,-0.0008062709821388125
6656.0,-0.0002217568689957261
7168.0,-0.00030682949000038207
7680.0,-0.0005016166833229363
8192.0,-0.0005885048885829747
9216.0,4.1932093154173344e-05
10240.0,-0.000521769979968667
11264.0,0.0008864625706337392
12288.0,0.00012002154107904062
13312.0,0.000805328250862658
14336.0,-0.0007484342204406857
end
