version,3.0
numOfCh,1
type,point
parent_name,800-cuts
ch_type,1_1
kcount,1
numberNandB,1
brightnessNandB,1
carpet pos,0
pc,0
Time (ms),CH1 Auto-Correlation
1.0,0.056746385991573334
2.0,0.05371199548244476
3.0,0.05069898068904877
4.0,0.0478174053132534
5.0,0.045026231557130814
6.0,0.04249902069568634
7.0,0.04009221866726875
8.0,0.03781985864043236
9.0,0.035697001963853836
10.0,0.0336550772190094
11.0,0.03167085722088814
12.0,0.029754595831036568
13.0,0.02784208580851555
14.0,0.026000048965215683
15.0,0.024266792461276054
16.0,0.022587981075048447
18.0,0.019607016816735268
20.0,0.016813073307275772
22.0,0.014278033748269081
24.0,0.012053214013576508
26.0,0.0100807910785079
28.0,0.008360791020095348
30.0,0.00665378337725997
32.0,0.005104091949760914
36.0,0.003113724524155259
40.0,0.0019268107134848833
44.0,0.0009280553204007447
48.0,8.704604260856286e-05
52.0,-0.0006828212644904852
56.0,-0.0012040322180837393
60.0,-0.0015863650478422642
64.0,-0.001811374444514513
72.0,-0.001354228239506483
80.0,-0.00150753790512681
88.0,-0.001417495310306549
96.0,-0.0006844074232503772
104.0,0.00021629058755934238
112.0,0.0006586300441995263
120.0,0.0006180219352245331
128.0,-0.00016680914268363267
144.0,-0.002190801315009594
160.0,-0.0016653502825647593
176.0,-0.0001430191332474351
192.0,-0.001022821175865829
208.0,-0.0025631352327764034
224.0,-0.003597189672291279
240.0,-0.0022806806955486536
256.0,0.0014494373463094234
288.0,0.002679519122466445
320.0,-0.0008615077822469175
352.0,-0.0021588841918855906
384.0,-0.000970437191426754
416.0,-0.0028791248332709074
448.0,-0.002797610592097044
480.0,-0.0024974809493869543
512.0,-0.0018089591758325696
576.0,0.0004659910628106445
640.0,-0.001105645322240889
704.0,0.0005864396807737648
768.0,-0.00010780039156088606
832.0,-0.0008178995340131223
896.0,-0.0016610274324193597
960.0,-0.0003249775036238134
1024.0,0.0008913472411222756
1152.0,-0.0001591343170730397
1280.0,0.0005242631887085736
1408.0,0.0018041153671219945
1536.0,-0.00016108636918943375
1664.0,0.000804978481028229
1792.0,-0.0009606269304640591
1920.0,-0.001264966675080359
2048.0,6.123122875578701e-05
2304.0,0.0008461299003101885
2560.0,-0.00010552543972153217
2816.0,0.0005704716895706952
3072.0,-0.00022783146414440125
3328.0,-0.0004594070778694004
3584.0,0.00031349665368907154
3840.0,0.0012600631453096867
4096.0,-0.0008391725714318454
4608.0,-0.0002341184881515801
5120.0,0.0008308678516186774
5632.0,-0.00011266165529377759
6144.0,-0.0006014112732373178
6656.0,4.998871008865535e-05
7168.0,-0.0005192324751988053
7680.0,0.0006395280943252146
8192.0,-0.0006782456766813993
9216.0,0.00032323511550202966
10240.0,-0.0005845909472554922
11264.0,-0.00020879774820059538
12288.0,7.328212086576968e-05
13312.0,-0.001092089805752039
14336.0,0.0002857122162822634
end
