version,3.0
numOfCh,1
type,point
parent_name,800-cuts
ch_type,1_1
kcount,1
numberNandB,1
brightnessNandB,1
carpet pos,0
pc,0
Time (ms),CH1 Auto-Correlation
1.0,0.035588011145591736
2.0,0.033791132271289825
3.0,0.03209911286830902
4.0,0.03045514039695263
5.0,0.028885770589113235
6.0,0.027390165254473686
7.0,0.02600397728383541
8.0,0.02466573379933834
9.0,0.023361174389719963
10.0,0.02212686277925968
11.0,0.020950689911842346
12.0,0.019856475293636322
13.0,0.018822938203811646
14.0,0.01785270869731903
15.0,0.01693197712302208
16.0,0.01609306037425995
18.0,0.014569130726158619
20.0,0.013201627880334854
22.0,0.01196182519197464
24.0,0.010896947234869003
26.0,0.009844886139035225
28.0,0.00892240833491087
30.0,0.008107700385153294
32.0,0.007375170476734638
36.0,0.006176769733428955
40.0,0.0051172408275306225
44.0,0.004238079767674208
48.0,0.0035025642719119787
52.0,0.002941175363957882
56.0,0.0026357544120401144
60.0,0.0026595161762088537
64.0,0.0026299909222871065
72.0,0.0024001242127269506
80.0,0.0013806845527142286
88.0,0.0003395224630367011
96.0,-0.0002666997315827757
104.0,-0.0005325170932337642
112.0,-0.0005682817427441478
120.0,-0.0005312550929374993
128.0,-0.00033393807825632393
144.0,0.0009548804955556989
160.0,0.0014207487693056464
176.0,0.0012179649202153087
192.0,0.000456963520264253
208.0,0.0005710566183552146
224.0,0.0005623514880426228
240.0,0.0012364492285996675
256.0,0.0008225918863900006
288.0,0.0003544847422745079
320.0,-0.0005342505173757672
352.0,-0.0003182412765454501
384.0,0.00012163277278887108
416.0,0.00042723398655653
448.0,0.0013525328831747174
480.0,0.0024663887452334166
512.0,0.000657487369608134
576.0,-0.001081865164451301
640.0,-0.0004806955112144351
704.0,3.859623393509537e-05
768.0,0.00041548116132616997
832.0,-0.0003144839429296553
896.0,-0.001442455337382853
960.0,0.0015644228551536798
1024.0,0.001957378815859556
1152.0,-0.0005386300035752356
1280.0,0.0003445909242145717
1408.0,0.0013024606741964817
1536.0,-0.00041437442996539176
1664.0,-0.0007437184685841203
1792.0,-4.7642217396060005e-05
1920.0,0.0009305676212534308
2048.0,-0.0003523142950143665
2304.0,0.0009525746572762728
2560.0,0.0006691021262668073
2816.0,0.00022791908122599125
3072.0,0.0001432362332707271
3328.0,-0.0004641273117158562
3584.0,-0.00023168534971773624
3840.0,-0.0013511002762243152
4096.0,-0.00019856294966302812
4608.0,0.0003308799641672522
5120.0,-0.0007497224723920226
5632.0,-0.0002594561956357211
6144.0,-0.001079333364032209
6656.0,-0.0004573717596940696
7168.0,-0.0007347137434408069
7680.0,-0.0010593682527542114
8192.0,-0.0007874539587646723
9216.0,-2.050648799922783e-05
10240.0,-0.00023441357188858092
11264.0,0.0005674937274307013
12288.0,0.0007892368594184518
13312.0,-0.00013740005670115352
14336.0,0.0011964613804593682
end
