version,3.0
numOfCh,1
type,point
parent_name,800-cuts
ch_type,1_1
kcount,1
numberNandB,1
brightnessNandB,1
carpet pos,0
pc,0
Time (ms),CH1 Auto-Correlation
1.0,0.06384219229221344
2.0,0.060501739382743835
3.0,0.05728548392653465
4.0,0.054215431213378906
5.0,0.05126910284161568
6.0,0.04849547892808914
7.0,0.04578244686126709
8.0,0.04315842688083649
9.0,0.040693316608667374
10.0,0.03838635981082916
11.0,0.03616708144545555
12.0,0.03393487632274628
13.0,0.03186183422803879
14.0,0.029990721493959427
15.0,0.028110321611166
16.0,0.02635347470641136
18.0,0.023140855133533478
20.0,0.020244814455509186
22.0,0.017892515286803246
24.0,0.01587074249982834
26.0,0.01432335376739502
28.0,0.01303472463041544
30.0,0.011837205849587917
32.0,0.010777843184769154
36.0,0.008831205777823925
40.0,0.0075177475810050964
44.0,0.006560108158737421
48.0,0.006320768967270851
52.0,0.006685903761535883
56.0,0.0068590366281569
60.0,0.006938201375305653
64.0,0.00728748831897974
72.0,0.008457482792437077
80.0,0.00814344547688961
88.0,0.006430089473724365
96.0,0.00541174691170454
104.0,0.004250763915479183
112.0,0.003530627116560936
120.0,0.003364612814038992
128.0,0.0034411062952131033
144.0,0.0029408999253064394
160.0,0.0019499993650242686
176.0,0.0021418563555926085
192.0,0.002263207919895649
208.0,0.0015170701080933213
224.0,0.00038296208367682993
240.0,0.0007975256303325295
256.0,0.00030605439678765833
288.0,-0.0006107453373260796
320.0,-0.0021544063929468393
352.0,-0.001773744821548462
384.0,0.00030184374190866947
416.0,-0.000903229636605829
448.0,8.004033588804305e-05
480.0,-0.001217905548401177
512.0,-0.0003350108745507896
576.0,-0.003001338802278042
640.0,-0.002824912779033184
704.0,-0.00020067459263373166
768.0,-0.0005756128230132163
832.0,-0.0009018626296892762
896.0,-0.0024873940274119377
960.0,-0.0004049892595503479
1024.0,0.0011425690026953816
1152.0,0.0017848087009042501
1280.0,-0.00040855747647583485
1408.0,-0.0034751910716295242
1536.0,-0.003125117626041174
1664.0,-0.001914725755341351
1792.0,-0.0013271254720166326
1920.0,9.423162555322051e-05
2048.0,0.0021852520294487476
2304.0,0.0008104910957626998
2560.0,0.0002063051942968741
2816.0,0.0006801724666729569
3072.0,-0.0005375579348765314
3328.0,-0.00033144972985610366
3584.0,-0.0018644570372998714
3840.0,-0.0010413593845441937
4096.0,0.001838343101553619
4608.0,0.0007647531456314027
5120.0,-0.0013451736886054277
5632.0,0.0003302298136986792
6144.0,-0.002162529621273279
6656.0,0.0023636315017938614
7168.0,-0.0018874409142881632
7680.0,0.0015956319402903318
8192.0,-0.0011136718094348907
9216.0,0.0007919210474938154
10240.0,-0.0010366004426032305
11264.0,0.0008913353085517883
12288.0,-4.641717532649636e-05
13312.0,-0.0016369997756555676
14336.0,-0.00247258972376585
end
