version,3.0
numOfCh,1
type,point
parent_name,800-cuts
ch_type,1_1
kcount,1
numberNandB,1
brightnessNandB,1
carpet pos,0
pc,0
Time (ms),CH1 Auto-Correlation
1.0,0.08381624519824982
2.0,0.07861968129873276
3.0,0.07376543432474136
4.0,0.06911619752645493
5.0,0.06472883373498917
6.0,0.06072624772787094
7.0,0.056864019483327866
8.0,0.053285978734493256
9.0,0.04988887161016464
10.0,0.04684567451477051
11.0,0.04392705857753754
12.0,0.041138906031847
13.0,0.038594890385866165
14.0,0.03613780438899994
15.0,0.03388773649930954
16.0,0.03173837810754776
18.0,0.027887076139450073
20.0,0.02448803186416626
22.0,0.021364938467741013
24.0,0.0187496580183506
26.0,0.01652376912534237
28.0,0.014497868716716766
30.0,0.012838135473430157
32.0,0.011922582983970642
36.0,0.010830333456397057
40.0,0.009404989890754223
44.0,0.00831697415560484
48.0,0.007642327807843685
52.0,0.007138831075280905
56.0,0.006442810408771038
60.0,0.005499661900103092
64.0,0.004035560879856348
72.0,0.001965106697753072
80.0,-0.0007982135284692049
88.0,-0.0015535509446635842
96.0,-0.0005494480719789863
104.0,0.001148071140050888
112.0,0.00206267973408103
120.0,0.0017293496057391167
128.0,0.001681664609350264
144.0,-6.113238487159833e-05
160.0,-0.0006362349377013743
176.0,-0.0018661594949662685
192.0,-0.003952078986912966
208.0,-0.00263845338486135
224.0,-0.00048113003140315413
240.0,0.001015253714285791
256.0,0.0021301626693457365
288.0,0.0011685973731800914
320.0,-0.002053267555311322
352.0,0.001698069041594863
384.0,0.004102722276002169
416.0,0.0015526841161772609
448.0,0.0013848053058609366
480.0,-0.0033082030713558197
512.0,-0.0019585667178034782
576.0,0.0002939081459771842
640.0,-0.0011308155953884125
704.0,0.0017642294988036156
768.0,0.0004003678332082927
832.0,-0.002757813548669219
896.0,-0.004499219823628664
960.0,-0.004834335763007402
1024.0,-0.001079688430763781
1152.0,-0.0013753661187365651
1280.0,-0.003944137133657932
1408.0,0.0001721872977213934
1536.0,-0.0007030001725070179
1664.0,-0.0019655772484838963
1792.0,0.0004382611077744514
1920.0,-0.0010788956424221396
2048.0,-0.0007833198178559542
2304.0,0.002431986853480339
2560.0,-0.00026726486976258457
2816.0,-0.00022784453176427633
3072.0,-0.001191500574350357
3328.0,-3.9913287764647976e-05
3584.0,-0.0009982227347791195
3840.0,0.001564536476507783
4096.0,-0.0003635460452642292
4608.0,-0.0005858789081685245
5120.0,-0.0007761740125715733
5632.0,6.48842251393944e-05
6144.0,-0.0010262907017022371
6656.0,0.0010926964459940791
7168.0,0.001647779019549489
7680.0,-0.0002931387280113995
8192.0,0.0009202125365845859
9216.0,-0.0008143618470057845
10240.0,0.00035786625812761486
11264.0,-0.0004710248904302716
12288.0,0.0001228209730470553
13312.0,0.00032339649624191225
14336.0,0.00025715891388244927
end
