version,3.0
numOfCh,1
type,point
parent_name,800-cuts
ch_type,1_1
kcount,1
numberNandB,1
brightnessNandB,1
carpet pos,0
pc,0
Time (ms),CH1 Auto-Correlation
1.0,0.063752681016922
2.0,0.05999130383133888
3.0,0.05639823153614998
4.0,0.053006697446107864
5.0,0.04977145791053772
6.0,0.0467521958053112
7.0,0.043818745762109756
8.0,0.04108376055955887
9.0,0.038453757762908936
10.0,0.036023516207933426
11.0,0.03370591253042221
12.0,0.0314403660595417
13.0,0.029406925663352013
14.0,0.027608597651124
15.0,0.025849012657999992
16.0,0.02431563101708889
18.0,0.021546881645917892
20.0,0.018980607390403748
22.0,0.016668858006596565
24.0,0.014566130936145782
26.0,0.012524218298494816
28.0,0.010844810865819454
30.0,0.009434979408979416
32.0,0.008307220414280891
36.0,0.007198162842541933
40.0,0.006141350604593754
44.0,0.005116958636790514
48.0,0.004667113535106182
52.0,0.0046678828075528145
56.0,0.004213203210383654
60.0,0.003767936723306775
64.0,0.003018925664946437
72.0,0.0013516140170395374
80.0,0.0008152012596838176
88.0,0.0009560787584632635
96.0,0.0012968205846846104
104.0,0.0019814090337604284
112.0,0.0020300194155424833
120.0,0.0016713091172277927
128.0,0.0015699440846219659
144.0,-0.00014989195915404707
160.0,-0.0009288981091231108
176.0,-0.00021635701705235988
192.0,-0.0009736513020470738
208.0,-0.0005419827648438513
224.0,0.0005851617315784097
240.0,0.0018205600790679455
256.0,0.002359026810154319
288.0,0.00022592031746171415
320.0,0.0006802961579523981
352.0,-0.00036807198193855584
384.0,-0.0004485995159484446
416.0,-0.0021529789082705975
448.0,-0.002415749942883849
480.0,-0.0049028960056602955
512.0,-0.0009229242568835616
576.0,0.0001657726097619161
640.0,-0.002072723815217614
704.0,-0.0014661275781691074
768.0,-0.0019553096499294043
832.0,-0.001851369277574122
896.0,0.0014287576777860522
960.0,0.0024699210189282894
1024.0,0.00258867465890944
1152.0,-0.0010803797049447894
1280.0,0.0018523060716688633
1408.0,-0.0008029921445995569
1536.0,0.002643165411427617
1664.0,-0.00011077518138336018
1792.0,-0.0005959967966191471
1920.0,0.0008850889862515032
2048.0,-0.0029235845431685448
2304.0,0.00026492963661439717
2560.0,-0.0010079703060910106
2816.0,-0.0009775387588888407
3072.0,0.0005702726193703711
3328.0,-0.00013035109441261739
3584.0,-0.0007709886413067579
3840.0,-0.0007153976475819945
4096.0,-0.001452833996154368
4608.0,-0.00018509768415242434
5120.0,-0.0004640010592993349
5632.0,-7.169431773945689e-05
6144.0,-0.0006119924946688116
6656.0,0.00039430923061445355
7168.0,0.001063234289176762
7680.0,-0.0008171481313183904
8192.0,0.0006863319431431592
9216.0,0.0005084237782284617
10240.0,-0.0007097191992215812
11264.0,-0.0005434391787275672
12288.0,0.0005658702575601637
13312.0,0.0007750879158265889
14336.0,-5.9819773014169186e-05
end
