version,3.0
numOfCh,1
type,point
parent_name,800-cuts
ch_type,1_1
kcount,1
numberNandB,1
brightnessNandB,1
carpet pos,0
pc,0
Time (ms),CH1 Auto-Correlation
1.0,0.07976359128952026
2.0,0.07529482245445251
3.0,0.07109605520963669
4.0,0.0670856460928917
5.0,0.06322603672742844
6.0,0.05959201976656914
7.0,0.056205641478300095
8.0,0.053055472671985626
9.0,0.05008591711521149
10.0,0.047315750271081924
11.0,0.04476732388138771
12.0,0.04240376502275467
13.0,0.04032260924577713
14.0,0.03842725232243538
15.0,0.03664926812052727
16.0,0.03500194475054741
18.0,0.03209890425205231
20.0,0.029353497549891472
22.0,0.02679525688290596
24.0,0.02424679510295391
26.0,0.021716967225074768
28.0,0.01939154602587223
30.0,0.017121853306889534
32.0,0.014898198656737804
36.0,0.010807772167026997
40.0,0.007848352193832397
44.0,0.006317938677966595
48.0,0.004956629127264023
52.0,0.0037731160409748554
56.0,0.0029513638000935316
60.0,0.0022438724990934134
64.0,0.0013286025496199727
72.0,0.0010904346127063036
80.0,0.0020450905431061983
88.0,0.0022199780214577913
96.0,0.000488589343149215
104.0,0.0004985272535122931
112.0,0.0023242724128067493
120.0,0.00398398470133543
128.0,0.004086143337190151
144.0,0.0023757764138281345
160.0,-0.00035683976602740586
176.0,-0.0007549130823463202
192.0,-0.0014505917206406593
208.0,-0.001976171974092722
224.0,0.0003386471071280539
240.0,0.004500034265220165
256.0,0.0034247571602463722
288.0,-0.002608927432447672
320.0,-0.0003524930798448622
352.0,0.0007050586864352226
384.0,0.0032727562356740236
416.0,-0.001159768202342093
448.0,-0.0015249986900016665
480.0,-0.0007391426479443908
512.0,-0.002691666129976511
576.0,0.0014958071988075972
640.0,-0.00048368939314968884
704.0,-0.0005691525875590742
768.0,-0.0027874805964529514
832.0,0.0006159889744594693
896.0,-0.0021400335244834423
960.0,0.002962174592539668
1024.0,0.0027208905667066574
1152.0,0.0006693669129163027
1280.0,-0.0025116344913840294
1408.0,-0.0025776277761906385
1536.0,-0.0012793351197615266
1664.0,-0.0002663587511051446
1792.0,0.0013595506316050887
1920.0,0.003402598202228546
2048.0,0.0016614545602351427
2304.0,-2.7490696083987132e-05
2560.0,-0.0012908291537314653
2816.0,0.000974573427811265
3072.0,-0.0015314926858991385
3328.0,-0.001974421786144376
3584.0,-0.003661703784018755
3840.0,-3.895420741173439e-05
4096.0,-0.0012702920939773321
4608.0,9.685078111942858e-05
5120.0,-0.0001262691366719082
5632.0,-0.00014037320215720683
6144.0,0.0005691100377589464
6656.0,0.000255012622801587
7168.0,0.0004493663727771491
7680.0,0.0013243954163044691
8192.0,-0.0003404065500944853
9216.0,-0.001041638315655291
10240.0,3.035365807591006e-05
11264.0,0.0010846793884411454
12288.0,-0.0011313370196148753
13312.0,0.0002666526706889272
14336.0,-0.003792701754719019
end
