version,3.0
numOfCh,1
type,point
parent_name,800-cuts
ch_type,1_1
kcount,1
numberNandB,1
brightnessNandB,1
carpet pos,0
pc,0
Time (ms),CH1 Auto-Correlation
1.0,0.09471401572227478
2.0,0.08976440131664276
3.0,0.085051991045475
4.0,0.08049029111862183
5.0,0.07627012580633163
6.0,0.07216227799654007
7.0,0.06812857836484909
8.0,0.06426124274730682
9.0,0.060669850558042526
10.0,0.057262104004621506
11.0,0.05405256897211075
12.0,0.05100173130631447
13.0,0.04813738912343979
14.0,0.04547720402479172
15.0,0.04296591132879257
16.0,0.0406620018184185
18.0,0.03673741593956947
20.0,0.03327498212456703
22.0,0.030245721340179443
24.0,0.02759934961795807
26.0,0.024988995864987373
28.0,0.022474244236946106
30.0,0.01995883695781231
32.0,0.017185207456350327
36.0,0.012694403529167175
40.0,0.009583265520632267
44.0,0.007522410713136196
48.0,0.005883967969566584
52.0,0.004271376878023148
56.0,0.0024494491517543793
60.0,0.0004772710963152349
64.0,-0.0014618654968217015
72.0,-0.0032796317245811224
80.0,-0.0034327032044529915
88.0,-0.0045609381049871445
96.0,-0.005297798663377762
104.0,-0.0032386223319917917
112.0,-0.0005713163409382105
120.0,0.00021660416678059846
128.0,-4.621057087206282e-05
144.0,0.0014054490020498633
160.0,0.002546237548813224
176.0,0.0012206999817863107
192.0,0.0007147372816689312
208.0,-0.0006840577116236091
224.0,-0.002650889800861478
240.0,-0.0028006425127387047
256.0,-0.0020009703002870083
288.0,-0.0007908071274869144
320.0,0.0022866567596793175
352.0,0.0005009991000406444
384.0,-0.002028642687946558
416.0,0.003574180183932185
448.0,-0.0006151702837087214
480.0,-0.002762074116617441
512.0,-0.007511548697948456
576.0,-0.003413325874134898
640.0,0.00104347406886518
704.0,0.00271080294623971
768.0,0.0013420067261904478
832.0,0.0008767445106059313
896.0,0.0003349811304360628
960.0,0.002473674016073346
1024.0,-0.0006226230761967599
1152.0,-0.000998948817141354
1280.0,-0.000842829467728734
1408.0,-0.0001778764126356691
1536.0,0.0006423103623092175
1664.0,0.0018172669224441051
1792.0,0.0009558591991662979
1920.0,-0.0017595954705029726
2048.0,0.002937575336545706
2304.0,-0.0011329954722896218
2560.0,-0.0005310213891789317
2816.0,0.001780388760380447
3072.0,0.0009365222067572176
3328.0,-0.0019077579490840435
3584.0,-0.0007374787819571793
3840.0,0.002290532225742936
4096.0,0.0002538178232498467
4608.0,0.0002714770962484181
5120.0,0.00022972510487306863
5632.0,-0.0016054685693234205
6144.0,0.00033750623697414994
6656.0,-0.001956711057573557
7168.0,-0.001637040637433529
7680.0,0.0008612759411334991
8192.0,-0.0022698354441672564
9216.0,-0.0005200476152822375
10240.0,-0.0014082235284149647
11264.0,0.0012017030967399478
12288.0,0.00011241033644182608
13312.0,0.001293113804422319
14336.0,-0.0013023713836446404
end
