version,3.0
numOfCh,1
type,point
parent_name,800-cuts
ch_type,1_1
kcount,1
numberNandB,1
brightnessNandB,1
carpet pos,0
pc,0
Time (ms),CH1 Auto-Correlation
1.0,0.04495587944984436
2.0,0.04237237200140953
3.0,0.0400041900575161
4.0,0.03766511753201485
5.0,0.03542555868625641
6.0,0.03332589939236641
7.0,0.03133600950241089
8.0,0.029406145215034485
9.0,0.02769923210144043
10.0,0.026129847392439842
11.0,0.024597419425845146
12.0,0.023230135440826416
13.0,0.02191390097141266
14.0,0.020654423162341118
15.0,0.019522160291671753
16.0,0.018458325415849686
18.0,0.01661103032529354
20.0,0.015092361718416214
22.0,0.013764814473688602
24.0,0.012389990501105785
26.0,0.011144046671688557
28.0,0.010110083967447281
30.0,0.009198468178510666
32.0,0.0082728685811162
36.0,0.006578425411134958
40.0,0.0052270907908678055
44.0,0.004339132457971573
48.0,0.003420971566811204
52.0,0.0026447023265063763
56.0,0.002010130323469639
60.0,0.0013497724430635571
64.0,0.0008375757024623454
72.0,0.0007959069916978478
80.0,0.0011907560983672738
88.0,0.0012185282539576292
96.0,0.0009496532729826868
104.0,0.0007940459181554615
112.0,0.00046104544890113175
120.0,7.558964716736227e-05
128.0,-0.00017934769857674837
144.0,-0.0007083372911438346
160.0,-0.0006013659876771271
176.0,0.0006442776648327708
192.0,0.0011533201904967427
208.0,0.002190549625083804
224.0,0.0019224470015615225
240.0,0.0005569117492996156
256.0,0.00035099557135254145
288.0,-0.0016589873703196645
320.0,-0.0018540818709880114
352.0,-0.00020550258341245353
384.0,0.0009775119833648205
416.0,0.0011717031011357903
448.0,0.00042579727596603334
480.0,-0.0006461884477175772
512.0,-0.0035688630305230618
576.0,-0.0010767289204522967
640.0,-0.001178824924863875
704.0,-0.0015566576039418578
768.0,-0.001137266168370843
832.0,0.00023452576715499163
896.0,-0.0016379911685362458
960.0,-0.0016658997628837824
1024.0,0.0012805458391085267
1152.0,0.0008508629398420453
1280.0,0.0007513390737585723
1408.0,0.0005624612676911056
1536.0,0.0017514931969344616
1664.0,0.0013194080675020814
1792.0,0.0005765768582932651
1920.0,0.00028258372913114727
2048.0,-0.0011082548880949616
2304.0,-0.0009211410069838166
2560.0,-0.00021576449216809124
2816.0,0.000756497320253402
3072.0,0.0008361272630281746
3328.0,0.0003778685932047665
3584.0,-0.002318659331649542
3840.0,-0.0018995327409356833
4096.0,0.0006302424008026719
4608.0,-0.00044471086584962904
5120.0,-0.0017999409465119243
5632.0,5.261749265628168e-06
6144.0,0.00031978150946088135
6656.0,-0.0006095540011301637
7168.0,-0.0006587362149730325
7680.0,0.0014837243361398578
8192.0,0.00022334458481054753
9216.0,0.000771998253185302
10240.0,0.0004446511447895318
11264.0,-7.271702634170651e-05
12288.0,-0.0002835875784512609
13312.0,0.00025766133330762386
14336.0,-0.0023324755020439625
end
