version,3.0
numOfCh,1
type,point
parent_name,800-cuts
ch_type,1_1
kcount,1
numberNandB,1
brightnessNandB,1
carpet pos,0
pc,0
Time (ms),CH1 Auto-Correlation
1.0,0.04293867200613022
2.0,0.040445439517498016
3.0,0.03803189471364021
4.0,0.03572971746325493
5.0,0.033544644713401794
6.0,0.03148437291383743
7.0,0.029486173763871193
8.0,0.027641482651233673
9.0,0.025871511548757553
10.0,0.024226393550634384
11.0,0.022688647732138634
12.0,0.021324537694454193
13.0,0.01997576281428337
14.0,0.018703963607549667
15.0,0.017581412568688393
16.0,0.016439341008663177
18.0,0.01466263085603714
20.0,0.01319762784987688
22.0,0.011806135065853596
24.0,0.010560435242950916
26.0,0.009435512125492096
28.0,0.008430644869804382
30.0,0.007553964853286743
32.0,0.006670334376394749
36.0,0.004981555975973606
40.0,0.003524789586663246
44.0,0.002483184915035963
48.0,0.00152741395868361
52.0,0.0009637751500122249
56.0,0.0007347094942815602
60.0,0.0006094793207012117
64.0,0.00023833751038182527
72.0,-2.879917883547023e-05
80.0,1.4827796803729143e-05
88.0,0.0002873503544833511
96.0,0.00013617966033052653
104.0,-0.0006225558463484049
112.0,-0.0004882274952251464
120.0,0.0005029460298828781
128.0,0.0015423274599015713
144.0,0.002089026151224971
160.0,0.002614304656162858
176.0,0.0008394834003411233
192.0,-3.89638080378063e-05
208.0,-0.0004645851149689406
224.0,-0.0003610283019952476
240.0,-0.0001313913962803781
256.0,-0.0003777919337153435
288.0,0.0016725192544981837
320.0,0.001290279207751155
352.0,-0.0003076432039961219
384.0,-0.0013539362698793411
416.0,-0.0015721002127975225
448.0,-0.0005687610246241093
480.0,-5.278189928503707e-05
512.0,0.0011481448309496045
576.0,-0.0007915193564258516
640.0,-0.0014347325777634978
704.0,-0.00012984480417799205
768.0,-0.0014097715029492974
832.0,-0.0012007016921415925
896.0,-5.07672993990127e-05
960.0,-0.00039959841524250805
1024.0,0.0006615323363803327
1152.0,3.2670810469426215e-05
1280.0,-0.0006539846071973443
1408.0,-0.00083878543227911
1536.0,0.0002517846005503088
1664.0,0.00012896677071694285
1792.0,-0.0005950664053671062
1920.0,-0.0001746650814311579
2048.0,-0.00013960673823021352
2304.0,-0.00027876353124156594
2560.0,-0.000808089564088732
2816.0,0.00014716673467773944
3072.0,0.0005520154372788966
3328.0,-0.0008490986656397581
3584.0,0.0006219767965376377
3840.0,0.0008000245434232056
4096.0,0.000553501711692661
4608.0,0.0004492283915169537
5120.0,0.00015712484309915453
5632.0,-0.00010302961891284212
6144.0,-0.000224647723371163
6656.0,-0.0006289798766374588
7168.0,0.00012914491526316851
7680.0,-0.00036102565354667604
8192.0,-0.0006370064220391214
9216.0,0.0006947603542357683
10240.0,-0.0001619590912014246
11264.0,-0.0007798199076205492
12288.0,-0.0011539820116013288
13312.0,0.0027160660829395056
14336.0,-0.002413409762084484
end
