version,3.0
numOfCh,1
type,point
parent_name,800-cuts
ch_type,1_1
kcount,1
numberNandB,1
brightnessNandB,1
carpet pos,0
pc,0
Time (ms),CH1 Auto-Correlation
1.0,0.054961465299129486
2.0,0.051761381328105927
3.0,0.04877899959683418
4.0,0.04591869190335274
5.0,0.043207935988903046
6.0,0.04063275828957558
7.0,0.038210175931453705
8.0,0.03588828444480896
9.0,0.03382082283496857
10.0,0.03189190477132797
11.0,0.0300421342253685
12.0,0.028249522671103477
13.0,0.026539770886301994
14.0,0.024943741038441658
15.0,0.02345767803490162
16.0,0.021999631077051163
18.0,0.019503967836499214
20.0,0.017269928008317947
22.0,0.015080146491527557
24.0,0.013033854775130749
26.0,0.011049740947782993
28.0,0.009221495129168034
30.0,0.007718337699770927
32.0,0.006468947045505047
36.0,0.004911164287477732
40.0,0.003741141175851226
44.0,0.0026408073026686907
48.0,0.0019767829217016697
52.0,0.0013148522702977061
56.0,0.0009514274424873292
60.0,0.0004753241373691708
64.0,-0.00010084485984407365
72.0,-0.0003975954605266452
80.0,0.00028105732053518295
88.0,-4.2304058297304437e-05
96.0,-0.0005827347049489617
104.0,-0.0005051202024333179
112.0,0.0002066792076220736
120.0,0.0007153355400077999
128.0,0.0008817643974907696
144.0,0.0018521877937018871
160.0,0.0018505018670111895
176.0,-0.00020443678658921272
192.0,-0.0016966932453215122
208.0,-0.0020526882726699114
224.0,-0.0027378960512578487
240.0,-0.0025120500940829515
256.0,-0.0024676667526364326
288.0,-0.0021667038090527058
320.0,-0.0019147751154378057
352.0,-0.002032624091953039
384.0,-0.0006611287244595587
416.0,-0.000516085303388536
448.0,-0.000804022594820708
480.0,3.597771137719974e-05
512.0,-0.00017051618488039821
576.0,-0.0002481445262674242
640.0,-0.0010369642404839396
704.0,0.0018238227348774672
768.0,0.0026294561102986336
832.0,0.00011945044388994575
896.0,0.002501580398529768
960.0,0.00012468022760003805
1024.0,0.002893518889322877
1152.0,0.00016636124928481877
1280.0,-0.0021623012144118547
1408.0,-0.0011832808377221227
1536.0,8.87422174855601e-06
1664.0,-0.0002672917617019266
1792.0,0.00016128469724208117
1920.0,0.0013651371700689197
2048.0,0.00013785412011202425
2304.0,-0.00045517407124862075
2560.0,-6.652070442214608e-05
2816.0,0.0009349017636850476
3072.0,7.704312884015962e-05
3328.0,0.00022836837160866708
3584.0,0.0001804526982596144
3840.0,0.00034563636290840805
4096.0,-0.0006213561282493174
4608.0,0.000493805215228349
5120.0,-0.0008446820429526269
5632.0,-0.00037383672315627337
6144.0,-0.0005566314794123173
6656.0,-0.0013166072312742472
7168.0,0.0003855794493574649
7680.0,-0.0007086759433150291
8192.0,-9.736400534166023e-05
9216.0,-0.0006476439884863794
10240.0,0.0002364395622862503
11264.0,-0.0007048920379020274
12288.0,0.0003759434330277145
13312.0,0.0004316063423175365
14336.0,3.8392405258491635e-05
end
