version,3.0
numOfCh,1
type,point
parent_name,800-cuts
ch_type,1_1
kcount,1
numberNandB,1
brightnessNandB,1
carpet pos,0
pc,0
Time (ms),CH1 Auto-Correlation
1.0,0.058967575430870056
2.0,0.055516283959150314
3.0,0.05229323357343674
4.0,0.04924475774168968
5.0,0.046252042055130005
6.0,0.04352083429694176
7.0,0.04090624302625656
8.0,0.038427285850048065
9.0,0.03609388321638107
10.0,0.03394366800785065
11.0,0.03186439722776413
12.0,0.02987779676914215
13.0,0.028024552389979362
14.0,0.026532495394349098
15.0,0.025055700913071632
16.0,0.023651279509067535
18.0,0.021287808194756508
20.0,0.01923266239464283
22.0,0.01749017834663391
24.0,0.0159789826720953
26.0,0.01446162536740303
28.0,0.013044072315096855
30.0,0.011761363595724106
32.0,0.010357631370425224
36.0,0.007732035126537085
40.0,0.005480585154145956
44.0,0.003819272853434086
48.0,0.0026485288981348276
52.0,0.0019204202108085155
56.0,0.0013355589471757412
60.0,0.0010094442404806614
64.0,0.0009480587323196232
72.0,-2.6923432869807584e-06
80.0,-0.0011189751094207168
88.0,-0.0012234736932441592
96.0,-0.0008176349219866097
104.0,-0.0011626328341662884
112.0,-0.0011657478753477335
120.0,-0.0006881487206555903
128.0,-0.0003441819571889937
144.0,0.00025358807761222124
160.0,-0.00039741568616591394
176.0,0.00043080002069473267
192.0,0.0007761532906442881
208.0,0.0008706993539817631
224.0,0.001977061852812767
240.0,0.001369678066112101
256.0,-0.0007777964929118752
288.0,-0.002803474897518754
320.0,-0.0032259521540254354
352.0,-0.0016679400578141212
384.0,0.0002259759057778865
416.0,0.001429694122634828
448.0,0.0011661375174298882
480.0,0.0015640354249626398
512.0,-0.0019544116221368313
576.0,0.003028798382729292
640.0,0.0008342394721694291
704.0,0.0009266497800126672
768.0,-0.0007387505611404777
832.0,-0.0036233272403478622
896.0,0.00045570224756374955
960.0,0.0004342028987593949
1024.0,-0.002501573646441102
1152.0,0.0009917442221194506
1280.0,-0.0003425121249165386
1408.0,0.0011577797122299671
1536.0,-0.0016350666992366314
1664.0,0.0002071827184408903
1792.0,0.0010998796205967665
1920.0,-3.831360299955122e-05
2048.0,-0.00030310757574625313
2304.0,0.0006576262530870736
2560.0,-0.0019211875041946769
2816.0,-0.0015256740152835846
3072.0,-0.0007184957503341138
3328.0,2.7635802325676195e-05
3584.0,0.00015168183017522097
3840.0,-0.0010369167430326343
4096.0,0.0003892292152158916
4608.0,0.0003373596118763089
5120.0,0.0010655869264155626
5632.0,-0.0003257798380218446
6144.0,-0.0010088752023875713
6656.0,0.0013292973162606359
7168.0,0.0005861492827534676
7680.0,-0.0015658250777050853
8192.0,-0.0009616010938771069
9216.0,-0.0002937094250228256
10240.0,0.00021564800408668816
11264.0,0.0006850111531093717
12288.0,0.0004491033614613116
13312.0,0.00044877591426484287
14336.0,-0.002976789837703109
end
