version,3.0
numOfCh,1
type,point
parent_name,800-cuts
ch_type,1_1
kcount,1
numberNandB,1
brightnessNandB,1
carpet pos,0
pc,0
Time (ms),CH1 Auto-Correlation
1.0,0.07911651581525803
2.0,0.07477176934480667
3.0,0.0707630142569542
4.0,0.06701142340898514
5.0,0.06351899355649948
6.0,0.060212451964616776
7.0,0.05709831416606903
8.0,0.054203636944293976
9.0,0.051396943628787994
10.0,0.04864031448960304
11.0,0.046060748398303986
12.0,0.04355781897902489
13.0,0.04118403419852257
14.0,0.038899015635252
15.0,0.036842066794633865
16.0,0.034869980067014694
18.0,0.03135135397315025
20.0,0.028003497049212456
22.0,0.024872176349163055
24.0,0.022050410509109497
26.0,0.019561925902962685
28.0,0.017340047284960747
30.0,0.015488673001527786
32.0,0.013686222955584526
36.0,0.010781400837004185
40.0,0.007764813955873251
44.0,0.005258850287646055
48.0,0.0038849583361297846
52.0,0.003250033361837268
56.0,0.0022689339239150286
60.0,0.0015501206507906318
64.0,0.001422923756763339
72.0,0.0020180444698780775
80.0,0.0030174534767866135
88.0,0.00471743568778038
96.0,0.005552579183131456
104.0,0.006479849573224783
112.0,0.007075070403516293
120.0,0.006113171577453613
128.0,0.0048304167576134205
144.0,0.0018269793363288045
160.0,-0.0010408309753984213
176.0,-0.0005565359606407583
192.0,-0.0007230169139802456
208.0,0.0004960632068105042
224.0,-0.0005468273884616792
240.0,-0.004717555362731218
256.0,-0.008262837305665016
288.0,-0.003204973880201578
320.0,0.002225626725703478
352.0,0.00499384943395853
384.0,0.0012026502517983317
416.0,-0.00023296993458643556
448.0,-0.0007948385318741202
480.0,-0.00013048210530541837
512.0,0.0022620814852416515
576.0,-0.0027819089591503143
640.0,-0.0008250612299889326
704.0,0.0013594930060207844
768.0,-0.0010102085070684552
832.0,0.0002825861156452447
896.0,0.0004418361058924347
960.0,0.002837863052263856
1024.0,0.004570742137730122
1152.0,0.001112887286581099
1280.0,-0.0022823167964816093
1408.0,-0.0032470403239130974
1536.0,0.0009861928410828114
1664.0,0.0013266701716929674
1792.0,-0.0012365356087684631
1920.0,0.0007250977214425802
2048.0,0.00031407398637384176
2304.0,0.0009349734173156321
2560.0,-0.0018671664875000715
2816.0,5.525215237867087e-05
3072.0,-0.00263794744387269
3328.0,-0.0005565924220718443
3584.0,-0.0003388383483979851
3840.0,0.0011989842168986797
4096.0,-0.002942989580333233
4608.0,-0.0010689442278817296
5120.0,-0.00045181004679761827
5632.0,-0.00023764578509144485
6144.0,0.0008786614635027945
6656.0,0.001078790402971208
7168.0,0.0005598116549663246
7680.0,0.0006033180397935212
8192.0,0.0012157328892499208
9216.0,-0.00024583417689427733
10240.0,-0.0008211469394154847
11264.0,-0.0016888502286747098
12288.0,-0.00033707646070979536
13312.0,-0.0031575458124279976
14336.0,0.001970637356862426
end
