version,3.0
numOfCh,1
type,point
parent_name,800-cuts
ch_type,1_1
kcount,1
numberNandB,1
brightnessNandB,1
carpet pos,0
pc,0
Time (ms),CH1 Auto-Correlation
1.0,0.06394194066524506
2.0,0.0605374276638031
3.0,0.057385336607694626
4.0,0.05445721000432968
5.0,0.051639311015605927
6.0,0.04905301332473755
7.0,0.04662630334496498
8.0,0.04430859908461571
9.0,0.04215718060731888
10.0,0.04010079801082611
11.0,0.038112930953502655
12.0,0.03611880540847778
13.0,0.03428955376148224
14.0,0.03248284384608269
15.0,0.03072277270257473
16.0,0.029153695330023766
18.0,0.02610768750309944
20.0,0.023413043469190598
22.0,0.021167756989598274
24.0,0.01903052255511284
26.0,0.017141863703727722
28.0,0.01549111120402813
30.0,0.014034632593393326
32.0,0.012665985152125359
36.0,0.010385408997535706
40.0,0.00833886582404375
44.0,0.007064977660775185
48.0,0.0059358845464885235
52.0,0.005065334495157003
56.0,0.004577000625431538
60.0,0.004199362359941006
64.0,0.0035694818943738937
72.0,0.0022341273725032806
80.0,0.0016183439875021577
88.0,0.0023251394741237164
96.0,0.002971860347315669
104.0,0.0027212591376155615
112.0,0.001695105922408402
120.0,0.0002267943200422451
128.0,-0.0007142669637687504
144.0,-0.002301834523677826
160.0,-0.0018357118824496865
176.0,7.880775956436992e-05
192.0,0.0018265594262629747
208.0,0.0022753344383090734
224.0,0.002564650494605303
240.0,0.0015828738687559962
256.0,0.000817011168692261
288.0,0.0008997395052574575
320.0,0.0026988452300429344
352.0,0.0025269174948334694
384.0,0.00047189948963932693
416.0,0.0023881529923528433
448.0,0.0021251447033137083
480.0,-0.002380179241299629
512.0,-0.0005058476817794144
576.0,0.0022166313137859106
640.0,-0.0004335957346484065
704.0,-0.0015445054741576314
768.0,-0.00338756269775331
832.0,-0.00010111901792697608
896.0,0.0026504683773964643
960.0,0.0009556763689033687
1024.0,-0.002520699054002762
1152.0,-0.00015378212265204638
1280.0,0.0001455883466405794
1408.0,0.00042938359547406435
1536.0,-0.000867315218783915
1664.0,-0.0022703625727444887
1792.0,0.0015549977542832494
1920.0,0.00032112919143401086
2048.0,0.000937118602450937
2304.0,-0.0007352011161856353
2560.0,-0.0003074583364650607
2816.0,-8.373428136110306e-05
3072.0,0.0014340876368805766
3328.0,-0.0003959698660764843
3584.0,0.000595774850808084
3840.0,-0.0008936087251640856
4096.0,0.0011502017732709646
4608.0,-0.0010743046877905726
5120.0,-5.2828763728030026e-05
5632.0,-0.0026814769953489304
6144.0,0.0003207970003131777
6656.0,-0.0008673362899571657
7168.0,-0.0004263433802407235
7680.0,-0.0009551289840601385
8192.0,0.0013187839649617672
9216.0,0.00035288435174152255
10240.0,0.0003779082908295095
11264.0,8.764601807342842e-05
12288.0,0.0006693371688015759
13312.0,-0.0015510041266679764
14336.0,-0.001489667920395732
end
