version,3.0
numOfCh,1
type,point
parent_name,800-cuts
ch_type,1_1
kcount,1
numberNandB,1
brightnessNandB,1
carpet pos,0
pc,0
Time (ms),CH1 Auto-Correlation
1.0,0.07636284083127975
2.0,0.0718710646033287
3.0,0.06770239025354385
4.0,0.06379688531160355
5.0,0.06016537547111511
6.0,0.05659734085202217
7.0,0.05317243933677673
8.0,0.04999208077788353
9.0,0.047106463462114334
10.0,0.04436846077442169
11.0,0.04172620549798012
12.0,0.039291832596063614
13.0,0.03708632290363312
14.0,0.035072386264801025
15.0,0.03320466727018356
16.0,0.03170659393072128
18.0,0.028705893084406853
20.0,0.025669410824775696
22.0,0.022971853613853455
24.0,0.02073601447045803
26.0,0.018742172047495842
28.0,0.016792094334959984
30.0,0.014990407042205334
32.0,0.013404802419245243
36.0,0.010768631473183632
40.0,0.008471459150314331
44.0,0.00668659433722496
48.0,0.00499493395909667
52.0,0.0030147877987474203
56.0,0.001254999777302146
60.0,-0.00028379811556078494
64.0,-0.0008446219144389033
72.0,-0.0008548782207071781
80.0,-0.0011808763956651092
88.0,-0.0026243804022669792
96.0,-0.004097186028957367
104.0,-0.005126958712935448
112.0,-0.005249968264251947
120.0,-0.004311847034841776
128.0,-0.00396604323759675
144.0,-0.0021148694213479757
160.0,-0.00012829198385588825
176.0,7.234908116515726e-05
192.0,0.0010423535713925958
208.0,0.0011813445016741753
224.0,0.00217983010224998
240.0,0.0024748381692916155
256.0,0.0015781635884195566
288.0,0.0008342248038388789
320.0,0.0018182216444984078
352.0,0.00030189374228939414
384.0,-0.0010116788325831294
416.0,-0.00020653047249652445
448.0,0.0026750557590276003
480.0,0.0019084328087046742
512.0,0.00044197976239956915
576.0,-0.004695657640695572
640.0,-0.0007527985144406557
704.0,0.0025889917742460966
768.0,0.0007651288760825992
832.0,0.0008012495818547904
896.0,0.0007363511249423027
960.0,-0.0006523649208247662
1024.0,-0.0005739103071391582
1152.0,-0.00155391707085073
1280.0,-0.0010957159101963043
1408.0,-0.0031440032180398703
1536.0,0.00021914542594458908
1664.0,7.368216756731272e-05
1792.0,-0.0021690588910132647
1920.0,-0.0001082651870092377
2048.0,-0.0003594344889279455
2304.0,-0.0010446141241118312
2560.0,-0.0003191422438248992
2816.0,0.00106520252302289
3072.0,0.0008872203761711717
3328.0,0.0008822695235721767
3584.0,0.0030252744909375906
3840.0,-8.802870434010401e-05
4096.0,0.000832941965200007
4608.0,-0.0010301994625478983
5120.0,-0.0012491272063925862
5632.0,0.0002214714913861826
6144.0,0.0002930729533545673
6656.0,-0.00011444908886915073
7168.0,0.00042356198537163436
7680.0,0.00031082279747352004
8192.0,-0.0013530257856473327
9216.0,0.00023499802045989782
10240.0,0.0014502790290862322
11264.0,-0.0014770799316465855
12288.0,0.0010395074496045709
13312.0,0.002703135134652257
14336.0,-0.0042793238535523415
end
