version,3.0
numOfCh,1
type,point
parent_name,800-cuts
ch_type,1_1
kcount,1
numberNandB,1
brightnessNandB,1
carpet pos,0
pc,0
Time (ms),CH1 Auto-Correlation
1.0,0.04559849575161934
2.0,0.043120093643665314
3.0,0.04078789800405502
4.0,0.038548439741134644
5.0,0.03640874847769737
6.0,0.03438588231801987
7.0,0.032447412610054016
8.0,0.030634822323918343
9.0,0.028896188363432884
10.0,0.02727726474404335
11.0,0.025749575346708298
12.0,0.024278564378619194
13.0,0.02284565195441246
14.0,0.02144225500524044
15.0,0.020183328539133072
16.0,0.019024956971406937
18.0,0.01714618131518364
20.0,0.015407856553792953
22.0,0.013743190094828606
24.0,0.012269550003111362
26.0,0.010917199775576591
28.0,0.009804432280361652
30.0,0.008723371662199497
32.0,0.007811015006154776
36.0,0.006094411015510559
40.0,0.004616983700543642
44.0,0.0035428295377641916
48.0,0.0028009647503495216
52.0,0.002259008353576064
56.0,0.0017997788963839412
60.0,0.0012244917452335358
64.0,0.0005722566274926066
72.0,-0.0005357156042009592
80.0,-0.000844390713609755
88.0,-0.00037568018888123333
96.0,7.26207290426828e-05
104.0,0.000666074687615037
112.0,0.0004808837256859988
120.0,0.00013930171553511173
128.0,0.00024349568411707878
144.0,-0.0001405979273840785
160.0,-0.0010839301394298673
176.0,-0.0015402038116008043
192.0,-0.00029240312869660556
208.0,-0.0007821208564564586
224.0,-0.0005121838767081499
240.0,-0.00011471375182736665
256.0,-0.00019512342987582088
288.0,-0.002024689456447959
320.0,-0.0014136637328192592
352.0,0.00037038177833892405
384.0,-0.00016583265096414834
416.0,-0.001246134634129703
448.0,-0.001410759869031608
480.0,-0.0007327517378143966
512.0,-0.0005883137928321958
576.0,0.0001639586262172088
640.0,0.000322525214869529
704.0,0.0006241057417355478
768.0,0.00032278065918944776
832.0,-5.385234180721454e-05
896.0,0.00153992953710258
960.0,-0.0013207700103521347
1024.0,-0.0006752058397978544
1152.0,-0.0007736172410659492
1280.0,-0.0009013015078380704
1408.0,0.0012221366632729769
1536.0,0.0006156500894576311
1664.0,0.001807055319659412
1792.0,-0.0009482934256084263
1920.0,-0.0008532526553608477
2048.0,-0.0006693991599604487
2304.0,8.108092879410833e-05
2560.0,-0.0001472404837841168
2816.0,-0.00035315638524480164
3072.0,0.0007882763165980577
3328.0,0.00035266767372377217
3584.0,-0.0013392862165346742
3840.0,-0.0007164974813349545
4096.0,0.0004551954916678369
4608.0,-0.0001792337279766798
5120.0,-0.0008998855482786894
5632.0,0.0010704766027629375
6144.0,-0.00042016245424747467
6656.0,-0.0003412988444324583
7168.0,0.0011817194754257798
7680.0,-0.0009853750234469771
8192.0,0.0016793305985629559
9216.0,-0.0007303061429411173
10240.0,-0.000373141752788797
11264.0,0.0006714991177432239
12288.0,-0.0007794772973284125
13312.0,-0.0002839741646312177
14336.0,-6.962544284760952e-05
end
