version,3.0
numOfCh,1
type,point
parent_name,800-cuts
ch_type,1_1
kcount,1
numberNandB,1
brightnessNandB,1
carpet pos,0
pc,0
Time (ms),CH1 Auto-Correlation
1.0,0.10083811730146408
2.0,0.09498424828052521
3.0,0.08938807249069214
4.0,0.08406880497932434
5.0,0.07902077585458755
6.0,0.07428565621376038
7.0,0.06991049647331238
8.0,0.06583993881940842
9.0,0.06200043112039566
10.0,0.05846206098794937
11.0,0.055123068392276764
12.0,0.051831550896167755
13.0,0.04870036989450455
14.0,0.04598056524991989
15.0,0.04340818151831627
16.0,0.04081276059150696
18.0,0.03608567267656326
20.0,0.03190641850233078
22.0,0.02813420444726944
24.0,0.025002766400575638
26.0,0.022211983799934387
28.0,0.019849946722388268
30.0,0.017464658245444298
32.0,0.015317649580538273
36.0,0.012219066731631756
40.0,0.00991968996822834
44.0,0.007588901557028294
48.0,0.006446920335292816
52.0,0.005250371061265469
56.0,0.004487425554543734
60.0,0.0036994959227740765
64.0,0.0028156114276498556
72.0,0.0005151674267835915
80.0,-0.0016659098910167813
88.0,-0.0029297112487256527
96.0,-0.003282912541180849
104.0,-0.0030640235636383295
112.0,-0.0030979004222899675
120.0,-0.001976816216483712
128.0,-0.0014695223653689027
144.0,-0.0032471055164933205
160.0,-0.0004906356334686279
176.0,0.0011844407999888062
192.0,0.0029933296609669924
208.0,0.003970778547227383
224.0,0.0022916009183973074
240.0,0.0019491242710500956
256.0,0.002346424851566553
288.0,-0.0014858905924484134
320.0,-0.0015017642872408032
352.0,-0.0021382845006883144
384.0,-0.0010834797285497189
416.0,-0.001997317187488079
448.0,-0.0009082970209419727
480.0,-0.0010528196580708027
512.0,-0.0024887851905077696
576.0,-7.881102646933869e-05
640.0,-0.0019839631859213114
704.0,-0.0005315727321431041
768.0,-0.0016563204117119312
832.0,-0.0018959020962938666
896.0,0.0007114289328455925
960.0,0.0006813216023147106
1024.0,-0.003021563868969679
1152.0,0.004535414278507233
1280.0,-0.001666510128416121
1408.0,0.0016110518481582403
1536.0,0.0012644738890230656
1664.0,0.0014427016722038388
1792.0,0.0006238530622795224
1920.0,-0.0014258865267038345
2048.0,-0.0032609712798148394
2304.0,-0.0010681230342015624
2560.0,-0.00028067000675946474
2816.0,0.00223092851229012
3072.0,-0.001991685014218092
3328.0,-0.0010825295466929674
3584.0,1.0632257726683747e-05
3840.0,-0.0019164144759997725
4096.0,0.0008668280206620693
4608.0,-0.0029361664783209562
5120.0,-0.0006271314923651516
5632.0,0.0033487516921013594
6144.0,-0.00302302953787148
6656.0,0.00010625126014929265
7168.0,0.0006389907794073224
7680.0,-0.0012078795116394758
8192.0,0.0009596036397852004
9216.0,0.0022146839182823896
10240.0,-0.0015565400244668126
11264.0,-0.0011177670676261187
12288.0,-0.0003222093218937516
13312.0,0.0003961513575632125
14336.0,0.0028481429908424616
end
