version,3.0
numOfCh,1
type,point
parent_name,800-cuts
ch_type,1_1
kcount,1
numberNandB,1
brightnessNandB,1
carpet pos,0
pc,0
Time (ms),CH1 Auto-Correlation
1.0,0.07598043978214264
2.0,0.0722205862402916
3.0,0.06866923719644547
4.0,0.06528764963150024
5.0,0.06207887828350067
6.0,0.058991942554712296
7.0,0.05615063011646271
8.0,0.05349642410874367
9.0,0.05092206224799156
10.0,0.04853792488574982
11.0,0.046217940747737885
12.0,0.04401082918047905
13.0,0.04194007068872452
14.0,0.039989173412323
15.0,0.03812016174197197
16.0,0.03629655763506889
18.0,0.03287547081708908
20.0,0.02983945980668068
22.0,0.027236569672822952
24.0,0.02502421848475933
26.0,0.023111408576369286
28.0,0.021300140768289566
30.0,0.01969756744801998
32.0,0.018375661224126816
36.0,0.016207817941904068
40.0,0.014666672796010971
44.0,0.013527872040867805
48.0,0.011882979422807693
52.0,0.010194413363933563
56.0,0.008184755221009254
60.0,0.006505055818706751
64.0,0.005203530192375183
72.0,0.0040226406417787075
80.0,0.003264368511736393
88.0,0.002957525895908475
96.0,0.002588501200079918
104.0,0.0024200999177992344
112.0,0.0027079181745648384
120.0,0.002527148462831974
128.0,0.00195507425814867
144.0,0.0008552657091058791
160.0,0.0005769386771135032
176.0,-0.0019881685730069876
192.0,-0.003214501542970538
208.0,-0.004198696464300156
224.0,-0.005541535094380379
240.0,-0.003802345599979162
256.0,-0.0012010846985504031
288.0,0.002600093139335513
320.0,0.0035175359807908535
352.0,0.002143041230738163
384.0,0.0026495051570236683
416.0,0.00198534969240427
448.0,-0.0020867343991994858
480.0,-0.005087224300950766
512.0,-0.005273270420730114
576.0,0.0009002375300042331
640.0,0.0033112780656665564
704.0,0.001322206691838801
768.0,-0.0001636281522223726
832.0,-0.0011618629796430469
896.0,0.003476165933534503
960.0,0.005249536596238613
1024.0,0.004504481330513954
1152.0,0.0003636607143562287
1280.0,0.00038013345329090953
1408.0,-5.247723311185837e-05
1536.0,0.0012535424903035164
1664.0,0.0012119158636778593
1792.0,0.002014020225033164
1920.0,-0.0004486005345825106
2048.0,-0.0021730063017457724
2304.0,0.0003580588672775775
2560.0,0.0013775916304439306
2816.0,7.37394075258635e-05
3072.0,0.00026391653227619827
3328.0,0.0005830019363202155
3584.0,-0.0013135046465322375
3840.0,-0.0006076323916204274
4096.0,-0.0007553570903837681
4608.0,-0.0013660332188010216
5120.0,0.00015700797666795552
5632.0,-0.003613631473854184
6144.0,-0.0011550982017070055
6656.0,-0.002484446857124567
7168.0,-0.001812027650885284
7680.0,-0.0003732465847861022
8192.0,-0.0018703495152294636
9216.0,4.855186944041634e-06
10240.0,-0.0007694673258811235
11264.0,0.0014284075004979968
12288.0,0.0018503856845200062
13312.0,-0.00020291209511924535
14336.0,-0.000641177233774215
end
