version,3.0
numOfCh,1
type,point
parent_name,800-cuts
ch_type,1_1
kcount,1
numberNandB,1
brightnessNandB,1
carpet pos,0
pc,0
Time (ms),CH1 Auto-Correlation
1.0,0.0500226691365242
2.0,0.047374505549669266
3.0,0.0448717325925827
4.0,0.042530354112386703
5.0,0.04030118137598038
6.0,0.0381474606692791
7.0,0.03605007007718086
8.0,0.034047145396471024
9.0,0.03215508908033371
10.0,0.030401485040783882
11.0,0.028694041073322296
12.0,0.02716504968702793
13.0,0.025674166157841682
14.0,0.02430051751434803
15.0,0.022948287427425385
16.0,0.02170189470052719
18.0,0.019390013068914413
20.0,0.017335664480924606
22.0,0.01552942581474781
24.0,0.013979854993522167
26.0,0.01253565400838852
28.0,0.011177442036569118
30.0,0.009932952001690865
32.0,0.00886647030711174
36.0,0.0070738233625888824
40.0,0.005304582882672548
44.0,0.0038900175131857395
48.0,0.002956473734229803
52.0,0.002237791195511818
56.0,0.0016475560842081904
60.0,0.0011213243706151843
64.0,0.00046466864296235144
72.0,-0.00040561897912994027
80.0,-0.0016673937207087874
88.0,-0.0029377934988588095
96.0,-0.0037669697776436806
104.0,-0.003699999302625656
112.0,-0.0030263992957770824
120.0,-0.002924602944403887
128.0,-0.002633904805406928
144.0,-0.0023474108893424273
160.0,-0.0014584872405976057
176.0,-0.00018998952873516828
192.0,0.0011562363943085074
208.0,0.0025937750469893217
224.0,0.0022187293507158756
240.0,0.0010526482947170734
256.0,0.0001419285690644756
288.0,-0.00011233315308345482
320.0,0.0008551834616810083
352.0,2.5285235096816905e-05
384.0,0.0018126105424016714
416.0,0.0003373033832758665
448.0,-0.0016990653239190578
480.0,-0.002091048751026392
512.0,-0.002028438961133361
576.0,0.0022131078876554966
640.0,0.0006226360565051436
704.0,-0.0010922510409727693
768.0,0.0014760025078430772
832.0,-0.0006848821067251265
896.0,-0.00022092188009992242
960.0,0.0001500033977208659
1024.0,0.0009681508527137339
1152.0,-0.0011374757159501314
1280.0,-0.0007061947835609317
1408.0,-0.001216833246871829
1536.0,-6.72501846565865e-05
1664.0,0.000539962260518223
1792.0,-0.00024115839914884418
1920.0,-0.0009576878510415554
2048.0,-0.00035610239137895405
2304.0,-0.0006901661981828511
2560.0,-0.0007689029444009066
2816.0,-0.000872388482093811
3072.0,-0.000274296646239236
3328.0,0.0018521446036174893
3584.0,0.0008526049787178636
3840.0,0.00018521818856243044
4096.0,-0.00033507123589515686
4608.0,0.00021018768893554807
5120.0,-0.00031815021065995097
5632.0,0.00031592848245054483
6144.0,-0.0010222559794783592
6656.0,-0.0010317082051187754
7168.0,-0.0002268287498736754
7680.0,0.00039196680882014334
8192.0,7.561213715234771e-05
9216.0,-0.000999261043034494
10240.0,0.0003128073294647038
11264.0,0.0015419402625411749
12288.0,-0.0012354314094409347
13312.0,-0.00036862201523035765
14336.0,0.0008932641940191388
end
