version,3.0
numOfCh,1
type,point
parent_name,800-cuts
ch_type,1_1
kcount,1
numberNandB,1
brightnessNandB,1
carpet pos,0
pc,0
Time (ms),CH1 Auto-Correlation
1.0,0.023340236395597458
2.0,0.021999835968017578
3.0,0.02070988528430462
4.0,0.019506195560097694
5.0,0.01835838332772255
6.0,0.017277399078011513
7.0,0.01622828096151352
8.0,0.015249826945364475
9.0,0.014325862750411034
10.0,0.01344821136444807
11.0,0.012655704282224178
12.0,0.01190392579883337
13.0,0.011178333312273026
14.0,0.010499660857021809
15.0,0.009882182814180851
16.0,0.009272768162190914
18.0,0.008110358379781246
20.0,0.00709586450830102
22.0,0.006203178782016039
24.0,0.005410897079855204
26.0,0.004646970424801111
28.0,0.00400503957644105
30.0,0.003465296234935522
32.0,0.003041114192456007
36.0,0.0022942889481782913
40.0,0.0017722912598401308
44.0,0.0013397401198744774
48.0,0.0010303527815267444
52.0,0.0006950495298951864
56.0,0.00030351808527484536
60.0,-0.000114305286842864
64.0,-0.00040025170892477036
72.0,-0.0005108307814225554
80.0,-0.0006782318814657629
88.0,-0.000802016700617969
96.0,-0.0006059008883312345
104.0,-0.0005992224323563278
112.0,-0.000654757022857666
120.0,-0.0006619367632083595
128.0,-0.0004449958505574614
144.0,0.00014363013906404376
160.0,0.0010081507498398423
176.0,0.0014435433549806476
192.0,0.0006110006361268461
208.0,-0.0003846237377729267
224.0,-0.0006841846043244004
240.0,-0.000683159101754427
256.0,-0.0004908442497253418
288.0,-0.0009555690921843052
320.0,0.0005862170364707708
352.0,0.000971729401499033
384.0,0.00014996336540207267
416.0,0.00024698529159650207
448.0,-0.00042403084808029234
480.0,0.0003134152793791145
512.0,0.0006187126273289323
576.0,-0.0006160781485959888
640.0,-0.00033298044581897557
704.0,-0.0007018692558631301
768.0,-0.00017986391321755946
832.0,0.00021350776660256088
896.0,-0.0007506566471420228
960.0,-0.00024749268777668476
1024.0,0.00022347377671394497
1152.0,-0.0003884696925524622
1280.0,0.0004228856705594808
1408.0,0.00044114707270637155
1536.0,0.0005304552614688873
1664.0,-0.0004451983259059489
1792.0,0.0001855071313912049
1920.0,-0.00022297745454125106
2048.0,0.00031422992469742894
2304.0,-0.0006866639014333487
2560.0,-0.00038777393638156354
2816.0,0.0005064309807494283
3072.0,-0.00015533364785369486
3328.0,0.000376519572455436
3584.0,-5.847185093443841e-06
3840.0,-1.7097221643780358e-05
4096.0,-0.0003528098459355533
4608.0,8.504567085765302e-05
5120.0,-0.0002335084427613765
5632.0,-0.00020064861746504903
6144.0,0.0001176549048977904
6656.0,-2.4654022126924247e-05
7168.0,-0.0002881807740777731
7680.0,0.0008695130236446857
8192.0,0.00010931634460575879
9216.0,-0.00012765120482072234
10240.0,-0.0005114708910696208
11264.0,0.000549508782569319
12288.0,-0.0001843439240474254
13312.0,-0.000185388169484213
14336.0,0.00022135367908049375
end
