version,3.0
numOfCh,1
type,point
parent_name,800-cuts
ch_type,1_1
kcount,1
numberNandB,1
brightnessNandB,1
carpet pos,0
pc,0
Time (ms),CH1 Auto-Correlation
1.0,0.023747170343995094
2.0,0.022377092391252518
3.0,0.021075185388326645
4.0,0.01988406851887703
5.0,0.018755387514829636
6.0,0.017680810764431953
7.0,0.016659259796142578
8.0,0.015682818368077278
9.0,0.014747080393135548
10.0,0.013863653875887394
11.0,0.0130089670419693
12.0,0.012213091365993023
13.0,0.011418460868299007
14.0,0.010651743970811367
15.0,0.009924189187586308
16.0,0.009222538210451603
18.0,0.007974542677402496
20.0,0.0069411443546414375
22.0,0.006043835077434778
24.0,0.005268292035907507
26.0,0.0046608406119048595
28.0,0.00412742281332612
30.0,0.0037144336383789778
32.0,0.0033776573836803436
36.0,0.0028077056631445885
40.0,0.0025168792344629765
44.0,0.0023090739268809557
48.0,0.001970186596736312
52.0,0.001692946651019156
56.0,0.001296821516007185
60.0,0.0008397276978939772
64.0,0.0005993469967506826
72.0,0.00011084011930506676
80.0,-0.0004982419777661562
88.0,-0.0008169715874828398
96.0,-0.0006410298519767821
104.0,1.9464474462438375e-05
112.0,0.0006255307816900313
120.0,0.000732403015717864
128.0,0.00032493865001015365
144.0,-0.00016275588131975383
160.0,-0.0006198938353918493
176.0,-0.0002899508981499821
192.0,0.0004591887991409749
208.0,0.0007247131434269249
224.0,0.0004222931747790426
240.0,6.348193710437045e-05
256.0,-0.0003608966071624309
288.0,-0.0006173222209326923
320.0,0.0005335555761121213
352.0,0.0007813693373464048
384.0,-0.000697907991707325
416.0,-0.0005724831717088819
448.0,-0.00013510286225937307
480.0,0.0006066442001610994
512.0,0.0006875597173348069
576.0,0.00017763779032975435
640.0,-0.0007082379888743162
704.0,4.953074676450342e-05
768.0,-4.176880247541703e-05
832.0,0.0002014230703935027
896.0,-7.57362213335e-05
960.0,-0.0007440336630679667
1024.0,-0.00023497101210523397
1152.0,-0.0009439995046705008
1280.0,-0.00014662074681837112
1408.0,0.0012028040364384651
1536.0,0.000524562259670347
1664.0,-0.001170637784525752
1792.0,-2.4563241822761483e-05
1920.0,-0.0002805523690767586
2048.0,0.00011138479021610692
2304.0,-0.0004590166499838233
2560.0,-0.00020496083016041666
2816.0,0.0005040273535996675
3072.0,-0.0004690938803832978
3328.0,0.0008274986757896841
3584.0,-0.00024355947971343994
3840.0,-0.0008129272027872503
4096.0,0.0004145622660871595
4608.0,0.00044933572644367814
5120.0,-0.00036826333962380886
5632.0,-0.0005172041128389537
6144.0,6.970631511649117e-05
6656.0,0.00030429300386458635
7168.0,-2.9419503334793262e-05
7680.0,0.00019443241762928665
8192.0,-0.0001885562960524112
9216.0,0.000679367920383811
10240.0,-0.0007725577452220023
11264.0,-0.00028789916541427374
12288.0,0.00011967060709139332
13312.0,0.00015950769011396915
14336.0,-0.0008505486766807735
end
