version,3.0
numOfCh,1
type,point
parent_name,800-cuts
ch_type,1_1
kcount,1
numberNandB,1
brightnessNandB,1
carpet pos,0
pc,0
Time (ms),CH1 Auto-Correlation
1.0,0.06844816356897354
2.0,0.06432731449604034
3.0,0.060437195003032684
4.0,0.056943610310554504
5.0,0.05359695106744766
6.0,0.05041329190135002
7.0,0.04738553985953331
8.0,0.044655680656433105
9.0,0.04212037846446037
10.0,0.03976665809750557
11.0,0.03743666037917137
12.0,0.03538628667593002
13.0,0.03360860049724579
14.0,0.031987909227609634
15.0,0.030437638983130455
16.0,0.02897191047668457
18.0,0.026348810642957687
20.0,0.024179775267839432
22.0,0.02212420478463173
24.0,0.02025233954191208
26.0,0.0186532661318779
28.0,0.01729074865579605
30.0,0.015809331089258194
32.0,0.014295071363449097
36.0,0.011472323909401894
40.0,0.009760662913322449
44.0,0.008825344033539295
48.0,0.008548494428396225
52.0,0.007910382002592087
56.0,0.006529767066240311
60.0,0.005559046287089586
64.0,0.005021733697503805
72.0,0.004470109939575195
80.0,0.0030552635435014963
88.0,0.0015518260188400745
96.0,-0.00011006910790456459
104.0,-0.0010268839541822672
112.0,-0.0005825794651173055
120.0,0.00043720935354940593
128.0,0.00032049953006207943
144.0,-0.001281257369555533
160.0,-0.0011103724827989936
176.0,0.0012170053087174892
192.0,0.0022995388135313988
208.0,0.0038040520157665014
224.0,0.0031958806794136763
240.0,0.00079302245285362
256.0,-0.0013061509234830737
288.0,-0.0031891053076833487
320.0,-0.001353501109406352
352.0,-0.0006907432689331472
384.0,-0.0005498927785083652
416.0,-0.0012519743759185076
448.0,-0.002128944732248783
480.0,-0.0012562575284391642
512.0,-0.0009500657324679196
576.0,-0.002049146220088005
640.0,0.00026578400866128504
704.0,0.0006514415726996958
768.0,-0.0010098725324496627
832.0,0.00037700089160352945
896.0,7.592584006488323e-05
960.0,-0.0015148462262004614
1024.0,-0.0011314876610413194
1152.0,-0.000589441682677716
1280.0,0.0017444246914237738
1408.0,0.00012790007167495787
1536.0,0.0013361689634621143
1664.0,-0.00022083426301833242
1792.0,-0.00178474688436836
1920.0,-0.002996335970237851
2048.0,0.0019351931987330317
2304.0,-0.0008419482037425041
2560.0,-0.001866424921900034
2816.0,0.0017344392836093903
3072.0,-0.0015496365958824754
3328.0,-0.0008163629099726677
3584.0,0.0002698358439374715
3840.0,0.000774949905462563
4096.0,-0.0009946906939148903
4608.0,7.772861863486469e-05
5120.0,-0.00021901600121054798
5632.0,-0.000995838432572782
6144.0,0.002544333226978779
6656.0,-0.0005483643617480993
7168.0,-0.0012435406679287553
7680.0,0.00012685781985055655
8192.0,0.00024264547391794622
9216.0,-0.00038959889207035303
10240.0,-0.0008460507378913462
11264.0,-0.0005226142820902169
12288.0,0.000761127274017781
13312.0,-0.0007088840939104557
14336.0,-4.015207014163025e-05
end
