version,3.0
numOfCh,1
type,point
parent_name,800-cuts
ch_type,1_1
kcount,1
numberNandB,1
brightnessNandB,1
carpet pos,0
pc,0
Time (ms),CH1 Auto-Correlation
1.0,0.02785838209092617
2.0,0.02634960599243641
3.0,0.02490323968231678
4.0,0.023534193634986877
5.0,0.022237351164221764
6.0,0.021011171862483025
7.0,0.019847765564918518
8.0,0.018735742196440697
9.0,0.017665615305304527
10.0,0.016626844182610512
11.0,0.01567019708454609
12.0,0.014795798808336258
13.0,0.013973441906273365
14.0,0.013168134726583958
15.0,0.012441516853868961
16.0,0.011733564548194408
18.0,0.01051813643425703
20.0,0.009437370114028454
22.0,0.008477142080664635
24.0,0.007632540073245764
26.0,0.006838594097644091
28.0,0.00611961679533124
30.0,0.005548362620174885
32.0,0.005132353398948908
36.0,0.004567597061395645
40.0,0.004214408807456493
44.0,0.0037314475048333406
48.0,0.003134828992187977
52.0,0.002597491955384612
56.0,0.0020690823439508677
60.0,0.0016654155915603042
64.0,0.0014025202253833413
72.0,0.0011677462607622147
80.0,0.0011624067556113005
88.0,0.0009751624311320484
96.0,0.0001817865704651922
104.0,-0.0004316607373766601
112.0,-0.000642373226583004
120.0,-0.0006990800611674786
128.0,-0.0009522915934212506
144.0,-0.001237873686477542
160.0,2.0000030417577364e-05
176.0,7.805149652995169e-05
192.0,-0.00046321540139615536
208.0,-0.0003465626505203545
224.0,0.00014188193017616868
240.0,7.46428850106895e-05
256.0,-0.0002225524658570066
288.0,-0.00011182152229594067
320.0,-5.052063352195546e-05
352.0,-0.0009243800304830074
384.0,-0.0019528463017195463
416.0,-0.0006283549591898918
448.0,-0.00025889024254865944
480.0,-0.0003148464602418244
512.0,-0.0007485864334739745
576.0,0.0001801788021111861
640.0,0.0006064961198717356
704.0,0.00030298164347186685
768.0,0.000118282187031582
832.0,-0.0006232984596863389
896.0,0.00016149430302903056
960.0,0.0010323047172278166
1024.0,0.0008941562264226377
1152.0,-0.0011989171616733074
1280.0,0.0004922779626213014
1408.0,-0.0007361273164860904
1536.0,-3.135759470751509e-05
1664.0,0.0007368583464995027
1792.0,9.533113916404545e-05
1920.0,0.001020126510411501
2048.0,-0.00030185573268681765
2304.0,-0.0013742133742198348
2560.0,0.0006163386278785765
2816.0,-0.0003883534809574485
3072.0,-0.0005003956030122936
3328.0,0.00018562479817774147
3584.0,-0.000788248551543802
3840.0,-0.000615426164586097
4096.0,0.00045907768071629107
4608.0,-0.00015888579946476966
5120.0,0.00011514238576637581
5632.0,0.0005008517182432115
6144.0,-0.00018420880951453
6656.0,0.0007242184947244823
7168.0,0.00015855087258387357
7680.0,-0.00020536176452878863
8192.0,0.0003330143808852881
9216.0,-0.00016754111857153475
10240.0,-0.0007873236900195479
11264.0,0.00016705199959687889
12288.0,-0.00017224375915247947
13312.0,0.0005451279575936496
14336.0,0.00081564363790676
end
