version,3.0
numOfCh,1
type,point
parent_name,800-cuts
ch_type,1_1
kcount,1
numberNandB,1
brightnessNandB,1
carpet pos,0
pc,0
Time (ms),CH1 Auto-Correlation
1.0,0.059279028326272964
2.0,0.05590522661805153
3.0,0.052872151136398315
4.0,0.05015377327799797
5.0,0.047535695135593414
6.0,0.04502736032009125
7.0,0.042605649679899216
8.0,0.040413327515125275
9.0,0.03831031545996666
10.0,0.036353494971990585
11.0,0.034566715359687805
12.0,0.032896142452955246
13.0,0.03134431689977646
14.0,0.029813822358846664
15.0,0.028412887826561928
16.0,0.027040299028158188
18.0,0.024465566501021385
20.0,0.022131815552711487
22.0,0.020076189190149307
24.0,0.018324004486203194
26.0,0.01667826808989048
28.0,0.01522259321063757
30.0,0.013937371782958508
32.0,0.012837064452469349
36.0,0.010685471817851067
40.0,0.008732720278203487
44.0,0.0069944728165864944
48.0,0.005570927634835243
52.0,0.004390079062432051
56.0,0.00357515225186944
60.0,0.003015972441062331
64.0,0.0025092018768191338
72.0,0.0025181258097290993
80.0,0.0020073845516890287
88.0,0.0009972272673621774
96.0,0.0004870175907853991
104.0,1.4363971786224283e-05
112.0,0.0008186985505744815
120.0,0.0008211255772039294
128.0,0.0001533789181848988
144.0,0.000584753230214119
160.0,0.0009542499901726842
176.0,0.0011638537980616093
192.0,-0.0010277025867253542
208.0,-0.0009062393801286817
224.0,-0.0017316443845629692
240.0,-0.0018000375712290406
256.0,-0.0008302877540700138
288.0,-0.004220922011882067
320.0,-0.0027907772455364466
352.0,-0.0014406144618988037
384.0,-0.0002090569760184735
416.0,0.0010542499367147684
448.0,-0.0016616914654150605
480.0,-0.0009962604381144047
512.0,-0.002275369595736265
576.0,0.0027686143293976784
640.0,0.0014468980953097343
704.0,-0.0007308744243346155
768.0,0.002976028947159648
832.0,0.002302013337612152
896.0,-0.00018885635654442012
960.0,0.000951177382376045
1024.0,0.004524948541074991
1152.0,-0.001329893828369677
1280.0,-0.0010336824925616384
1408.0,0.0012019254500046372
1536.0,-8.848730067256838e-05
1664.0,-0.0007609376916661859
1792.0,3.1848281651036814e-05
1920.0,-0.0002806033880915493
2048.0,-0.001733197714202106
2304.0,-0.000289104733383283
2560.0,0.000596351339481771
2816.0,0.00035525960265658796
3072.0,0.0008482268312945962
3328.0,-0.0011063056299462914
3584.0,0.0019213213818147779
3840.0,0.0014910779427736998
4096.0,-0.0005911902408115566
4608.0,0.00045453518396243453
5120.0,-0.000336960336426273
5632.0,-0.000512469734530896
6144.0,-0.00143897975794971
6656.0,-0.0007463125512003899
7168.0,-0.0005706282099708915
7680.0,4.094894393347204e-05
8192.0,0.0005103183211758733
9216.0,-0.0003381585411261767
10240.0,-0.001424807938747108
11264.0,-0.0009772218763828278
12288.0,0.0016692589269950986
13312.0,-0.0007500041974708438
14336.0,-0.0013674503425136209
end
