version,3.0
numOfCh,1
type,point
parent_name,800-cuts
ch_type,1_1
kcount,1
numberNandB,1
brightnessNandB,1
carpet pos,0
pc,0
Time (ms),CH1 Auto-Correlation
1.0,0.06292308866977692
2.0,0.0594632551074028
3.0,0.056206464767456055
4.0,0.052992284297943115
5.0,0.04994645342230797
6.0,0.04710117727518082
7.0,0.04449591785669327
8.0,0.042017608880996704
9.0,0.03962191194295883
10.0,0.03737467899918556
11.0,0.035349659621715546
12.0,0.033388860523700714
13.0,0.03154964745044708
14.0,0.029717400670051575
15.0,0.02793375588953495
16.0,0.026284096762537956
18.0,0.023339569568634033
20.0,0.020806433632969856
22.0,0.01848798245191574
24.0,0.01640947349369526
26.0,0.014471798203885555
28.0,0.012967213056981564
30.0,0.011758727952837944
32.0,0.010844490490853786
36.0,0.009021528996527195
40.0,0.007082757540047169
44.0,0.0057592629455029964
48.0,0.004605529364198446
52.0,0.0037683018017560244
56.0,0.0033103690948337317
60.0,0.0030271888244897127
64.0,0.002601535990834236
72.0,0.0012803736608475447
80.0,-2.6897087082033977e-05
88.0,-0.0007268752087838948
96.0,-0.0009417216060683131
104.0,-0.000573042081668973
112.0,0.0001930551225086674
120.0,0.000765160599257797
128.0,0.0002576229744590819
144.0,-0.001078108325600624
160.0,0.0022822346072643995
176.0,0.0034375658724457026
192.0,0.0008998931152746081
208.0,-0.0006909235962666571
224.0,-0.0027427009772509336
240.0,-0.002245483919978142
256.0,-0.0020275048445910215
288.0,-0.0031063624192029238
320.0,-0.0035057044588029385
352.0,-0.00342295179143548
384.0,-0.005215079057961702
416.0,-0.0025677401572465897
448.0,0.0015602634521201253
480.0,0.002902647713199258
512.0,0.0003555394650902599
576.0,-0.0008879202068783343
640.0,0.0005806867266073823
704.0,0.001271537970751524
768.0,-0.0011536480160430074
832.0,0.00021029468916822225
896.0,0.0004561833629850298
960.0,-0.0006054992554709315
1024.0,-0.002133279573172331
1152.0,0.00012111818796256557
1280.0,0.0006160895572975278
1408.0,-0.0009525454370304942
1536.0,0.0008230052189901471
1664.0,0.0022687199525535107
1792.0,0.0011998581467196345
1920.0,-0.000674389477353543
2048.0,-0.0003594918816816062
2304.0,0.0003966813674196601
2560.0,-5.982404400128871e-05
2816.0,-0.0025678062811493874
3072.0,0.0014699219027534127
3328.0,0.000134500369313173
3584.0,-0.0013554588658735156
3840.0,0.0014544710284098983
4096.0,0.0006455822731368244
4608.0,0.0002032324846368283
5120.0,-0.0001533260365249589
5632.0,-0.0005782967782579362
6144.0,0.00013543556269723922
6656.0,-0.00096881203353405
7168.0,-0.0003914044064003974
7680.0,0.00017817883053794503
8192.0,-0.0012539975577965379
9216.0,0.00030874874209985137
10240.0,-0.00037890137173235416
11264.0,0.0005100987618789077
12288.0,-0.00027390336617827415
13312.0,0.0002149912907043472
14336.0,-0.0008235887507908046
end
