version,3.0
numOfCh,1
type,point
parent_name,800-cuts
ch_type,1_1
kcount,1
numberNandB,1
brightnessNandB,1
carpet pos,0
pc,0
Time (ms),CH1 Auto-Correlation
1.0,0.05656640604138374
2.0,0.05341755226254463
3.0,0.05044063553214073
4.0,0.04764176905155182
5.0,0.04503035545349121
6.0,0.04243774339556694
7.0,0.04000508040189743
8.0,0.03775034472346306
9.0,0.03561165928840637
10.0,0.03356185555458069
11.0,0.031648918986320496
12.0,0.02977260947227478
13.0,0.028067493811249733
14.0,0.026553677394986153
15.0,0.025209607556462288
16.0,0.023887593299150467
18.0,0.021747220307588577
20.0,0.019980546087026596
22.0,0.01856824941933155
24.0,0.017348753288388252
26.0,0.016071069985628128
28.0,0.014837612397968769
30.0,0.013799137435853481
32.0,0.012900374829769135
36.0,0.011489110067486763
40.0,0.010444321669638157
44.0,0.00969702284783125
48.0,0.0089536989107728
52.0,0.008237803354859352
56.0,0.00736130028963089
60.0,0.006327234208583832
64.0,0.005732713267207146
72.0,0.004969375673681498
80.0,0.005073410924524069
88.0,0.005373348016291857
96.0,0.0048822578974068165
104.0,0.003622574033215642
112.0,0.0019992331508547068
120.0,0.001295034191571176
128.0,0.0010737538104876876
144.0,0.002003556815907359
160.0,0.002112593501806259
176.0,0.001445216592401266
192.0,0.0005832823808304965
208.0,-4.2696618038462475e-05
224.0,0.0009358699317090213
240.0,0.002325452631339431
256.0,0.0029894178733229637
288.0,0.003197635058313608
320.0,0.003087701741605997
352.0,0.006481646094471216
384.0,0.004568779841065407
416.0,0.002373527269810438
448.0,0.002793129300698638
480.0,0.001757080084644258
512.0,0.0018259056378155947
576.0,0.0008879908127710223
640.0,0.00011202471068827435
704.0,-0.00036779645597562194
768.0,0.0006316854851320386
832.0,0.003190969582647085
896.0,0.000500566209666431
960.0,0.000128410873003304
1024.0,-0.0011831835145130754
1152.0,-0.0028310620691627264
1280.0,-0.002107697306200862
1408.0,-0.0014050067402422428
1536.0,-0.0014040411915630102
1664.0,-0.00302761048078537
1792.0,0.0005553361843340099
1920.0,0.0015594195574522018
2048.0,-0.0003880145668517798
2304.0,-0.00047631809138692915
2560.0,0.00016918155597522855
2816.0,0.0007966094417497516
3072.0,0.0007719878340139985
3328.0,0.001060806098394096
3584.0,4.893938603345305e-05
3840.0,0.0008503488497808576
4096.0,-0.001378369051963091
4608.0,-0.0016713206423446536
5120.0,-0.0006688443827442825
5632.0,0.00031258814851753414
6144.0,0.00019625958520919085
6656.0,0.0015344006242230535
7168.0,0.0013265191810205579
7680.0,0.0018446879694238305
8192.0,0.0007114354521036148
9216.0,-0.0018335806671530008
10240.0,0.0003483374894130975
11264.0,-0.0011527517344802618
12288.0,-0.002534945262596011
13312.0,-0.0028341577854007483
14336.0,0.00513762142509222
end
