version,3.0
numOfCh,1
type,point
parent_name,800-cuts
ch_type,1_1
kcount,1
numberNandB,1
brightnessNandB,1
carpet pos,0
pc,0
Time (ms),CH1 Auto-Correlation
1.0,0.05906200781464577
2.0,0.056027673184871674
3.0,0.053169433027505875
4.0,0.05055908113718033
5.0,0.04819784313440323
6.0,0.04589657112956047
7.0,0.04366305097937584
8.0,0.04164086654782295
9.0,0.03962710499763489
10.0,0.037683967500925064
11.0,0.03586989641189575
12.0,0.03422132879495621
13.0,0.03259797394275665
14.0,0.031071217730641365
15.0,0.02961828000843525
16.0,0.028241697698831558
18.0,0.025760268792510033
20.0,0.02374275214970112
22.0,0.02192889153957367
24.0,0.020323721691966057
26.0,0.018648024648427963
28.0,0.01693512685596943
30.0,0.015588413923978806
32.0,0.014439592137932777
36.0,0.012165317311882973
40.0,0.010222394950687885
44.0,0.008798505179584026
48.0,0.007918699644505978
52.0,0.006966596469283104
56.0,0.006052550859749317
60.0,0.004806480370461941
64.0,0.003772260155528784
72.0,0.002175081055611372
80.0,0.0009305550483986735
88.0,0.0014847595011815429
96.0,0.0030119498260319233
104.0,0.004014796111732721
112.0,0.004197518806904554
120.0,0.00491370027884841
128.0,0.005526318680495024
144.0,0.00266893208026886
160.0,0.0002491593477316201
176.0,-0.0015641150530427694
192.0,-0.002059690421447158
208.0,-0.001869054976850748
224.0,0.0007394067943096161
240.0,0.0023217624984681606
256.0,0.003652608720585704
288.0,0.00340042426250875
320.0,0.0034729677718132734
352.0,0.001794294104911387
384.0,0.005321658682078123
416.0,0.00505548482760787
448.0,0.0034395908005535603
480.0,0.0038603651337325573
512.0,0.0054641179740428925
576.0,0.005531995557248592
640.0,0.0015698847128078341
704.0,0.0014516558730974793
768.0,-0.0005390223814174533
832.0,0.00024682655930519104
896.0,0.0037405588664114475
960.0,0.0026454373728483915
1024.0,0.0016553192399442196
1152.0,0.002583817346021533
1280.0,0.0017153960652649403
1408.0,0.0015385696897283196
1536.0,-8.653695840621367e-05
1664.0,0.0009014531970024109
1792.0,0.0011437777429819107
1920.0,-0.0010638365056365728
2048.0,0.0002542510337661952
2304.0,-0.0011845598928630352
2560.0,-8.444405830232427e-05
2816.0,-0.002678903052583337
3072.0,0.0016089471755549312
3328.0,-0.0009232962620444596
3584.0,0.0017620414728298783
3840.0,-0.0014772446593269706
4096.0,0.0008963035070337355
4608.0,-0.0002668577653821558
5120.0,-0.00039582676254212856
5632.0,-0.0009691841551102698
6144.0,-0.00044769415399059653
6656.0,0.0013295053504407406
7168.0,0.0021504866890609264
7680.0,0.00021683525119442493
8192.0,-0.0007875551818870008
9216.0,-0.002690534805878997
10240.0,-0.0038044762331992388
11264.0,-0.003984586335718632
12288.0,-0.0010079838102683425
13312.0,0.0007357115973718464
14336.0,0.001561471028253436
end
