version,3.0
numOfCh,1
type,point
parent_name,800-cuts
ch_type,1_1
kcount,1
numberNandB,1
brightnessNandB,1
carpet pos,0
pc,0
Time (ms),CH1 Auto-Correlation
1.0,0.07041563838720322
2.0,0.0667378306388855
3.0,0.06323541700839996
4.0,0.05994923412799835
5.0,0.056804608553647995
6.0,0.0537911057472229
7.0,0.05083420127630234
8.0,0.04804166406393051
9.0,0.04550550878047943
10.0,0.04317351058125496
11.0,0.04081982374191284
12.0,0.03852802887558937
13.0,0.03637445345520973
14.0,0.03431151062250137
15.0,0.032407939434051514
16.0,0.030580559745430946
18.0,0.027172397822141647
20.0,0.024161817505955696
22.0,0.02141951210796833
24.0,0.019068855792284012
26.0,0.016904359683394432
28.0,0.01486266776919365
30.0,0.012959840707480907
32.0,0.011245000176131725
36.0,0.008251084946095943
40.0,0.006201042328029871
44.0,0.004651614464819431
48.0,0.0032833758741617203
52.0,0.0022452964913100004
56.0,0.0015587537782266736
60.0,0.0014201863668859005
64.0,0.0013477277243509889
72.0,0.0015518668806180358
80.0,0.0013060863129794598
88.0,0.0010194891365244985
96.0,0.0012851828942075372
104.0,0.0017962042475119233
112.0,0.0015230621211230755
120.0,0.0016198419034481049
128.0,0.0019754585810005665
144.0,0.0031022829934954643
160.0,0.0011867096181958914
176.0,-0.0010493295267224312
192.0,-0.0019348054192960262
208.0,-0.0010430472902953625
224.0,0.0022795407567173243
240.0,0.00394065584987402
256.0,0.0019310497445985675
288.0,-0.0012507609790191054
320.0,0.00040012336103245616
352.0,0.0012101142201572657
384.0,0.00038140814285725355
416.0,-0.002267417497932911
448.0,-0.003376458305865526
480.0,-0.00144989974796772
512.0,-0.0020692613907158375
576.0,-0.00040170556167140603
640.0,-0.003058517584577203
704.0,-0.0007103460957296193
768.0,0.0004706933395937085
832.0,0.002505495212972164
896.0,0.0015276133781298995
960.0,-0.00021489860955625772
1024.0,0.0005345472600311041
1152.0,0.0014120013220235705
1280.0,0.0013014900032430887
1408.0,-0.00045598592259921134
1536.0,0.0006575786974281073
1664.0,-0.0005669672973453999
1792.0,0.0009476629202254117
1920.0,0.0019753756932914257
2048.0,0.000840469787362963
2304.0,0.0003113920392934233
2560.0,0.0013366539496928453
2816.0,0.0009009157074615359
3072.0,-0.0005791456787846982
3328.0,0.0026846686378121376
3584.0,-0.000697032199241221
3840.0,-0.0018689617281779647
4096.0,-0.0017258289735764265
4608.0,0.00021082590683363378
5120.0,0.00023480018717236817
5632.0,-0.0007758510182611644
6144.0,-0.0012170025147497654
6656.0,-0.001421544817276299
7168.0,-0.00034543490619398654
7680.0,-0.00043245789129287004
8192.0,-0.0010603255359455943
9216.0,-0.0007465163362212479
10240.0,5.1206420721428e-06
11264.0,3.3323733532597544e-06
12288.0,-0.00029197934782132506
13312.0,4.859338514506817e-05
14336.0,-0.0005718325264751911
end
