version,3.0
numOfCh,1
type,point
parent_name,800-cuts
ch_type,1_1
kcount,1
numberNandB,1
brightnessNandB,1
carpet pos,0
pc,0
Time (ms),CH1 Auto-Correlation
1.0,0.08994965255260468
2.0,0.08491458743810654
3.0,0.08007263392210007
4.0,0.0754188597202301
5.0,0.07097318023443222
6.0,0.06685589998960495
7.0,0.06299130618572235
8.0,0.059384945780038834
9.0,0.056035298854112625
10.0,0.052969805896282196
11.0,0.050019193440675735
12.0,0.0471302829682827
13.0,0.04436685889959335
14.0,0.04177287966012955
15.0,0.039416372776031494
16.0,0.03696220740675926
18.0,0.03252388909459114
20.0,0.028488438576459885
22.0,0.024844586849212646
24.0,0.02181852236390114
26.0,0.019105827435851097
28.0,0.016738900914788246
30.0,0.014702563174068928
32.0,0.012894511222839355
36.0,0.010609210468828678
40.0,0.009499947540462017
44.0,0.008343285880982876
48.0,0.007135613821446896
52.0,0.0057135228998959064
56.0,0.004452837631106377
60.0,0.0038557688239961863
64.0,0.003462103195488453
72.0,0.00195944937877357
80.0,-8.164374594343826e-05
88.0,-0.0023712979163974524
96.0,-0.004100675228983164
104.0,-0.00492441188544035
112.0,-0.004081511404365301
120.0,-0.002803865820169449
128.0,-0.002687630010768771
144.0,-0.004931592382490635
160.0,-0.0033552187960594893
176.0,-0.0018770796013996005
192.0,-0.001157016959041357
208.0,0.0010525328107178211
224.0,0.0025636672507971525
240.0,0.0012051378143951297
256.0,-0.0009109240490943193
288.0,0.002147937659174204
320.0,0.0012143306666985154
352.0,-0.00099833810236305
384.0,0.00028645904967561364
416.0,0.00010853836283786222
448.0,0.003069564700126648
480.0,0.00017243708134628832
512.0,0.0002932451607193798
576.0,0.002281154738739133
640.0,0.0023084331769496202
704.0,-0.002329362090677023
768.0,-0.0006968543748371303
832.0,0.0013730581849813461
896.0,-0.0011017036158591509
960.0,-4.3208547140238807e-05
1024.0,-0.0004263200971763581
1152.0,0.0009448827477172017
1280.0,-0.0001577340590301901
1408.0,0.001808110042475164
1536.0,0.0009405306773260236
1664.0,0.0015844808658584952
1792.0,-1.23250501928851e-05
1920.0,0.00011567462206585333
2048.0,0.0012928914511576295
2304.0,0.0003454821417108178
2560.0,-7.349181396421045e-05
2816.0,0.00016886441153474152
3072.0,0.000550470722373575
3328.0,-0.0020516077056527138
3584.0,-0.0014750654809176922
3840.0,-0.0012984451605007052
4096.0,-0.002230636077001691
4608.0,-0.0011960987467318773
5120.0,9.168154065264389e-05
5632.0,-0.002301255939528346
6144.0,0.0006142607890069485
6656.0,-0.001101910718716681
7168.0,-0.002526648575440049
7680.0,0.001229036133736372
8192.0,-0.00017965560255106539
9216.0,-0.00013220561959315091
10240.0,0.002128355670720339
11264.0,0.000943141698371619
12288.0,0.001206595217809081
13312.0,-0.0002863947011064738
14336.0,-0.0041705407202243805
end
