version,3.0
numOfCh,1
type,point
parent_name,800-cuts
ch_type,1_1
kcount,1
numberNandB,1
brightnessNandB,1
carpet pos,0
pc,0
Time (ms),CH1 Auto-Correlation
1.0,0.07508977502584457
2.0,0.0708577036857605
3.0,0.06682845950126648
4.0,0.06306413561105728
5.0,0.059571102261543274
6.0,0.056328192353248596
7.0,0.05318645387887955
8.0,0.05020377039909363
9.0,0.047290392220020294
10.0,0.044566377997398376
11.0,0.04208753630518913
12.0,0.03966199606657028
13.0,0.03728475794196129
14.0,0.03493731841444969
15.0,0.032708100974559784
16.0,0.030621344223618507
18.0,0.026770956814289093
20.0,0.023038888350129128
22.0,0.019598860293626785
24.0,0.016855614259839058
26.0,0.014688681811094284
28.0,0.012877835892140865
30.0,0.011254965327680111
32.0,0.0094595393165946
36.0,0.0070237936452031136
40.0,0.005257413722574711
44.0,0.0037577433977276087
48.0,0.0022351497318595648
52.0,0.0005633910186588764
56.0,-0.0007108842837624252
60.0,-0.0017953146016225219
64.0,-0.0031973046716302633
72.0,-0.004100950434803963
80.0,-0.0035861271899193525
88.0,-0.003378970781341195
96.0,-0.00325366435572505
104.0,-0.0029783141799271107
112.0,-0.0017108977772295475
120.0,-7.083430682541803e-05
128.0,0.0008677077130414546
144.0,0.0010866874363273382
160.0,0.0009654028108343482
176.0,-0.00044033973244950175
192.0,-0.0016506039537489414
208.0,9.859301644610241e-05
224.0,0.001965535106137395
240.0,0.004285251721739769
256.0,0.005569647531956434
288.0,0.0030523897148668766
320.0,0.0022980759385973215
352.0,-0.0007778236176818609
384.0,-0.00010107560228789225
416.0,-0.0018413866637274623
448.0,-0.0016992518212646246
480.0,-0.002700065728276968
512.0,-0.003960683476179838
576.0,-5.6220145779661834e-05
640.0,0.002284110290929675
704.0,-0.0008276121807284653
768.0,-0.0012284561526030302
832.0,-0.00043020746670663357
896.0,0.0016043860232457519
960.0,0.001378414686769247
1024.0,-0.004510791040956974
1152.0,-0.0023811657447367907
1280.0,-0.0027911532670259476
1408.0,-0.0008143272716552019
1536.0,-4.7415742301382124e-05
1664.0,-0.0006354858633130789
1792.0,0.0004776273272000253
1920.0,0.00016454998694825917
2048.0,-0.001610985491424799
2304.0,-4.493700180319138e-05
2560.0,-0.0005549835041165352
2816.0,0.001021516160108149
3072.0,-0.0012549508828669786
3328.0,-0.0009203203371725976
3584.0,7.111877039278625e-06
3840.0,0.0008585053728893399
4096.0,0.0006306494469754398
4608.0,-0.0005705510266125202
5120.0,8.330941454914864e-06
5632.0,0.0014449580339714885
6144.0,-0.0002689393877517432
6656.0,-0.0013777457643300295
7168.0,-0.0013424600474536419
7680.0,0.0003254481125622988
8192.0,0.0005662784678861499
9216.0,0.0012618753826245666
10240.0,0.00044370305840857327
11264.0,-0.0008987601031549275
12288.0,-0.0007182813715189695
13312.0,0.001752573880366981
14336.0,-0.0017364321975037456
end
