version,3.0
numOfCh,1
type,point
parent_name,800-cuts
ch_type,1_1
kcount,1
numberNandB,1
brightnessNandB,1
carpet pos,0
pc,0
Time (ms),CH1 Auto-Correlation
1.0,0.11115538328886032
2.0,0.10493511706590652
3.0,0.099083811044693
4.0,0.0936262384057045
5.0,0.08846466988325119
6.0,0.08385572582483292
7.0,0.07930906862020493
8.0,0.0749800056219101
9.0,0.07089658081531525
10.0,0.06750701367855072
11.0,0.06430456042289734
12.0,0.061316851526498795
13.0,0.0583186149597168
14.0,0.05546741187572479
15.0,0.052869267761707306
16.0,0.05056418105959892
18.0,0.045972421765327454
20.0,0.041507601737976074
22.0,0.03727547451853752
24.0,0.03351287916302681
26.0,0.030339939519762993
28.0,0.027393631637096405
30.0,0.024754365906119347
32.0,0.022181479260325432
36.0,0.01821392960846424
40.0,0.015417138114571571
44.0,0.0135320033878088
48.0,0.011677938513457775
52.0,0.008990727365016937
56.0,0.006456175819039345
60.0,0.004205912351608276
64.0,0.0024562564212828875
72.0,0.0013969397405162454
80.0,0.003343184944242239
88.0,0.006750499363988638
96.0,0.007798885460942984
104.0,0.007140848785638809
112.0,0.005703905131667852
120.0,0.005148539785295725
128.0,0.004002391826361418
144.0,0.0023607169277966022
160.0,0.0006108087836764753
176.0,-0.0012538623996078968
192.0,-0.0016512100119143724
208.0,-0.001678515924140811
224.0,0.0003445907204877585
240.0,0.0005825803382322192
256.0,0.0019504743395373225
288.0,0.002624911954626441
320.0,-0.0030438872054219246
352.0,-0.006835387088358402
384.0,-0.0023344687651842833
416.0,-0.0032042243983596563
448.0,-0.0011286562075838447
480.0,0.005362154915928841
512.0,0.0015994010027498007
576.0,0.0031509967520833015
640.0,0.00041976309148594737
704.0,0.0009253837633877993
768.0,0.0007802225300110877
832.0,0.0009274999029003084
896.0,0.0005179658764973283
960.0,0.0009625724633224308
1024.0,-0.001740327919833362
1152.0,-0.00480310944840312
1280.0,0.001575108035467565
1408.0,-0.0002847340947482735
1536.0,-0.0006840389687567949
1664.0,-0.0011076052905991673
1792.0,0.00024116439453791827
1920.0,-0.0016122320666909218
2048.0,-0.0033516890835016966
2304.0,-0.0027756772469729185
2560.0,-0.002373127033933997
2816.0,-0.0015878198901191354
3072.0,-0.0037397632841020823
3328.0,0.002161512617021799
3584.0,0.0020303321070969105
3840.0,0.0030661383643746376
4096.0,0.004258742090314627
4608.0,0.00037948621320538223
5120.0,-0.0013303468003869057
5632.0,-0.000833857455290854
6144.0,-0.0015676430193707347
6656.0,-0.0009658898925408721
7168.0,0.0004921077634207904
7680.0,0.0025509470142424107
8192.0,0.0034259986132383347
9216.0,-0.0010994364274665713
10240.0,-0.003888926701620221
11264.0,8.40558423078619e-05
12288.0,0.0010212945053353906
13312.0,0.0011220525484532118
14336.0,-0.0028453085105866194
end
