version,3.0
numOfCh,1
type,point
parent_name,800-cuts
ch_type,1_1
kcount,1
numberNandB,1
brightnessNandB,1
carpet pos,0
pc,0
Time (ms),CH1 Auto-Correlation
1.0,0.03189123049378395
2.0,0.030177870765328407
3.0,0.028637448325753212
4.0,0.02720194309949875
5.0,0.025869905948638916
6.0,0.0245707668364048
7.0,0.023377226665616035
8.0,0.022281495854258537
9.0,0.02117442525923252
10.0,0.020101632922887802
11.0,0.01910017989575863
12.0,0.01817970536649227
13.0,0.017289994284510612
14.0,0.016442647203803062
15.0,0.015643524006009102
16.0,0.014890545047819614
18.0,0.013624248094856739
20.0,0.01250527799129486
22.0,0.01144790556281805
24.0,0.010540473274886608
26.0,0.009707784280180931
28.0,0.008990639820694923
30.0,0.008249107748270035
32.0,0.007500415202230215
36.0,0.006036234088242054
40.0,0.00487901084125042
44.0,0.003960755188018084
48.0,0.003293705638498068
52.0,0.0029205912724137306
56.0,0.0024888277985155582
60.0,0.0020917891524732113
64.0,0.001947533106431365
72.0,0.0017500448739156127
80.0,0.0010715564712882042
88.0,0.0004225993761792779
96.0,0.0002194796979892999
104.0,-0.0001949452853295952
112.0,-0.0006797902169637382
120.0,-0.000835947401355952
128.0,-0.0009500370942987502
144.0,-0.0007631840417161584
160.0,-0.0006482856697402894
176.0,-0.0010874640429392457
192.0,-0.0011811410076916218
208.0,-0.0002289795083925128
224.0,-0.0002453867346048355
240.0,0.0005166199407540262
256.0,0.0016376497223973274
288.0,0.0016350699588656425
320.0,2.6441808586241677e-05
352.0,-0.0010172479087486863
384.0,-0.0009900579461827874
416.0,-0.0012297285720705986
448.0,-0.001935863750986755
480.0,-0.001524170977063477
512.0,-0.00030787254218012094
576.0,-0.0012422031722962856
640.0,-1.4901414033374749e-05
704.0,4.376356059765385e-07
768.0,0.0008004619157873094
832.0,0.0020819054916501045
896.0,0.0021771409083157778
960.0,0.0007061355281621218
1024.0,-0.0005548404878936708
1152.0,-0.0004986414569430053
1280.0,-0.0006095520220696926
1408.0,-0.001563920872285962
1536.0,-0.00027174147544428706
1664.0,4.195519977656659e-06
1792.0,-0.0003071875253226608
1920.0,-0.0006750132306478918
2048.0,-0.001698169857263565
2304.0,0.0006729820743203163
2560.0,0.0011679744347929955
2816.0,-0.0012918452266603708
3072.0,0.00043239150545559824
3328.0,0.0011043130652979016
3584.0,-0.0002705650986172259
3840.0,-3.412716614548117e-05
4096.0,0.0006977257435210049
4608.0,-0.0005371538572944701
5120.0,-0.0008276180014945567
5632.0,0.0006610705167986453
6144.0,-1.507576416770462e-05
6656.0,0.0003577441966626793
7168.0,-0.00014886465214658529
7680.0,-0.0005565723404288292
8192.0,0.0009703451651148498
9216.0,0.0004897385369986296
10240.0,-0.0005386043339967728
11264.0,-0.0009818077087402344
12288.0,0.0005539158009923995
13312.0,9.85215010587126e-05
14336.0,-0.001005840953439474
end
