version,3.0
numOfCh,1
type,point
parent_name,800-cuts
ch_type,1_1
kcount,1
numberNandB,1
brightnessNandB,1
carpet pos,0
pc,0
Time (ms),CH1 Auto-Correlation
1.0,0.06964891403913498
2.0,0.06577660143375397
3.0,0.062101174145936966
4.0,0.05854998156428337
5.0,0.0553046390414238
6.0,0.05219889432191849
7.0,0.04933393374085426
8.0,0.04665388911962509
9.0,0.044020336121320724
10.0,0.04178302362561226
11.0,0.0396185964345932
12.0,0.03754294291138649
13.0,0.035687170922756195
14.0,0.033795248717069626
15.0,0.03213338926434517
16.0,0.030628088861703873
18.0,0.027859603986144066
20.0,0.025196228176355362
22.0,0.022968364879488945
24.0,0.020854391157627106
26.0,0.018527019768953323
28.0,0.016566414386034012
30.0,0.014905367977917194
32.0,0.013519813306629658
36.0,0.011470174416899681
40.0,0.009473154321312904
44.0,0.007675659377127886
48.0,0.0062467921525239944
52.0,0.005851329304277897
56.0,0.005350397899746895
60.0,0.005030697211623192
64.0,0.004871943034231663
72.0,0.004043723456561565
80.0,0.0031925328075885773
88.0,0.002819581888616085
96.0,0.0020045668352395296
104.0,0.0016710972413420677
112.0,0.0013983590761199594
120.0,-6.337115337373689e-05
128.0,-0.0020595102105289698
144.0,-0.0024616795126348734
160.0,-0.003090612357482314
176.0,-0.0035050776787102222
192.0,-0.0030808483716100454
208.0,-0.002273601246997714
224.0,-0.0013917487813159823
240.0,-0.0021276716142892838
256.0,-0.0018081871094182134
288.0,-0.0005303141660988331
320.0,0.00100416736677289
352.0,-0.0006604837253689766
384.0,-0.0032453429885208607
416.0,-0.0013276056852191687
448.0,0.0026641320437192917
480.0,0.002715258626267314
512.0,-0.00020671667880378664
576.0,-0.0007410180405713618
640.0,-0.002019264502450824
704.0,-0.0023821352515369654
768.0,-0.0017263750778511167
832.0,-0.005006338469684124
896.0,-0.0011617420241236687
960.0,-0.0005674946587532759
1024.0,-0.000396278832340613
1152.0,-0.0014979899860918522
1280.0,0.00028615593328140676
1408.0,-0.0007126062992028892
1536.0,-0.0027739517390727997
1664.0,0.004542996175587177
1792.0,0.002428454579785466
1920.0,-0.002411060966551304
2048.0,0.0008413034374825656
2304.0,-0.001691869692876935
2560.0,0.00021133518021088094
2816.0,-3.0980205337982625e-05
3072.0,-0.0009970554383471608
3328.0,0.0026701081078499556
3584.0,0.0013973452150821686
3840.0,-0.000364525243639946
4096.0,-0.0012236277107149363
4608.0,-0.0014330986887216568
5120.0,5.439499000203796e-05
5632.0,0.0024782922118902206
6144.0,-0.0025403436738997698
6656.0,-0.0010669841431081295
7168.0,0.0006904772017151117
7680.0,0.00127308105584234
8192.0,-0.0014233748661354184
9216.0,-0.00038723749457858503
10240.0,-0.0006377313402481377
11264.0,0.0016423898050561547
12288.0,-0.0010732903610914946
13312.0,0.000635329051874578
14336.0,0.0008340980275534093
end
