version,3.0
numOfCh,1
type,point
parent_name,800-cuts
ch_type,1_1
kcount,1
numberNandB,1
brightnessNandB,1
carpet pos,0
pc,0
Time (ms),CH1 Auto-Correlation
1.0,0.044273242354393005
2.0,0.04200722277164459
3.0,0.039930131286382675
4.0,0.03801362216472626
5.0,0.03613487258553505
6.0,0.03440743312239647
7.0,0.032758235931396484
8.0,0.031167415902018547
9.0,0.02963721565902233
10.0,0.028177641332149506
11.0,0.026790199801325798
12.0,0.025576449930667877
13.0,0.024435019120573997
14.0,0.023323575034737587
15.0,0.02224564552307129
16.0,0.021237026900053024
18.0,0.019366968423128128
20.0,0.017789296805858612
22.0,0.01645907759666443
24.0,0.015155749395489693
26.0,0.013895516283810139
28.0,0.012723952531814575
30.0,0.011748440563678741
32.0,0.011026538908481598
36.0,0.009714818559587002
40.0,0.008588237687945366
44.0,0.007604585029184818
48.0,0.006677559576928616
52.0,0.005638509057462215
56.0,0.004780184011906385
60.0,0.004061706364154816
64.0,0.0039039093535393476
72.0,0.004049783572554588
80.0,0.0034623933024704456
88.0,0.00271115661598742
96.0,0.0016423785127699375
104.0,0.0003230829315725714
112.0,-0.0006306532886810601
120.0,-0.00152204732876271
128.0,-0.0022832893300801516
144.0,-0.002839617896825075
160.0,-0.0030986410565674305
176.0,-0.0025264760479331017
192.0,-0.0010295193642377853
208.0,-0.0015559900784865022
224.0,-0.0015578146558254957
240.0,-0.0014920281246304512
256.0,0.0005000155069865286
288.0,0.0008454969502054155
320.0,-0.0008764216909185052
352.0,0.0004455837479326874
384.0,0.0031532624270766973
416.0,0.0026389332488179207
448.0,0.0015758998924866319
480.0,-0.0007780063315294683
512.0,-0.0024357663933187723
576.0,-0.0009150992846116424
640.0,0.001121632056310773
704.0,-0.0008941199048422277
768.0,-0.0012013722443953156
832.0,-0.0011335305171087384
896.0,0.0017402295488864183
960.0,0.0007523320382460952
1024.0,0.0006402861326932907
1152.0,-0.0009668713319115341
1280.0,-0.0007087832782417536
1408.0,-0.0018631531856954098
1536.0,0.002273141872137785
1664.0,-0.00046986847883090377
1792.0,-0.0010393065167590976
1920.0,0.00010145919804926962
2048.0,0.0007004882791079581
2304.0,0.0005966463359072804
2560.0,8.825016266200691e-05
2816.0,-0.0017960513941943645
3072.0,-0.00033407032606191933
3328.0,-0.0008409330039285123
3584.0,0.001036459463648498
3840.0,0.0013684948207810521
4096.0,0.0007700282731093466
4608.0,-0.000272934150416404
5120.0,-0.0012359051033854485
5632.0,-0.00011729681136785075
6144.0,0.0005689027020707726
6656.0,-0.00039521558210253716
7168.0,-0.0004469401901587844
7680.0,-0.00035144537105225027
8192.0,0.0007194101926870644
9216.0,1.5141285075515043e-05
10240.0,-0.0007200906984508038
11264.0,-0.0004043809894938022
12288.0,0.0011040967656299472
13312.0,-0.0001411904231645167
14336.0,-0.00043618434574455023
end
