version,3.0
numOfCh,1
type,point
parent_name,800-cuts
ch_type,1_1
kcount,1
numberNandB,1
brightnessNandB,1
carpet pos,0
pc,0
Time (ms),CH1 Auto-Correlation
1.0,0.0245343130081892
2.0,0.023298902437090874
3.0,0.022134380415081978
4.0,0.021082483232021332
5.0,0.020098868757486343
6.0,0.019165966659784317
7.0,0.018269293010234833
8.0,0.017437947914004326
9.0,0.016630196943879128
10.0,0.01587190479040146
11.0,0.01515305507928133
12.0,0.014488760381937027
13.0,0.01386843528598547
14.0,0.013288463465869427
15.0,0.012721040286123753
16.0,0.012207185849547386
18.0,0.011240270920097828
20.0,0.010347692295908928
22.0,0.009551206603646278
24.0,0.008846603333950043
26.0,0.008218462578952312
28.0,0.00763893686234951
30.0,0.007113897241652012
32.0,0.0066800229251384735
36.0,0.005956482607871294
40.0,0.005259569268673658
44.0,0.004608697257936001
48.0,0.004024684429168701
52.0,0.0035055435728281736
56.0,0.0031231569591909647
60.0,0.0029577063396573067
64.0,0.0028771120123565197
72.0,0.002424452919512987
80.0,0.001962855225428939
88.0,0.0014950975310057402
96.0,0.0008860210655257106
104.0,0.0003022977034561336
112.0,-0.00019484835502225906
120.0,-0.00030185264768078923
128.0,-0.0004199586983304471
144.0,-0.0002750800340436399
160.0,0.00024760697851888835
176.0,0.0006875882390886545
192.0,0.00042183397454209626
208.0,0.0007739969878457487
224.0,0.00030287227127701044
240.0,0.00037950582918711007
256.0,0.0007229294278658926
288.0,0.0005013219197280705
320.0,-0.0001329476508544758
352.0,4.996172719984315e-05
384.0,-0.00106002704706043
416.0,-0.0013524689711630344
448.0,-0.0005197910941205919
480.0,0.0010848940582945943
512.0,0.0016200703103095293
576.0,-0.0004059452039655298
640.0,-0.0008826105040498078
704.0,0.00091425800928846
768.0,0.0012573685962706804
832.0,0.0009847561595961452
896.0,-0.0007013848517090082
960.0,-0.0009708129800856113
1024.0,-0.0006787425954826176
1152.0,-0.001117913518100977
1280.0,0.0006106598884798586
1408.0,-0.0007307727937586606
1536.0,8.105604501906782e-05
1664.0,-0.0011034865165129304
1792.0,-0.0007519366918131709
1920.0,-0.000679631601087749
2048.0,-0.00025962453219108284
2304.0,8.74800534802489e-05
2560.0,-0.0002202118921559304
2816.0,0.00022769515635445714
3072.0,0.00037119651096872985
3328.0,-0.0002755518944468349
3584.0,-0.00011383804667275399
3840.0,0.0004818184534087777
4096.0,0.0005134143284521997
4608.0,-0.0007927625556476414
5120.0,0.00029410517890937626
5632.0,-0.0004217117093503475
6144.0,-1.13845335363294e-05
6656.0,-0.0010758120333775878
7168.0,-0.0006567262462340295
7680.0,-0.0001297235139645636
8192.0,0.000569985480979085
9216.0,0.0007596585201099515
10240.0,-0.0006506094941869378
11264.0,-0.00017143707373179495
12288.0,0.0009833971271291375
13312.0,0.0007606609724462032
14336.0,-0.0007733300444670022
end
