version,3.0
numOfCh,1
type,point
parent_name,800-cuts
ch_type,1_1
kcount,1
numberNandB,1
brightnessNandB,1
carpet pos,0
pc,0
Time (ms),CH1 Auto-Correlation
1.0,0.08979185670614243
2.0,0.08491580933332443
3.0,0.08027386665344238
4.0,0.07575991004705429
5.0,0.07154422998428345
6.0,0.06753941625356674
7.0,0.06367480009794235
8.0,0.060074131935834885
9.0,0.05672816187143326
10.0,0.05356619507074356
11.0,0.050534382462501526
12.0,0.04767138883471489
13.0,0.04492880403995514
14.0,0.04255424067378044
15.0,0.040161412209272385
16.0,0.037782419472932816
18.0,0.033469587564468384
20.0,0.02976984903216362
22.0,0.026584913954138756
24.0,0.023976027965545654
26.0,0.021462714299559593
28.0,0.019299162551760674
30.0,0.017486723139882088
32.0,0.016139596700668335
36.0,0.01390948798507452
40.0,0.01153777539730072
44.0,0.008954223245382309
48.0,0.006250919308513403
52.0,0.003234753618016839
56.0,0.000349958281731233
60.0,-0.0010580202797427773
64.0,-0.001485055428929627
72.0,-0.0022595811169594526
80.0,-0.0031263926066458225
88.0,-0.004679396282881498
96.0,-0.005844081752002239
104.0,-0.005590743850916624
112.0,-0.003999216947704554
120.0,-0.002212946070358157
128.0,-0.001015596790239215
144.0,-0.0017104102298617363
160.0,-0.0016426752554252744
176.0,-0.00268188607878983
192.0,-0.0026568593457341194
208.0,0.0003160624473821372
224.0,0.0019997386261820793
240.0,4.970370355295017e-07
256.0,0.0022681925911456347
288.0,0.0008775923051871359
320.0,0.0042588235810399055
352.0,0.002982009667903185
384.0,-0.002404901897534728
416.0,-0.006493919994682074
448.0,-0.004563706461340189
480.0,-0.0015163845382630825
512.0,0.0013633174821734428
576.0,0.0004658368125092238
640.0,0.004070557653903961
704.0,-0.00041634615627117455
768.0,9.696127381175756e-05
832.0,-0.000986382714472711
896.0,-0.0018120119348168373
960.0,0.0010790005326271057
1024.0,-0.0035341207403689623
1152.0,0.00041109934682026505
1280.0,-0.0005413622129708529
1408.0,3.336755980853923e-05
1536.0,-0.0003648697165772319
1664.0,-0.0005417036009021103
1792.0,0.0025476468726992607
1920.0,0.001526380656287074
2048.0,0.0025662274565547705
2304.0,0.0008170496439561248
2560.0,0.0005682194023393095
2816.0,-0.002003114903345704
3072.0,-0.000736696703825146
3328.0,-0.0015494272811338305
3584.0,0.0010945695685222745
3840.0,0.00033842629636637866
4096.0,-0.001313905231654644
4608.0,0.0004947825218550861
5120.0,0.0013828764203935862
5632.0,-7.857805758249015e-05
6144.0,-0.0009628408006392419
6656.0,-0.0008147712214849889
7168.0,0.0034068897366523743
7680.0,0.00044367750524543226
8192.0,-0.0019186618737876415
9216.0,-0.0008251468534581363
10240.0,-0.0014684019843116403
11264.0,-0.0006752167828381062
12288.0,-0.00020166351168882102
13312.0,-0.0015365324215963483
14336.0,-0.0020265039056539536
end
