version,3.0
numOfCh,1
type,point
parent_name,800-cuts
ch_type,1_1
kcount,1
numberNandB,1
brightnessNandB,1
carpet pos,0
pc,0
Time (ms),CH1 Auto-Correlation
1.0,0.028220180422067642
2.0,0.026594694703817368
3.0,0.025108011439442635
4.0,0.023682696744799614
5.0,0.02239006944000721
6.0,0.021189047023653984
7.0,0.02010815218091011
8.0,0.01911826618015766
9.0,0.018152285367250443
10.0,0.017208527773618698
11.0,0.01640060357749462
12.0,0.015617814846336842
13.0,0.014844633638858795
14.0,0.014115367084741592
15.0,0.013450256548821926
16.0,0.012846839614212513
18.0,0.011666413396596909
20.0,0.010590678080916405
22.0,0.00958672259002924
24.0,0.00859840027987957
26.0,0.007657905109226704
28.0,0.006811035331338644
30.0,0.006096079479902983
32.0,0.005572568625211716
36.0,0.004769002553075552
40.0,0.003951366990804672
44.0,0.0029930700547993183
48.0,0.002300195163115859
52.0,0.0018343277042731643
56.0,0.0015467916382476687
60.0,0.0012221939396113157
64.0,0.0008482220000587404
72.0,0.0008955145603977144
80.0,0.00042226261575706303
88.0,3.135217048111372e-05
96.0,-0.0004665518063120544
104.0,-0.000977400573901832
112.0,-0.0011502542765811086
120.0,-0.0013458295725286007
128.0,-0.0013124282704666257
144.0,-0.0015785571886226535
160.0,-0.0020549707114696503
176.0,-0.0021854976657778025
192.0,-0.0008424496627412736
208.0,-0.0004778447328135371
224.0,-0.001534162787720561
240.0,-0.001563029712997377
256.0,-0.0009381411364302039
288.0,-0.000540539447683841
320.0,-0.0008056658552959561
352.0,-0.0008039342355914414
384.0,0.0007688304176554084
416.0,0.0015432649524882436
448.0,0.0010747918859124184
480.0,0.0004537270579021424
512.0,-9.018988203024492e-05
576.0,-0.0004682389844674617
640.0,2.669664809218375e-06
704.0,0.0002561308501753956
768.0,0.0012303522089496255
832.0,0.001603214885108173
896.0,0.00038338961894623935
960.0,-0.0011184747563675046
1024.0,0.0002555866085458547
1152.0,9.979856258723885e-05
1280.0,-0.0014358493499457836
1408.0,-0.001186526264064014
1536.0,0.0016171064926311374
1664.0,-0.0008439638768322766
1792.0,-0.0015996650326997042
1920.0,0.0012271765153855085
2048.0,-0.001044187811203301
2304.0,-0.0002572795783635229
2560.0,-0.0004097083874512464
2816.0,0.000138107207021676
3072.0,-0.00037763002910651267
3328.0,-0.000130715940031223
3584.0,0.00020816203323192894
3840.0,-0.00033117536804638803
4096.0,0.0005467612063512206
4608.0,0.0003726410504896194
5120.0,0.000350483285728842
5632.0,0.00033736589830368757
6144.0,3.1244646379491314e-05
6656.0,-0.00018146794172935188
7168.0,-0.0005223232437856495
7680.0,-0.0005468489835038781
8192.0,-4.519196409091819e-06
9216.0,-5.0151862524216995e-05
10240.0,0.00017692158871795982
11264.0,0.00011418008944019675
12288.0,-0.00023138981487136334
13312.0,-2.471444895491004e-05
14336.0,5.0510669098002836e-05
end
