version,3.0
numOfCh,1
type,point
parent_name,800-cuts
ch_type,1_1
kcount,1
numberNandB,1
brightnessNandB,1
carpet pos,0
pc,0
Time (ms),CH1 Auto-Correlation
1.0,0.07373443245887756
2.0,0.06986541301012039
3.0,0.0661967545747757
4.0,0.06269218772649765
5.0,0.05940794199705124
6.0,0.056264229118824005
7.0,0.05339294672012329
8.0,0.05061708390712738
9.0,0.04803122207522392
10.0,0.04563933238387108
11.0,0.04337332025170326
12.0,0.041229624301195145
13.0,0.03914271667599678
14.0,0.037212442606687546
15.0,0.03536836430430412
16.0,0.033629823476076126
18.0,0.030411750078201294
20.0,0.027448737993836403
22.0,0.02470078505575657
24.0,0.02215602993965149
26.0,0.0199050921946764
28.0,0.017832286655902863
30.0,0.015942322090268135
32.0,0.01428277138620615
36.0,0.01115167886018753
40.0,0.007759454194456339
44.0,0.004910501651465893
48.0,0.0026412641163915396
52.0,0.0007369394297711551
56.0,-0.0008360390784218907
60.0,-0.00219068955630064
64.0,-0.0029591419734060764
72.0,-0.0027281136717647314
80.0,-0.002405291423201561
88.0,-0.00325569836422801
96.0,-0.0051591950468719006
104.0,-0.007454549428075552
112.0,-0.00781741738319397
120.0,-0.005683048628270626
128.0,-0.00397871620953083
144.0,-0.0016393737168982625
160.0,-0.0017866643611341715
176.0,-0.0039944518357515335
192.0,-0.004124238155782223
208.0,-0.003778566839173436
224.0,-0.0030669779516756535
240.0,-0.0016460155602544546
256.0,-0.0003298016672488302
288.0,2.163775388908107e-05
320.0,-0.0035917996428906918
352.0,-7.409079989884049e-05
384.0,0.007738333661109209
416.0,0.008168227039277554
448.0,0.0027437987737357616
480.0,-0.0018543216865509748
512.0,-0.001821422018110752
576.0,-0.0007586732972413301
640.0,-0.0010549940634518862
704.0,-0.0005656740977428854
768.0,-0.00045382932876236737
832.0,0.0019354871474206448
896.0,-0.00394037738442421
960.0,0.0029808287508785725
1024.0,0.0018723668763414025
1152.0,-0.001066118711605668
1280.0,-0.001142435590736568
1408.0,0.002666411455720663
1536.0,-0.0035995158832520247
1664.0,-0.0007589207962155342
1792.0,0.0020394744351506233
1920.0,-0.00012392483768053353
2048.0,-0.0008512042695656419
2304.0,0.0004406724765431136
2560.0,0.0007999199442565441
2816.0,0.0002812080492731184
3072.0,-0.0013139231596142054
3328.0,-0.00015827154857106507
3584.0,0.001279268297366798
3840.0,-0.0012358557432889938
4096.0,0.00036483840085566044
4608.0,0.0006085942732170224
5120.0,-0.00032256782287731767
5632.0,-0.0007743200403638184
6144.0,-0.00020178510749246925
6656.0,-0.001577113289386034
7168.0,0.0011360078351572156
7680.0,-0.00029309478122740984
8192.0,0.000502855924423784
9216.0,0.00027088922797702253
10240.0,-0.0008453924674540758
11264.0,0.0004444322257768363
12288.0,0.0002955624950118363
13312.0,-0.0004284815222490579
14336.0,0.0003112490230705589
end
