version,3.0
numOfCh,1
type,point
parent_name,800-cuts
ch_type,1_1
kcount,1
numberNandB,1
brightnessNandB,1
carpet pos,0
pc,0
Time (ms),CH1 Auto-Correlation
1.0,0.07170205563306808
2.0,0.06794369965791702
3.0,0.06444492191076279
4.0,0.06109072268009186
5.0,0.057905033230781555
6.0,0.0548468641936779
7.0,0.052025556564331055
8.0,0.04925120621919632
9.0,0.0467057079076767
10.0,0.044330205768346786
11.0,0.042054615914821625
12.0,0.03977900743484497
13.0,0.03759874030947685
14.0,0.035510990768671036
15.0,0.03371750935912132
16.0,0.03200600668787956
18.0,0.02866174280643463
20.0,0.02544431760907173
22.0,0.02247624658048153
24.0,0.019817596301436424
26.0,0.017640238627791405
28.0,0.015794705599546432
30.0,0.014215974137187004
32.0,0.012996887788176537
36.0,0.011030563153326511
40.0,0.00899732206016779
44.0,0.006804333999752998
48.0,0.005030065309256315
52.0,0.0038632156793028116
56.0,0.003084311494603753
60.0,0.0023114443756639957
64.0,0.0013533569872379303
72.0,-0.001146545517258346
80.0,-0.0031138826161623
88.0,-0.004152544308453798
96.0,-0.004325071815401316
104.0,-0.0036570497322827578
112.0,-0.003349520033225417
120.0,-0.003604894271120429
128.0,-0.0022106668911874294
144.0,-0.0008983256411738694
160.0,7.023278885753825e-05
176.0,0.0017948502209037542
192.0,0.0020069479942321777
208.0,0.0018510125810280442
224.0,0.0009704709518700838
240.0,0.0007401305483654141
256.0,0.00017391880101058632
288.0,-0.001414031838066876
320.0,-0.0034993980079889297
352.0,-0.0041412957943975925
384.0,8.358392369700596e-05
416.0,0.004883871879428625
448.0,0.003302999772131443
480.0,0.0009057787247002125
512.0,-0.0009694377076812088
576.0,-0.0006412849179469049
640.0,0.0022638493683189154
704.0,-0.0005959984846413136
768.0,-0.002327379072085023
832.0,-0.0011528751347213984
896.0,0.0009707066346891224
960.0,-0.0003063596086576581
1024.0,-0.0005758389597758651
1152.0,-0.001632358063943684
1280.0,0.0002633124531712383
1408.0,-0.0014729860704392195
1536.0,-0.00043995145824737847
1664.0,0.00027567640063352883
1792.0,-0.0013140577357262373
1920.0,0.002393505070358515
2048.0,0.0003124074428342283
2304.0,0.00027971400413662195
2560.0,-0.001416124519892037
2816.0,-0.0005784040549769998
3072.0,-3.384142110007815e-05
3328.0,0.0010126846609637141
3584.0,-0.00015568672097288072
3840.0,0.000900122569873929
4096.0,-0.0005789623828604817
4608.0,-0.00040098195313476026
5120.0,7.591029861941934e-05
5632.0,-9.560948092257604e-05
6144.0,0.00017939350800588727
6656.0,-0.00039856176590546966
7168.0,-2.462681550241541e-05
7680.0,0.00023570930352434516
8192.0,6.850506906630471e-05
9216.0,-0.0006034046527929604
10240.0,-0.00022016899310983717
11264.0,0.00105254293885082
12288.0,-0.0031028827652335167
13312.0,-0.0005778836202807724
14336.0,0.003390523139387369
end
