version,3.0
numOfCh,1
type,point
parent_name,800-cuts
ch_type,1_1
kcount,1
numberNandB,1
brightnessNandB,1
carpet pos,0
pc,0
Time (ms),CH1 Auto-Correlation
1.0,0.06750476360321045
2.0,0.06396014243364334
3.0,0.06058034673333168
4.0,0.0573834553360939
5.0,0.05435243993997574
6.0,0.05145837366580963
7.0,0.04872985929250717
8.0,0.04619407281279564
9.0,0.04378727823495865
10.0,0.041546810418367386
11.0,0.039535973221063614
12.0,0.03765583038330078
13.0,0.035892367362976074
14.0,0.03410732373595238
15.0,0.03241883963346481
16.0,0.030868498608469963
18.0,0.027949243783950806
20.0,0.02522064745426178
22.0,0.022977299988269806
24.0,0.020919743925333023
26.0,0.01897011324763298
28.0,0.017121052369475365
30.0,0.015412656590342522
32.0,0.013656947761774063
36.0,0.010416212491691113
40.0,0.007403111085295677
44.0,0.005240392405539751
48.0,0.00376412202604115
52.0,0.002797897672280669
56.0,0.0017426031408831477
60.0,0.0009480018634349108
64.0,0.0001574765337863937
72.0,-0.0005784445093013346
80.0,-0.000991817913018167
88.0,-0.0012167004169896245
96.0,-0.0012143909698352218
104.0,-0.0012087734648957849
112.0,-0.0007867254316806793
120.0,-0.000336761208018288
128.0,0.0006521812174469233
144.0,0.0007873303256928921
160.0,-0.0006855846149846911
176.0,-8.924492431106046e-05
192.0,0.00027494868845678866
208.0,0.0012640930945053697
224.0,-0.0003554784634616226
240.0,0.0007836123695597053
256.0,0.0015443972079083323
288.0,0.003068283898755908
320.0,0.0005134965758770704
352.0,-0.003093715524300933
384.0,-0.0021701636724174023
416.0,-3.358754111104645e-05
448.0,4.240724229020998e-05
480.0,1.3593365110864397e-05
512.0,-0.0017454341286793351
576.0,-0.0025275335647165775
640.0,-0.0006859329296275973
704.0,-0.000535978062544018
768.0,-0.002612506737932563
832.0,-0.0038725666236132383
896.0,-0.0019442018819972873
960.0,-0.001026513404212892
1024.0,-0.00032461865339428186
1152.0,0.0004653143114410341
1280.0,-0.001352857449091971
1408.0,0.0027595602441579103
1536.0,-0.0010590450838208199
1664.0,0.0008442067191936076
1792.0,-0.0014596169348806143
1920.0,-0.00158889836166054
2048.0,-0.001075049047358334
2304.0,0.0005883724661543965
2560.0,0.000502204115036875
2816.0,0.0006201054202392697
3072.0,0.0017707853112369776
3328.0,0.0004176547809038311
3584.0,-0.0015937432181090117
3840.0,-0.0006545279175043106
4096.0,-0.0017366918036714196
4608.0,0.000976500625256449
5120.0,-6.98447329341434e-05
5632.0,-0.0010217077797278762
6144.0,0.0012453229865059257
6656.0,0.0009247753769159317
7168.0,-0.002258466789498925
7680.0,-0.0007658938993699849
8192.0,0.0016440922627225518
9216.0,0.0020481594838202
10240.0,-0.0021230189595371485
11264.0,0.0012191587593406439
12288.0,0.0003524836210999638
13312.0,-0.002060215687379241
14336.0,0.0012693408643826842
end
