version,3.0
numOfCh,1
type,point
parent_name,800-cuts
ch_type,1_1
kcount,1
numberNandB,1
brightnessNandB,1
carpet pos,0
pc,0
Time (ms),CH1 Auto-Correlation
1.0,0.05625356733798981
2.0,0.05310310050845146
3.0,0.05006428807973862
4.0,0.0471981056034565
5.0,0.04449660703539848
6.0,0.04195694997906685
7.0,0.03949769586324692
8.0,0.03725876659154892
9.0,0.03508531674742699
10.0,0.0331103652715683
11.0,0.03114316798746586
12.0,0.0292761642485857
13.0,0.027664827182888985
14.0,0.026213672012090683
15.0,0.024862149730324745
16.0,0.02356872707605362
18.0,0.021358951926231384
20.0,0.019193565472960472
22.0,0.01732126623392105
24.0,0.01569207012653351
26.0,0.014175193384289742
28.0,0.012743120081722736
30.0,0.011482933536171913
32.0,0.010487030260264874
36.0,0.008559562265872955
40.0,0.007250528782606125
44.0,0.006318150088191032
48.0,0.00568710220977664
52.0,0.005322164855897427
56.0,0.004878562409430742
60.0,0.004474420566111803
64.0,0.004522389732301235
72.0,0.004872488789260387
80.0,0.0038656662218272686
88.0,0.0016514700837433338
96.0,-0.0007058650953695178
104.0,-0.0028081766795367002
112.0,-0.004312070552259684
120.0,-0.005132785998284817
128.0,-0.004109103232622147
144.0,-0.002224339172244072
160.0,-0.0009664975805208087
176.0,-0.00039125996408984065
192.0,-0.00010440133337397128
208.0,0.0016831036191433668
224.0,0.0019837762229144573
240.0,0.000669351895339787
256.0,0.0003819931880570948
288.0,-0.0010852089617401361
320.0,-0.002906646579504013
352.0,-0.0018936301348730922
384.0,-0.0008201043237932026
416.0,-0.0036201009061187506
448.0,-0.002529393881559372
480.0,-0.003661877941340208
512.0,-0.004157244227826595
576.0,-0.00039795914199203253
640.0,0.002442694501951337
704.0,0.0014405373949557543
768.0,0.001173726050183177
832.0,-0.0009128416422754526
896.0,0.0012544591445475817
960.0,0.003318698611110449
1024.0,0.003079161746427417
1152.0,-0.0019373606191948056
1280.0,-0.00245515420101583
1408.0,-0.0013248560717329383
1536.0,-0.002024961868301034
1664.0,0.003730840515345335
1792.0,0.0013548302231356502
1920.0,-0.003478069556877017
2048.0,0.00045916734961792827
2304.0,0.00028491823468357325
2560.0,0.0010219948599115014
2816.0,0.00012788164895027876
3072.0,-0.0010569660225883126
3328.0,0.001339421491138637
3584.0,-0.0004884115769527853
3840.0,-9.285638225264847e-05
4096.0,-0.0006337054655887187
4608.0,0.00018919665308203548
5120.0,0.0007973889587447047
5632.0,0.0015714988112449646
6144.0,-0.0004856260202359408
6656.0,0.0006391513743437827
7168.0,-0.0016224406426772475
7680.0,0.00047572876792401075
8192.0,0.0003429879143368453
9216.0,-0.0008616404375061393
10240.0,0.0006875111721456051
11264.0,0.0003199307539034635
12288.0,-0.0012302279938012362
13312.0,-0.0004084376560058445
14336.0,-0.0015058242715895176
end
