version,3.0
numOfCh,1
type,point
parent_name,800-cuts
ch_type,1_1
kcount,1
numberNandB,1
brightnessNandB,1
carpet pos,0
pc,0
Time (ms),CH1 Auto-Correlation
1.0,0.04556066542863846
2.0,0.042874742299318314
3.0,0.040417954325675964
4.0,0.038054902106523514
5.0,0.035824861377477646
6.0,0.03370044752955437
7.0,0.03170722350478172
8.0,0.02977553941309452
9.0,0.02792302332818508
10.0,0.02618115022778511
11.0,0.024507978931069374
12.0,0.022989876568317413
13.0,0.021678222343325615
14.0,0.020414218306541443
15.0,0.019157053902745247
16.0,0.017959151417016983
18.0,0.015688739717006683
20.0,0.01367592066526413
22.0,0.01203257218003273
24.0,0.010553304105997086
26.0,0.009170481003820896
28.0,0.008083782158792019
30.0,0.007206950802356005
32.0,0.0064355055801570415
36.0,0.005291408393532038
40.0,0.004069230519235134
44.0,0.003346462268382311
48.0,0.0027927930932492018
52.0,0.002356946934014559
56.0,0.002010785508900881
60.0,0.0016650661127641797
64.0,0.0013896174496039748
72.0,0.0012186738895252347
80.0,0.0011790440184995532
88.0,0.0011411302257329226
96.0,0.0005750368000008166
104.0,-0.0005625730846077204
112.0,-0.0011255937861278653
120.0,-0.0008881770190782845
128.0,-0.0002604318142402917
144.0,0.000324846594594419
160.0,0.0007115429034456611
176.0,0.0009097723523154855
192.0,0.0014091209741309285
208.0,0.0016302771400660276
224.0,0.0023771433625370264
240.0,0.0017061288235709071
256.0,0.0002825326519086957
288.0,0.0004685316525865346
320.0,0.0009052844834513962
352.0,0.000673356291372329
384.0,-0.0012265753466635942
416.0,-0.0028698768001049757
448.0,-0.001103650196455419
480.0,-0.0005941425333730876
512.0,-0.00010818054579431191
576.0,-0.0016660018591210246
640.0,3.116120569757186e-05
704.0,0.00046042207395657897
768.0,0.0003268098516855389
832.0,-0.0006060234736651182
896.0,-0.0005857690703123808
960.0,0.0009725476265884936
1024.0,0.0019503572257235646
1152.0,0.00015801920380908996
1280.0,-1.110641846935323e-06
1408.0,-0.0004772146057803184
1536.0,-0.0018464411841705441
1664.0,-0.00024326724815182388
1792.0,0.00012514308036770672
1920.0,0.0018176782177761197
2048.0,0.0005918270908296108
2304.0,0.00036836849176324904
2560.0,-0.00019809910736512393
2816.0,0.0005249931127764285
3072.0,0.00035180625854991376
3328.0,-0.0010730267968028784
3584.0,-0.0007256215903908014
3840.0,0.001088170800358057
4096.0,-4.7450492274947464e-05
4608.0,0.0007622315897606313
5120.0,-0.0003054495609831065
5632.0,0.00044429278932511806
6144.0,-0.00023983338905964047
6656.0,7.1544136517331935e-06
7168.0,-0.0011858437210321426
7680.0,-0.0005534891970455647
8192.0,-0.0007538635400123894
9216.0,-0.0003008417261298746
10240.0,0.0001405401126248762
11264.0,0.00017813737213145941
12288.0,-4.589492891682312e-05
13312.0,-0.00031130481511354446
14336.0,-0.00020852062152698636
end
