version,3.0
numOfCh,1
type,point
parent_name,800-cuts
ch_type,1_1
kcount,1
numberNandB,1
brightnessNandB,1
carpet pos,0
pc,0
Time (ms),CH1 Auto-Correlation
1.0,0.02569173276424408
2.0,0.024242624640464783
3.0,0.022873103618621826
4.0,0.02153846248984337
5.0,0.020249221473932266
6.0,0.018989594653248787
7.0,0.017767999321222305
8.0,0.01662786491215229
9.0,0.015568972565233707
10.0,0.01454960461705923
11.0,0.013604000210762024
12.0,0.012768755666911602
13.0,0.011967460624873638
14.0,0.011179614812135696
15.0,0.010451129637658596
16.0,0.009754495695233345
18.0,0.008463327772915363
20.0,0.0072725992649793625
22.0,0.00623064860701561
24.0,0.005312161520123482
26.0,0.004552679602056742
28.0,0.003922931384295225
30.0,0.003349329810589552
32.0,0.0027669870760291815
36.0,0.002015843987464905
40.0,0.0015864070737734437
44.0,0.0013101313961669803
48.0,0.0010300141293555498
52.0,0.0006867675110697746
56.0,0.0004907372058369219
60.0,0.00019565188267733902
64.0,-8.762775541981682e-05
72.0,-0.00011849014117615297
80.0,0.00010059151099994779
88.0,0.0006740888929925859
96.0,0.0008532382198609412
104.0,0.0003359367838129401
112.0,-0.00012670554860960692
120.0,2.702547499211505e-05
128.0,4.729190914076753e-05
144.0,3.319656025269069e-05
160.0,-0.000626197608653456
176.0,-0.000715770700480789
192.0,-0.00022735301172360778
208.0,-0.00044804386561736465
224.0,-0.0013089271960780025
240.0,-0.0008909064345061779
256.0,0.00040360548882745206
288.0,0.0012630210258066654
320.0,0.0007747990312054753
352.0,9.800936095416546e-05
384.0,-2.9904520488344133e-05
416.0,-0.0002577568229753524
448.0,0.0005615738919004798
480.0,0.000741219031624496
512.0,0.0007020834600552917
576.0,-0.0005369910504668951
640.0,-0.00040480136522091925
704.0,-0.0006546700606122613
768.0,-0.00020972450147382915
832.0,-0.000368064793292433
896.0,-0.0010687399189919233
960.0,-0.0004935209872201085
1024.0,-3.546928155628848e-06
1152.0,0.00018035437096841633
1280.0,0.0004754734691232443
1408.0,-0.0001857382885646075
1536.0,0.0003711413883138448
1664.0,9.52452392084524e-05
1792.0,-0.0001602374977665022
1920.0,0.00011355223250575364
2048.0,-0.0001354001578874886
2304.0,0.0006815530941821635
2560.0,0.0005302147474139929
2816.0,0.0002353033924009651
3072.0,-0.0006259280489757657
3328.0,-0.0003109729150310159
3584.0,-0.00040452033863402903
3840.0,1.3851416952093132e-05
4096.0,0.0001688340271357447
4608.0,0.00030996129498817027
5120.0,-0.0003773731295950711
5632.0,-0.0004878335166722536
6144.0,-0.00019032957789022475
6656.0,0.00046809265040792525
7168.0,-0.00043177237967029214
7680.0,-0.0008608445641584694
8192.0,0.00021126348292455077
9216.0,-7.68854224588722e-05
10240.0,-0.00011119616829091683
11264.0,-6.701691017951816e-05
12288.0,-0.00010604341514408588
13312.0,0.000571096723433584
14336.0,0.0006206801044754684
end
