version,3.0
numOfCh,1
type,point
parent_name,800-cuts
ch_type,1_1
kcount,1
numberNandB,1
brightnessNandB,1
carpet pos,0
pc,0
Time (ms),CH1 Auto-Correlation
1.0,0.06478195637464523
2.0,0.06124130263924599
3.0,0.05794108659029007
4.0,0.05478033795952797
5.0,0.05176103487610817
6.0,0.048947811126708984
7.0,0.04636238515377045
8.0,0.04392823576927185
9.0,0.04173342138528824
10.0,0.039661165326833725
11.0,0.0376344658434391
12.0,0.0357467383146286
13.0,0.03381569683551788
14.0,0.032038550823926926
15.0,0.030266309157013893
16.0,0.02868189662694931
18.0,0.025807499885559082
20.0,0.023190433159470558
22.0,0.02079877257347107
24.0,0.01867906004190445
26.0,0.016814138740301132
28.0,0.015042757615447044
30.0,0.013401617296040058
32.0,0.011900316923856735
36.0,0.009304670616984367
40.0,0.007224124390631914
44.0,0.00600693142041564
48.0,0.005392552353441715
52.0,0.005009195301681757
56.0,0.004588138312101364
60.0,0.004173350986093283
64.0,0.0034899769816547632
72.0,0.0026342575438320637
80.0,0.002089862246066332
88.0,0.001857743482105434
96.0,0.0013944224920123816
104.0,0.0015674835303798318
112.0,0.001312010339461267
120.0,0.0002693663991522044
128.0,-0.0006035704864189029
144.0,-0.0017590419156476855
160.0,-0.0031393140088766813
176.0,-0.003913398832082748
192.0,-0.00449321698397398
208.0,-0.004675449803471565
224.0,-0.003926288336515427
240.0,-0.003111553145572543
256.0,-0.002562158042564988
288.0,-0.0030890556517988443
320.0,-0.0015421210555359721
352.0,-8.556004468118772e-05
384.0,-0.00185157242231071
416.0,-0.0009789711330085993
448.0,0.0007076601032167673
480.0,0.00026756623992696404
512.0,-0.000911231676582247
576.0,0.0003644997486844659
640.0,0.0007968817371875048
704.0,0.0018654352752491832
768.0,0.0024950799997895956
832.0,0.003129092510789633
896.0,0.001281087170355022
960.0,-0.00010898490290855989
1024.0,-0.0025044246576726437
1152.0,-0.0016123517416417599
1280.0,0.0009084422490559518
1408.0,0.00030436512315645814
1536.0,0.002375615295022726
1664.0,0.001045975717715919
1792.0,-0.0015299670631065965
1920.0,-0.0019346900517120957
2048.0,0.0010691933566704392
2304.0,0.0011150713544338942
2560.0,-0.0016021485207602382
2816.0,-0.0004280150751583278
3072.0,-0.0010911262361332774
3328.0,0.0007382898475043476
3584.0,-0.00019346005865372717
3840.0,0.0003988062380813062
4096.0,-0.00014157412806525826
4608.0,0.00029249550425447524
5120.0,-0.0008024584385566413
5632.0,0.0002449483145028353
6144.0,-0.0007986713317222893
6656.0,-0.0004255159292370081
7168.0,-0.001730805728584528
7680.0,-0.0001903325755847618
8192.0,-0.000709048705175519
9216.0,-0.00040864961920306087
10240.0,0.0012091279495507479
11264.0,-0.0006605730159208179
12288.0,-0.00019201016402803361
13312.0,-0.00010029770055552945
14336.0,0.0019854556303471327
end
