version,3.0
numOfCh,1
type,point
parent_name,800-cuts
ch_type,1_1
kcount,1
numberNandB,1
brightnessNandB,1
carpet pos,0
pc,0
Time (ms),CH1 Auto-Correlation
1.0,0.01967543363571167
2.0,0.018495414406061172
3.0,0.017399825155735016
4.0,0.016377922147512436
5.0,0.01544125471264124
6.0,0.014559600502252579
7.0,0.013735193759202957
8.0,0.012952208518981934
9.0,0.01220689620822668
10.0,0.011479110457003117
11.0,0.010792717337608337
12.0,0.010129697620868683
13.0,0.009531543590128422
14.0,0.008980993181467056
15.0,0.008461556397378445
16.0,0.007942534051835537
18.0,0.006973783019930124
20.0,0.006097911391407251
22.0,0.005345369689166546
24.0,0.004662603139877319
26.0,0.0040398030541837215
28.0,0.003519550198689103
30.0,0.0030681344214826822
32.0,0.0027115128468722105
36.0,0.002153532113879919
40.0,0.0018177558667957783
44.0,0.0017750062979757786
48.0,0.0016754535026848316
52.0,0.0015193653525784612
56.0,0.0013946568360552192
60.0,0.0012953021796420217
64.0,0.0010982303647324443
72.0,0.0006778796669095755
80.0,0.0006206451216712594
88.0,0.0005352040170691907
96.0,0.00022180030646268278
104.0,-0.00010152624599868432
112.0,-0.0003235764743294567
120.0,-0.00028999638743698597
128.0,-0.0004591766628436744
144.0,-0.00018897435802500695
160.0,0.0005390201695263386
176.0,0.0009869883069768548
192.0,0.0009641510550864041
208.0,0.00033390268799848855
224.0,-0.00032974930945783854
240.0,-0.0006675432086922228
256.0,-9.444724128115922e-05
288.0,0.000620927254203707
320.0,8.97540885489434e-05
352.0,-0.0010049025295302272
384.0,-0.0007991880411282182
416.0,-0.0011347641702741385
448.0,-0.000445070763817057
480.0,0.0002804179093800485
512.0,-0.000284729729173705
576.0,-0.0002787219127640128
640.0,-0.0002609496586956084
704.0,0.00015399695257656276
768.0,3.3098556741606444e-05
832.0,-0.0001040788774844259
896.0,0.0006035473779775202
960.0,-0.0001606169535079971
1024.0,0.0007551161688752472
1152.0,-1.3816192222293466e-05
1280.0,-0.000489396508783102
1408.0,-0.00036498188273981214
1536.0,-0.0006311282049864531
1664.0,-3.6207460652804e-05
1792.0,0.00026390343555249274
1920.0,0.00030408846214413643
2048.0,0.0007161488174460828
2304.0,-0.00038078968646004796
2560.0,6.686976121272892e-05
2816.0,0.0003634961030911654
3072.0,-0.0007306093466468155
3328.0,-7.998385626706295e-06
3584.0,7.506101246690378e-05
3840.0,0.0002252890553791076
4096.0,0.00036096698022447526
4608.0,0.0004135888593737036
5120.0,-0.0007141390233300626
5632.0,-9.268888243241236e-05
6144.0,-0.00019807732314802706
6656.0,0.00016083822993095964
7168.0,0.0001828688255045563
7680.0,-0.0005727457464672625
8192.0,0.000560779357329011
9216.0,-0.0001492286828579381
10240.0,0.00020305147336330265
11264.0,-0.000271724711637944
12288.0,-5.774552846560255e-05
13312.0,-0.0005430582677945495
14336.0,0.0003447235212661326
end
