version,3.0
numOfCh,1
type,point
parent_name,800-cuts
ch_type,1_1
kcount,1
numberNandB,1
brightnessNandB,1
carpet pos,0
pc,0
Time (ms),CH1 Auto-Correlation
1.0,0.07950494438409805
2.0,0.07514151185750961
3.0,0.07106737047433853
4.0,0.06711311638355255
5.0,0.06342418491840363
6.0,0.06004183739423752
7.0,0.057008031755685806
8.0,0.054047394543886185
9.0,0.051176343113183975
10.0,0.04841688275337219
11.0,0.04578790068626404
12.0,0.04341433197259903
13.0,0.04103860259056091
14.0,0.03874225541949272
15.0,0.03669626638293266
16.0,0.03474680334329605
18.0,0.03096817433834076
20.0,0.027502594515681267
22.0,0.024166615679860115
24.0,0.021101465448737144
26.0,0.01868726685643196
28.0,0.01673026569187641
30.0,0.014937262050807476
32.0,0.013326219283044338
36.0,0.010828576982021332
40.0,0.008765438571572304
44.0,0.007324936334043741
48.0,0.005964101757854223
52.0,0.004860576707869768
56.0,0.003978784196078777
60.0,0.002976336283609271
64.0,0.0018704361282289028
72.0,0.0012511508539319038
80.0,0.001961605390533805
88.0,0.0023511929903179407
96.0,0.0021399648394435644
104.0,0.002501938957720995
112.0,0.0025806406047195196
120.0,0.0014968988252803683
128.0,0.0004719809803646058
144.0,-0.0006797321839258075
160.0,-0.000595460063777864
176.0,0.0023137331008911133
192.0,0.0026776783633977175
208.0,0.0012974687851965427
224.0,0.0008592584053985775
240.0,0.0017586116446182132
256.0,0.0026412371080368757
288.0,0.0013754252577200532
320.0,0.0007944136741571128
352.0,-5.572641020989977e-05
384.0,-0.001066855387762189
416.0,-0.0023320894688367844
448.0,-0.0035873486194759607
480.0,-0.001460496336221695
512.0,-0.0014679551823064685
576.0,-0.000826111703645438
640.0,0.0017244318732991815
704.0,0.001900754403322935
768.0,-3.0402472475543618e-05
832.0,0.002997623523697257
896.0,0.00478725228458643
960.0,-0.0011771313147619367
1024.0,0.0007274685194715858
1152.0,-0.0014962967252358794
1280.0,-0.004153560381382704
1408.0,-0.0016929275589063764
1536.0,0.0011898933444172144
1664.0,0.001787408604286611
1792.0,0.00272606173530221
1920.0,-0.00286090187728405
2048.0,-0.00284993345849216
2304.0,-0.0016330628423020244
2560.0,-0.00036922632716596127
2816.0,-0.0014156204415485263
3072.0,0.0021289600990712643
3328.0,0.002125315135344863
3584.0,0.0008922085980884731
3840.0,0.0003015313996002078
4096.0,0.001102824229747057
4608.0,-0.001478192862123251
5120.0,-0.00311422161757946
5632.0,-0.002399137243628502
6144.0,0.0004497068002820015
6656.0,0.0017113068606704473
7168.0,0.0018298299983143806
7680.0,0.001031812047585845
8192.0,-0.00022148324933368713
9216.0,-0.002809464931488037
10240.0,0.0009647113038226962
11264.0,6.198737537488341e-05
12288.0,-0.0014715851284563541
13312.0,-0.0026542816776782274
14336.0,0.005394963547587395
end
