version,3.0
numOfCh,1
type,point
parent_name,800-cuts
ch_type,1_1
kcount,1
numberNandB,1
brightnessNandB,1
carpet pos,0
pc,0
Time (ms),CH1 Auto-Correlation
1.0,0.06610280275344849
2.0,0.06251609325408936
3.0,0.05904834344983101
4.0,0.05565423145890236
5.0,0.05241299420595169
6.0,0.04935070499777794
7.0,0.04645911231637001
8.0,0.04367292672395706
9.0,0.041017308831214905
10.0,0.03859713673591614
11.0,0.0364253968000412
12.0,0.034317292273044586
13.0,0.032374899834394455
14.0,0.03052373230457306
15.0,0.028766710311174393
16.0,0.02718488685786724
18.0,0.024454472586512566
20.0,0.022096609696745872
22.0,0.02005819045007229
24.0,0.018303733319044113
26.0,0.016910100355744362
28.0,0.015811661258339882
30.0,0.014871414750814438
32.0,0.014045625925064087
36.0,0.01219120342284441
40.0,0.010082881897687912
44.0,0.00853718165308237
48.0,0.006857856642454863
52.0,0.005252044182270765
56.0,0.003963263239711523
60.0,0.0028495423030108213
64.0,0.0019904200453311205
72.0,0.0004909548442810774
80.0,-0.0010447008535265923
88.0,-0.0024052951484918594
96.0,-0.0044127595610916615
104.0,-0.006214210297912359
112.0,-0.007065754849463701
120.0,-0.0076300655491650105
128.0,-0.007551089860498905
144.0,-0.004935921169817448
160.0,-0.005122548900544643
176.0,-0.0036499290727078915
192.0,-0.0019836719147861004
208.0,-0.001393364043906331
224.0,0.0005273693823255599
240.0,0.0016759553691372275
256.0,0.0010681797284632921
288.0,0.0019041348714381456
320.0,0.003094958607107401
352.0,0.0021952935494482517
384.0,0.00034785782918334007
416.0,-0.0027989952359348536
448.0,-0.003264490282163024
480.0,-0.005330951418727636
512.0,-0.0042535304091870785
576.0,0.0015398220857605338
640.0,0.0019371540984138846
704.0,-0.005141811911016703
768.0,-0.0010134006151929498
832.0,0.001854767557233572
896.0,-0.0003537402080837637
960.0,-9.413093357579783e-05
1024.0,-0.0012591135455295444
1152.0,0.00016312988009303808
1280.0,0.0003984500654041767
1408.0,-4.6807417675154284e-05
1536.0,0.00026511892792768776
1664.0,0.0034854556433856487
1792.0,-0.0013133033644407988
1920.0,0.000658053788356483
2048.0,-0.0011090426705777645
2304.0,0.0004262440779712051
2560.0,0.0007584752165712416
2816.0,-0.0002624086628202349
3072.0,0.00021334343182388693
3328.0,-0.0009832800133153796
3584.0,0.000138562943902798
3840.0,-0.0001112446843762882
4096.0,0.0004276357649359852
4608.0,0.0004393826820887625
5120.0,-0.0007420952315442264
5632.0,9.37619770411402e-05
6144.0,-0.00015414280642289668
6656.0,-6.029319774825126e-05
7168.0,4.875118975178339e-07
7680.0,1.5361260011559352e-05
8192.0,0.000745763536542654
9216.0,-0.0011434651678428054
10240.0,-4.7925454964570235e-06
11264.0,0.00046394046512432396
12288.0,-0.00021155859576538205
13312.0,1.7434624169254676e-05
14336.0,-0.0004018916515633464
end
