version,3.0
numOfCh,1
type,point
parent_name,800-cuts
ch_type,1_1
kcount,1
numberNandB,1
brightnessNandB,1
carpet pos,0
pc,0
Time (ms),CH1 Auto-Correlation
1.0,0.02925591543316841
2.0,0.02772783860564232
3.0,0.0262849573045969
4.0,0.02495090290904045
5.0,0.023657700046896935
6.0,0.022400621324777603
7.0,0.021263573318719864
8.0,0.020193297415971756
9.0,0.01921861059963703
10.0,0.018309008330106735
11.0,0.017452087253332138
12.0,0.01665356010198593
13.0,0.01594262570142746
14.0,0.01523163914680481
15.0,0.014526518061757088
16.0,0.013828891329467297
18.0,0.012622710317373276
20.0,0.011550679802894592
22.0,0.010585533455014229
24.0,0.009730607271194458
26.0,0.00897219218313694
28.0,0.00835048034787178
30.0,0.007744519971311092
32.0,0.007227471563965082
36.0,0.006237945053726435
40.0,0.005328420549631119
44.0,0.004702839534729719
48.0,0.0043664113618433475
52.0,0.004093293100595474
56.0,0.003945901989936829
60.0,0.0036760892253369093
64.0,0.0033209079410880804
72.0,0.002276696264743805
80.0,0.0007163611589930952
88.0,-0.0010177599033340812
96.0,-0.0016264172736555338
104.0,-0.001727116061374545
112.0,-0.0014927168376743793
120.0,-0.001198210404254496
128.0,-0.0010790773667395115
144.0,-0.0019627860747277737
160.0,-0.002251856029033661
176.0,-0.001126395887695253
192.0,0.0003384203591849655
208.0,0.0002702344791032374
224.0,-8.437420183327049e-05
240.0,-0.00041369471000507474
256.0,-0.0008767435792833567
288.0,-0.0014052347978577018
320.0,-0.0018156914738938212
352.0,-0.002057630568742752
384.0,-0.002814921783283353
416.0,-0.0014665054623037577
448.0,-0.0008883631671778858
480.0,-0.0011521873530000448
512.0,0.0007552672177553177
576.0,0.0016678570536896586
640.0,0.0003777522942982614
704.0,-0.00021304984693415463
768.0,-0.0010907328687608242
832.0,-0.001211657770909369
896.0,-0.0010554362088441849
960.0,0.000618784804828465
1024.0,0.0006823095609433949
1152.0,0.0008392927120439708
1280.0,-3.856333205476403e-05
1408.0,-0.0007305491017177701
1536.0,0.0005515218363143504
1664.0,-0.00020005193073302507
1792.0,0.0008580087451264262
1920.0,-0.0009075214620679617
2048.0,-0.0006848900811746716
2304.0,0.0009444589377380908
2560.0,-0.0006497563445009291
2816.0,0.0009065622580237687
3072.0,-0.0006211858708411455
3328.0,0.001045496785081923
3584.0,-0.0018568749073892832
3840.0,7.105825352482498e-05
4096.0,0.000657576194498688
4608.0,0.0003674085019156337
5120.0,2.920464567068848e-06
5632.0,4.459877163753845e-05
6144.0,-3.8379683246603236e-05
6656.0,-0.0006841322756372392
7168.0,-2.8150243451818824e-05
7680.0,0.0004050809657201171
8192.0,-0.0006473200628533959
9216.0,-0.00015747742145322263
10240.0,0.000340782426064834
11264.0,-0.00020627111371140927
12288.0,-0.0001319670700468123
13312.0,-6.293138721957803e-05
14336.0,0.00011400535004213452
end
