version,3.0
numOfCh,1
type,point
parent_name,800-cuts
ch_type,1_1
kcount,1
numberNandB,1
brightnessNandB,1
carpet pos,0
pc,0
Time (ms),CH1 Auto-Correlation
1.0,0.027346575632691383
2.0,0.02583182416856289
3.0,0.02439979277551174
4.0,0.023031184449791908
5.0,0.021746596321463585
6.0,0.020600011572241783
7.0,0.019498856738209724
8.0,0.01846146211028099
9.0,0.017421133816242218
10.0,0.016405856236815453
11.0,0.015404818579554558
12.0,0.01447354257106781
13.0,0.013574457727372646
14.0,0.012720785103738308
15.0,0.011930824257433414
16.0,0.011193258687853813
18.0,0.009823259897530079
20.0,0.008567278273403645
22.0,0.007468448486179113
24.0,0.0064824288710951805
26.0,0.005658458452671766
28.0,0.004921700339764357
30.0,0.004320092499256134
32.0,0.00374991656281054
36.0,0.0029896257910877466
40.0,0.0023785969242453575
44.0,0.0018565963255241513
48.0,0.0014044216368347406
52.0,0.0010595452040433884
56.0,0.0008596684201620519
60.0,0.0007221725536510348
64.0,0.0006287253345362842
72.0,0.0008867019205354154
80.0,0.0009868488414213061
88.0,0.000546938506886363
96.0,3.476101119304076e-05
104.0,-0.00032551627373322845
112.0,-0.0006407772889360785
120.0,-0.0005030616885051131
128.0,-0.00021137113799341023
144.0,0.000623931409791112
160.0,0.0007643309072591364
176.0,0.0005260205361992121
192.0,0.00037198455538600683
208.0,0.0003640480281319469
224.0,-0.0010694784577935934
240.0,-0.0016320663271471858
256.0,-0.0016249432228505611
288.0,-0.0005202598986215889
320.0,-0.0006123422062955797
352.0,-0.000400571123464033
384.0,0.001351578626781702
416.0,0.0013817978324368596
448.0,0.00032195274252444506
480.0,0.0005143659072928131
512.0,-0.0005959213594906032
576.0,0.0003600900818128139
640.0,-0.001378302345983684
704.0,8.94076674740063e-06
768.0,-0.0006734665366820991
832.0,-0.0003431918448768556
896.0,0.0009617462055757642
960.0,-0.0006066516507416964
1024.0,0.00010341487359255552
1152.0,0.0006276590283960104
1280.0,7.441968136845389e-06
1408.0,5.191147647565231e-05
1536.0,0.0007155826315283775
1664.0,0.0009471984230913222
1792.0,-0.0002867784060072154
1920.0,-0.0005400576628744602
2048.0,-0.0009030586807057261
2304.0,-0.000812003796454519
2560.0,0.00013081252109259367
2816.0,-0.00035238638520240784
3072.0,0.00044754159171134233
3328.0,-0.0006708730361424387
3584.0,6.815834058215842e-05
3840.0,-0.00045075631351210177
4096.0,0.00011701466428348795
4608.0,0.00023555898224003613
5120.0,-0.0006532970583066344
5632.0,-2.535574276407715e-05
6144.0,-0.0005104462034069002
6656.0,-0.0003173307341057807
7168.0,0.00022441968030761927
7680.0,-0.00020636082626879215
8192.0,0.00046645206748507917
9216.0,0.00036682296195067465
10240.0,0.00027411311748437583
11264.0,-9.6375253633596e-05
12288.0,-9.435229003429413e-05
13312.0,-0.00017287985247094184
14336.0,0.0006235424662008882
end
