version,3.0
numOfCh,1
type,point
parent_name,800-cuts
ch_type,1_1
kcount,1
numberNandB,1
brightnessNandB,1
carpet pos,0
pc,0
Time (ms),CH1 Auto-Correlation
1.0,0.027658279985189438
2.0,0.026050327345728874
3.0,0.02454886958003044
4.0,0.023193614557385445
5.0,0.0219231266528368
6.0,0.020743874832987785
7.0,0.01964711956679821
8.0,0.018590983003377914
9.0,0.017578791826963425
10.0,0.01659996435046196
11.0,0.015659252181649208
12.0,0.014789427630603313
13.0,0.013997870497405529
14.0,0.013263655826449394
15.0,0.012566464953124523
16.0,0.011932680383324623
18.0,0.010811250656843185
20.0,0.009879298508167267
22.0,0.009030917659401894
24.0,0.00830817874521017
26.0,0.0076981582678854465
28.0,0.007179781794548035
30.0,0.006697762757539749
32.0,0.006217972841113806
36.0,0.0052177016623318195
40.0,0.0043537914752960205
44.0,0.0036223246715962887
48.0,0.00298703508451581
52.0,0.0023543694987893105
56.0,0.0018415394006296992
60.0,0.0015517201973125339
64.0,0.001311228726990521
72.0,0.00047839811304584146
80.0,0.00020399187633302063
88.0,0.00016151749878190458
96.0,0.00016901375784073025
104.0,-0.00014726204972248524
112.0,-0.0004631461633834988
120.0,-0.0009795328369364142
128.0,-0.0007540862425230443
144.0,-0.00044235162204131484
160.0,-0.00024232901341747493
176.0,-0.0002585422480478883
192.0,-0.00045427627628669143
208.0,-0.0007842411869205534
224.0,-0.0010877132881432772
240.0,-0.001536972587928176
256.0,-0.0015091117238625884
288.0,-0.0012279299553483725
320.0,-0.00016445774235762656
352.0,0.001209179637953639
384.0,0.0018044397002086043
416.0,0.0006145962397567928
448.0,0.0009575143340043724
480.0,0.0005775046302005649
512.0,-9.433369996258989e-05
576.0,0.00034430791856721044
640.0,-0.0007887565880082548
704.0,-0.001528303255327046
768.0,-0.00047640211414545774
832.0,3.2467552955495194e-05
896.0,0.00018772334442473948
960.0,-0.00028644572012126446
1024.0,-0.0010499792406335473
1152.0,-0.0002994267561007291
1280.0,0.0001454589219065383
1408.0,-0.0009453521342948079
1536.0,6.672018207609653e-05
1664.0,0.001342407544143498
1792.0,-0.0007595869828946888
1920.0,-0.0003692193713504821
2048.0,0.0015326994471251965
2304.0,0.00024115203996188939
2560.0,2.704746111703571e-05
2816.0,0.00016085366951301694
3072.0,-0.00022367751807905734
3328.0,-0.0005967163597233593
3584.0,0.0001424156071152538
3840.0,5.91545867791865e-05
4096.0,0.0008001451496966183
4608.0,-0.0002548677730374038
5120.0,-0.0005824480322189629
5632.0,-6.399498670361936e-05
6144.0,0.00040641255327500403
6656.0,-0.0006333074998110533
7168.0,0.00011862548853969201
7680.0,-0.0006308199954219162
8192.0,0.00032737449510023
9216.0,-0.0002754647866822779
10240.0,0.00010113565076608211
11264.0,-0.00011119079135823995
12288.0,-0.00031961328932084143
13312.0,6.645726534770802e-05
14336.0,0.00013066106475889683
end
