version,3.0
numOfCh,1
type,point
parent_name,800-cuts
ch_type,1_1
kcount,1
numberNandB,1
brightnessNandB,1
carpet pos,0
pc,0
Time (ms),CH1 Auto-Correlation
1.0,0.025902701541781425
2.0,0.02456759475171566
3.0,0.023327462375164032
4.0,0.022149788215756416
5.0,0.021030306816101074
6.0,0.019932743161916733
7.0,0.018914269283413887
8.0,0.017952147871255875
9.0,0.017039481550455093
10.0,0.0161687433719635
11.0,0.015317093580961227
12.0,0.014513617381453514
13.0,0.013718659058213234
14.0,0.012942032888531685
15.0,0.012237503193318844
16.0,0.01162608340382576
18.0,0.010533357039093971
20.0,0.009544585831463337
22.0,0.00870999414473772
24.0,0.008004155941307545
26.0,0.007271886337548494
28.0,0.006572405807673931
30.0,0.005982588976621628
32.0,0.005476854741573334
36.0,0.004651983268558979
40.0,0.004092453047633171
44.0,0.0035719505976885557
48.0,0.003017225069925189
52.0,0.002501297742128372
56.0,0.0021063496824353933
60.0,0.0018892609514296055
64.0,0.001715678139589727
72.0,0.0010630860924720764
80.0,0.0006689371075481176
88.0,0.0005161779117770493
96.0,0.0006887118797749281
104.0,0.000873020791914314
112.0,0.001022839336656034
120.0,0.0011684069177135825
128.0,0.0010635890066623688
144.0,0.00061588961398229
160.0,0.0008438988588750362
176.0,8.400391379836947e-05
192.0,-0.0007529201684519649
208.0,-0.0014931564219295979
224.0,-0.0010323429014533758
240.0,-1.2907823474961333e-05
256.0,0.0010980654042214155
288.0,0.0015263543464243412
320.0,0.0007619594689458609
352.0,-0.00014360113709699363
384.0,0.0002558852138463408
416.0,0.0002130016073351726
448.0,-0.0006374780205078423
480.0,-0.00048755109310150146
512.0,-0.00042613010737113655
576.0,0.00041299068834632635
640.0,0.0006626071990467608
704.0,0.000520102446898818
768.0,0.0012949026422575116
832.0,0.00012038536806358024
896.0,0.0008871660684235394
960.0,0.0004597001534420997
1024.0,0.0007573747425340116
1152.0,-0.0015430408529937267
1280.0,-0.0003791365015786141
1408.0,0.00038494737236760557
1536.0,-0.0014468430308625102
1664.0,-0.0005754257435910404
1792.0,-0.0006281408132053912
1920.0,0.00038299369043670595
2048.0,-0.00014682473556604236
2304.0,0.00023535866057500243
2560.0,0.0007663853466510773
2816.0,0.001759866951033473
3072.0,-8.830953447613865e-05
3328.0,0.0005172695964574814
3584.0,0.0015328796580433846
3840.0,-0.00012214404705446213
4096.0,-0.0007714073290117085
4608.0,-0.0003901369054801762
5120.0,2.7964551918557845e-05
5632.0,-0.00015206774696707726
6144.0,0.0005535803502425551
6656.0,0.00011312257265672088
7168.0,-0.00023607710318174213
7680.0,-0.00045038003008812666
8192.0,-0.000768963887821883
9216.0,0.0002678865857888013
10240.0,-0.0005661053000949323
11264.0,-0.0005775297177024186
12288.0,-0.0007100982475094497
13312.0,-0.0003055500565096736
14336.0,-0.0007666558376513422
end
