version,3.0
numOfCh,1
type,point
parent_name,800-cuts
ch_type,1_1
kcount,1
numberNandB,1
brightnessNandB,1
carpet pos,0
pc,0
Time (ms),CH1 Auto-Correlation
1.0,0.043260399252176285
2.0,0.0407828688621521
3.0,0.038486696779727936
4.0,0.03632505610585213
5.0,0.03428694233298302
6.0,0.03234061226248741
7.0,0.030425941571593285
8.0,0.028635963797569275
9.0,0.026874462142586708
10.0,0.025229835882782936
11.0,0.02367219515144825
12.0,0.022199150174856186
13.0,0.020797930657863617
14.0,0.019572194665670395
15.0,0.018437987193465233
16.0,0.017438778653740883
18.0,0.01552960742264986
20.0,0.013914022594690323
22.0,0.012414796277880669
24.0,0.011097618378698826
26.0,0.00997899193316698
28.0,0.00909457542002201
30.0,0.008217979222536087
32.0,0.007405800744891167
36.0,0.006267687305808067
40.0,0.0054784812964499
44.0,0.004723371472209692
48.0,0.004005937837064266
52.0,0.0033444755245000124
56.0,0.0028019307646900415
60.0,0.00237560854293406
64.0,0.0020169024355709553
72.0,0.0011520544067025185
80.0,0.0005375354667194188
88.0,0.0005493860226124525
96.0,1.3846202818967868e-05
104.0,-0.0008479222888126969
112.0,-0.0016890807310119271
120.0,-0.0013087841216474771
128.0,-0.0006879488937556744
144.0,0.001245981897227466
160.0,0.0032183958683162928
176.0,0.002796456217765808
192.0,0.0015214876038953662
208.0,0.00048468803288415074
224.0,7.009562978055328e-05
240.0,0.0007756536360830069
256.0,0.0007958148489706218
288.0,-0.0010590791935101151
320.0,-0.0017373719019815326
352.0,-0.0006441762088797987
384.0,-0.0003798796678893268
416.0,0.0010364009067416191
448.0,0.0006969948881305754
480.0,-0.00022886392252985388
512.0,-0.0007221447885967791
576.0,-0.0007149837911128998
640.0,-0.0006585319060832262
704.0,0.0012615472078323364
768.0,-0.000695384165737778
832.0,-0.001064944895915687
896.0,-0.00038960727397352457
960.0,-0.0006429292261600494
1024.0,-0.002063466003164649
1152.0,0.0009449535282328725
1280.0,-0.001091022277250886
1408.0,-0.0008221238385885954
1536.0,0.0002561547444202006
1664.0,-0.0017646928317844868
1792.0,-0.0003068016958422959
1920.0,0.00019833150145132095
2048.0,0.0006721471436321735
2304.0,8.858984983817209e-06
2560.0,0.0003833748633041978
2816.0,-0.001140618696808815
3072.0,0.0005111233331263065
3328.0,0.0005036956863477826
3584.0,-0.0014245290076360106
3840.0,-0.00031698140082880855
4096.0,-0.00027375691570341587
4608.0,0.00035859274794347584
5120.0,-0.00046397713595069945
5632.0,-0.0003418885462451726
6144.0,0.0005371684092096984
6656.0,0.0004077029007021338
7168.0,0.00017852993914857507
7680.0,-0.0002458501257933676
8192.0,0.00010687883332138881
9216.0,0.00013440927432384342
10240.0,-0.0012488373322412372
11264.0,0.0011112169595435262
12288.0,-0.0003403916780371219
13312.0,-0.0010615094797685742
14336.0,0.0021670893765985966
end
