version,3.0
numOfCh,1
type,point
parent_name,800-cuts
ch_type,1_1
kcount,1
numberNandB,1
brightnessNandB,1
carpet pos,0
pc,0
Time (ms),CH1 Auto-Correlation
1.0,0.07589349895715714
2.0,0.07161218672990799
3.0,0.06758417189121246
4.0,0.0638919398188591
5.0,0.060475341975688934
6.0,0.05721273273229599
7.0,0.05407560244202614
8.0,0.0511467270553112
9.0,0.04836904630064964
10.0,0.04577129706740379
11.0,0.04322616383433342
12.0,0.04075663536787033
13.0,0.03833305835723877
14.0,0.036176614463329315
15.0,0.034163277596235275
16.0,0.03225385397672653
18.0,0.02887101285159588
20.0,0.02593296393752098
22.0,0.023355351760983467
24.0,0.021073700860142708
26.0,0.018906263634562492
28.0,0.016944585368037224
30.0,0.01526155136525631
32.0,0.013742642477154732
36.0,0.01122484914958477
40.0,0.009610499255359173
44.0,0.007977830246090889
48.0,0.006301529705524445
52.0,0.004717176780104637
56.0,0.0028081058990210295
60.0,0.0010956559563055634
64.0,0.000399959011701867
72.0,0.0003176833561155945
80.0,-0.0003830085333902389
88.0,-0.00038767492515034974
96.0,-0.00019089928537141532
104.0,-0.0004900299827568233
112.0,-0.0014616645639762282
120.0,-0.0014892718754708767
128.0,-0.0008465474238619208
144.0,-0.0009740625973790884
160.0,-0.0007923396769911051
176.0,0.002439967356622219
192.0,0.003230086760595441
208.0,0.002345283981412649
224.0,0.00038052882882766426
240.0,-0.000360645295586437
256.0,0.0013290700735524297
288.0,0.0007024623919278383
320.0,-0.0028562238439917564
352.0,-0.0009438605629839003
384.0,0.002479158341884613
416.0,0.003309696912765503
448.0,0.00017225324700120836
480.0,-0.0023030065931379795
512.0,-0.0017542911227792501
576.0,-0.0009481473825871944
640.0,0.0006738044903613627
704.0,-0.0018596963491290808
768.0,-0.0015863998560234904
832.0,-0.002410013461485505
896.0,-0.0034994431771337986
960.0,-0.0016799712320789695
1024.0,0.0014156430261209607
1152.0,0.0009291652240790427
1280.0,-0.0017339227488264441
1408.0,-0.000998099334537983
1536.0,-0.0002459948882460594
1664.0,0.0007628935854882002
1792.0,0.001506539760157466
1920.0,-0.0025860497262328863
2048.0,-0.0005736677558161318
2304.0,0.0005762635264545679
2560.0,0.0001495470351073891
2816.0,0.0007179172825999558
3072.0,-0.0005855703493580222
3328.0,-0.0023892447352409363
3584.0,0.0008034068741835654
3840.0,0.0007554811891168356
4096.0,-0.00041512728785164654
4608.0,-0.0007685611490160227
5120.0,-0.000651455600745976
5632.0,-0.0008597408886998892
6144.0,0.002200445858761668
6656.0,0.0003230156726203859
7168.0,-0.0002596827398519963
7680.0,0.001074560103006661
8192.0,-0.0015076017007231712
9216.0,0.0004263442533556372
10240.0,-0.0008671269752085209
11264.0,-0.00011785590322688222
12288.0,0.000570627162232995
13312.0,-0.0010169807355850935
14336.0,0.000682815327309072
end
