version,3.0
numOfCh,1
type,point
parent_name,800-cuts
ch_type,1_1
kcount,1
numberNandB,1
brightnessNandB,1
carpet pos,0
pc,0
Time (ms),CH1 Auto-Correlation
1.0,0.06453368812799454
2.0,0.061078500002622604
3.0,0.057790644466876984
4.0,0.05465079843997955
5.0,0.051656752824783325
6.0,0.048830416053533554
7.0,0.046268243342638016
8.0,0.0437811054289341
9.0,0.041417427361011505
10.0,0.039182402193546295
11.0,0.037014301866292953
12.0,0.034920834004879
13.0,0.032895393669605255
14.0,0.03087208792567253
15.0,0.028827771544456482
16.0,0.026948055252432823
18.0,0.023378130048513412
20.0,0.020355001091957092
22.0,0.01773371733725071
24.0,0.015337277203798294
26.0,0.013214965350925922
28.0,0.011309209279716015
30.0,0.009642109274864197
32.0,0.008270636200904846
36.0,0.006151736713945866
40.0,0.00480863731354475
44.0,0.0036642407067120075
48.0,0.0030094448011368513
52.0,0.0024591765832155943
56.0,0.0019515128806233406
60.0,0.001393991056829691
64.0,0.0011293989373371005
72.0,0.0008303989307023585
80.0,0.00018099864246323705
88.0,-0.0005544206942431629
96.0,-0.0014321362832561135
104.0,-0.0012058934662491083
112.0,0.00031235648202709854
120.0,0.0008575501851737499
128.0,0.0003529690729919821
144.0,-0.0016085540410131216
160.0,-0.002760919975116849
176.0,-0.002136248629540205
192.0,-0.0020270401146262884
208.0,-0.0008919439860619605
224.0,-0.0005324975936673582
240.0,-0.0007793056429363787
256.0,-0.0019033342832699418
288.0,-0.0011815896723419428
320.0,-0.002255810657516122
352.0,-0.0014505847357213497
384.0,-0.0003674633626360446
416.0,0.0017833743477240205
448.0,0.001793215167708695
480.0,0.002139004413038492
512.0,0.001134661608375609
576.0,-0.0007027790416032076
640.0,-0.003139653243124485
704.0,-0.002600985812023282
768.0,-0.003606714541092515
832.0,-0.0018081835005432367
896.0,0.0006368387839756906
960.0,0.00022206389985512942
1024.0,0.0017681833123788238
1152.0,-7.065326644806191e-05
1280.0,0.00029216695111244917
1408.0,0.00037089394754730165
1536.0,0.0019546288531273603
1664.0,-0.00017108625615946949
1792.0,0.00023932152544148266
1920.0,7.934483437566087e-05
2048.0,-0.00153350702021271
2304.0,-0.0020172493532299995
2560.0,-0.0005162762827239931
2816.0,-4.998501026420854e-05
3072.0,0.0007057623006403446
3328.0,0.0012617858592420816
3584.0,-4.422372148837894e-05
3840.0,-0.0006159126060083508
4096.0,-0.00047320034354925156
4608.0,0.0011930052423849702
5120.0,-0.00041257991688326
5632.0,-0.0008374380995519459
6144.0,-0.0002479071554262191
6656.0,-7.58232272346504e-05
7168.0,-0.0008028926677070558
7680.0,0.0015426758909597993
8192.0,-4.841365444008261e-05
9216.0,-0.00010383714106865227
10240.0,-3.454411489656195e-05
11264.0,-0.0003337783273309469
12288.0,-0.0004679854610003531
13312.0,-0.00015694566536694765
14336.0,1.7292280972469598e-05
end
