version,3.0
numOfCh,1
type,point
parent_name,800-cuts
ch_type,1_1
kcount,1
numberNandB,1
brightnessNandB,1
carpet pos,0
pc,0
Time (ms),CH1 Auto-Correlation
1.0,0.03195065259933472
2.0,0.03017745167016983
3.0,0.02848677895963192
4.0,0.026877515017986298
5.0,0.025370322167873383
6.0,0.023926591500639915
7.0,0.02256358228623867
8.0,0.02123344875872135
9.0,0.02001713216304779
10.0,0.018840864300727844
11.0,0.017719024792313576
12.0,0.01668597012758255
13.0,0.015708480030298233
14.0,0.014807894825935364
15.0,0.013944289647042751
16.0,0.013119911774992943
18.0,0.011584452353417873
20.0,0.01007701177150011
22.0,0.00877130962908268
24.0,0.0076123010367155075
26.0,0.006584460847079754
28.0,0.005781357642263174
30.0,0.005060816183686256
32.0,0.004409133922308683
36.0,0.003560965647920966
40.0,0.0031113403383642435
44.0,0.002824178198352456
48.0,0.0022738478146493435
52.0,0.001856223912909627
56.0,0.001282575773075223
60.0,0.0007641278789378703
64.0,9.213719022227451e-05
72.0,-0.001310305786319077
80.0,-0.001544460654258728
88.0,-0.0012959119630977511
96.0,-0.0010641546687111259
104.0,-0.0003678401408251375
112.0,-9.402746400155593e-06
120.0,-4.37740127381403e-05
128.0,-0.0004136086499784142
144.0,-0.001128794508986175
160.0,-0.0001699853892205283
176.0,0.0003129163524135947
192.0,0.00031970872078090906
208.0,0.0004849291290156543
224.0,-0.0003543271741364151
240.0,-0.0005707427626475692
256.0,-0.0005350885330699384
288.0,-0.0002795843465719372
320.0,0.00028519262559711933
352.0,0.001166264759376645
384.0,0.002279435284435749
416.0,0.00021649032714776695
448.0,-0.0005349889397621155
480.0,-0.0013115203473716974
512.0,-0.0018477856647223234
576.0,-0.0022073574364185333
640.0,-0.0010853909188881516
704.0,-0.0018547754734754562
768.0,-0.0007944047683849931
832.0,0.0022629352752119303
896.0,-0.0005291764391586185
960.0,0.0005352030857466161
1024.0,0.0018714891048148274
1152.0,0.0008875172352418303
1280.0,0.0007071409490890801
1408.0,0.00042230915278196335
1536.0,-0.0009899906581267715
1664.0,-0.0001822203048504889
1792.0,-0.00024981197202578187
1920.0,-6.509568629553542e-05
2048.0,0.001470638788305223
2304.0,0.0005209753289818764
2560.0,-0.0008921059779822826
2816.0,-0.000328447378706187
3072.0,0.000830786710139364
3328.0,0.0008625004556961358
3584.0,-0.0008732912829145789
3840.0,-9.969528036890551e-05
4096.0,0.00051414332119748
4608.0,-5.541788414120674e-05
5120.0,-0.0001255234092241153
5632.0,-0.0003876137197948992
6144.0,0.00028828351059928536
6656.0,-0.0001789446105249226
7168.0,-0.0006613721488974988
7680.0,0.00022043214994482696
8192.0,-0.0005175252445042133
9216.0,-0.00020820459758397192
10240.0,-0.0002843887486960739
11264.0,-0.0002870456373784691
12288.0,-0.0003846239414997399
13312.0,0.0001000474949250929
14336.0,0.00021361096878536046
end
