version,3.0
numOfCh,1
type,point
parent_name,clean
ch_type,1_1
kcount,1
numberNandB,1
brightnessNandB,1
carpet pos,0
pc,0
Time (ms),CH1 Auto-Correlation
1.0,0.01721583679318428
2.0,0.014191539958119392
3.0,0.01201320718973875
4.0,0.01049152109771967
5.0,0.009295716881752014
6.0,0.00835026428103447
7.0,0.00766610587015748
8.0,0.007074809167534113
9.0,0.006531787570565939
10.0,0.0060993218794465065
11.0,0.005612006410956383
12.0,0.005190795753151178
13.0,0.0048308405093848705
14.0,0.004481509793549776
15.0,0.00419200723990798
16.0,0.004025707487016916
18.0,0.0035398686304688454
20.0,0.0034819715656340122
22.0,0.00331540172919631
24.0,0.0031367549672722816
26.0,0.0028743005823343992
28.0,0.0025686391163617373
30.0,0.002426152816042304
32.0,0.002228965749964118
36.0,0.0019569688010960817
40.0,0.0016106873517856002
44.0,0.001397969201207161
48.0,0.0013772392412647605
52.0,0.0014066083822399378
56.0,0.0013357197167351842
60.0,0.0011592023074626923
64.0,0.0010521375807002187
72.0,0.0007449152763001621
80.0,0.000554111844394356
88.0,0.0005650039529427886
96.0,0.00020867600687779486
104.0,0.000567869923543185
112.0,0.0009110639803111553
120.0,0.000687341729644686
128.0,0.000666692154482007
144.0,0.0006819950067438185
160.0,0.00024664169177412987
176.0,0.0007126866257749498
192.0,0.0002511576167307794
208.0,0.00024749775184318423
224.0,0.00028031558031216264
240.0,0.00011552860087249428
256.0,-5.0066912081092596e-05
288.0,-0.00038307730574160814
320.0,-0.0007022646022960544
352.0,-0.0006144800572656095
384.0,-0.0001971240562852472
416.0,5.468898598337546e-05
448.0,0.00024657489848323166
480.0,-3.781136911129579e-05
512.0,-0.00012417492689564824
576.0,0.00010777879651868716
640.0,-2.0207411580486223e-05
704.0,-0.00017214746912941337
768.0,-0.0005397714558057487
832.0,4.250809797667898e-05
896.0,-0.00027574916020967066
960.0,-0.00027593341656029224
1024.0,0.00033109760261140764
1152.0,-0.00012993955169804394
1280.0,-0.00010941837535938248
1408.0,-0.00024076460977084935
1536.0,0.00010943283268716186
1664.0,0.00022607030405197293
1792.0,-0.00023977301316335797
1920.0,-0.000240353838307783
2048.0,-0.0002199334412580356
2304.0,0.00028470903635025024
2560.0,-0.000242349473410286
2816.0,-8.910293217923027e-06
3072.0,-0.0003280485689174384
3328.0,-0.00018649060802999884
3584.0,-2.5300583729404025e-05
3840.0,0.00026359385810792446
4096.0,-0.0006838148110546172
4608.0,0.0001771312818164006
5120.0,-0.00042606244096532464
5632.0,0.00017082116391975433
6144.0,-0.00012821823474951088
6656.0,0.0002126295439666137
7168.0,0.00044475129107013345
7680.0,-0.00013838607992511243
8192.0,0.00013305734319146723
9216.0,0.00010192702029598877
10240.0,1.9765380784519948e-05
11264.0,-0.00013644389400724322
12288.0,-0.00016106526891235262
13312.0,-0.00024725194089114666
14336.0,-0.0003462232125457376
end
