version,3.0
numOfCh,1
type,point
parent_name,clean
ch_type,1_1
kcount,1
numberNandB,1
brightnessNandB,1
carpet pos,0
pc,0
Time (ms),CH1 Auto-Correlation
1.0,0.01720743626356125
2.0,0.014203394763171673
3.0,0.012132200412452221
4.0,0.010571630671620369
5.0,0.009346963837742805
6.0,0.008401960134506226
7.0,0.007629584986716509
8.0,0.007188396994024515
9.0,0.0068010324612259865
10.0,0.00634257635101676
11.0,0.005913221277296543
12.0,0.005490770563483238
13.0,0.005129867233335972
14.0,0.004832424223423004
15.0,0.004543513525277376
16.0,0.0042648920789361
18.0,0.0038308596704155207
20.0,0.00358380563557148
22.0,0.003263431368395686
24.0,0.002934476127848029
26.0,0.002820038702338934
28.0,0.002602070802822709
30.0,0.0024464260786771774
32.0,0.0021593065466731787
36.0,0.0020160924177616835
40.0,0.0019102217629551888
44.0,0.0019352348754182458
48.0,0.00192162930034101
52.0,0.001686347066424787
56.0,0.0017091109184548259
60.0,0.0013336044503375888
64.0,0.0011200187727808952
72.0,0.0011823467211797833
80.0,0.0010721002472564578
88.0,0.0009124668431468308
96.0,0.0010120522929355502
104.0,0.001118726097047329
112.0,0.001019917312078178
120.0,0.0009504162007942796
128.0,0.0005245162756182253
144.0,0.0003533711424097419
160.0,0.00025467455270700157
176.0,0.00022220904065761715
192.0,8.278825407614931e-05
208.0,0.00021748751169070601
224.0,-0.00011843110405607149
240.0,2.163718090741895e-05
256.0,0.00033744570100679994
288.0,0.00018823811842594296
320.0,0.0004388568049762398
352.0,1.341786514785781e-06
384.0,0.0002580831351224333
416.0,-0.00018938789435196668
448.0,-0.0003237153869122267
480.0,-0.00019929413974750787
512.0,-0.00013456304441206157
576.0,-0.00016316935943905264
640.0,6.471655069617555e-05
704.0,0.00022533633455168456
768.0,1.4418606042454485e-05
832.0,0.00010475143790245056
896.0,0.00019094304298050702
960.0,0.00038876509643159807
1024.0,0.0006497218855656683
1152.0,-0.00014385650865733624
1280.0,-0.0002488619356881827
1408.0,-0.000259721971815452
1536.0,-0.00016119937936309725
1664.0,-0.00013723431038670242
1792.0,-0.0002929935872089118
1920.0,-0.00039153630496002734
2048.0,-0.00034323029103688896
2304.0,2.7765043341787532e-05
2560.0,-0.00017672149988356978
2816.0,0.0003370277408976108
3072.0,0.00016901658091228455
3328.0,0.00016944984963629395
3584.0,-0.00011651004024315625
3840.0,-0.00020680516900029033
4096.0,-0.0004873119469266385
4608.0,-0.00019897660240530968
5120.0,-3.1207204301608726e-05
5632.0,0.00024148116062860936
6144.0,-0.0001251038338523358
6656.0,-3.5158314858563244e-05
7168.0,-0.0003192068834323436
7680.0,0.00031092693097889423
8192.0,0.00023076121578924358
9216.0,0.00023205594334285706
10240.0,-0.0003965895448345691
11264.0,-0.00030887333559803665
12288.0,4.988216460333206e-05
13312.0,-7.256728713400662e-05
14336.0,-1.8630624254001305e-05
end
