version,3.0
numOfCh,1
type,point
parent_name,clean
ch_type,1_1
kcount,1
numberNandB,1
brightnessNandB,1
carpet pos,0
pc,0
Time (ms),CH1 Auto-Correlation
1.0,0.016634376719594002
2.0,0.013849280774593353
3.0,0.011840828694403172
4.0,0.010310557670891285
5.0,0.009126151911914349
6.0,0.008231575600802898
7.0,0.0074516283348202705
8.0,0.006815125700086355
9.0,0.006174666807055473
10.0,0.005706976633518934
11.0,0.005251284223049879
12.0,0.004889088682830334
13.0,0.004604679998010397
14.0,0.004231797996908426
15.0,0.003853756235912442
16.0,0.0035176954697817564
18.0,0.003071537707000971
20.0,0.0027693447191268206
22.0,0.002586435992270708
24.0,0.0024154854472726583
26.0,0.0021078218705952168
28.0,0.0017681352328509092
30.0,0.0016838619485497475
32.0,0.0016297708498314023
36.0,0.001542009529657662
40.0,0.001437389524653554
44.0,0.0013642379781231284
48.0,0.0013357964344322681
52.0,0.0012717593926936388
56.0,0.0012562108458951116
60.0,0.0010729418136179447
64.0,0.0009020245634019375
72.0,0.000626157212536782
80.0,0.0007716960390098393
88.0,0.0008349952986463904
96.0,0.000773202336858958
104.0,0.0005589921493083239
112.0,0.00024143928021658212
120.0,0.00023742397024761885
128.0,0.00037338718539103866
144.0,0.0003617035399656743
160.0,0.0003478802100289613
176.0,0.00043352480861358345
192.0,0.00027635128935799
208.0,-0.0004550773010123521
224.0,-0.0006707237334921956
240.0,-0.0004429495020303875
256.0,-0.00018968878430314362
288.0,-0.0002687297819647938
320.0,-0.00031399118597619236
352.0,-0.00019486754899844527
384.0,-0.00013114040484651923
416.0,-0.00020585751917678863
448.0,-0.00013806381321046501
480.0,4.6919984015403315e-05
512.0,-0.00037570641143247485
576.0,-0.00030290885479189456
640.0,-3.323763667140156e-05
704.0,-0.0003156612510792911
768.0,-0.000150427280459553
832.0,0.00021919079881627113
896.0,2.484902142896317e-05
960.0,-0.00011573140363907441
1024.0,0.00018187041860073805
1152.0,0.0004349726077634841
1280.0,0.0002620166924316436
1408.0,7.275603275047615e-05
1536.0,7.492299482692033e-05
1664.0,-3.0158713343553245e-05
1792.0,-6.408824265236035e-05
1920.0,-0.00029738686862401664
2048.0,-0.00016490131383761764
2304.0,5.142528243595734e-05
2560.0,3.4235799830639735e-05
2816.0,-0.00020745299116242677
3072.0,-0.00014916574582457542
3328.0,-4.0004717448027804e-05
3584.0,0.0002472127671353519
3840.0,6.296903302427381e-05
4096.0,-6.897318235132843e-05
4608.0,0.00019522028742358088
5120.0,4.7972644097171724e-05
5632.0,3.463657048996538e-05
6144.0,0.00037223187973722816
6656.0,-0.0005817541969008744
7168.0,0.00025008158991113305
7680.0,-2.9770748369628564e-05
8192.0,-7.187488517956808e-05
9216.0,-0.00012598490866366774
10240.0,-0.0003586510429158807
11264.0,-3.624103555921465e-05
12288.0,0.0003399292181711644
13312.0,7.947851554490626e-05
14336.0,-0.0007687796023674309
end
