version,3.0
numOfCh,1
type,point
parent_name,clean
ch_type,1_1
kcount,1
numberNandB,1
brightnessNandB,1
carpet pos,0
pc,0
Time (ms),CH1 Auto-Correlation
1.0,0.01455768197774887
2.0,0.011698588728904724
3.0,0.009679880924522877
4.0,0.00825523305684328
5.0,0.007105724420398474
6.0,0.006128831300884485
7.0,0.005397184751927853
8.0,0.0047702910378575325
9.0,0.004241807386279106
10.0,0.003825097344815731
11.0,0.0034121840726584196
12.0,0.0030809412710368633
13.0,0.0028356455732136965
14.0,0.0026693493127822876
15.0,0.002368921646848321
16.0,0.0022096557077020407
18.0,0.0020241467282176018
20.0,0.0017810178687795997
22.0,0.0015361533733084798
24.0,0.001243214588612318
26.0,0.0010640290565788746
28.0,0.0009618769399821758
30.0,0.0009395591914653778
32.0,0.0009392835199832916
36.0,0.0008317829924635589
40.0,0.0008367201662622392
44.0,0.0008774152374826372
48.0,0.0008698510937392712
52.0,0.000723663717508316
56.0,0.0007714044768363237
60.0,0.0008036918588913977
64.0,0.0007379252929240465
72.0,0.0008072578348219395
80.0,0.0009049926302395761
88.0,0.0009777738014236093
96.0,0.0007677032263018191
104.0,0.00040559362969361246
112.0,7.199214451247826e-05
120.0,-0.0004909047856926918
128.0,-0.000376096781110391
144.0,-0.00010488733823876828
160.0,0.00011762708891183138
176.0,0.0001359014568151906
192.0,-0.00036198479938320816
208.0,-0.0002925338631030172
224.0,-0.00015824938600417227
240.0,-2.4204322471632622e-05
256.0,-0.00013211340410634875
288.0,8.648278890177608e-05
320.0,2.3230752049130388e-05
352.0,-7.300305151147768e-05
384.0,0.0002640875754877925
416.0,-0.0001392596896039322
448.0,-4.760535011882894e-05
480.0,-0.00020995708473492414
512.0,-0.0001300152944168076
576.0,0.0001590987085364759
640.0,-0.00014069087046664208
704.0,-2.462512202328071e-05
768.0,-9.512927499599755e-05
832.0,-7.214379729703069e-05
896.0,0.0001263479352928698
960.0,-0.0001452149881515652
1024.0,-0.00044747834908775985
1152.0,7.322648161789402e-05
1280.0,6.568018579855561e-05
1408.0,0.00010513330198591575
1536.0,8.411081216763705e-05
1664.0,0.00033268038532696664
1792.0,0.00033042518771253526
1920.0,0.0002715220907703042
2048.0,4.728079875349067e-05
2304.0,6.026171377015999e-06
2560.0,-0.00016235960356425494
2816.0,-0.00019627455912996083
3072.0,-9.281963866669685e-05
3328.0,-0.00010564859985606745
3584.0,0.00022830632224213332
3840.0,-0.00021645022206939757
4096.0,0.0001898589835036546
4608.0,-0.00026098484522663057
5120.0,-0.00013113529712427408
5632.0,-0.0001428442628821358
6144.0,-0.00015033161616884172
6656.0,-0.00013515976024791598
7168.0,6.0467777075245976e-05
7680.0,-0.00012585842341650277
8192.0,4.142929537920281e-05
9216.0,0.0001422451314283535
10240.0,9.699805377749726e-05
11264.0,0.00022752786753699183
12288.0,-0.0001282505545532331
13312.0,0.00012604458606801927
14336.0,-0.00026843982050195336
end
