version,3.0
numOfCh,1
type,point
parent_name,clean
ch_type,1_1
kcount,1
numberNandB,1
brightnessNandB,1
carpet pos,0
pc,0
Time (ms),CH1 Auto-Correlation
1.0,0.025571417063474655
2.0,0.020970262587070465
3.0,0.017763659358024597
4.0,0.015228581614792347
5.0,0.013323767110705376
6.0,0.011859418824315071
7.0,0.010702514089643955
8.0,0.009600241668522358
9.0,0.008727824315428734
10.0,0.007934335619211197
11.0,0.007246145512908697
12.0,0.006711181718856096
13.0,0.006167714949697256
14.0,0.005726528819650412
15.0,0.005486187059432268
16.0,0.005315529182553291
18.0,0.004987781867384911
20.0,0.004570564720779657
22.0,0.00443411385640502
24.0,0.0040640817023813725
26.0,0.0035748090595006943
28.0,0.0032268385402858257
30.0,0.002738888142630458
32.0,0.002229392994195223
36.0,0.0018213787116110325
40.0,0.0013623757986351848
44.0,0.0010850862599909306
48.0,0.001024310477077961
52.0,0.0007344274781644344
56.0,0.0007419755565933883
60.0,0.0005559355486184359
64.0,0.0006416162941604853
72.0,0.0010057034669443965
80.0,0.0005942177376709878
88.0,0.00032155742519535124
96.0,-0.00011908130545634776
104.0,0.00023238056746777147
112.0,-0.0006699101650156081
120.0,-0.0006708374130539596
128.0,-0.00042316847248002887
144.0,-9.618310286896303e-06
160.0,0.00028282986022531986
176.0,0.001245838706381619
192.0,0.0014859369257465005
208.0,0.0010403881315141916
224.0,0.0014943148707970977
240.0,0.0012553256237879395
256.0,0.0008100615232251585
288.0,9.446904005017132e-05
320.0,0.0008499489049427211
352.0,0.0009189413394778967
384.0,-0.00015145707584451884
416.0,6.824390584370121e-05
448.0,-9.56199219217524e-05
480.0,-0.00019020344188902527
512.0,-0.00017165184544865042
576.0,0.0001634372165426612
640.0,0.00045695353765040636
704.0,0.00031446784851141274
768.0,-0.00037081274786032736
832.0,-8.38831183500588e-05
896.0,0.0004416966694407165
960.0,0.00018485879991203547
1024.0,0.000541521527338773
1152.0,-0.0002714862348511815
1280.0,0.00015687734412495047
1408.0,0.0003188411064911634
1536.0,-0.00012463393795769662
1664.0,0.0008264787029474974
1792.0,-0.00031273506465367973
1920.0,0.00012283539399504662
2048.0,-0.00018063098832499236
2304.0,-6.836549437139183e-05
2560.0,-0.00019343651365488768
2816.0,5.814338874188252e-05
3072.0,-0.00039365532575175166
3328.0,-0.0004335365956649184
3584.0,6.165923423395725e-06
3840.0,1.9554929622245254e-06
4096.0,-0.00033203462953679264
4608.0,-9.875200339592993e-05
5120.0,0.0003558353637345135
5632.0,0.0003822448488790542
6144.0,-0.0002390023146290332
6656.0,0.00010004168143495917
7168.0,0.00022195283963810652
7680.0,-0.00032275167177431285
8192.0,-0.0002597997081466019
9216.0,-0.000831556913908571
10240.0,-5.631914973491803e-05
11264.0,-0.00018012942746281624
12288.0,0.00014238858420867473
13312.0,0.00026822712970897555
14336.0,0.000760552822612226
end
