version,3.0
numOfCh,1
type,point
parent_name,clean
ch_type,1_1
kcount,1
numberNandB,1
brightnessNandB,1
carpet pos,0
pc,0
Time (ms),CH1 Auto-Correlation
1.0,0.016215955838561058
2.0,0.013362607918679714
3.0,0.011424695141613483
4.0,0.010003479197621346
5.0,0.008861678652465343
6.0,0.007971524260938168
7.0,0.007201692089438438
8.0,0.006600984372198582
9.0,0.005927748512476683
10.0,0.005452707875519991
11.0,0.0050376588478684425
12.0,0.004703671205788851
13.0,0.0043711415491998196
14.0,0.0041822995990514755
15.0,0.0039336057379841805
16.0,0.003629928221926093
18.0,0.0030649015679955482
20.0,0.0027129617519676685
22.0,0.002504084026440978
24.0,0.0023347153328359127
26.0,0.002204317832365632
28.0,0.0020220777951180935
30.0,0.00184780138079077
32.0,0.00175186013802886
36.0,0.0015711585292592645
40.0,0.0014386260882019997
44.0,0.0012239578645676374
48.0,0.0013928470434620976
52.0,0.0010872164275497198
56.0,0.0011802904773503542
60.0,0.0014046145370230079
64.0,0.0015683452365919948
72.0,0.0013601693790405989
80.0,0.0007779424195177853
88.0,0.0007571768946945667
96.0,0.000526545278262347
104.0,0.00042209180537611246
112.0,0.00027191705885343254
120.0,0.00016542914090678096
128.0,0.00035596260568127036
144.0,0.0007417962187901139
160.0,0.0005164560279808939
176.0,3.064461998292245e-05
192.0,0.00010814502456923947
208.0,0.0003068041114602238
224.0,0.00035283068427816033
240.0,0.0005405061529017985
256.0,0.0007524588145315647
288.0,0.00027124903863295913
320.0,0.000262867019046098
352.0,0.0005353179294615984
384.0,-5.9065507230116054e-05
416.0,0.00012486481864470989
448.0,5.146339753991924e-05
480.0,0.0003444835892878473
512.0,-3.8590711483266205e-05
576.0,4.799192902282812e-05
640.0,-0.0003716750943567604
704.0,-0.00038002413930371404
768.0,-0.0010142282117158175
832.0,-0.0005729992990382016
896.0,7.826292858226225e-05
960.0,9.727972064865753e-05
1024.0,-0.000543364614713937
1152.0,0.00010843553900485858
1280.0,-0.00019873982819262892
1408.0,2.0334623513917904e-06
1536.0,8.117778634186834e-05
1664.0,8.363366941921413e-05
1792.0,0.00014795077731832862
1920.0,-0.00025396718410775065
2048.0,-0.0001290273357881233
2304.0,4.966479536960833e-05
2560.0,0.00012565111683215946
2816.0,-7.198587991297245e-05
3072.0,0.00019027646339964122
3328.0,0.0005256986478343606
3584.0,9.175938612315804e-05
3840.0,-0.0004961621016263962
4096.0,-0.0007053423905745149
4608.0,-0.00037944415817037225
5120.0,0.0004135468043386936
5632.0,-0.00012908605276606977
6144.0,-2.6575477022561245e-05
6656.0,0.00011251046817051247
7168.0,-0.0002541343274060637
7680.0,-0.0002587786584626883
8192.0,0.00016170037270057946
9216.0,2.81308912235545e-05
10240.0,-9.306473657488823e-05
11264.0,-0.0001484839158365503
12288.0,0.00036480443668551743
13312.0,-6.810751074226573e-05
14336.0,-7.015790470177308e-05
end
