version,3.0
numOfCh,1
type,point
parent_name,clean
ch_type,1_1
kcount,1
numberNandB,1
brightnessNandB,1
carpet pos,0
pc,0
Time (ms),CH1 Auto-Correlation
1.0,0.015518330037593842
2.0,0.012590971775352955
3.0,0.010651525110006332
4.0,0.009256207384169102
5.0,0.008193716406822205
6.0,0.007303998339921236
7.0,0.006547777913510799
8.0,0.005996824242174625
9.0,0.005404973868280649
10.0,0.004806327633559704
11.0,0.004259292967617512
12.0,0.0037785209715366364
13.0,0.0034720245748758316
14.0,0.0032714090775698423
15.0,0.0030848756432533264
16.0,0.0029812920838594437
18.0,0.002690135035663843
20.0,0.0022693960927426815
22.0,0.001955185318365693
24.0,0.0018302176613360643
26.0,0.0016069581033661962
28.0,0.001296467729844153
30.0,0.0010240348055958748
32.0,0.0009464073227718472
36.0,0.001027771388180554
40.0,0.0009660398354753852
44.0,0.000806688389275223
48.0,0.0007097289199009538
52.0,0.0005496427766047418
56.0,0.0004127470892854035
60.0,2.2609248844673857e-05
64.0,-6.054634286556393e-05
72.0,-8.70311341714114e-05
80.0,-0.0002319897903362289
88.0,-8.574426829000004e-06
96.0,0.0002674814604688436
104.0,0.00047054028254933655
112.0,0.0003522182523738593
120.0,0.00015657307812944055
128.0,-9.101544128498062e-05
144.0,-0.0003884947800543159
160.0,-0.0009216906037181616
176.0,-0.0007525846594944596
192.0,-0.0005901559488847852
208.0,-0.0007093636668287218
224.0,-0.0006265962147153914
240.0,-0.00044276489643380046
256.0,-0.00026607251493260264
288.0,0.00020406453404575586
320.0,0.0005251477123238146
352.0,0.00022190719028003514
384.0,0.00035663554444909096
416.0,0.0002990111825056374
448.0,-0.000339316000463441
480.0,-0.00030062886071391404
512.0,0.0002254364953842014
576.0,-6.999586912570521e-05
640.0,-0.00038652695366181433
704.0,-0.00033474373049102724
768.0,0.00010671742347767577
832.0,0.0001800064492272213
896.0,2.7917818442801945e-05
960.0,0.00011692039697663859
1024.0,-4.6728109737159684e-05
1152.0,0.0001727342460071668
1280.0,-4.422587880981155e-05
1408.0,1.7551405107951723e-05
1536.0,-0.00027369539020583034
1664.0,3.88796761399135e-05
1792.0,-3.0265593977674143e-06
1920.0,0.00017776845197658986
2048.0,9.488670184509829e-05
2304.0,3.1729243346489966e-05
2560.0,1.1016620646842057e-06
2816.0,-0.00024547529756091535
3072.0,1.655717278481461e-05
3328.0,-3.934826236218214e-05
3584.0,3.4807278552762e-06
3840.0,-0.00021386196021921933
4096.0,-0.00023522360424976796
4608.0,-7.893895963206887e-05
5120.0,-1.6708245311747305e-05
5632.0,-0.00012272302410565317
6144.0,-9.844959276961163e-05
6656.0,0.00016925425734370947
7168.0,1.2044030881952494e-05
7680.0,2.6004894607467577e-05
8192.0,2.2828298824606463e-06
9216.0,9.610381675884128e-05
10240.0,-0.00013959385978523642
11264.0,0.00012994105054531246
12288.0,-9.730369492899626e-05
13312.0,-2.231135113106575e-06
14336.0,-0.00011002615792676806
end
