version,3.0
numOfCh,1
type,point
parent_name,clean
ch_type,1_1
kcount,1
numberNandB,1
brightnessNandB,1
carpet pos,0
pc,0
Time (ms),CH1 Auto-Correlation
1.0,0.01715436577796936
2.0,0.014159309677779675
3.0,0.012113678269088268
4.0,0.010558386333286762
5.0,0.009468832053244114
6.0,0.008615306578576565
7.0,0.007897400297224522
8.0,0.007254088297486305
9.0,0.006560299079865217
10.0,0.006057848688215017
11.0,0.0057322243228554726
12.0,0.005421699956059456
13.0,0.005188142415136099
14.0,0.004902902524918318
15.0,0.004597738850861788
16.0,0.00442483788356185
18.0,0.003988823387771845
20.0,0.003649005200713873
22.0,0.0034565969835966825
24.0,0.0032898832578212023
26.0,0.003089986043050885
28.0,0.002732816617935896
30.0,0.0022873824927955866
32.0,0.002092958427965641
36.0,0.0018793119816109538
40.0,0.0019496383611112833
44.0,0.0018029167549684644
48.0,0.001563403056934476
52.0,0.0012528719380497932
56.0,0.0013182101538404822
60.0,0.0013479276094585657
64.0,0.0011238947045058012
72.0,0.001143921515904367
80.0,0.0009511247044429183
88.0,0.0008870534948073328
96.0,0.0007308826316148043
104.0,0.0006039157160557806
112.0,0.0008109219488687813
120.0,0.0007060218486003578
128.0,0.0005362067022360861
144.0,0.0003260816738475114
160.0,-8.584441820858046e-05
176.0,0.0005008825683034956
192.0,0.00034568531555123627
208.0,-9.745221177581698e-05
224.0,-0.0002061523700831458
240.0,-0.000443427445134148
256.0,-2.1412150090327486e-05
288.0,-0.00037424761103466153
320.0,-0.000731149164494127
352.0,-0.0007132794125936925
384.0,-0.000600972562097013
416.0,-0.00025400283630006015
448.0,-0.00040619855280965567
480.0,-0.0004129465378355235
512.0,-0.00014335659216158092
576.0,3.6956844269298017e-06
640.0,-0.0002491143241059035
704.0,0.0003928272635675967
768.0,0.00033586379140615463
832.0,0.0002707844541873783
896.0,-0.00027503620367497206
960.0,-3.578098039724864e-05
1024.0,-1.900757706607692e-05
1152.0,0.00029159599216654897
1280.0,0.00030116361449472606
1408.0,-0.00012725501437671483
1536.0,0.00014266330981627107
1664.0,0.0001381168549414724
1792.0,0.0004223860742058605
1920.0,-0.00023316481383517385
2048.0,0.00042497931281104684
2304.0,0.00022860245371703058
2560.0,-0.0001719966676319018
2816.0,-0.0002481421979609877
3072.0,-0.00010059017949970439
3328.0,0.00024117424618452787
3584.0,0.00041137158405035734
3840.0,-0.00020284147467464209
4096.0,-4.160359094385058e-05
4608.0,-6.0686885262839496e-05
5120.0,-0.0001213374052895233
5632.0,0.0003312125045340508
6144.0,-0.0005409048753790557
6656.0,0.00025761505821719766
7168.0,-0.00018624112999532372
7680.0,-0.00016602498362772167
8192.0,-0.0004369956732261926
9216.0,-0.00015937573334667832
10240.0,-0.0001451323478249833
11264.0,-0.00032871210714802146
12288.0,7.092294254107401e-05
13312.0,-4.5379725634120405e-05
14336.0,0.0003094096900895238
end
