version,3.0
numOfCh,1
type,point
parent_name,clean
ch_type,1_1
kcount,1
numberNandB,1
brightnessNandB,1
carpet pos,0
pc,0
Time (ms),CH1 Auto-Correlation
1.0,0.01596413180232048
2.0,0.013005953282117844
3.0,0.010926769115030766
4.0,0.009311492554843426
5.0,0.0079940315335989
6.0,0.0070908525958657265
7.0,0.006415354087948799
8.0,0.005777837708592415
9.0,0.005197926424443722
10.0,0.004751904867589474
11.0,0.004324113484472036
12.0,0.003969268407672644
13.0,0.003743889043107629
14.0,0.0035141382832080126
15.0,0.003367166267707944
16.0,0.003225957974791527
18.0,0.002884567715227604
20.0,0.0026579888071864843
22.0,0.0024943146854639053
24.0,0.0024087554775178432
26.0,0.002239038934931159
28.0,0.0019624517299234867
30.0,0.001951511250808835
32.0,0.0019472967833280563
36.0,0.0017891849856823683
40.0,0.0013760632136836648
44.0,0.001032477943226695
48.0,0.0008678563171997666
52.0,0.0006864543538540602
56.0,0.00043568178080022335
60.0,0.00046278644003905356
64.0,0.0004258021363057196
72.0,0.0006361030391417444
80.0,0.0006915187695994973
88.0,0.0005085316370241344
96.0,0.00033367061405442655
104.0,0.0006027180352248251
112.0,0.0005172493401914835
120.0,0.0006021121516823769
128.0,0.0006131435511633754
144.0,0.00045174057595431805
160.0,0.0005778245395049453
176.0,0.0004297391860745847
192.0,0.0002551857614889741
208.0,0.00021387239394243807
224.0,-0.00017818875494413078
240.0,0.00014123359869699925
256.0,0.0005187916685827076
288.0,0.00026841755607165396
320.0,0.00016238284297287464
352.0,0.0001277190021937713
384.0,-0.00014198015560396016
416.0,-6.509538070531562e-05
448.0,0.00022003456251695752
480.0,0.00020878300711046904
512.0,-0.0001622261479496956
576.0,0.00012698859791271389
640.0,-0.0001506501721451059
704.0,-0.0002363371168030426
768.0,-0.0001384283386869356
832.0,-0.0005824341787956655
896.0,-0.0004147965810261667
960.0,-0.0004093796596862376
1024.0,-0.0007644532597623765
1152.0,-0.00040340572013519704
1280.0,-0.0001933351595653221
1408.0,8.364686073036864e-05
1536.0,-5.0646242016227916e-05
1664.0,0.0003939630987588316
1792.0,0.0003225632826797664
1920.0,-0.00016111064178403467
2048.0,-0.00013056058378424495
2304.0,-9.631252760300413e-05
2560.0,-0.00037489793612621725
2816.0,-0.00029939188971184194
3072.0,0.00010943376400973648
3328.0,5.6546356063336134e-05
3584.0,0.0003669056168291718
3840.0,0.00026317124138586223
4096.0,8.157516276696697e-05
4608.0,-0.00027545413468033075
5120.0,-0.0002441163669573143
5632.0,0.0003917771973647177
6144.0,0.00013620636309497058
6656.0,-0.00034870911622419953
7168.0,9.747612057253718e-05
7680.0,8.688429807079956e-05
8192.0,-0.0003968772944062948
9216.0,8.867592259775847e-05
10240.0,-0.00014165640459395945
11264.0,-0.00019173753389623016
12288.0,-4.480644747673068e-06
13312.0,0.0001709240023046732
14336.0,0.00014083550195209682
end
