version,3.0
numOfCh,1
type,point
parent_name,clean
ch_type,1_1
kcount,1
numberNandB,1
brightnessNandB,1
carpet pos,0
pc,0
Time (ms),CH1 Auto-Correlation
1.0,0.026088623329997063
2.0,0.02117234840989113
3.0,0.017844857648015022
4.0,0.015234067104756832
5.0,0.013424254022538662
6.0,0.011939269490540028
7.0,0.010776204988360405
8.0,0.009776129387319088
9.0,0.008897069841623306
10.0,0.008185463026165962
11.0,0.00770740257576108
12.0,0.007375258486717939
13.0,0.0071799252182245255
14.0,0.006930702831596136
15.0,0.006479039788246155
16.0,0.006050084717571735
18.0,0.005299490410834551
20.0,0.0044648717157542706
22.0,0.0037807836197316647
24.0,0.003542207647114992
26.0,0.0033121490851044655
28.0,0.0032426316756755114
30.0,0.0033202695194631815
32.0,0.002982908161357045
36.0,0.0026078452356159687
40.0,0.002384583465754986
44.0,0.0022911359556019306
48.0,0.0019396962597966194
52.0,0.0016514150192961097
56.0,0.001186839770525694
60.0,0.0011646116618067026
64.0,0.0010401359759271145
72.0,0.0006486477795988321
80.0,0.0007869584951549768
88.0,0.0007695818203501403
96.0,0.0004259802808519453
104.0,0.0005795236793346703
112.0,0.0007117073400877416
120.0,0.0006206283578649163
128.0,0.0004634596698451787
144.0,-0.00033683888614177704
160.0,-0.0009141256450675428
176.0,-0.0010600041132420301
192.0,-0.0014442286919802427
208.0,-0.0013518467312678695
224.0,-0.0005122788134030998
240.0,1.4924303286534268e-06
256.0,0.00012037961278110743
288.0,0.0002086231397697702
320.0,0.0007404813077300787
352.0,0.0004962721723131835
384.0,0.00018952485697809607
416.0,0.0002740474883466959
448.0,-0.0005257122684270144
480.0,-0.0007270773057825863
512.0,-0.00030439882539212704
576.0,-0.00035283254692330956
640.0,-0.00012065087503287941
704.0,6.641167419729754e-05
768.0,-0.0003663647803477943
832.0,0.0003527853114064783
896.0,-0.0008069896721281111
960.0,-0.0002479188551660627
1024.0,8.962606079876423e-05
1152.0,-0.0001871524436865002
1280.0,-0.000454627355793491
1408.0,-0.0007401544135063887
1536.0,-0.00017171712534036487
1664.0,0.0001232153590535745
1792.0,-0.0004794014384970069
1920.0,5.475930083775893e-05
2048.0,-0.0006654256139881909
2304.0,-7.12987530278042e-05
2560.0,0.00019262568093836308
2816.0,0.0002272733545396477
3072.0,9.206498361891136e-05
3328.0,0.00017118889081757516
3584.0,-0.00021438665862660855
3840.0,0.00016668561147525907
4096.0,-0.00019882636843249202
4608.0,0.00014637073036283255
5120.0,-0.0002660025784280151
5632.0,-0.0001410782861057669
6144.0,5.546501051867381e-05
6656.0,8.194749534595758e-05
7168.0,0.000516593165230006
7680.0,-0.0002538177359383553
8192.0,-0.00010624436981743202
9216.0,0.0001761725579854101
10240.0,3.130144250462763e-05
11264.0,-0.0003101315815001726
12288.0,0.00027825270080938935
13312.0,-0.0001610823965165764
14336.0,0.00014800089411437511
end
