version,3.0
numOfCh,1
type,point
parent_name,clean
ch_type,1_1
kcount,1
numberNandB,1
brightnessNandB,1
carpet pos,0
pc,0
Time (ms),CH1 Auto-Correlation
1.0,0.016172299161553383
2.0,0.013372955843806267
3.0,0.011429752223193645
4.0,0.009909412823617458
5.0,0.00880676694214344
6.0,0.007906626909971237
7.0,0.0071968818083405495
8.0,0.00654972530901432
9.0,0.005933132488280535
10.0,0.005505472421646118
11.0,0.005191728472709656
12.0,0.004882856737822294
13.0,0.004678034223616123
14.0,0.004586487077176571
15.0,0.004501794930547476
16.0,0.004415611270815134
18.0,0.004084113985300064
20.0,0.0038308105431497097
22.0,0.003570553148165345
24.0,0.003413532394915819
26.0,0.003440997563302517
28.0,0.0033698827028274536
30.0,0.003251753281801939
32.0,0.0029642926529049873
36.0,0.002564950380474329
40.0,0.0023302393965423107
44.0,0.0017988351173698902
48.0,0.0014920028625056148
52.0,0.0016917485045269132
56.0,0.0015442576259374619
60.0,0.001317869289778173
64.0,0.0011824759421870112
72.0,0.001199473743326962
80.0,0.000984184443950653
88.0,0.0008842814131639898
96.0,0.0008800435462035239
104.0,0.0009743436821736395
112.0,0.0010079796193167567
120.0,0.0005026868893764913
128.0,0.00013960196520201862
144.0,-0.00021621007181238383
160.0,9.38545708777383e-05
176.0,-0.00016631482867524028
192.0,0.00020266248611733317
208.0,0.0004311409138608724
224.0,0.0009294467745348811
240.0,0.001033351756632328
256.0,0.0011189645156264305
288.0,0.0009328641463071108
320.0,0.0008607959607616067
352.0,0.0013280046405270696
384.0,0.0008968654437921941
416.0,0.0007075000903569162
448.0,0.0004718702402897179
480.0,0.0007106914999894798
512.0,0.0005690068355761468
576.0,0.00039808472502045333
640.0,-3.376518361619674e-05
704.0,0.00036548858042806387
768.0,0.0005377101479098201
832.0,0.0003471217059995979
896.0,0.0008341016946360469
960.0,0.000746668956708163
1024.0,0.0005582094308920205
1152.0,0.000284512439975515
1280.0,0.0005136565305292606
1408.0,0.00019251967023592442
1536.0,0.0004123673716094345
1664.0,0.00026106700534000993
1792.0,0.0002574388636276126
1920.0,-0.00018415357044432312
2048.0,0.00019498004985507578
2304.0,0.00016704478184692562
2560.0,0.0005663199117407203
2816.0,0.00022278721735347062
3072.0,6.84099504724145e-05
3328.0,0.00012059235450578853
3584.0,-0.00011872292816406116
3840.0,-0.00024024881713557988
4096.0,9.739939559949562e-05
4608.0,-0.00031467407825402915
5120.0,-0.0003196220495738089
5632.0,-0.00039214224671013653
6144.0,-0.0004450406413525343
6656.0,-0.00028100426425226033
7168.0,-0.00039056551759131253
7680.0,-0.0002359253412578255
8192.0,-8.976955723483115e-05
9216.0,-0.0003978496533818543
10240.0,-1.2676038750214502e-05
11264.0,-6.135831063147634e-05
12288.0,-0.0006194860325194895
13312.0,-0.00016720042913220823
14336.0,0.00015358650125563145
end
