version,3.0
numOfCh,1
type,point
parent_name,0cd20_0dot6-0dot1
ch_type,1_1
kcount,1
numberNandB,1
brightnessNandB,1
carpet pos,0
pc,0
Time (ms),CH1 Auto-Correlation
1.0,0.022732684388756752
2.0,0.021544164046645164
3.0,0.02049642615020275
4.0,0.019500620663166046
5.0,0.018621699884533882
6.0,0.01781061664223671
7.0,0.017062261700630188
8.0,0.01632465049624443
9.0,0.015645310282707214
10.0,0.015018275007605553
11.0,0.014426186680793762
12.0,0.013898862525820732
13.0,0.013391025364398956
14.0,0.012878493405878544
15.0,0.012447217479348183
16.0,0.01202476304024458
18.0,0.011302360333502293
20.0,0.010608198121190071
22.0,0.010021054185926914
24.0,0.00952510442584753
26.0,0.00902889296412468
28.0,0.008524193428456783
30.0,0.008066714741289616
32.0,0.007634702138602734
36.0,0.006922199856489897
40.0,0.0064239162020385265
44.0,0.006088617257773876
48.0,0.005947891157120466
52.0,0.005898527801036835
56.0,0.005814948584884405
60.0,0.005618356168270111
64.0,0.005309070460498333
72.0,0.004927438218146563
80.0,0.004327487666159868
88.0,0.0035709028597921133
96.0,0.0030112816020846367
104.0,0.002792093902826309
112.0,0.002276946324855089
120.0,0.0017320208717137575
128.0,0.00180393410846591
144.0,0.0011567374458536506
160.0,0.0009811209747567773
176.0,0.0009384388104081154
192.0,0.0004270489444024861
208.0,-0.0003389221674297005
224.0,-0.00026003201492130756
240.0,-7.117916538845748e-05
256.0,-2.3048454750096425e-05
288.0,-4.31662228947971e-05
320.0,-0.0005042594857513905
352.0,-3.316790025564842e-05
384.0,0.0003531597030814737
416.0,0.0006139891338534653
448.0,0.0011888506123796105
480.0,0.0012212063884362578
512.0,0.001574914320372045
576.0,0.0013514282181859016
640.0,-0.00014256735448725522
704.0,-0.0007997733191587031
768.0,0.00018922463641501963
832.0,3.0301656806841493e-05
896.0,0.000512925791554153
960.0,-0.00014403795648831874
1024.0,5.567573680309579e-05
1152.0,-0.0007907364633865654
1280.0,-0.00031848737853579223
1408.0,-0.0008253790438175201
1536.0,0.0009670957224443555
1664.0,-0.0003815486852545291
1792.0,0.0004003889043815434
1920.0,-0.00035517060314305127
2048.0,-0.0016755888937041163
2304.0,-0.0008171271183528006
2560.0,-0.0006774894427508116
2816.0,-0.0005708907847292721
3072.0,-0.0009923309553414583
3328.0,-0.0014220032608136535
3584.0,0.0003334433422423899
3840.0,-0.0003520551836118102
4096.0,-0.0006607678951695561
4608.0,3.0664752557640895e-05
5120.0,0.0004231230996083468
5632.0,-0.000518728164024651
6144.0,0.0011510930489748716
6656.0,0.00033318399800918996
7168.0,0.00017536667292006314
7680.0,0.00020829803543165326
8192.0,-0.0004346578207332641
end
