version,3.0
numOfCh,1
type,point
parent_name,0cd20_0dot6-0dot1
ch_type,1_1
kcount,1
numberNandB,1
brightnessNandB,1
carpet pos,0
pc,0
Time (ms),CH1 Auto-Correlation
1.0,0.022252213209867477
2.0,0.021090032532811165
3.0,0.020057477056980133
4.0,0.019092660397291183
5.0,0.01816973090171814
6.0,0.01732000894844532
7.0,0.01653001457452774
8.0,0.01579514890909195
9.0,0.015116826631128788
10.0,0.014495281502604485
11.0,0.013944023288786411
12.0,0.013407893478870392
13.0,0.012902787886559963
14.0,0.01245534885674715
15.0,0.012037461623549461
16.0,0.011667282320559025
18.0,0.010978443548083305
20.0,0.010327193886041641
22.0,0.009778778068721294
24.0,0.009306077845394611
26.0,0.008932621218264103
28.0,0.008553102612495422
30.0,0.008190938271582127
32.0,0.00792432576417923
36.0,0.0073969862423837185
40.0,0.0069092572666704655
44.0,0.006432658527046442
48.0,0.0061157685704529285
52.0,0.005730906967073679
56.0,0.0053002601489424706
60.0,0.004891952499747276
64.0,0.004616761580109596
72.0,0.0039903647266328335
80.0,0.0036446964368224144
88.0,0.003151098033413291
96.0,0.002660470549017191
104.0,0.002675215248018503
112.0,0.0026176823303103447
120.0,0.0025503085926175117
128.0,0.0020307183731347322
144.0,0.0015904890606179833
160.0,0.0010997196659445763
176.0,0.0007027946412563324
192.0,0.000699503521900624
208.0,0.00039734537131153047
224.0,0.0005236834986135364
240.0,0.0007186126313172281
256.0,0.0006278015207499266
288.0,2.6070310923387296e-05
320.0,0.0008352576405741274
352.0,0.0007197504164651036
384.0,0.0001539511576993391
416.0,-0.00015385537699330598
448.0,9.221084474120289e-05
480.0,0.00042924293666146696
512.0,-6.379138358170167e-05
576.0,-0.0001301365118706599
640.0,0.0003428763884585351
704.0,0.00045734056038782
768.0,0.0002674375136848539
832.0,6.296045467024669e-05
896.0,0.0008086678571999073
960.0,0.0002425869897706434
1024.0,0.00026896045892499387
1152.0,0.0013733846135437489
1280.0,0.001448830938898027
1408.0,0.0007779271109029651
1536.0,-0.0016239595133811235
1664.0,-0.0014886959688737988
1792.0,-0.0021950460504740477
1920.0,-0.0007795141427777708
2048.0,-0.0015283111715689301
2304.0,0.00024706285330466926
2560.0,0.0003579653857741505
2816.0,-0.0016285056481137872
3072.0,-0.0017372064758092165
3328.0,-0.0007670753402635455
3584.0,-0.00029725415515713394
3840.0,-0.0008337539038620889
4096.0,-0.000908918387722224
4608.0,0.00046429940266534686
5120.0,-0.00039553819806315005
5632.0,0.000434954185038805
6144.0,0.00034734694054350257
6656.0,0.0013939441414549947
7168.0,0.00022225812426768243
7680.0,-0.00023716458235867321
8192.0,0.00022555784380529076
end
