version,3.0
numOfCh,1
type,point
parent_name,0cd20_0dot6-0dot1
ch_type,1_1
kcount,1
numberNandB,1
brightnessNandB,1
carpet pos,0
pc,0
Time (ms),CH1 Auto-Correlation
1.0,0.019646698608994484
2.0,0.01842493750154972
3.0,0.017353449016809464
4.0,0.016412872821092606
5.0,0.015564300119876862
6.0,0.01478452980518341
7.0,0.014037428423762321
8.0,0.013347150757908821
9.0,0.012696942314505577
10.0,0.01209134142845869
11.0,0.011549769900739193
12.0,0.011036214418709278
13.0,0.010581685230135918
14.0,0.010151452384889126
15.0,0.009731735102832317
16.0,0.009345495142042637
18.0,0.008616158738732338
20.0,0.0079658767208457
22.0,0.007414314895868301
24.0,0.006907294038683176
26.0,0.006448124535381794
28.0,0.0060016680508852005
30.0,0.005624022334814072
32.0,0.005292227026075125
36.0,0.004629599396139383
40.0,0.003970821388065815
44.0,0.00337801082059741
48.0,0.002776679815724492
52.0,0.002399103483185172
56.0,0.0022386698983609676
60.0,0.002137185772880912
64.0,0.0020622028969228268
72.0,0.0016701164422556758
80.0,0.0015587371308356524
88.0,0.0012566118966788054
96.0,0.0006896686973050237
104.0,0.0003140668268315494
112.0,-9.842179861152545e-05
120.0,-6.981669997685458e-08
128.0,0.00025663935230113566
144.0,0.0002926379966083914
160.0,1.8620317860040814e-05
176.0,0.00031524046789854765
192.0,0.00042831359314732254
208.0,0.00022265130246523768
224.0,0.00019216947839595377
240.0,0.00010169172310270369
256.0,0.0004211842024233192
288.0,-8.217700815293938e-05
320.0,0.0001502817904110998
352.0,-0.00039792971801944077
384.0,-0.0007268805056810379
416.0,-0.000372042297385633
448.0,-0.0005002350080758333
480.0,-0.0002664530766196549
512.0,-0.00012850984057877213
576.0,0.0004505316901486367
640.0,-0.00019700927077792585
704.0,0.00012096136924810708
768.0,0.0011189113138243556
832.0,0.0006012592930346727
896.0,0.0008171796216629446
960.0,0.0006141724297776818
1024.0,0.0002867356815841049
1152.0,-0.00022124765382613987
1280.0,-0.00036767529672943056
1408.0,-0.0007844484644010663
1536.0,0.00021292085875757039
1664.0,-0.00017455793567933142
1792.0,-0.0011466273572295904
1920.0,-0.00015985200298018754
2048.0,-0.0002134385285899043
2304.0,-0.00019446549413260072
2560.0,-0.0011673117987811565
2816.0,-0.0004602273693308234
3072.0,1.0846678378584329e-05
3328.0,0.0005503935972228646
3584.0,-0.0002562088775448501
3840.0,0.0002707973471842706
4096.0,0.0007526476983912289
4608.0,-0.00018766132416203618
5120.0,-0.0005471785552799702
5632.0,-0.00030009093461558223
6144.0,-0.00010311503865523264
6656.0,0.00019650207832455635
7168.0,0.00010519337229197845
7680.0,0.001254089642316103
8192.0,2.0230496375006624e-05
end
