version,3.0
numOfCh,1
type,point
parent_name,0cd20_0dot6-0dot1
ch_type,1_1
kcount,1
numberNandB,1
brightnessNandB,1
carpet pos,0
pc,0
Time (ms),CH1 Auto-Correlation
1.0,0.023581702262163162
2.0,0.022377237677574158
3.0,0.021255791187286377
4.0,0.020224593579769135
5.0,0.01927662268280983
6.0,0.01837424747645855
7.0,0.017590509727597237
8.0,0.016876250505447388
9.0,0.01619233749806881
10.0,0.01558010745793581
11.0,0.014974520541727543
12.0,0.01442165207117796
13.0,0.013881624676287174
14.0,0.013371681794524193
15.0,0.012909878976643085
16.0,0.012445674277842045
18.0,0.011535958386957645
20.0,0.010735737159848213
22.0,0.010027925483882427
24.0,0.009408095851540565
26.0,0.008888276293873787
28.0,0.008387668989598751
30.0,0.008011424914002419
32.0,0.0077478354796767235
36.0,0.007400435861200094
40.0,0.007092274725437164
44.0,0.006913060788065195
48.0,0.006786467973142862
52.0,0.006623018998652697
56.0,0.006420306861400604
60.0,0.0062972065061330795
64.0,0.0061942958272993565
72.0,0.005843232851475477
80.0,0.005421175621449947
88.0,0.0049889772199094296
96.0,0.004788824822753668
104.0,0.004713295493274927
112.0,0.004395255818963051
120.0,0.004376475233584642
128.0,0.004177839495241642
144.0,0.0038048659916967154
160.0,0.0034276831429451704
176.0,0.002835609717294574
192.0,0.0023329954128712416
208.0,0.0029039201326668262
224.0,0.002661311300471425
240.0,0.0016596176428720355
256.0,0.001265864004381001
288.0,8.077608072198927e-05
320.0,-0.000514589308295399
352.0,-0.0007258376572281122
384.0,-0.0007855231524445117
416.0,-0.0008560542482882738
448.0,-0.001175674144178629
480.0,-0.0014843243407085538
512.0,-0.00198156526312232
576.0,-0.0015342608094215393
640.0,-0.0018169059185311198
704.0,-0.001898992690257728
768.0,-0.0016652171034365892
832.0,-0.00021583220222964883
896.0,-0.00039093702798709273
960.0,0.0008130648056976497
1024.0,0.0024370423052459955
1152.0,0.002814801875501871
1280.0,0.0017863123212009668
1408.0,0.001078220782801509
1536.0,-0.00011085103324148804
1664.0,-0.000692910747602582
1792.0,-0.002065381733700633
1920.0,-0.0004638924147002399
2048.0,0.0007915610331110656
2304.0,0.001279028714634478
2560.0,0.0007619247771799564
2816.0,-0.00024320578086189926
3072.0,-0.0008026740397326648
3328.0,0.00022055601584725082
3584.0,0.0009409539634361863
3840.0,0.00127040920779109
4096.0,0.0003131663834210485
4608.0,0.0004700529098045081
5120.0,0.0012767581501975656
5632.0,-0.001234445022419095
6144.0,0.0001085028488887474
6656.0,-0.0008783891098573804
7168.0,-0.000621446524746716
7680.0,0.00014007223944645375
8192.0,-0.0030728434212505817
end
