version,3.0
numOfCh,1
type,point
parent_name,0cd20_0dot6-0dot1
ch_type,1_1
kcount,1
numberNandB,1
brightnessNandB,1
carpet pos,0
pc,0
Time (ms),CH1 Auto-Correlation
1.0,0.024536678567528725
2.0,0.023404737934470177
3.0,0.022346606478095055
4.0,0.021381685510277748
5.0,0.020513352006673813
6.0,0.019759835675358772
7.0,0.01902712509036064
8.0,0.018317105248570442
9.0,0.017630498856306076
10.0,0.017025960609316826
11.0,0.016405928879976273
12.0,0.01584487408399582
13.0,0.015305574983358383
14.0,0.014776756055653095
15.0,0.014230609871447086
16.0,0.013702411204576492
18.0,0.01272699236869812
20.0,0.011895732022821903
22.0,0.011175856925547123
24.0,0.010534168221056461
26.0,0.009917771443724632
28.0,0.009404526092112064
30.0,0.008904156275093555
32.0,0.00846928358078003
36.0,0.007598322816193104
40.0,0.006938857026398182
44.0,0.006558018270879984
48.0,0.006217340473085642
52.0,0.0059275319799780846
56.0,0.005586958955973387
60.0,0.005312933586537838
64.0,0.005069022998213768
72.0,0.004417973570525646
80.0,0.004109802655875683
88.0,0.003810568479821086
96.0,0.0035913665778934956
104.0,0.0035004965029656887
112.0,0.003334056120365858
120.0,0.0032194219529628754
128.0,0.0032449301797896624
144.0,0.0029845063108950853
160.0,0.0022136252373456955
176.0,0.0014948416501283646
192.0,0.0008869650191627443
208.0,0.0007832070114091039
224.0,0.000824116577859968
240.0,0.0008859225199557841
256.0,0.000769986305385828
288.0,0.0012433031806722283
320.0,0.0009805167792364955
352.0,0.0013410281389951706
384.0,0.0025810005608946085
416.0,0.003231859067454934
448.0,0.003277217037975788
480.0,0.0027293108869343996
512.0,0.002837856998667121
576.0,0.001056490815244615
640.0,0.0007790701347403228
704.0,0.0011264727218076587
768.0,0.000312683085212484
832.0,0.0006553559796884656
896.0,-8.849917503539473e-05
960.0,-0.0005528299952857196
1024.0,-0.001819163211621344
1152.0,-0.0020164381712675095
1280.0,-0.0011320998892188072
1408.0,-0.0021358702797442675
1536.0,-0.0030864865984767675
1664.0,-0.0018223709193989635
1792.0,-0.0005454594502225518
1920.0,-0.0006109662936069071
2048.0,-0.0025180429220199585
2304.0,-0.00011653096589725465
2560.0,0.000987966195680201
2816.0,0.0016390469390898943
3072.0,0.0018057214329019189
3328.0,0.0010675207013264298
3584.0,0.00034842139575630426
3840.0,7.950683357194066e-05
4096.0,-0.0011051258770748973
4608.0,-0.0009916202398017049
5120.0,-4.877695391769521e-05
5632.0,0.00018968373478855938
6144.0,-0.00013651794870384037
6656.0,-0.0006569144898094237
7168.0,-3.863677920890041e-05
7680.0,0.0011880584061145782
8192.0,0.0009218720369972289
end
