version,3.0
numOfCh,1
type,point
parent_name,0cd20_0dot6-0dot1
ch_type,1_1
kcount,1
numberNandB,1
brightnessNandB,1
carpet pos,0
pc,0
Time (ms),CH1 Auto-Correlation
1.0,0.02523389644920826
2.0,0.024035489186644554
3.0,0.022963885217905045
4.0,0.021985365077853203
5.0,0.021061532199382782
6.0,0.020220091566443443
7.0,0.01946648210287094
8.0,0.018759286031126976
9.0,0.01809506304562092
10.0,0.01744818687438965
11.0,0.016814948990941048
12.0,0.016202399507164955
13.0,0.015633735805749893
14.0,0.015112491324543953
15.0,0.01467074267566204
16.0,0.014270774088799953
18.0,0.013408730737864971
20.0,0.0126066068187356
22.0,0.011960516683757305
24.0,0.011452446691691875
26.0,0.010902268812060356
28.0,0.01037576049566269
30.0,0.009920401498675346
32.0,0.009492297656834126
36.0,0.008775238879024982
40.0,0.008160581812262535
44.0,0.007584128528833389
48.0,0.007070987485349178
52.0,0.006696862634271383
56.0,0.006479415111243725
60.0,0.0061536687426269054
64.0,0.005790571682155132
72.0,0.00515684112906456
80.0,0.004696530755609274
88.0,0.004357931669801474
96.0,0.004205034580081701
104.0,0.0035570997279137373
112.0,0.002734223147854209
120.0,0.00244971364736557
128.0,0.002516393084079027
144.0,0.0023038475774228573
160.0,0.0018927507335320115
176.0,0.0014731514966115355
192.0,0.0018746930873021483
208.0,0.0019446869846433401
224.0,0.0016099705826491117
240.0,0.0009763522539287806
256.0,0.0004037079052068293
288.0,0.0006363729480654001
320.0,-0.0003412429941818118
352.0,0.00028113072039559484
384.0,0.0016362105961889029
416.0,0.0021876452956348658
448.0,0.003040400566533208
480.0,0.003185986541211605
512.0,0.0013397978618741035
576.0,0.0009225081303156912
640.0,-0.00015831262862775475
704.0,-8.903843990992755e-06
768.0,-6.588355608982965e-05
832.0,-0.00023952462652232498
896.0,0.0012959131272509694
960.0,0.00044256492401473224
1024.0,-0.0009782498236745596
1152.0,-0.002827964024618268
1280.0,-0.0019271881319582462
1408.0,-0.00013657030649483204
1536.0,-9.02210085769184e-05
1664.0,0.00010692869545891881
1792.0,0.00024285125255119056
1920.0,8.105403685476631e-05
2048.0,0.00025404366897419095
2304.0,0.0015048350905999541
2560.0,0.00022416532738134265
2816.0,-0.0005235057906247675
3072.0,0.0001550648594275117
3328.0,0.00017276527069043368
3584.0,-0.0007127138669602573
3840.0,0.00035512159229256213
4096.0,0.00046871823724359274
4608.0,0.00035667288466356695
5120.0,0.0003669079451356083
5632.0,-0.0006594464648514986
6144.0,-0.0015369283501058817
6656.0,-0.00029953973717056215
7168.0,0.0006231499137356877
7680.0,-0.0012725678971037269
8192.0,-0.001621760311536491
end
