version,3.0
numOfCh,1
type,point
parent_name,0cd20_0dot6-0dot1
ch_type,1_1
kcount,1
numberNandB,1
brightnessNandB,1
carpet pos,0
pc,0
Time (ms),CH1 Auto-Correlation
1.0,0.035532210022211075
2.0,0.034165509045124054
3.0,0.03295271471142769
4.0,0.031812988221645355
5.0,0.03073057532310486
6.0,0.02979801781475544
7.0,0.028883855789899826
8.0,0.028049755841493607
9.0,0.027265947312116623
10.0,0.026546701788902283
11.0,0.025858594104647636
12.0,0.02522793412208557
13.0,0.024578850716352463
14.0,0.023978613317012787
15.0,0.023351022973656654
16.0,0.022747138515114784
18.0,0.021579427644610405
20.0,0.020602146163582802
22.0,0.019718315452337265
24.0,0.018936676904559135
26.0,0.018159961327910423
28.0,0.0174675565212965
30.0,0.016836006194353104
32.0,0.016354888677597046
36.0,0.015469873324036598
40.0,0.014544579200446606
44.0,0.013756263069808483
48.0,0.013132688589394093
52.0,0.012438623234629631
56.0,0.011754176579415798
60.0,0.0108665581792593
64.0,0.010098791681230068
72.0,0.008973552845418453
80.0,0.008072061464190483
88.0,0.007459508720785379
96.0,0.007275797426700592
104.0,0.007377870846539736
112.0,0.007387143559753895
120.0,0.0072995261289179325
128.0,0.0070610130205750465
144.0,0.006240575574338436
160.0,0.006200775969773531
176.0,0.005419816356152296
192.0,0.0048467679880559444
208.0,0.005354469176381826
224.0,0.006180679425597191
240.0,0.0063101425766944885
256.0,0.004959250334650278
288.0,0.004032110795378685
320.0,0.0046307118609547615
352.0,0.006078979000449181
384.0,0.005799468141049147
416.0,0.006384322419762611
448.0,0.004912334959954023
480.0,0.003556103678420186
512.0,0.003941990435123444
576.0,0.003895858535543084
640.0,0.00216660532169044
704.0,0.002220215043053031
768.0,0.0034993616864085197
832.0,0.003200545674189925
896.0,-0.0006189471459947526
960.0,-5.15881874889601e-05
1024.0,-0.00036922821891494095
1152.0,-0.0006795742665417492
1280.0,-0.0012777831871062517
1408.0,-0.0026905646082013845
1536.0,-0.003129321616142988
1664.0,-0.003714777296409011
1792.0,-0.003438751446083188
1920.0,-0.0030294456519186497
2048.0,-0.0014255784917622805
2304.0,-0.000758461479563266
2560.0,-0.0009436599793843925
2816.0,0.0016548316925764084
3072.0,0.002721219090744853
3328.0,0.00024522520834580064
3584.0,-0.00016941872308962047
3840.0,-0.0007363753393292427
4096.0,-0.0029908374417573214
4608.0,-0.0001281908480450511
5120.0,0.00293800444342196
5632.0,0.003030547173693776
6144.0,0.0003463451866991818
6656.0,-0.0045001027174293995
7168.0,-0.004989629611372948
7680.0,-0.0024238498881459236
8192.0,0.0013999455841258168
end
