version,3.0
numOfCh,1
type,point
parent_name,0cd20_0dot6-0dot1
ch_type,1_1
kcount,1
numberNandB,1
brightnessNandB,1
carpet pos,0
pc,0
Time (ms),CH1 Auto-Correlation
1.0,0.026285013183951378
2.0,0.025053923949599266
3.0,0.023943280801177025
4.0,0.02291160821914673
5.0,0.021972322836518288
6.0,0.021136004477739334
7.0,0.02037380449473858
8.0,0.019660819321870804
9.0,0.018961498513817787
10.0,0.018297579139471054
11.0,0.017677851021289825
12.0,0.01705138385295868
13.0,0.01645977795124054
14.0,0.01591517962515354
15.0,0.015341132879257202
16.0,0.014831041917204857
18.0,0.013867441564798355
20.0,0.013018988072872162
22.0,0.01227609720081091
24.0,0.01160668209195137
26.0,0.011032672598958015
28.0,0.010507754981517792
30.0,0.010040808469057083
32.0,0.009612050838768482
36.0,0.00893767736852169
40.0,0.00830031931400299
44.0,0.007562354207038879
48.0,0.006971235387027264
52.0,0.006625966168940067
56.0,0.006205567624419928
60.0,0.005936320871114731
64.0,0.005730780307203531
72.0,0.0052268472500145435
80.0,0.004782152362167835
88.0,0.004185122903436422
96.0,0.003989588003605604
104.0,0.0038674266543239355
112.0,0.0036412652116268873
120.0,0.0037614840548485518
128.0,0.003779803868383169
144.0,0.003467639209702611
160.0,0.003134993137791753
176.0,0.0028896729927510023
192.0,0.0028222990222275257
208.0,0.002679072320461273
224.0,0.0023460800293833017
240.0,0.002292024437338114
256.0,0.003548793960362673
288.0,0.002894619246944785
320.0,0.0019139180658385158
352.0,0.00025147348060272634
384.0,-0.0006646354449912906
416.0,0.00025604740949347615
448.0,0.001311338972300291
480.0,0.0012680486543104053
512.0,0.0008048042072914541
576.0,0.0016264159930869937
640.0,0.0014484907733276486
704.0,0.0009328991873189807
768.0,0.0008959465776570141
832.0,-0.00047262845328077674
896.0,-0.0013869140530005097
960.0,-0.0020560736302286386
1024.0,-0.0014683279441669583
1152.0,-0.0013960088836029172
1280.0,-0.0007328513311222196
1408.0,-0.0008038367377594113
1536.0,-0.003039692062884569
1664.0,-0.0029854383319616318
1792.0,-0.0020938324742019176
1920.0,-0.0005135094979777932
2048.0,-0.0018575129797682166
2304.0,0.00046376377576962113
2560.0,0.0011933904606848955
2816.0,0.00019274262012913823
3072.0,-0.0011662044562399387
3328.0,-0.0018119319574907422
3584.0,-0.0019033203134313226
3840.0,-0.003907348029315472
4096.0,-0.0012206576066091657
4608.0,0.0010480760829523206
5120.0,0.002878021216019988
5632.0,0.0008823469397611916
6144.0,-1.612353116797749e-05
6656.0,-0.0007380162714980543
7168.0,-0.00019354623509570956
7680.0,0.00026559640537016094
8192.0,2.1805219148518518e-05
end
