version,3.0
numOfCh,1
type,point
parent_name,0cd20_0dot6-0dot1
ch_type,1_1
kcount,1
numberNandB,1
brightnessNandB,1
carpet pos,0
pc,0
Time (ms),CH1 Auto-Correlation
1.0,0.028306694701313972
2.0,0.026895126327872276
3.0,0.025622250512242317
4.0,0.024463126435875893
5.0,0.023391548544168472
6.0,0.022395888343453407
7.0,0.021515104919672012
8.0,0.020709427073597908
9.0,0.01997448317706585
10.0,0.019280346110463142
11.0,0.018677257001399994
12.0,0.018064849078655243
13.0,0.017490463331341743
14.0,0.016983769834041595
15.0,0.01649496890604496
16.0,0.016041554510593414
18.0,0.015242303721606731
20.0,0.014461448416113853
22.0,0.013776905834674835
24.0,0.01317374873906374
26.0,0.012635107152163982
28.0,0.012044601142406464
30.0,0.011621019802987576
32.0,0.011225266382098198
36.0,0.010350280441343784
40.0,0.00967488344758749
44.0,0.00911757256835699
48.0,0.008596627973020077
52.0,0.008415989577770233
56.0,0.00822555460035801
60.0,0.007854404859244823
64.0,0.007313132751733065
72.0,0.0066468785516917706
80.0,0.006050177849829197
88.0,0.005779916886240244
96.0,0.005151481367647648
104.0,0.004569558892399073
112.0,0.004348239861428738
120.0,0.004054640419781208
128.0,0.004144636914134026
144.0,0.004518636967986822
160.0,0.003674399107694626
176.0,0.0033011131454259157
192.0,0.002958264434710145
208.0,0.002553678350523114
224.0,0.0024194945581257343
240.0,0.002691928530111909
256.0,0.002173883141949773
288.0,0.0014643312897533178
320.0,0.001381004462018609
352.0,0.0006161947385407984
384.0,0.0009450272191315889
416.0,0.0007183509296737611
448.0,0.0015973380068317056
480.0,0.001011251355521381
512.0,0.000932530325371772
576.0,0.0007663916912861168
640.0,-0.00023737845185678452
704.0,-0.0020488437730818987
768.0,-0.0020119273103773594
832.0,-0.00226648454554379
896.0,-0.0011159568093717098
960.0,-0.00039345750701613724
1024.0,-0.00039932248182594776
1152.0,0.0006900058360770345
1280.0,-0.0005310941487550735
1408.0,0.0004485695972107351
1536.0,0.00041510252049192786
1664.0,-0.00012560380855575204
1792.0,6.124858191469684e-05
1920.0,-0.0007513185846619308
2048.0,-0.0003473747055977583
2304.0,-0.0019537738990038633
2560.0,-0.0011393064633011818
2816.0,-0.0008967339526861906
3072.0,-0.001023337710648775
3328.0,-0.0005686177173629403
3584.0,0.00017074962670449167
3840.0,0.0005825989064760506
4096.0,0.000824666116386652
4608.0,0.0002251072583021596
5120.0,0.0009933809051290154
5632.0,0.0003561581834219396
6144.0,-0.0011212286772206426
6656.0,0.001181184547021985
7168.0,0.002146166982129216
7680.0,-0.004452237859368324
8192.0,-0.001221917336806655
end
