version,3.0
numOfCh,1
type,point
parent_name,0cd20_0dot6-0dot1
ch_type,1_1
kcount,1
numberNandB,1
brightnessNandB,1
carpet pos,0
pc,0
Time (ms),CH1 Auto-Correlation
1.0,0.022121714428067207
2.0,0.020926717668771744
3.0,0.01982884854078293
4.0,0.018853824585676193
5.0,0.017993483692407608
6.0,0.017224987968802452
7.0,0.016519175842404366
8.0,0.015825768932700157
9.0,0.01516036968678236
10.0,0.014503568410873413
11.0,0.013904348015785217
12.0,0.013330898247659206
13.0,0.012763112783432007
14.0,0.012249625287950039
15.0,0.011816201731562614
16.0,0.011436334811151028
18.0,0.010762187652289867
20.0,0.010144195519387722
22.0,0.009604652412235737
24.0,0.009090953506529331
26.0,0.008669351227581501
28.0,0.00819031149148941
30.0,0.0077275377698242664
32.0,0.007372436113655567
36.0,0.006793302949517965
40.0,0.006289200391620398
44.0,0.005814391188323498
48.0,0.005531660281121731
52.0,0.00534511124715209
56.0,0.005241605918854475
60.0,0.004982281941920519
64.0,0.004759456031024456
72.0,0.0040767379105091095
80.0,0.0032273116521537304
88.0,0.0025139651261270046
96.0,0.001992969075217843
104.0,0.0016774971736595035
112.0,0.0014157789992168546
120.0,0.0013757040724158287
128.0,0.0017306162044405937
144.0,0.0018984940834343433
160.0,0.0016927100950852036
176.0,0.001632516272366047
192.0,0.0016261428827419877
208.0,0.001545144710689783
224.0,0.0017204831819981337
240.0,0.0019741463474929333
256.0,0.0015612572897225618
288.0,0.0010115808108821511
320.0,2.187439167755656e-05
352.0,-0.0005719203618355095
384.0,-0.000384005339583382
416.0,-0.0006570599507540464
448.0,0.0006488554645329714
480.0,0.00012493898975662887
512.0,6.757879873475758e-06
576.0,-0.00044199099647812545
640.0,-0.001279340242035687
704.0,-0.002204080345109105
768.0,-0.001338513451628387
832.0,-0.001456435420550406
896.0,-0.0013668244937434793
960.0,-0.0012450508074834943
1024.0,-0.0008214881527237594
1152.0,0.00024165186914615333
1280.0,-0.00028363658930175006
1408.0,-0.0011721167247742414
1536.0,-0.00112438783980906
1664.0,0.0004276086110621691
1792.0,0.00047764796181581914
1920.0,0.0003837975091300905
2048.0,0.0007964414544403553
2304.0,0.0013117387425154448
2560.0,-0.0009949124651029706
2816.0,-0.0015946251805871725
3072.0,-0.001172411721199751
3328.0,-0.00039023777935653925
3584.0,-0.0014691351680085063
3840.0,-0.00015906646149232984
4096.0,-5.1837425417033955e-05
4608.0,0.0006455531693063676
5120.0,-0.0006099128513596952
5632.0,0.0003033479442819953
6144.0,0.00012184467050246894
6656.0,0.0010052556172013283
7168.0,0.00059603521367535
7680.0,-0.0005222907639108598
8192.0,-0.000336858065566048
end
