version,3.0
numOfCh,1
type,point
parent_name,0cd20_0dot6-0dot1
ch_type,1_1
kcount,1
numberNandB,1
brightnessNandB,1
carpet pos,0
pc,0
Time (ms),CH1 Auto-Correlation
1.0,0.021534038707613945
2.0,0.02033134177327156
3.0,0.01917072758078575
4.0,0.018147151917219162
5.0,0.01724936068058014
6.0,0.016458405181765556
7.0,0.01573040522634983
8.0,0.015015842393040657
9.0,0.014366955496370792
10.0,0.013756328262388706
11.0,0.013193430379033089
12.0,0.012650307267904282
13.0,0.012109901756048203
14.0,0.011594515293836594
15.0,0.011119507253170013
16.0,0.01064242422580719
18.0,0.009729818440973759
20.0,0.008884506300091743
22.0,0.008216818794608116
24.0,0.007621722295880318
26.0,0.007124107796698809
28.0,0.0066284965723752975
30.0,0.006137888878583908
32.0,0.005696727894246578
36.0,0.005020482931286097
40.0,0.004325936548411846
44.0,0.0037864914629608393
48.0,0.003469930961728096
52.0,0.0033061043359339237
56.0,0.0030618642922490835
60.0,0.002776567591354251
64.0,0.002372175455093384
72.0,0.001900706090964377
80.0,0.0015645434614270926
88.0,0.0015537154395133257
96.0,0.001236739568412304
104.0,0.0009144004434347153
112.0,0.001001471420750022
120.0,0.0013663157587870955
128.0,0.001411988283507526
144.0,0.0015140812611207366
160.0,0.0014740756014361978
176.0,0.0017741817282512784
192.0,0.001585702528245747
208.0,0.0012050383957102895
224.0,0.0010917533654719591
240.0,0.00109264871571213
256.0,0.0012158629251644015
288.0,0.0013983806129544973
320.0,0.0013620147947221994
352.0,0.0013701795833185315
384.0,0.0010071059223264456
416.0,0.001814385293982923
448.0,0.0011150151258334517
480.0,0.0005627668579109013
512.0,0.0002980782592203468
576.0,0.00131976546254009
640.0,0.0012704506516456604
704.0,0.00033511046785861254
768.0,0.0007743123569525778
832.0,0.0003781216510105878
896.0,-0.000510554644279182
960.0,9.436564869247377e-05
1024.0,-9.828829934122041e-05
1152.0,-0.00021933332027401775
1280.0,-0.000654283445328474
1408.0,-0.0002944055595435202
1536.0,-0.0011152675142511725
1664.0,-0.0004931986331939697
1792.0,-0.0011973051587119699
1920.0,-0.0014825001126155257
2048.0,-0.0015968004008755088
2304.0,-0.0006016239058226347
2560.0,-0.0011479501845315099
2816.0,-0.0009450898505747318
3072.0,-0.000985136372037232
3328.0,-0.00025838270084932446
3584.0,0.00037491077091544867
3840.0,0.000989257008768618
4096.0,0.0006196264293976128
4608.0,0.0008211273816414177
5120.0,6.702428800053895e-05
5632.0,-0.00030536967096850276
6144.0,-0.0009714791085571051
6656.0,-0.0019334525568410754
7168.0,-0.001191193819977343
7680.0,0.0006034314283169806
8192.0,0.0018788755405694246
end
