version,3.0
numOfCh,1
type,point
parent_name,0cd20_0dot6-0dot1
ch_type,1_1
kcount,1
numberNandB,1
brightnessNandB,1
carpet pos,0
pc,0
Time (ms),CH1 Auto-Correlation
1.0,0.027395544573664665
2.0,0.026191052049398422
3.0,0.025099094957113266
4.0,0.024080786854028702
5.0,0.02314750663936138
6.0,0.022298874333500862
7.0,0.021527299657464027
8.0,0.020830335095524788
9.0,0.020165013149380684
10.0,0.01955343969166279
11.0,0.018941739574074745
12.0,0.018360711634159088
13.0,0.017822112888097763
14.0,0.017323868349194527
15.0,0.0168354082852602
16.0,0.01639147847890854
18.0,0.015510879456996918
20.0,0.014738144353032112
22.0,0.014097419567406178
24.0,0.013472449034452438
26.0,0.01290066260844469
28.0,0.012372072786092758
30.0,0.011894350871443748
32.0,0.01149094570428133
36.0,0.010729193687438965
40.0,0.009881206788122654
44.0,0.009349263273179531
48.0,0.009014046750962734
52.0,0.008805597200989723
56.0,0.008438585326075554
60.0,0.007974262349307537
64.0,0.007530578877776861
72.0,0.006871325895190239
80.0,0.006179051473736763
88.0,0.005857597105205059
96.0,0.005688200704753399
104.0,0.005865596700459719
112.0,0.006066355854272842
120.0,0.005992515943944454
128.0,0.005462479777634144
144.0,0.004761313553899527
160.0,0.004329401068389416
176.0,0.003678104607388377
192.0,0.002693034941330552
208.0,0.0016434842254966497
224.0,0.001775669283233583
240.0,0.0018401897978037596
256.0,0.0020545516163110733
288.0,0.0010617449879646301
320.0,-0.00033044489100575447
352.0,-0.0009336156654171646
384.0,-0.0008207443170249462
416.0,-0.0006200681091286242
448.0,-0.001220564590767026
480.0,-0.0005751536227762699
512.0,-0.0016460379119962454
576.0,-0.0021866855677217245
640.0,-0.0021069857757538557
704.0,-0.0013934688176959753
768.0,-0.0009704894036985934
832.0,-0.0004307321214582771
896.0,-0.001559356926009059
960.0,-0.00282764108851552
1024.0,-0.0025437851436436176
1152.0,-0.0005863646510988474
1280.0,0.0005508610047399998
1408.0,0.0028108444530516863
1536.0,0.003608795814216137
1664.0,0.0034232556354254484
1792.0,0.0010451747803017497
1920.0,-0.0010974938049912453
2048.0,-0.0018760993843898177
2304.0,-0.0027852621860802174
2560.0,0.0004351315728854388
2816.0,0.0014680781168863177
3072.0,0.0006655397592112422
3328.0,0.0001875025627668947
3584.0,-0.0009058506111614406
3840.0,-0.0005855693598277867
4096.0,0.0009690138977020979
4608.0,-0.0007166901486925781
5120.0,-0.0011311343405395746
5632.0,0.0003449134237598628
6144.0,-0.0005489838076755404
6656.0,-0.00020825202227570117
7168.0,0.0011079625692218542
7680.0,0.0011580443242564797
8192.0,-0.0003197541809640825
end
