version,3.0
numOfCh,1
type,point
parent_name,0cd20_0dot6-0dot1
ch_type,1_1
kcount,1
numberNandB,1
brightnessNandB,1
carpet pos,0
pc,0
Time (ms),CH1 Auto-Correlation
1.0,0.01957666128873825
2.0,0.018452048301696777
3.0,0.017455710098147392
4.0,0.01658734306693077
5.0,0.01581510342657566
6.0,0.015138509683310986
7.0,0.014499932527542114
8.0,0.01387752965092659
9.0,0.013291890732944012
10.0,0.012762527912855148
11.0,0.012261529453098774
12.0,0.011825296096503735
13.0,0.011429053731262684
14.0,0.011076430790126324
15.0,0.010717276483774185
16.0,0.01037489715963602
18.0,0.009783581830561161
20.0,0.009256438352167606
22.0,0.008776973001658916
24.0,0.008411310613155365
26.0,0.008114084601402283
28.0,0.007774830795824528
30.0,0.007456042803823948
32.0,0.007189638447016478
36.0,0.0064958930015563965
40.0,0.005697451997548342
44.0,0.005107229575514793
48.0,0.00470604095607996
52.0,0.004454296547919512
56.0,0.004181516356766224
60.0,0.003831887384876609
64.0,0.0035221169237047434
72.0,0.002735850401222706
80.0,0.0024084243923425674
88.0,0.00239410437643528
96.0,0.00201766868121922
104.0,0.0017893726471811533
112.0,0.001314688939601183
120.0,0.0010838264133781195
128.0,0.0008587270858697593
144.0,0.00034031469840556383
160.0,-9.894349204842001e-05
176.0,-7.534488395322114e-05
192.0,0.0005276351585052907
208.0,-7.852467388147488e-05
224.0,-0.0006280141533352435
240.0,-0.0007556111086159945
256.0,-0.0008601773879490793
288.0,-0.0011548420879989862
320.0,-0.0003720022505149245
352.0,0.0004697580880019814
384.0,0.0007205248111858964
416.0,-0.00014212323003448546
448.0,-0.0010179304517805576
480.0,-0.0013926790561527014
512.0,-0.0006474277470260859
576.0,0.00037500474718399346
640.0,-0.0004946287954226136
704.0,-0.0012655863538384438
768.0,-0.0007871233974583447
832.0,-0.0009912659879773855
896.0,-0.0007072733133099973
960.0,0.0002130723587470129
1024.0,0.0003562259953469038
1152.0,0.0012798217358067632
1280.0,1.0936148100881837e-05
1408.0,0.0008377762860618532
1536.0,0.0008365734829567373
1664.0,0.0006940073217265308
1792.0,0.0007180107058957219
1920.0,-6.0010501329088584e-05
2048.0,-0.0013111225562170148
2304.0,0.0001774356933310628
2560.0,0.0016537961782887578
2816.0,-0.00037643639370799065
3072.0,0.00033777530188672245
3328.0,-0.0018310709856450558
3584.0,0.0010301107540726662
3840.0,-0.0005030983011238277
4096.0,0.001022106735035777
4608.0,0.00013089258573018014
5120.0,-0.0004134498303756118
5632.0,-0.0006248438730835915
6144.0,0.00013694023073185235
6656.0,-0.0002695823204703629
7168.0,2.575250437075738e-05
7680.0,-0.00035528713488020003
8192.0,-0.000850538956001401
end
