version,3.0
numOfCh,1
type,point
parent_name,0cd20_0dot6-0dot1
ch_type,1_1
kcount,1
numberNandB,1
brightnessNandB,1
carpet pos,0
pc,0
Time (ms),CH1 Auto-Correlation
1.0,0.025132501497864723
2.0,0.023900914937257767
3.0,0.022782636806368828
4.0,0.021742472425103188
5.0,0.02081345207989216
6.0,0.02002287097275257
7.0,0.019265688955783844
8.0,0.018578197807073593
9.0,0.01794634386897087
10.0,0.017380883917212486
11.0,0.01685226708650589
12.0,0.016359681263566017
13.0,0.015902981162071228
14.0,0.015459041111171246
15.0,0.014989093877375126
16.0,0.01454429142177105
18.0,0.013729769736528397
20.0,0.013012289069592953
22.0,0.012355606071650982
24.0,0.01180904172360897
26.0,0.011284303851425648
28.0,0.010829185135662556
30.0,0.010351505130529404
32.0,0.00983449351042509
36.0,0.008735003881156445
40.0,0.007760389242321253
44.0,0.006926644593477249
48.0,0.006354630924761295
52.0,0.005821407772600651
56.0,0.005407651886343956
60.0,0.005061151459813118
64.0,0.004723650868982077
72.0,0.0041110157035291195
80.0,0.003392831888049841
88.0,0.002826486714184284
96.0,0.0026421588845551014
104.0,0.0025463891215622425
112.0,0.002341211074963212
120.0,0.002128533786162734
128.0,0.001421589870005846
144.0,0.0008951728814281523
160.0,0.0015667307889088988
176.0,0.0025188245344907045
192.0,0.002845992334187031
208.0,0.0030636845622211695
224.0,0.0029618381522595882
240.0,0.003232719609513879
256.0,0.003707532538101077
288.0,0.003789417678490281
320.0,0.0031231630127876997
352.0,0.0029149025212973356
384.0,0.002200328279286623
416.0,0.000946814485359937
448.0,-0.0002042403066297993
480.0,0.0004973220056854188
512.0,0.0006731815519742668
576.0,0.0015702331438660622
640.0,2.8025093342876062e-05
704.0,-0.00025677322992123663
768.0,-0.0017171063227578998
832.0,-0.0018842488061636686
896.0,-0.0008253977284766734
960.0,0.0009983860654756427
1024.0,8.598522981628776e-05
1152.0,0.0009863985469564795
1280.0,-0.0004581456305459142
1408.0,0.00041964478441514075
1536.0,0.0004675925592891872
1664.0,0.00036584498593583703
1792.0,0.00040473745320923626
1920.0,0.00019763341697398573
2048.0,-0.00044709997018799186
2304.0,0.000338031881256029
2560.0,0.00020907068392261863
2816.0,0.0010606433497741818
3072.0,0.0011826127301901579
3328.0,0.0006428270717151463
3584.0,0.000915174896363169
3840.0,-0.0013716319808736444
4096.0,-0.0015246111433953047
4608.0,-0.002427700674161315
5120.0,-0.0010314087849110365
5632.0,-0.0007735075778327882
6144.0,0.00026514159981161356
6656.0,-0.00047830253606662154
7168.0,-0.003035263391211629
7680.0,-0.0017558092949911952
8192.0,0.001095449784770608
end
