version,3.0
numOfCh,1
type,point
parent_name,0cd20_0dot6-0dot1
ch_type,1_1
kcount,1
numberNandB,1
brightnessNandB,1
carpet pos,0
pc,0
Time (ms),CH1 Auto-Correlation
1.0,0.022520534694194794
2.0,0.021349096670746803
3.0,0.02029276452958584
4.0,0.019379563629627228
5.0,0.018549596890807152
6.0,0.01778419315814972
7.0,0.01707601360976696
8.0,0.016457682475447655
9.0,0.01585698314011097
10.0,0.015284075401723385
11.0,0.014725512824952602
12.0,0.014224600978195667
13.0,0.013742845505475998
14.0,0.013313175179064274
15.0,0.012910724617540836
16.0,0.012538975104689598
18.0,0.011861607432365417
20.0,0.011233856901526451
22.0,0.010629591532051563
24.0,0.010080435313284397
26.0,0.009572110138833523
28.0,0.009108060970902443
30.0,0.008752872236073017
32.0,0.008444858714938164
36.0,0.007880759425461292
40.0,0.007400189992040396
44.0,0.006951926276087761
48.0,0.006477458868175745
52.0,0.006061561871320009
56.0,0.00564979575574398
60.0,0.005088783800601959
64.0,0.004668653942644596
72.0,0.003911901265382767
80.0,0.0032375631853938103
88.0,0.003108172444626689
96.0,0.003145200200378895
104.0,0.0029868355486541986
112.0,0.0029828057158738375
120.0,0.0028456528671085835
128.0,0.0025880082976073027
144.0,0.0021089555229991674
160.0,0.0014013367472216487
176.0,0.0011192054953426123
192.0,0.0008700035396032035
208.0,0.00047659038682468235
224.0,0.00017857066995929927
240.0,-0.00019324378808960319
256.0,-0.0010740774450823665
288.0,-0.0021671431604772806
320.0,-0.001595851150341332
352.0,-0.0006378050893545151
384.0,-0.0008335523307323456
416.0,-0.0011313424911350012
448.0,-0.00107436568941921
480.0,-0.0003853722591884434
512.0,-0.0004586268332786858
576.0,0.00010428923997096717
640.0,-0.00022757421538699418
704.0,-0.00011637052375590429
768.0,0.0008417885983362794
832.0,0.0004056375764776021
896.0,5.284871349431342e-07
960.0,0.0004093720344826579
1024.0,0.0007647119928151369
1152.0,4.963951596437255e-06
1280.0,-0.0013124478282406926
1408.0,-0.0028182610403746367
1536.0,-0.0007361310999840498
1664.0,0.0012829299084842205
1792.0,0.00014100331463851035
1920.0,-0.002242844086140394
2048.0,-0.0014063308481127024
2304.0,-0.00034566238173283637
2560.0,0.000730194034986198
2816.0,0.0006322087720036507
3072.0,-0.001426350325345993
3328.0,-9.536976722301915e-05
3584.0,8.352004078915343e-05
3840.0,0.0001261645375052467
4096.0,-4.675471791415475e-05
4608.0,3.622494841692969e-05
5120.0,-0.0008778030169196427
5632.0,-0.00032315123826265335
6144.0,-4.9590209528105333e-05
6656.0,0.0014862349489703774
7168.0,-1.634413274587132e-05
7680.0,0.00030930055072531104
8192.0,0.000680917059071362
end
