version,3.0
numOfCh,1
type,point
parent_name,0cd20_0dot6-0dot1
ch_type,1_1
kcount,1
numberNandB,1
brightnessNandB,1
carpet pos,0
pc,0
Time (ms),CH1 Auto-Correlation
1.0,0.023164505138993263
2.0,0.02201397903263569
3.0,0.020942101255059242
4.0,0.019973767921328545
5.0,0.019057247787714005
6.0,0.018221789970993996
7.0,0.01743367873132229
8.0,0.016717828810214996
9.0,0.01604289747774601
10.0,0.01544187031686306
11.0,0.014851235784590244
12.0,0.014285923913121223
13.0,0.013774939812719822
14.0,0.013305207714438438
15.0,0.012903062626719475
16.0,0.0125145073980093
18.0,0.011905267834663391
20.0,0.011372623033821583
22.0,0.010813374072313309
24.0,0.010229982435703278
26.0,0.009659480303525925
28.0,0.009144618175923824
30.0,0.008672825992107391
32.0,0.008242457173764706
36.0,0.0076077766716480255
40.0,0.007131075020879507
44.0,0.00662642577663064
48.0,0.006144683342427015
52.0,0.005632675718516111
56.0,0.005047788377851248
60.0,0.004481895826756954
64.0,0.003986393101513386
72.0,0.0033184278290718794
80.0,0.0028854270931333303
88.0,0.002515563741326332
96.0,0.0019340859726071358
104.0,0.0017724753124639392
112.0,0.0015517519786953926
120.0,0.0011624314356595278
128.0,0.0010851779952645302
144.0,0.001014616573229432
160.0,0.0010035227751359344
176.0,0.0008760478813201189
192.0,0.00111869175452739
208.0,0.001300780102610588
224.0,0.0014774245209991932
240.0,0.0014980430714786053
256.0,0.0014161302242428064
288.0,0.0019034427823498845
320.0,0.0018049826612696052
352.0,0.0017397738993167877
384.0,0.0008544203592464328
416.0,0.0007133944309316576
448.0,0.00024347828002646565
480.0,0.0005309912376105785
512.0,0.0003135696751996875
576.0,0.00012049277574988082
640.0,-0.00043710629688575864
704.0,-0.0004747716011479497
768.0,-0.00049551110714674
832.0,-6.699880759697407e-05
896.0,0.0004478323389776051
960.0,0.00045613443944603205
1024.0,0.0004107709100935608
1152.0,-0.0009435555548407137
1280.0,0.00010403578926343471
1408.0,-0.00028378405841067433
1536.0,-0.0012112242402508855
1664.0,-0.001516076736152172
1792.0,-0.00039488563197664917
1920.0,-0.0002713401918299496
2048.0,-0.0004425104125402868
2304.0,0.00014241988537833095
2560.0,0.0002943819563370198
2816.0,-0.0002920079859904945
3072.0,-0.0005661682807840407
3328.0,-0.0014185402542352676
3584.0,9.179312655760441e-06
3840.0,-0.0012575604487210512
4096.0,0.000870906631462276
4608.0,0.0002952516661025584
5120.0,-0.00010611996549414471
5632.0,-0.0006120858597569168
6144.0,0.0011367213446646929
6656.0,0.0008454555063508451
7168.0,0.002032766118645668
7680.0,-0.0020672273822128773
8192.0,-0.0004030108393635601
end
