version,3.0
numOfCh,1
type,point
parent_name,0cd20_0dot6-0dot1
ch_type,1_1
kcount,1
numberNandB,1
brightnessNandB,1
carpet pos,0
pc,0
Time (ms),CH1 Auto-Correlation
1.0,0.023054514080286026
2.0,0.021883776411414146
3.0,0.020800717175006866
4.0,0.01977115124464035
5.0,0.01884886808693409
6.0,0.01800936460494995
7.0,0.017251504585146904
8.0,0.01650707982480526
9.0,0.01583145000040531
10.0,0.015158029273152351
11.0,0.01454317755997181
12.0,0.013944328762590885
13.0,0.013406774029135704
14.0,0.012895859777927399
15.0,0.012358441948890686
16.0,0.011865010485053062
18.0,0.011030178517103195
20.0,0.010329660959541798
22.0,0.009699590504169464
24.0,0.009177553467452526
26.0,0.008722865954041481
28.0,0.008273834362626076
30.0,0.00792247336357832
32.0,0.007563946768641472
36.0,0.0069842878729105
40.0,0.006524384021759033
44.0,0.0060908435843884945
48.0,0.005429843906313181
52.0,0.004857185762375593
56.0,0.004360121209174395
60.0,0.0038513734471052885
64.0,0.0033755949698388577
72.0,0.002809125231578946
80.0,0.0026487011928111315
88.0,0.002670816145837307
96.0,0.002328737871721387
104.0,0.002170298248529434
112.0,0.002393245231360197
120.0,0.0025754112284630537
128.0,0.0025112091097980738
144.0,0.001476526027545333
160.0,0.00107356789521873
176.0,0.000980657059699297
192.0,0.0005991531070321798
208.0,0.00045028337626717985
224.0,0.00046441308222711086
240.0,0.0007640309049747884
256.0,0.0007642433047294617
288.0,0.0011027520522475243
320.0,0.0006318783271126449
352.0,-0.0002627503126859665
384.0,0.0004928830312564969
416.0,0.0015156499575823545
448.0,0.0020039852242916822
480.0,0.0010909533593803644
512.0,-0.00011750920384656638
576.0,-0.0005211014649830759
640.0,0.0001683221635175869
704.0,-0.0007299727876670659
768.0,-0.000660465972032398
832.0,0.0002997877018060535
896.0,-0.00039461167762055993
960.0,-0.001055046683177352
1024.0,-7.38690941943787e-05
1152.0,0.00023366769892163575
1280.0,3.420386201469228e-05
1408.0,-0.0014470710884779692
1536.0,-0.0002464131684973836
1664.0,5.5522017646580935e-05
1792.0,-0.0009443729650229216
1920.0,-0.0002145734179066494
2048.0,0.000665926025249064
2304.0,0.0005373962922021747
2560.0,-0.0005564353778026998
2816.0,-0.0008734400616958737
3072.0,-0.0006175536545924842
3328.0,-0.0002882963162846863
3584.0,-0.00014791302965022624
3840.0,0.0007406981894746423
4096.0,0.0007432737620547414
4608.0,-0.00022543309023603797
5120.0,0.0007368477527052164
5632.0,1.8106538846041076e-05
6144.0,0.00017587367619853467
6656.0,-0.0008459102245979011
7168.0,-0.0005631956155411899
7680.0,-0.0011370413703843951
8192.0,0.0001904146483866498
end
