version,3.0
numOfCh,1
type,point
parent_name,0cd20_0dot6-0dot1
ch_type,1_1
kcount,1
numberNandB,1
brightnessNandB,1
carpet pos,0
pc,0
Time (ms),CH1 Auto-Correlation
1.0,0.028249463066458702
2.0,0.026917312294244766
3.0,0.025739865377545357
4.0,0.024689918383955956
5.0,0.023728422820568085
6.0,0.02283409610390663
7.0,0.022050216794013977
8.0,0.021335311233997345
9.0,0.020662913098931313
10.0,0.02004241943359375
11.0,0.019443294033408165
12.0,0.01888793148100376
13.0,0.018371909856796265
14.0,0.01782047562301159
15.0,0.01726861670613289
16.0,0.01672692783176899
18.0,0.015796061605215073
20.0,0.014872799627482891
22.0,0.014043915085494518
24.0,0.013283920474350452
26.0,0.012578914873301983
28.0,0.011987351812422276
30.0,0.011411162093281746
32.0,0.010840569622814655
36.0,0.009388419799506664
40.0,0.008289218880236149
44.0,0.007422363385558128
48.0,0.006801902782171965
52.0,0.0062685757875442505
56.0,0.005668328143656254
60.0,0.005230322480201721
64.0,0.004872857592999935
72.0,0.004081067629158497
80.0,0.0037000474985688925
88.0,0.0036086784675717354
96.0,0.003404915565624833
104.0,0.0030387118458747864
112.0,0.002821539528667927
120.0,0.003026536898687482
128.0,0.003401623573154211
144.0,0.003238466801121831
160.0,0.0027964545879513025
176.0,0.0014368717093020678
192.0,0.00013802203466184437
208.0,-0.0003069165104534477
224.0,0.0002500814734958112
240.0,0.000961114012170583
256.0,0.0004990504239685833
288.0,0.00046332337660714984
320.0,0.0013181337853893638
352.0,0.0022674063220620155
384.0,0.0027429230976849794
416.0,0.0008428199798800051
448.0,-0.0009305386338382959
480.0,-0.0015887775225564837
512.0,-0.002136062365025282
576.0,-0.0005185314803384244
640.0,0.00035085086710751057
704.0,0.0010675472440198064
768.0,-9.526844223728403e-05
832.0,-0.0014400281943380833
896.0,-0.0025362486485391855
960.0,-0.0016494219889864326
1024.0,-0.0024091394152492285
1152.0,-0.0015973758418112993
1280.0,-0.0006023164023645222
1408.0,6.982144259382039e-05
1536.0,-6.414415111066774e-05
1664.0,-0.0009619515622034669
1792.0,-0.0005899234674870968
1920.0,-0.0008514434448443353
2048.0,-0.0011159363202750683
2304.0,-0.0008173531387001276
2560.0,7.839129102649167e-05
2816.0,-0.0002993273956235498
3072.0,0.0011277464218437672
3328.0,-0.00026177760446444154
3584.0,-0.0011162024457007647
3840.0,0.00028137912158854306
4096.0,-0.0010574816260486841
4608.0,0.002090509980916977
5120.0,0.00030711948056705296
5632.0,-8.96858618943952e-05
6144.0,-0.0013549141585826874
6656.0,-0.002239851513877511
7168.0,-0.0007550825830549002
7680.0,0.0028799851424992085
8192.0,1.5715746485511772e-05
end
