version,3.0
numOfCh,1
type,point
parent_name,0cd20_0dot6-0dot1
ch_type,1_1
kcount,1
numberNandB,1
brightnessNandB,1
carpet pos,0
pc,0
Time (ms),CH1 Auto-Correlation
1.0,0.022766100242733955
2.0,0.021555528044700623
3.0,0.020444730296730995
4.0,0.019428815692663193
5.0,0.01848655752837658
6.0,0.01766819879412651
7.0,0.01693102903664112
8.0,0.01625244878232479
9.0,0.015603799372911453
10.0,0.014992767944931984
11.0,0.014407596550881863
12.0,0.013848213478922844
13.0,0.013302989304065704
14.0,0.012808828614652157
15.0,0.012391922995448112
16.0,0.012017227709293365
18.0,0.011347940191626549
20.0,0.010813837870955467
22.0,0.010346629656851292
24.0,0.009900699369609356
26.0,0.009455470368266106
28.0,0.00899937842041254
30.0,0.008668520487844944
32.0,0.008378205820918083
36.0,0.007883545011281967
40.0,0.007454919628798962
44.0,0.007139009423553944
48.0,0.006818917579948902
52.0,0.00641586072742939
56.0,0.005869458895176649
60.0,0.0052679781801998615
64.0,0.004865752998739481
72.0,0.004506348166614771
80.0,0.004373852163553238
88.0,0.00404741195961833
96.0,0.003913950175046921
104.0,0.004017207305878401
112.0,0.00391869293525815
120.0,0.003556421957910061
128.0,0.0029464734252542257
144.0,0.002600769978016615
160.0,0.0025055105797946453
176.0,0.002599455649033189
192.0,0.002679046941921115
208.0,0.002420312026515603
224.0,0.002453009132295847
240.0,0.0016565951518714428
256.0,0.0011673240223899484
288.0,0.0007965131662786007
320.0,0.000441841286374256
352.0,-0.0007762311724945903
384.0,-0.0007959627546370029
416.0,-0.0005743594956584275
448.0,-0.0013761944137513638
480.0,-0.000941717007663101
512.0,-0.0009902975289151073
576.0,0.00043119644396938384
640.0,0.00023720783065073192
704.0,0.00020966370357200503
768.0,0.0008639160078018904
832.0,6.91268578520976e-05
896.0,-0.0003196686157025397
960.0,-0.00014800704957451671
1024.0,-0.0006103171617724001
1152.0,-0.0011211942182853818
1280.0,-0.0007636972586624324
1408.0,-0.0007657884852960706
1536.0,-1.3363099242269527e-05
1664.0,0.0015070172958076
1792.0,0.0017023426480591297
1920.0,0.002023671055212617
2048.0,0.00016508065164089203
2304.0,-0.00036115507828071713
2560.0,0.00033557723509147763
2816.0,-0.0014737278688699007
3072.0,-0.0016505569219589233
3328.0,-0.0007345270132645965
3584.0,-0.0006366411689668894
3840.0,0.0006200584466569126
4096.0,-0.00025403228937648237
4608.0,4.452027496881783e-05
5120.0,0.000665912579279393
5632.0,-0.0002849748416338116
6144.0,-0.0004925061366520822
6656.0,0.0019795026164501905
7168.0,-0.001554489484988153
7680.0,-0.0015391818014904857
8192.0,0.0007190544856712222
end
