version,3.0
numOfCh,1
type,point
parent_name,0cd20_0dot6-0dot1
ch_type,1_1
kcount,1
numberNandB,1
brightnessNandB,1
carpet pos,0
pc,0
Time (ms),CH1 Auto-Correlation
1.0,0.02457098662853241
2.0,0.023389961570501328
3.0,0.02231217548251152
4.0,0.021316396072506905
5.0,0.020368779078125954
6.0,0.019508441910147667
7.0,0.018711768090724945
8.0,0.017987357452511787
9.0,0.017327329143881798
10.0,0.016739189624786377
11.0,0.016239240765571594
12.0,0.01578434742987156
13.0,0.015349897556006908
14.0,0.014914152212440968
15.0,0.014496046118438244
16.0,0.01411818340420723
18.0,0.013429985381662846
20.0,0.012724428437650204
22.0,0.012040117755532265
24.0,0.011474061757326126
26.0,0.010936001315712929
28.0,0.010492034256458282
30.0,0.010133005678653717
32.0,0.009804192930459976
36.0,0.009089266881346703
40.0,0.008381378836929798
44.0,0.007764836307615042
48.0,0.0072156754322350025
52.0,0.00672125956043601
56.0,0.006383234169334173
60.0,0.006026268936693668
64.0,0.0056132301688194275
72.0,0.004944159649312496
80.0,0.004391114227473736
88.0,0.0034437288995832205
96.0,0.00266743591055274
104.0,0.0014538272516801953
112.0,0.0007225912413559854
120.0,0.00023911235621199012
128.0,-5.622387834591791e-05
144.0,-0.0005695326253771782
160.0,-0.0005284794606268406
176.0,-0.0007786319474689662
192.0,-0.000881489017046988
208.0,-0.0007639021496288478
224.0,-0.0008833461324684322
240.0,-0.0008826396660879254
256.0,-0.0010216268710792065
288.0,-0.0007901324424892664
320.0,-0.0007447418756783009
352.0,-0.0009394007502123713
384.0,-0.001359154935926199
416.0,-0.0016223128186538815
448.0,-0.0025255908258259296
480.0,-0.0016606001881882548
512.0,-0.00027039635460823774
576.0,0.0007112876628525555
640.0,0.0014947400195524096
704.0,0.0021149737294763327
768.0,0.0010230138432234526
832.0,0.0006499388837255538
896.0,0.0010142623214051127
960.0,0.001198383281007409
1024.0,0.0001231481583090499
1152.0,-0.0008236236753873527
1280.0,-0.0019217816879972816
1408.0,-0.0013408446684479713
1536.0,0.00015698905917815864
1664.0,0.0003296214563306421
1792.0,-0.0009341960540041327
1920.0,-0.0018735476769506931
2048.0,-0.0006823221920058131
2304.0,-0.0015407446771860123
2560.0,-3.613252556533553e-05
2816.0,0.0004570024320855737
3072.0,-0.0008988119079731405
3328.0,-0.0008950491319410503
3584.0,0.0015088741201907396
3840.0,-0.0007382289040833712
4096.0,0.00036201105103828013
4608.0,0.0008429906447418034
5120.0,7.362011820077896e-05
5632.0,7.355470734182745e-05
6144.0,-0.0012037166161462665
6656.0,-0.000897021556738764
7168.0,-0.0003559344040695578
7680.0,0.0006018790300004184
8192.0,0.0005404562689363956
end
