version,3.0
numOfCh,1
type,point
parent_name,0cd20_0dot6-0dot1
ch_type,1_1
kcount,1
numberNandB,1
brightnessNandB,1
carpet pos,0
pc,0
Time (ms),CH1 Auto-Correlation
1.0,0.021611163392663002
2.0,0.020433742552995682
3.0,0.019380658864974976
4.0,0.018457802012562752
5.0,0.01760466955602169
6.0,0.01681244745850563
7.0,0.016103269532322884
8.0,0.015426005236804485
9.0,0.014847487211227417
10.0,0.01434266660362482
11.0,0.013891078531742096
12.0,0.013456620275974274
13.0,0.013043924234807491
14.0,0.012633590027689934
15.0,0.012252602726221085
16.0,0.011938268318772316
18.0,0.011318880133330822
20.0,0.010734559036791325
22.0,0.010178536176681519
24.0,0.009677879512310028
26.0,0.009167877957224846
28.0,0.008749646134674549
30.0,0.008363710716366768
32.0,0.007963884621858597
36.0,0.0072562433779239655
40.0,0.006676401011645794
44.0,0.006271121092140675
48.0,0.005847951862961054
52.0,0.005619082134217024
56.0,0.005467335693538189
60.0,0.005343667697161436
64.0,0.005142528098076582
72.0,0.004882017150521278
80.0,0.004380380269140005
88.0,0.0036519719287753105
96.0,0.0033738124184310436
104.0,0.0031610503792762756
112.0,0.0032241891603916883
120.0,0.0032961603719741106
128.0,0.0030833270866423845
144.0,0.002861123299226165
160.0,0.0026824362576007843
176.0,0.0027773361653089523
192.0,0.003336868481710553
208.0,0.0034166094847023487
224.0,0.0033647639211267233
240.0,0.00271425349637866
256.0,0.0019500467460602522
288.0,0.0010415278375148773
320.0,0.0008704429492354393
352.0,0.001117331674322486
384.0,0.000884410401340574
416.0,0.0008335759630426764
448.0,0.0013541815569624305
480.0,0.0011239589657634497
512.0,0.00147088966332376
576.0,0.0006594216101802886
640.0,-0.00017594601376913488
704.0,0.0002905319270212203
768.0,-0.00016456627054139972
832.0,-0.0015042474260553718
896.0,-0.0006161986384540796
960.0,-0.00010491118155186996
1024.0,-0.0014051254838705063
1152.0,-0.0013377057621255517
1280.0,-0.0008830336155369878
1408.0,5.580397555604577e-05
1536.0,-0.0001050627397489734
1664.0,-0.0011225496418774128
1792.0,-0.0017582771833986044
1920.0,0.0002647913643158972
2048.0,0.0005207622307352722
2304.0,0.001397795625962317
2560.0,0.0008460183162242174
2816.0,0.0004923039814457297
3072.0,-0.0007110298611223698
3328.0,0.0005035150097683072
3584.0,0.00034223252441734076
3840.0,0.000354169198544696
4096.0,0.00024442767607979476
4608.0,0.0005325940437614918
5120.0,-0.0021686856634914875
5632.0,-0.001467545866034925
6144.0,0.001160557963885367
6656.0,0.002479834482073784
7168.0,0.0003127100644633174
7680.0,-0.0017463448457419872
8192.0,-0.002060225000604987
end
