version,3.0
numOfCh,1
type,point
parent_name,0cd20_0dot6-0dot1
ch_type,1_1
kcount,1
numberNandB,1
brightnessNandB,1
carpet pos,0
pc,0
Time (ms),CH1 Auto-Correlation
1.0,0.023158162832260132
2.0,0.021923545747995377
3.0,0.020883169025182724
4.0,0.0199285801500082
5.0,0.01904800906777382
6.0,0.0182311050593853
7.0,0.017510678619146347
8.0,0.016827227547764778
9.0,0.016206439584493637
10.0,0.015600292012095451
11.0,0.015038925223052502
12.0,0.014516765251755714
13.0,0.01400676742196083
14.0,0.013523471541702747
15.0,0.013093567453324795
16.0,0.01268535852432251
18.0,0.011903880164027214
20.0,0.011227796785533428
22.0,0.010598010383546352
24.0,0.010003878735005856
26.0,0.009437749162316322
28.0,0.008930462412536144
30.0,0.008549870923161507
32.0,0.008244206197559834
36.0,0.007570332381874323
40.0,0.006933597382158041
44.0,0.006289829965680838
48.0,0.005800803657621145
52.0,0.0054687876254320145
56.0,0.00521025899797678
60.0,0.004993137437850237
64.0,0.004763652570545673
72.0,0.00459437258541584
80.0,0.00453915586695075
88.0,0.004443454090505838
96.0,0.00403267377987504
104.0,0.003986055497080088
112.0,0.0038288396317511797
120.0,0.0033727625850588083
128.0,0.0027979661244899035
144.0,0.002003468107432127
160.0,0.001637794659473002
176.0,0.001285493839532137
192.0,0.000611082068644464
208.0,0.0006549740210175514
224.0,0.00025570872821845114
240.0,-0.0003617152979131788
256.0,-0.0008896305807866156
288.0,-0.0012766736326739192
320.0,-0.001093103550374508
352.0,-0.0005874747294001281
384.0,-0.00045380168012343347
416.0,-0.0007397638401016593
448.0,-0.00017465568089392036
480.0,-0.0006641139043495059
512.0,-0.0010455900337547064
576.0,-0.0004332485841587186
640.0,-0.0003687651769723743
704.0,0.0004997258656658232
768.0,0.0012199925258755684
832.0,2.8716558517771773e-05
896.0,-0.0012680094223469496
960.0,-0.0013861139304935932
1024.0,-0.0015285831177607179
1152.0,0.0006532352417707443
1280.0,-0.00020454351033549756
1408.0,-0.001138742663897574
1536.0,0.0007125160191208124
1664.0,-9.356186637887731e-05
1792.0,-0.0006754022906534374
1920.0,0.0009553022100590169
2048.0,0.00030744430841878057
2304.0,-0.000599658174905926
2560.0,0.0005521004786714911
2816.0,-0.0014605334727093577
3072.0,-8.984636224340647e-05
3328.0,4.621345397026744e-06
3584.0,0.00012380850967019796
3840.0,0.0008667832589708269
4096.0,-0.0006805194425396621
4608.0,0.000189992570085451
5120.0,-0.00036810775054618716
5632.0,0.00035322573967278004
6144.0,-0.0010185197461396456
6656.0,-1.4842573364148848e-05
7168.0,-0.0009285287815146148
7680.0,-0.0008466812432743609
8192.0,0.0017615602118894458
end
