version,3.0
numOfCh,1
type,point
parent_name,0cd20_0dot6-0dot1
ch_type,1_1
kcount,1
numberNandB,1
brightnessNandB,1
carpet pos,0
pc,0
Time (ms),CH1 Auto-Correlation
1.0,0.025148067623376846
2.0,0.02377285622060299
3.0,0.02259557880461216
4.0,0.02159920707345009
5.0,0.020644348114728928
6.0,0.019733499735593796
7.0,0.018886195495724678
8.0,0.01812211237847805
9.0,0.017419490963220596
10.0,0.016728674992918968
11.0,0.01601923443377018
12.0,0.015412277542054653
13.0,0.014864136464893818
14.0,0.014336585067212582
15.0,0.013793003745377064
16.0,0.013264233246445656
18.0,0.012363924644887447
20.0,0.011480833403766155
22.0,0.010622920468449593
24.0,0.00983321201056242
26.0,0.009264097549021244
28.0,0.008777388371527195
30.0,0.008360080420970917
32.0,0.008053602650761604
36.0,0.0075130402110517025
40.0,0.006827840581536293
44.0,0.006255383137613535
48.0,0.005684095434844494
52.0,0.005192839074879885
56.0,0.00460559967905283
60.0,0.004053522367030382
64.0,0.0036941368598490953
72.0,0.003463334171101451
80.0,0.003336888737976551
88.0,0.0035390269476920366
96.0,0.0031993850134313107
104.0,0.003118782304227352
112.0,0.003397615160793066
120.0,0.003963185008615255
128.0,0.00478965463116765
144.0,0.005099959671497345
160.0,0.004584270529448986
176.0,0.0032145220320671797
192.0,0.002323807217180729
208.0,0.0019823103211820126
224.0,0.0013213730417191982
240.0,0.0012385238660499454
256.0,0.001422749599441886
288.0,0.001604044227860868
320.0,0.000976704410277307
352.0,0.00041099064401350915
384.0,0.00019876143778674304
416.0,-1.6401183529524133e-05
448.0,-0.00046061049215495586
480.0,-0.0008921386324800551
512.0,0.0002665995853021741
576.0,-0.001097075524739921
640.0,-0.0006702207028865814
704.0,0.0010204862337559462
768.0,0.00025689712492749095
832.0,0.0015706571284681559
896.0,0.0007480409694835544
960.0,0.00203315750695765
1024.0,0.0020927630830556154
1152.0,0.00023622300068382174
1280.0,0.0007110569276846945
1408.0,-0.000299096223898232
1536.0,-0.001416065962985158
1664.0,-2.5560599169693887e-05
1792.0,-9.808531467569992e-05
1920.0,0.00034510044497437775
2048.0,0.0008027714211493731
2304.0,0.00031323032453656197
2560.0,-0.0017929165624082088
2816.0,-0.0012220860226079822
3072.0,0.0007288848864845932
3328.0,0.0005020247772336006
3584.0,-0.0013923626393079758
3840.0,-0.0017171275103464723
4096.0,0.0014887904981151223
4608.0,-0.0012432800140231848
5120.0,0.0011485842987895012
5632.0,-0.001371926162391901
6144.0,0.00022821214224677533
6656.0,-0.002041899599134922
7168.0,0.0002775287430267781
7680.0,-0.0013782052556052804
8192.0,0.00038138104719109833
end
