version,3.0
numOfCh,1
type,point
parent_name,0cd20_0dot6-0dot1
ch_type,1_1
kcount,1
numberNandB,1
brightnessNandB,1
carpet pos,0
pc,0
Time (ms),CH1 Auto-Correlation
1.0,0.0255732424557209
2.0,0.02428414486348629
3.0,0.02310999669134617
4.0,0.021998468786478043
5.0,0.02106969617307186
6.0,0.020233143121004105
7.0,0.019431427121162415
8.0,0.018671201542019844
9.0,0.01796075515449047
10.0,0.01731880195438862
11.0,0.016734672710299492
12.0,0.016223454847931862
13.0,0.015736907720565796
14.0,0.015271092765033245
15.0,0.014792379923164845
16.0,0.014380646869540215
18.0,0.013764099217951298
20.0,0.013198340311646461
22.0,0.012657947838306427
24.0,0.012159098871052265
26.0,0.01175802480429411
28.0,0.011432275176048279
30.0,0.01111031323671341
32.0,0.010847093537449837
36.0,0.010298858396708965
40.0,0.009703257121145725
44.0,0.009022468701004982
48.0,0.008343580178916454
52.0,0.0077248974703252316
56.0,0.006986225489526987
60.0,0.0064291334711015224
64.0,0.00603646831586957
72.0,0.005425283685326576
80.0,0.0047195227816700935
88.0,0.004200281575322151
96.0,0.004019106272608042
104.0,0.004429347813129425
112.0,0.004593630786985159
120.0,0.004150092136114836
128.0,0.0036817402578890324
144.0,0.003756011137738824
160.0,0.003931672777980566
176.0,0.0041458383202552795
192.0,0.0044025843963027
208.0,0.004728295374661684
224.0,0.004294335842132568
240.0,0.004083011765033007
256.0,0.003861611010506749
288.0,0.002372963819652796
320.0,0.001695715938694775
352.0,0.001162380212917924
384.0,0.0009656624752096832
416.0,0.0007837712182663381
448.0,0.002191658830270171
480.0,0.0015234446618705988
512.0,0.0018239187775179744
576.0,0.0026136001106351614
640.0,0.0009494025143794715
704.0,0.0007101938244886696
768.0,0.0008124624146148562
832.0,-0.00022362051822710782
896.0,-0.0008315736777149141
960.0,0.0014091399498283863
1024.0,0.0020188186317682266
1152.0,0.0018182286294177175
1280.0,0.0012199863558635116
1408.0,0.0002969243214465678
1536.0,0.0016016304725781083
1664.0,0.001096895313821733
1792.0,0.0007786780479364097
1920.0,-0.0003580654738470912
2048.0,0.0023282947950065136
2304.0,-7.689036283409223e-05
2560.0,0.0011085083242505789
2816.0,0.00042211898835375905
3072.0,-0.00029051335877738893
3328.0,-0.0012510053347796202
3584.0,-0.000859032035805285
3840.0,0.0004719587741419673
4096.0,0.00016234088980127126
4608.0,0.0002628063957672566
5120.0,0.0011253411648795009
5632.0,-0.00015481552691198885
6144.0,-7.348114741034806e-05
6656.0,-0.0015051763039082289
7168.0,-0.0011406154371798038
7680.0,-0.0033101823646575212
8192.0,-0.0029691439121961594
end
