version,3.0
numOfCh,1
type,point
parent_name,dirty_0dot1-0dot1
ch_type,1_1
kcount,1
numberNandB,1
brightnessNandB,1
carpet pos,0
pc,0
Time (ms),CH1 Auto-Correlation
1.0,1.5188672542572021
2.0,1.5085269212722778
3.0,1.4982421398162842
4.0,1.4877541065216064
5.0,1.4778136014938354
6.0,1.4673196077346802
7.0,1.4569231271743774
8.0,1.4457556009292603
9.0,1.4347890615463257
10.0,1.4232057332992554
11.0,1.4120219945907593
12.0,1.4005463123321533
13.0,1.3898624181747437
14.0,1.3789658546447754
15.0,1.3676999807357788
16.0,1.3559147119522095
18.0,1.332358956336975
20.0,1.3099174499511719
22.0,1.2893621921539307
24.0,1.269953966140747
26.0,1.250220537185669
28.0,1.2304493188858032
30.0,1.2116920948028564
32.0,1.193860411643982
36.0,1.1558278799057007
40.0,1.1198781728744507
44.0,1.0856503248214722
48.0,1.0540289878845215
52.0,1.020774006843567
56.0,0.9875862002372742
60.0,0.9551276564598083
64.0,0.9242662787437439
72.0,0.8686218857765198
80.0,0.8142722249031067
88.0,0.7686441540718079
96.0,0.7420304417610168
104.0,0.7290181517601013
112.0,0.7165398001670837
120.0,0.7091367840766907
128.0,0.7007231712341309
144.0,0.6884476542472839
160.0,0.6652278304100037
176.0,0.637675940990448
192.0,0.5988240242004395
208.0,0.5492069125175476
224.0,0.5037124752998352
240.0,0.4871962070465088
256.0,0.4865044057369232
288.0,0.5312929749488831
320.0,0.5718092322349548
352.0,0.5519050359725952
384.0,0.5070471167564392
416.0,0.4759097695350647
448.0,0.5012559294700623
480.0,0.588580846786499
512.0,0.6082502603530884
576.0,0.47406724095344543
640.0,0.39939936995506287
704.0,0.3538621664047241
768.0,0.36001265048980713
832.0,0.4603580832481384
896.0,0.5465461015701294
960.0,0.46543365716934204
1024.0,0.4100549817085266
1152.0,0.3302990794181824
1280.0,0.2605724334716797
1408.0,0.2992365062236786
1536.0,0.2692108154296875
1664.0,0.16948585212230682
1792.0,0.07616019248962402
1920.0,0.030423808842897415
2048.0,-0.006295755971223116
2304.0,-0.07520844787359238
2560.0,-0.08820538967847824
2816.0,0.00033962170709855855
3072.0,-0.0799906998872757
3328.0,-0.1895229071378708
3584.0,-0.14925099909305573
3840.0,-0.09361584484577179
4096.0,-0.18466341495513916
4608.0,-0.20348107814788818
5120.0,-0.3644239008426666
5632.0,-0.37990060448646545
6144.0,-0.30828025937080383
6656.0,-0.27479681372642517
7168.0,-0.2519112229347229
7680.0,-0.1863161325454712
8192.0,-0.18484336137771606
9216.0,-0.07178305089473724
10240.0,0.07754603773355484
11264.0,0.19010023772716522
12288.0,0.1872798651456833
13312.0,0.1737421751022339
14336.0,0.1502191722393036
end
