version,3.0
numOfCh,1
type,point
parent_name,dirty_0dot1-0dot1
ch_type,1_1
kcount,1
numberNandB,1
brightnessNandB,1
carpet pos,0
pc,0
Time (ms),CH1 Auto-Correlation
1.0,1.3321789503097534
2.0,1.3252211809158325
3.0,1.31807279586792
4.0,1.3104768991470337
5.0,1.302414059638977
6.0,1.2944483757019043
7.0,1.2860724925994873
8.0,1.2769691944122314
9.0,1.2684258222579956
10.0,1.2591078281402588
11.0,1.2511749267578125
12.0,1.2431812286376953
13.0,1.2353814840316772
14.0,1.2264981269836426
15.0,1.2177387475967407
16.0,1.2099361419677734
18.0,1.1930224895477295
20.0,1.1761107444763184
22.0,1.1600749492645264
24.0,1.145674228668213
26.0,1.1309537887573242
28.0,1.1154884099960327
30.0,1.1002103090286255
32.0,1.084338903427124
36.0,1.0537469387054443
40.0,1.0260543823242188
44.0,0.9971138834953308
48.0,0.9666171073913574
52.0,0.9345687031745911
56.0,0.9031060934066772
60.0,0.870602011680603
64.0,0.8384552597999573
72.0,0.7833372950553894
80.0,0.742118775844574
88.0,0.7041485905647278
96.0,0.6640626192092896
104.0,0.6247848868370056
112.0,0.5938736796379089
120.0,0.5718585848808289
128.0,0.5449482798576355
144.0,0.4806525409221649
160.0,0.4240345060825348
176.0,0.39706912636756897
192.0,0.3621082007884979
208.0,0.31665298342704773
224.0,0.2603400647640228
240.0,0.19836802780628204
256.0,0.13618387281894684
288.0,0.043125759810209274
320.0,0.00303585990332067
352.0,-0.009581100195646286
384.0,-0.006569953635334969
416.0,-0.005162545945495367
448.0,-0.010685689747333527
480.0,-0.017455514520406723
512.0,-0.022130824625492096
576.0,-0.027077646926045418
640.0,-0.03171173483133316
704.0,-0.051615145057439804
768.0,-0.0667082890868187
832.0,-0.06760361790657043
896.0,-0.06475791335105896
960.0,-0.05984931439161301
1024.0,-0.045044273138046265
1152.0,-0.0331391841173172
1280.0,0.005061260424554348
1408.0,0.06685499846935272
1536.0,-0.005520768463611603
1664.0,-0.0367281436920166
1792.0,0.021893952041864395
1920.0,0.011027229949831963
2048.0,0.0018374251667410135
2304.0,-0.002824394730851054
2560.0,0.11868832260370255
2816.0,0.02344011515378952
3072.0,0.12554994225502014
3328.0,0.26883044838905334
3584.0,0.0010882039787247777
3840.0,-0.022313090041279793
4096.0,-0.004293000791221857
4608.0,-0.06959573179483414
5120.0,-0.06300489604473114
5632.0,0.2293412983417511
6144.0,-0.017489425837993622
6656.0,-0.05754484981298447
7168.0,-0.07994698733091354
7680.0,-0.07640311866998672
8192.0,-0.09075891226530075
9216.0,-0.0710599422454834
10240.0,-0.026090780273079872
11264.0,-0.16144569218158722
12288.0,-0.12313976138830185
13312.0,-0.18444174528121948
14336.0,-0.220933198928833
end
