version,3.0
numOfCh,1
type,point
parent_name,dirty_0dot1-0dot1
ch_type,1_1
kcount,1
numberNandB,1
brightnessNandB,1
carpet pos,0
pc,0
Time (ms),CH1 Auto-Correlation
1.0,0.3756557106971741
2.0,0.37184056639671326
3.0,0.3682722747325897
4.0,0.3646637201309204
5.0,0.36093711853027344
6.0,0.35725075006484985
7.0,0.3538883626461029
8.0,0.3506019413471222
9.0,0.3471529185771942
10.0,0.3440144658088684
11.0,0.3408583998680115
12.0,0.3378828465938568
13.0,0.33514660596847534
14.0,0.33224183320999146
15.0,0.32941681146621704
16.0,0.3268156945705414
18.0,0.3214382231235504
20.0,0.3158394992351532
22.0,0.3108380138874054
24.0,0.3065696954727173
26.0,0.30271074175834656
28.0,0.2978556454181671
30.0,0.29281148314476013
32.0,0.2879721522331238
36.0,0.27989834547042847
40.0,0.27256351709365845
44.0,0.266573965549469
48.0,0.2610131800174713
52.0,0.2571072578430176
56.0,0.2526993751525879
60.0,0.2471882551908493
64.0,0.24086399376392365
72.0,0.22960977256298065
80.0,0.21916233003139496
88.0,0.21021896600723267
96.0,0.20096784830093384
104.0,0.1908600628376007
112.0,0.18332074582576752
120.0,0.17619167268276215
128.0,0.16462038457393646
144.0,0.14226987957954407
160.0,0.12639658153057098
176.0,0.11999722570180893
192.0,0.11194182187318802
208.0,0.10406824201345444
224.0,0.09788621962070465
240.0,0.09914549440145493
256.0,0.10437170416116714
288.0,0.10992753505706787
320.0,0.09800117462873459
352.0,0.09175363183021545
384.0,0.08094297349452972
416.0,0.05930221453309059
448.0,0.04400952532887459
480.0,0.033325035125017166
512.0,0.02793344296514988
576.0,0.0267481692135334
640.0,0.01609819009900093
704.0,0.008130520582199097
768.0,0.0067672161385416985
832.0,0.007083594333380461
896.0,-0.00026836307370103896
960.0,-0.002462773583829403
1024.0,0.003562348894774914
1152.0,0.00628720223903656
1280.0,-0.02323939837515354
1408.0,-0.01643231511116028
1536.0,-0.017314516007900238
1664.0,-0.02893536351621151
1792.0,-0.035844288766384125
1920.0,-0.037339191883802414
2048.0,-0.035224780440330505
2304.0,-0.03956719860434532
2560.0,-0.03324329853057861
2816.0,-0.01584944874048233
3072.0,-0.029942495748400688
3328.0,-0.007877200841903687
3584.0,0.014513390138745308
3840.0,0.03524457663297653
4096.0,0.06618780642747879
4608.0,0.04323472082614899
5120.0,0.023351063951849937
5632.0,-0.04348437860608101
6144.0,-0.0633985623717308
6656.0,-0.06475710868835449
7168.0,-0.056177012622356415
7680.0,-0.016558516770601273
8192.0,-0.0036531807854771614
9216.0,0.0032152030616998672
10240.0,-0.03238807991147041
11264.0,-0.05615639686584473
12288.0,0.013526810333132744
13312.0,0.031590476632118225
14336.0,0.0250863004475832
end
