version,3.0
numOfCh,1
type,point
parent_name,dirty_0dot1-0dot1
ch_type,1_1
kcount,1
numberNandB,1
brightnessNandB,1
carpet pos,0
pc,0
Time (ms),CH1 Auto-Correlation
1.0,0.8015236258506775
2.0,0.7947795987129211
3.0,0.7882862091064453
4.0,0.7818686962127686
5.0,0.7760313153266907
6.0,0.7702307105064392
7.0,0.7644950151443481
8.0,0.759106457233429
9.0,0.753926694393158
10.0,0.7484464645385742
11.0,0.7428176999092102
12.0,0.7369866371154785
13.0,0.7312778234481812
14.0,0.7258520126342773
15.0,0.7202931046485901
16.0,0.7148850560188293
18.0,0.7053746581077576
20.0,0.6963518857955933
22.0,0.688689112663269
24.0,0.6818673014640808
26.0,0.6754577159881592
28.0,0.6699948310852051
30.0,0.6656960844993591
32.0,0.6625415682792664
36.0,0.6561136841773987
40.0,0.6490285992622375
44.0,0.6396994590759277
48.0,0.6309013962745667
52.0,0.6228564977645874
56.0,0.6150479912757874
60.0,0.6051483750343323
64.0,0.5961987376213074
72.0,0.5796571373939514
80.0,0.5651113390922546
88.0,0.5551273822784424
96.0,0.544869065284729
104.0,0.5328221917152405
112.0,0.5223459601402283
120.0,0.5134117007255554
128.0,0.5045678019523621
144.0,0.4902338981628418
160.0,0.4732288718223572
176.0,0.45280179381370544
192.0,0.4346050024032593
208.0,0.4184150695800781
224.0,0.40054768323898315
240.0,0.3776714503765106
256.0,0.35654765367507935
288.0,0.32849982380867004
320.0,0.2963787913322449
352.0,0.27240508794784546
384.0,0.25901108980178833
416.0,0.25738799571990967
448.0,0.24755826592445374
480.0,0.23045815527439117
512.0,0.21182546019554138
576.0,0.18884693086147308
640.0,0.16814836859703064
704.0,0.14742237329483032
768.0,0.16017907857894897
832.0,0.1767573058605194
896.0,0.16371507942676544
960.0,0.11634563654661179
1024.0,0.07250027358531952
1152.0,-0.034293707460165024
1280.0,-0.09429214149713516
1408.0,-0.11187843978404999
1536.0,-0.11320891231298447
1664.0,-0.10963794589042664
1792.0,-0.0932505652308464
1920.0,-0.09088211506605148
2048.0,-0.12667326629161835
2304.0,-0.147151380777359
2560.0,-0.12364482879638672
2816.0,-0.07081364095211029
3072.0,-0.05274101346731186
3328.0,-0.027559367939829826
3584.0,0.053836483508348465
3840.0,0.16964763402938843
4096.0,0.1501646637916565
4608.0,0.06265133619308472
5120.0,0.00485135056078434
5632.0,-0.01617996208369732
6144.0,-0.07121694833040237
6656.0,-0.08827252686023712
7168.0,-0.09568015486001968
7680.0,-0.08546650409698486
8192.0,-0.07766643166542053
9216.0,0.05226965248584747
10240.0,0.0011358236661180854
11264.0,-0.18939761817455292
12288.0,-0.2029830813407898
13312.0,-0.013756978325545788
14336.0,0.1330845206975937
end
