version,3.0
numOfCh,1
type,point
parent_name,dirty_0dot1-0dot1
ch_type,1_1
kcount,1
numberNandB,1
brightnessNandB,1
carpet pos,0
pc,0
Time (ms),CH1 Auto-Correlation
1.0,0.9284458160400391
2.0,0.9186146259307861
3.0,0.9091333746910095
4.0,0.899616003036499
5.0,0.890089213848114
6.0,0.8811865448951721
7.0,0.8723458051681519
8.0,0.863899827003479
9.0,0.8554537892341614
10.0,0.8467273116111755
11.0,0.8386377692222595
12.0,0.830402672290802
13.0,0.822137713432312
14.0,0.8141281604766846
15.0,0.8060852885246277
16.0,0.7982320785522461
18.0,0.7827333211898804
20.0,0.7666009068489075
22.0,0.7497760057449341
24.0,0.7336946725845337
26.0,0.7184839844703674
28.0,0.7027986645698547
30.0,0.6866974234580994
32.0,0.6714101433753967
36.0,0.6460902690887451
40.0,0.6208122372627258
44.0,0.5962309837341309
48.0,0.5727284550666809
52.0,0.5513903498649597
56.0,0.5333427786827087
60.0,0.5181782245635986
64.0,0.5055112242698669
72.0,0.487659215927124
80.0,0.4741370677947998
88.0,0.46798792481422424
96.0,0.4608798623085022
104.0,0.45395907759666443
112.0,0.4519464373588562
120.0,0.4489594101905823
128.0,0.44457775354385376
144.0,0.4177696406841278
160.0,0.3843352198600769
176.0,0.3625521957874298
192.0,0.34426164627075195
208.0,0.3395974636077881
224.0,0.32245934009552
240.0,0.29529890418052673
256.0,0.2661042809486389
288.0,0.20569150149822235
320.0,0.1336299329996109
352.0,0.09467428177595139
384.0,0.0707257017493248
416.0,0.03655306622385979
448.0,0.004887934308499098
480.0,0.007995227351784706
512.0,0.0196241345256567
576.0,-0.022069279104471207
640.0,-0.016362514346837997
704.0,-0.012405399233102798
768.0,-0.03831205144524574
832.0,-0.05216078832745552
896.0,-0.044078048318624496
960.0,-0.06545493006706238
1024.0,-0.09375756233930588
1152.0,-0.13123539090156555
1280.0,-0.13836368918418884
1408.0,-0.10134042054414749
1536.0,-0.05192071944475174
1664.0,0.04878868907690048
1792.0,0.15409307181835175
1920.0,0.2143082469701767
2048.0,0.20523791015148163
2304.0,0.10591527819633484
2560.0,0.12809932231903076
2816.0,0.09329681098461151
3072.0,-0.053645700216293335
3328.0,-0.06553909182548523
3584.0,-0.027436373755335808
3840.0,-0.028654063120484352
4096.0,-0.06691890954971313
4608.0,-0.030346814543008804
5120.0,0.009360023774206638
5632.0,-0.040180619806051254
6144.0,-0.10068964213132858
6656.0,-0.10152333974838257
7168.0,-0.0251650158315897
7680.0,0.0845995768904686
8192.0,0.006746214348822832
9216.0,-0.09559981524944305
10240.0,0.0838479995727539
11264.0,-0.07893996685743332
12288.0,-0.08461419492959976
13312.0,-0.03143610060214996
14336.0,-0.17698505520820618
end
