version,3.0
numOfCh,1
type,point
parent_name,dirty_0dot1-0dot1
ch_type,1_1
kcount,1
numberNandB,1
brightnessNandB,1
carpet pos,0
pc,0
Time (ms),CH1 Auto-Correlation
1.0,1.014420747756958
2.0,1.0071003437042236
3.0,1.000235676765442
4.0,0.9929633140563965
5.0,0.9865603446960449
6.0,0.9809591770172119
7.0,0.9750966429710388
8.0,0.9685204029083252
9.0,0.9618850946426392
10.0,0.9552531242370605
11.0,0.948729932308197
12.0,0.9423041939735413
13.0,0.936103105545044
14.0,0.929826021194458
15.0,0.9232134819030762
16.0,0.9168354272842407
18.0,0.9052683711051941
20.0,0.8953063488006592
22.0,0.8854182958602905
24.0,0.8752691149711609
26.0,0.8654400706291199
28.0,0.8556534647941589
30.0,0.8457597494125366
32.0,0.8363425135612488
36.0,0.8177167773246765
40.0,0.796894907951355
44.0,0.7777179479598999
48.0,0.7599114775657654
52.0,0.742752194404602
56.0,0.7270664572715759
60.0,0.7124966979026794
64.0,0.6995695233345032
72.0,0.6714181900024414
80.0,0.6471436619758606
88.0,0.6242954730987549
96.0,0.599327027797699
104.0,0.5730654001235962
112.0,0.5498201847076416
120.0,0.5293312072753906
128.0,0.5121449828147888
144.0,0.47622689604759216
160.0,0.4357436001300812
176.0,0.40643075108528137
192.0,0.3648186922073364
208.0,0.32072094082832336
224.0,0.2903108298778534
240.0,0.2675860822200775
256.0,0.25743094086647034
288.0,0.24525196850299835
320.0,0.23371188342571259
352.0,0.20043149590492249
384.0,0.15955987572669983
416.0,0.10333486646413803
448.0,0.0662962794303894
480.0,0.04517316073179245
512.0,0.036036618053913116
576.0,0.012094452045857906
640.0,0.032395798712968826
704.0,0.04777080938220024
768.0,0.01037317980080843
832.0,-0.035307519137859344
896.0,-0.04665151238441467
960.0,-0.04694689065217972
1024.0,-0.05408328026533127
1152.0,-0.10019031912088394
1280.0,-0.08988702297210693
1408.0,-0.023825479671359062
1536.0,0.011683551594614983
1664.0,0.025740843266248703
1792.0,0.04613526165485382
1920.0,0.012138955295085907
2048.0,-0.04366471990942955
2304.0,-0.03184913471341133
2560.0,0.1041841208934784
2816.0,-0.03129536658525467
3072.0,-0.04989510402083397
3328.0,-0.07006161659955978
3584.0,-0.08617972582578659
3840.0,-0.07945795357227325
4096.0,-0.08995989710092545
4608.0,-0.06913015246391296
5120.0,-0.07633853703737259
5632.0,-0.06343143433332443
6144.0,-0.058839745819568634
6656.0,-0.09932361543178558
7168.0,-0.10056893527507782
7680.0,-0.059452544897794724
8192.0,-0.04098263010382652
9216.0,0.11015353351831436
10240.0,-0.022190267220139503
11264.0,0.18202044069766998
12288.0,-0.044747766107320786
13312.0,-0.14714832603931427
14336.0,0.037480518221855164
end
