version,3.0
numOfCh,1
type,point
parent_name,dirty_0dot1-0dot1
ch_type,1_1
kcount,1
numberNandB,1
brightnessNandB,1
carpet pos,0
pc,0
Time (ms),CH1 Auto-Correlation
1.0,0.8533938527107239
2.0,0.8480081558227539
3.0,0.8427219390869141
4.0,0.8375316858291626
5.0,0.8328489661216736
6.0,0.8281264901161194
7.0,0.8236623406410217
8.0,0.8188877105712891
9.0,0.8135790824890137
10.0,0.8088738918304443
11.0,0.8040908575057983
12.0,0.7994067072868347
13.0,0.7946873307228088
14.0,0.7895908355712891
15.0,0.7850436568260193
16.0,0.7805981636047363
18.0,0.7721233367919922
20.0,0.7638442516326904
22.0,0.7549831867218018
24.0,0.7475433945655823
26.0,0.7404574155807495
28.0,0.732440710067749
30.0,0.7231660485267639
32.0,0.7139419317245483
36.0,0.6967055201530457
40.0,0.6825597882270813
44.0,0.6684402227401733
48.0,0.6552497744560242
52.0,0.644583523273468
56.0,0.6357422471046448
60.0,0.6262540221214294
64.0,0.616186797618866
72.0,0.5972475409507751
80.0,0.5826463103294373
88.0,0.5713783502578735
96.0,0.5564900636672974
104.0,0.5435358285903931
112.0,0.5331578254699707
120.0,0.5235639214515686
128.0,0.507663369178772
144.0,0.4718123972415924
160.0,0.44187501072883606
176.0,0.41357824206352234
192.0,0.3785523772239685
208.0,0.34129616618156433
224.0,0.3132708668708801
240.0,0.2898131012916565
256.0,0.26504525542259216
288.0,0.2263796329498291
320.0,0.1800951212644577
352.0,0.14788024127483368
384.0,0.1411592662334442
416.0,0.14662966132164001
448.0,0.1341768503189087
480.0,0.13094346225261688
512.0,0.14301609992980957
576.0,0.16737103462219238
640.0,0.136829674243927
704.0,0.11426984518766403
768.0,0.0881292074918747
832.0,0.023863816633820534
896.0,-0.00949858408421278
960.0,-0.012958841398358345
1024.0,0.0005110537749715149
1152.0,-0.02203000895678997
1280.0,-0.032117195427417755
1408.0,-0.02221474051475525
1536.0,-0.02304753102362156
1664.0,-0.047543928027153015
1792.0,-0.07646267116069794
1920.0,-0.08332855254411697
2048.0,-0.08009712398052216
2304.0,-0.06339438259601593
2560.0,-0.06765183806419373
2816.0,-0.06196114048361778
3072.0,-0.0696549266576767
3328.0,-0.07877936214208603
3584.0,-0.09872826933860779
3840.0,-0.0925360918045044
4096.0,-0.07622820883989334
4608.0,-0.06487500667572021
5120.0,-0.04791449382901192
5632.0,-0.053994763642549515
6144.0,-0.05116682127118111
6656.0,-0.012365761213004589
7168.0,-0.007708501070737839
7680.0,0.308506578207016
8192.0,0.16921725869178772
9216.0,0.07506909221410751
10240.0,-0.10504012554883957
11264.0,-0.17783811688423157
12288.0,-0.166873499751091
13312.0,0.05439509078860283
14336.0,0.0804983600974083
end
