version,3.0
numOfCh,1
type,point
parent_name,dirty_0dot1-0dot1
ch_type,1_1
kcount,1
numberNandB,1
brightnessNandB,1
carpet pos,0
pc,0
Time (ms),CH1 Auto-Correlation
1.0,0.7619413733482361
2.0,0.7546774744987488
3.0,0.7475556135177612
4.0,0.7406691312789917
5.0,0.7347241044044495
6.0,0.7290059328079224
7.0,0.7238566279411316
8.0,0.7187856435775757
9.0,0.7139328122138977
10.0,0.7087807059288025
11.0,0.7040150165557861
12.0,0.6993665099143982
13.0,0.6947565674781799
14.0,0.6902958154678345
15.0,0.68557208776474
16.0,0.6808481216430664
18.0,0.6708900928497314
20.0,0.6615541577339172
22.0,0.6522005796432495
24.0,0.6425985097885132
26.0,0.6338397860527039
28.0,0.6262832880020142
30.0,0.6189412474632263
32.0,0.6106202602386475
36.0,0.5937813520431519
40.0,0.5789570212364197
44.0,0.5659062266349792
48.0,0.554324746131897
52.0,0.5438321232795715
56.0,0.5349166393280029
60.0,0.527423620223999
64.0,0.5212085247039795
72.0,0.5080478191375732
80.0,0.4942702353000641
88.0,0.48297765851020813
96.0,0.46836358308792114
104.0,0.45189210772514343
112.0,0.4327668249607086
120.0,0.41447070240974426
128.0,0.39662888646125793
144.0,0.3606485426425934
160.0,0.32945793867111206
176.0,0.3032361567020416
192.0,0.28235000371932983
208.0,0.26560068130493164
224.0,0.2525566816329956
240.0,0.23959660530090332
256.0,0.22104500234127045
288.0,0.18229566514492035
320.0,0.1718374639749527
352.0,0.17711302638053894
384.0,0.15786904096603394
416.0,0.13326281309127808
448.0,0.13356836140155792
480.0,0.13817718625068665
512.0,0.12722741067409515
576.0,0.08983085304498672
640.0,0.0468764528632164
704.0,0.030432455241680145
768.0,0.025161312893033028
832.0,0.0328524149954319
896.0,0.03824663534760475
960.0,0.06623514741659164
1024.0,0.0661555752158165
1152.0,0.06119050458073616
1280.0,0.045708220452070236
1408.0,0.047576695680618286
1536.0,0.0857030600309372
1664.0,0.11094435304403305
1792.0,0.04116394370794296
1920.0,-0.01127738319337368
2048.0,0.03614186495542526
2304.0,0.06332913786172867
2560.0,0.07980417460203171
2816.0,-0.005923817399889231
3072.0,-0.08331628888845444
3328.0,-0.10405265539884567
3584.0,-0.08652331680059433
3840.0,-0.04694667458534241
4096.0,-0.023984257131814957
4608.0,-0.030565394088625908
5120.0,-0.0731767788529396
5632.0,-0.09276095032691956
6144.0,-0.045427270233631134
6656.0,0.049394913017749786
7168.0,0.003709204960614443
7680.0,-0.0492980070412159
8192.0,0.02167363651096821
9216.0,0.018537988886237144
10240.0,-0.1807684302330017
11264.0,0.021198589354753494
12288.0,-0.18111442029476166
13312.0,0.10968657582998276
14336.0,-0.3257231116294861
end
