version,3.0
numOfCh,1
type,point
parent_name,dirty_0dot1-0dot1
ch_type,1_1
kcount,1
numberNandB,1
brightnessNandB,1
carpet pos,0
pc,0
Time (ms),CH1 Auto-Correlation
1.0,0.37496858835220337
2.0,0.3712112605571747
3.0,0.36735859513282776
4.0,0.36366602778434753
5.0,0.36013633012771606
6.0,0.35666099190711975
7.0,0.3530815541744232
8.0,0.34968438744544983
9.0,0.34664490818977356
10.0,0.3439876437187195
11.0,0.3412989377975464
12.0,0.33873099088668823
13.0,0.33633938431739807
14.0,0.3337429463863373
15.0,0.33106541633605957
16.0,0.32832661271095276
18.0,0.323070228099823
20.0,0.3180542588233948
22.0,0.31268030405044556
24.0,0.3075993061065674
26.0,0.3031110167503357
28.0,0.29885971546173096
30.0,0.2952596843242645
32.0,0.2915208041667938
36.0,0.2826317250728607
40.0,0.27461934089660645
44.0,0.26670730113983154
48.0,0.258003294467926
52.0,0.24758173525333405
56.0,0.2367388904094696
60.0,0.22679749131202698
64.0,0.21796751022338867
72.0,0.2027750313282013
80.0,0.19179531931877136
88.0,0.18253926932811737
96.0,0.17324648797512054
104.0,0.16348303854465485
112.0,0.1539597511291504
120.0,0.14313603937625885
128.0,0.13522346317768097
144.0,0.12088993191719055
160.0,0.09851440042257309
176.0,0.080738365650177
192.0,0.07045844942331314
208.0,0.06603816896677017
224.0,0.06626509130001068
240.0,0.06487004458904266
256.0,0.06643638014793396
288.0,0.055956076830625534
320.0,0.04417874291539192
352.0,0.03141261264681816
384.0,0.02154877968132496
416.0,0.012244866229593754
448.0,0.002862157067283988
480.0,-0.0012934532715007663
512.0,-0.004368266090750694
576.0,0.00509898504242301
640.0,0.007570358924567699
704.0,0.013381490483880043
768.0,-0.0001832568523241207
832.0,-0.0013922136276960373
896.0,-0.009434774518013
960.0,-0.012628323398530483
1024.0,-0.022425565868616104
1152.0,-0.03603911027312279
1280.0,-0.03650223836302757
1408.0,-0.008118465542793274
1536.0,0.019341111183166504
1664.0,-0.003028799779713154
1792.0,-0.015015853568911552
1920.0,-0.012618530541658401
2048.0,-0.0049225580878555775
2304.0,-0.00012226180115249008
2560.0,0.010163451544940472
2816.0,0.011591422371566296
3072.0,0.006870584562420845
3328.0,-0.013141969218850136
3584.0,-0.0184576828032732
3840.0,-0.03985259309411049
4096.0,-0.05224132537841797
4608.0,-0.01110637653619051
5120.0,0.04888974875211716
5632.0,0.05820411816239357
6144.0,0.01228242740035057
6656.0,-0.018795372918248177
7168.0,-0.013568046502768993
7680.0,0.0013488255208358169
8192.0,0.019915765151381493
9216.0,-0.036720696836709976
10240.0,-0.03836527094244957
11264.0,0.05206839740276337
12288.0,0.021155528724193573
13312.0,-0.008698446676135063
14336.0,-0.07461067289113998
end
