version,3.0
numOfCh,1
type,point
parent_name,dirty_0dot1-0dot1
ch_type,1_1
kcount,1
numberNandB,1
brightnessNandB,1
carpet pos,0
pc,0
Time (ms),CH1 Auto-Correlation
1.0,0.6798752546310425
2.0,0.6731218695640564
3.0,0.6665923595428467
4.0,0.6602952480316162
5.0,0.6543088555335999
6.0,0.6487104296684265
7.0,0.6430465579032898
8.0,0.6373647451400757
9.0,0.6317601799964905
10.0,0.6259357929229736
11.0,0.6204796433448792
12.0,0.6150752305984497
13.0,0.6098446249961853
14.0,0.6050018072128296
15.0,0.6000998020172119
16.0,0.595135509967804
18.0,0.5857729911804199
20.0,0.5767925381660461
22.0,0.5680618286132812
24.0,0.5595768690109253
26.0,0.5516394972801208
28.0,0.5448136925697327
30.0,0.5378784537315369
32.0,0.5314398407936096
36.0,0.5193935036659241
40.0,0.5081670880317688
44.0,0.49702364206314087
48.0,0.485293447971344
52.0,0.47277453541755676
56.0,0.45916879177093506
60.0,0.4454783797264099
64.0,0.43148094415664673
72.0,0.40490108728408813
80.0,0.3829536437988281
88.0,0.3689339756965637
96.0,0.3554111123085022
104.0,0.33785054087638855
112.0,0.3170711398124695
120.0,0.3002634048461914
128.0,0.28866931796073914
144.0,0.26271218061447144
160.0,0.23436668515205383
176.0,0.2122679352760315
192.0,0.20328471064567566
208.0,0.1999627649784088
224.0,0.1996854692697525
240.0,0.20227329432964325
256.0,0.1932072788476944
288.0,0.1695328801870346
320.0,0.14437046647071838
352.0,0.12779252231121063
384.0,0.1114991158246994
416.0,0.09932952374219894
448.0,0.0973108559846878
480.0,0.08099556714296341
512.0,0.07590176910161972
576.0,0.0653110146522522
640.0,0.06849895417690277
704.0,0.056419312953948975
768.0,0.06262236088514328
832.0,0.07476714998483658
896.0,0.09316301345825195
960.0,0.08468031883239746
1024.0,0.07334965467453003
1152.0,0.06953516602516174
1280.0,0.06608407944440842
1408.0,0.020348403602838516
1536.0,-0.020595235750079155
1664.0,-0.03146075829863548
1792.0,-0.02620069310069084
1920.0,-0.009361163713037968
2048.0,0.014330652542412281
2304.0,-0.0030328663997352123
2560.0,-0.06352723389863968
2816.0,-0.013435683213174343
3072.0,-0.047775596380233765
3328.0,-0.058791156858205795
3584.0,-0.08558686822652817
3840.0,-0.10944866389036179
4096.0,-0.13289430737495422
4608.0,-0.13197295367717743
5120.0,-0.084539495408535
5632.0,-0.024404136463999748
6144.0,-0.0463416613638401
6656.0,0.01155556458979845
7168.0,-0.07678505033254623
7680.0,0.09537459909915924
8192.0,0.06469950079917908
9216.0,-0.032363440841436386
10240.0,0.027111221104860306
11264.0,-0.0031415806151926517
12288.0,-0.0070778620429337025
13312.0,-0.038483720272779465
14336.0,0.08950045704841614
end
