version,3.0
numOfCh,1
type,point
parent_name,dirty_0dot1-0dot1
ch_type,1_1
kcount,1
numberNandB,1
brightnessNandB,1
carpet pos,0
pc,0
Time (ms),CH1 Auto-Correlation
1.0,0.19485852122306824
2.0,0.19227387011051178
3.0,0.18966799974441528
4.0,0.18714085221290588
5.0,0.1850351244211197
6.0,0.18290090560913086
7.0,0.18096564710140228
8.0,0.17883971333503723
9.0,0.17664481699466705
10.0,0.17434056103229523
11.0,0.1719159632921219
12.0,0.16976357996463776
13.0,0.16754795610904694
14.0,0.16535581648349762
15.0,0.16317375004291534
16.0,0.1607886701822281
18.0,0.15622645616531372
20.0,0.1518905907869339
22.0,0.14766019582748413
24.0,0.1435619294643402
26.0,0.1402980387210846
28.0,0.13734078407287598
30.0,0.13406716287136078
32.0,0.13040587306022644
36.0,0.12426431477069855
40.0,0.1198868378996849
44.0,0.11702099442481995
48.0,0.11473153531551361
52.0,0.11295074969530106
56.0,0.11198890954256058
60.0,0.10982370376586914
64.0,0.10617353022098541
72.0,0.0997866839170456
80.0,0.09392587840557098
88.0,0.08911144733428955
96.0,0.08428595215082169
104.0,0.08040063828229904
112.0,0.07681692391633987
120.0,0.07395116984844208
128.0,0.07203608751296997
144.0,0.06974240392446518
160.0,0.06516144424676895
176.0,0.060223426669836044
192.0,0.05803237482905388
208.0,0.05847565829753876
224.0,0.05965958163142204
240.0,0.05983935669064522
256.0,0.0592585951089859
288.0,0.057235173881053925
320.0,0.05025907978415489
352.0,0.05159279704093933
384.0,0.04891109839081764
416.0,0.058105506002902985
448.0,0.06791482120752335
480.0,0.06765443086624146
512.0,0.06061903014779091
576.0,0.04314040765166283
640.0,0.026244383305311203
704.0,0.025543631985783577
768.0,0.02711787074804306
832.0,0.020087016746401787
896.0,0.014311406761407852
960.0,0.008988192304968834
1024.0,0.004408812150359154
1152.0,-0.005471365060657263
1280.0,-0.007253231946378946
1408.0,-0.010383893735706806
1536.0,-0.010490956716239452
1664.0,-0.014621381647884846
1792.0,-0.010618158616125584
1920.0,-0.014405963011085987
2048.0,-0.010929765179753304
2304.0,-0.02191736176609993
2560.0,-0.010063745081424713
2816.0,-0.0036142030730843544
3072.0,-0.008068030700087547
3328.0,0.002908131340518594
3584.0,0.008805911056697369
3840.0,0.010576283559203148
4096.0,0.008748077787458897
4608.0,0.007368189282715321
5120.0,0.0008968624752014875
5632.0,0.008992438204586506
6144.0,0.01250456739217043
6656.0,0.005437629763036966
7168.0,-0.003435851540416479
7680.0,-0.012928868643939495
8192.0,-0.017227040603756905
9216.0,-0.03904050216078758
10240.0,-0.024731367826461792
11264.0,0.022598018869757652
12288.0,0.03846650570631027
13312.0,-0.03580788895487785
14336.0,-0.1591271162033081
end
