version,3.0
numOfCh,1
type,point
parent_name,dirty_0dot1-0dot1
ch_type,1_1
kcount,1
numberNandB,1
brightnessNandB,1
carpet pos,0
pc,0
Time (ms),CH1 Auto-Correlation
1.0,0.9334681630134583
2.0,0.926599383354187
3.0,0.920240581035614
4.0,0.9142860770225525
5.0,0.9084576964378357
6.0,0.9030265212059021
7.0,0.8971721529960632
8.0,0.8905819058418274
9.0,0.8844178915023804
10.0,0.8787920475006104
11.0,0.8733370900154114
12.0,0.8675388693809509
13.0,0.8614533543586731
14.0,0.8556789755821228
15.0,0.8502736687660217
16.0,0.8450798988342285
18.0,0.8354117274284363
20.0,0.8260825872421265
22.0,0.8174803853034973
24.0,0.8076032400131226
26.0,0.7982814311981201
28.0,0.7900304794311523
30.0,0.7823211550712585
32.0,0.7764787673950195
36.0,0.766550600528717
40.0,0.7568076848983765
44.0,0.7471354603767395
48.0,0.7385291457176208
52.0,0.7290613651275635
56.0,0.7197578549385071
60.0,0.7096232175827026
64.0,0.6981861591339111
72.0,0.6783926486968994
80.0,0.6629284620285034
88.0,0.6490709781646729
96.0,0.6344518065452576
104.0,0.6212921142578125
112.0,0.6059390306472778
120.0,0.5910940766334534
128.0,0.5790186524391174
144.0,0.5489417314529419
160.0,0.5173395872116089
176.0,0.4837236702442169
192.0,0.46742090582847595
208.0,0.4554007947444916
224.0,0.43095847964286804
240.0,0.4093058407306671
256.0,0.38246941566467285
288.0,0.36583173274993896
320.0,0.36702629923820496
352.0,0.3372670114040375
384.0,0.2906497120857239
416.0,0.24266573786735535
448.0,0.2346004843711853
480.0,0.21666674315929413
512.0,0.18641217052936554
576.0,0.1296132206916809
640.0,0.10286446660757065
704.0,0.08773509413003922
768.0,0.06280001997947693
832.0,0.033851731568574905
896.0,0.015323552303016186
960.0,0.015160361304879189
1024.0,0.0004144709964748472
1152.0,-0.05412943661212921
1280.0,-0.08211192488670349
1408.0,-0.09522559493780136
1536.0,-0.0999293252825737
1664.0,-0.1254180520772934
1792.0,-0.1408945471048355
1920.0,-0.1456671506166458
2048.0,-0.14073368906974792
2304.0,-0.1375660002231598
2560.0,-0.13036379218101501
2816.0,-0.07854702323675156
3072.0,0.07683426141738892
3328.0,-0.021801596507430077
3584.0,-0.07897824048995972
3840.0,-0.04945078492164612
4096.0,0.001193916192278266
4608.0,0.10681402683258057
5120.0,-0.05784476175904274
5632.0,-0.09636013954877853
6144.0,-0.13251113891601562
6656.0,-0.10807809233665466
7168.0,0.10349025577306747
7680.0,0.28584036231040955
8192.0,0.0035049004945904016
9216.0,-0.02117079496383667
10240.0,-0.04209069535136223
11264.0,-0.06276672333478928
12288.0,-0.0942254289984703
13312.0,-0.024556051939725876
14336.0,-0.08079258352518082
end
