version,3.0
numOfCh,1
type,point
parent_name,dirty_0dot1-0dot1
ch_type,1_1
kcount,1
numberNandB,1
brightnessNandB,1
carpet pos,0
pc,0
Time (ms),CH1 Auto-Correlation
1.0,0.8946382999420166
2.0,0.8884717226028442
3.0,0.8828455209732056
4.0,0.8772360682487488
5.0,0.872056782245636
6.0,0.8672265410423279
7.0,0.8629578351974487
8.0,0.8587092757225037
9.0,0.8547248840332031
10.0,0.8503662347793579
11.0,0.846197247505188
12.0,0.8417758345603943
13.0,0.8374430537223816
14.0,0.8336936831474304
15.0,0.8301159143447876
16.0,0.8267763257026672
18.0,0.8195016384124756
20.0,0.8120900392532349
22.0,0.8046783208847046
24.0,0.7984938025474548
26.0,0.7929856181144714
28.0,0.7866632342338562
30.0,0.7798053622245789
32.0,0.7717127799987793
36.0,0.7550708055496216
40.0,0.7404707074165344
44.0,0.7249906063079834
48.0,0.7076402902603149
52.0,0.6915048360824585
56.0,0.6763830184936523
60.0,0.6623900532722473
64.0,0.6482284665107727
72.0,0.6242821216583252
80.0,0.6041988730430603
88.0,0.5850220918655396
96.0,0.5719892978668213
104.0,0.5625921487808228
112.0,0.5570181012153625
120.0,0.5502285957336426
128.0,0.5461965799331665
144.0,0.5418761372566223
160.0,0.5385807156562805
176.0,0.536932110786438
192.0,0.5237030982971191
208.0,0.5114387273788452
224.0,0.49098843336105347
240.0,0.4706069231033325
256.0,0.45557788014411926
288.0,0.424856036901474
320.0,0.3973003029823303
352.0,0.3736845552921295
384.0,0.36342617869377136
416.0,0.3564167320728302
448.0,0.35484036803245544
480.0,0.3457694351673126
512.0,0.32226964831352234
576.0,0.27944743633270264
640.0,0.2705587148666382
704.0,0.24813413619995117
768.0,0.2490469515323639
832.0,0.2250489592552185
896.0,0.17180800437927246
960.0,0.11580229550600052
1024.0,0.09972947835922241
1152.0,0.022367149591445923
1280.0,-0.04095316305756569
1408.0,-0.08905082941055298
1536.0,-0.10364170372486115
1664.0,-0.09401827305555344
1792.0,-0.09292316436767578
1920.0,-0.10960487276315689
2048.0,-0.08396118134260178
2304.0,-0.11559730023145676
2560.0,-0.1313333809375763
2816.0,-0.14773085713386536
3072.0,-0.14733882248401642
3328.0,-0.1187983974814415
3584.0,-0.13631252944469452
3840.0,-0.1344858705997467
4096.0,-0.13647522032260895
4608.0,-0.07764654606580734
5120.0,0.004112344700843096
5632.0,0.1714775711297989
6144.0,0.14649850130081177
6656.0,0.04932503029704094
7168.0,-0.029186174273490906
7680.0,-0.06703132390975952
8192.0,-0.09107144922018051
9216.0,-0.06266415864229202
10240.0,-0.09865402430295944
11264.0,-0.17094509303569794
12288.0,-0.027804270386695862
13312.0,0.1040172353386879
14336.0,0.12921226024627686
end
