version,3.0
numOfCh,1
type,point
parent_name,dirty_0dot1-0dot1
ch_type,1_1
kcount,1
numberNandB,1
brightnessNandB,1
carpet pos,0
pc,0
Time (ms),CH1 Auto-Correlation
1.0,0.7963697910308838
2.0,0.788680374622345
3.0,0.7811917662620544
4.0,0.7735646963119507
5.0,0.7662877440452576
6.0,0.7594360709190369
7.0,0.7529364228248596
8.0,0.746932864189148
9.0,0.7408326268196106
10.0,0.7344579696655273
11.0,0.728253185749054
12.0,0.7224084734916687
13.0,0.7166683077812195
14.0,0.7110700607299805
15.0,0.705399215221405
16.0,0.7002578377723694
18.0,0.6902080774307251
20.0,0.6811133623123169
22.0,0.6718649864196777
24.0,0.6622051000595093
26.0,0.6534954905509949
28.0,0.6449281573295593
30.0,0.6361538767814636
32.0,0.6266098022460938
36.0,0.6114497780799866
40.0,0.598709225654602
44.0,0.5874548554420471
48.0,0.5756120681762695
52.0,0.5631140470504761
56.0,0.5497817993164062
60.0,0.5361164212226868
64.0,0.5256722569465637
72.0,0.5091407299041748
80.0,0.4923240840435028
88.0,0.4730612635612488
96.0,0.456766277551651
104.0,0.44607752561569214
112.0,0.4330953061580658
120.0,0.42096760869026184
128.0,0.40928566455841064
144.0,0.3792346119880676
160.0,0.3458818793296814
176.0,0.32189854979515076
192.0,0.3062994182109833
208.0,0.289983868598938
224.0,0.2706732451915741
240.0,0.24242526292800903
256.0,0.21726346015930176
288.0,0.18177838623523712
320.0,0.15781933069229126
352.0,0.13013926148414612
384.0,0.09506718069314957
416.0,0.07673851400613785
448.0,0.06010914966464043
480.0,0.044057223945856094
512.0,0.011968376114964485
576.0,-0.00956857018172741
640.0,-0.006473970599472523
704.0,0.006672807969152927
768.0,0.03885575383901596
832.0,0.08098793774843216
896.0,0.11603892594575882
960.0,0.1725175976753235
1024.0,0.19543886184692383
1152.0,0.13668997585773468
1280.0,0.10283847898244858
1408.0,0.054211582988500595
1536.0,-0.026442212983965874
1664.0,-0.09523273259401321
1792.0,-0.09987587481737137
1920.0,-0.09044679999351501
2048.0,-0.06861484050750732
2304.0,-0.015358950942754745
2560.0,-0.034199416637420654
2816.0,-0.11832201480865479
3072.0,-0.14274099469184875
3328.0,-0.14214085042476654
3584.0,-0.09697647392749786
3840.0,-0.008510644547641277
4096.0,0.06677762418985367
4608.0,-0.027754800394177437
5120.0,-0.014007996767759323
5632.0,-0.03303086385130882
6144.0,0.04393690451979637
6656.0,0.1186499148607254
7168.0,0.06638497859239578
7680.0,0.03589927405118942
8192.0,-0.039544977247714996
9216.0,-0.1699032336473465
10240.0,-0.17095975577831268
11264.0,-0.05704914405941963
12288.0,0.002507648663595319
13312.0,0.10750940442085266
14336.0,0.17229898273944855
end
