version,3.0
numOfCh,1
type,point
parent_name,dirty_0dot1-0dot1
ch_type,1_1
kcount,1
numberNandB,1
brightnessNandB,1
carpet pos,0
pc,0
Time (ms),CH1 Auto-Correlation
1.0,0.08883706480264664
2.0,0.08757970482110977
3.0,0.08635322749614716
4.0,0.08509201556444168
5.0,0.08384669572114944
6.0,0.08264829218387604
7.0,0.08145949244499207
8.0,0.0802524983882904
9.0,0.07910070568323135
10.0,0.07794566452503204
11.0,0.07686973363161087
12.0,0.07575751096010208
13.0,0.0746271163225174
14.0,0.07350309193134308
15.0,0.07246579229831696
16.0,0.0713966116309166
18.0,0.06913869082927704
20.0,0.06703630834817886
22.0,0.06489410251379013
24.0,0.06281445920467377
26.0,0.06084815412759781
28.0,0.05919161066412926
30.0,0.057823989540338516
32.0,0.05646682158112526
36.0,0.053436893969774246
40.0,0.05056491866707802
44.0,0.0482831634581089
48.0,0.04641899839043617
52.0,0.04460831359028816
56.0,0.04282332584261894
60.0,0.041464611887931824
64.0,0.04035530984401703
72.0,0.03765228018164635
80.0,0.03485291451215744
88.0,0.031248867511749268
96.0,0.02672768011689186
104.0,0.022831015288829803
112.0,0.019402170553803444
120.0,0.01678052730858326
128.0,0.014186619780957699
144.0,0.010908237658441067
160.0,0.009787973947823048
176.0,0.009340699762105942
192.0,0.00984624121338129
208.0,0.010587862692773342
224.0,0.010504047386348248
240.0,0.008856227621436119
256.0,0.007811699062585831
288.0,0.006097300443798304
320.0,0.0027542083989828825
352.0,0.0014980398118495941
384.0,0.001782321254722774
416.0,-5.739069092669524e-05
448.0,-0.003132891608402133
480.0,-0.004039290361106396
512.0,-0.005149148404598236
576.0,-0.004164271987974644
640.0,-0.003878714982420206
704.0,-0.00200370280072093
768.0,0.0005247716908343136
832.0,-0.002587113529443741
896.0,-0.005953124724328518
960.0,-0.004037726204842329
1024.0,0.0012037457199767232
1152.0,0.006833171006292105
1280.0,0.0015575026627629995
1408.0,0.0008484715363010764
1536.0,-0.004923358093947172
1664.0,-0.014049318619072437
1792.0,-0.01659661903977394
1920.0,-0.014031938277184963
2048.0,-0.008872372098267078
2304.0,-0.003395931562408805
2560.0,-0.004048321396112442
2816.0,-0.0026645190082490444
3072.0,-0.0040899463929235935
3328.0,0.0013181890826672316
3584.0,0.006437048316001892
3840.0,0.003987313713878393
4096.0,0.0017761711496859789
4608.0,0.005684482399374247
5120.0,0.0069994088262319565
5632.0,-0.010444660671055317
6144.0,-0.007514200638979673
6656.0,-0.005156491883099079
7168.0,0.001054249587468803
7680.0,0.009785923175513744
8192.0,0.003700938308611512
9216.0,-0.006774720270186663
10240.0,-0.006119006313383579
11264.0,0.001002828823402524
12288.0,0.01098127942532301
13312.0,-0.003149663098156452
14336.0,-0.013260475359857082
end
