version,3.0
numOfCh,1
type,point
parent_name,dirty_0dot1-0dot1
ch_type,1_1
kcount,1
numberNandB,1
brightnessNandB,1
carpet pos,0
pc,0
Time (ms),CH1 Auto-Correlation
1.0,0.09390745311975479
2.0,0.091743603348732
3.0,0.08940654247999191
4.0,0.08721420168876648
5.0,0.08512534201145172
6.0,0.08330792188644409
7.0,0.08169034123420715
8.0,0.08006972819566727
9.0,0.0781644955277443
10.0,0.0765031948685646
11.0,0.07499475032091141
12.0,0.07375796139240265
13.0,0.07265906035900116
14.0,0.07119489461183548
15.0,0.07020342350006104
16.0,0.06893301755189896
18.0,0.06728433072566986
20.0,0.0659928172826767
22.0,0.06484835594892502
24.0,0.06327932327985764
26.0,0.06172872707247734
28.0,0.060342852026224136
30.0,0.05856914073228836
32.0,0.05626474320888519
36.0,0.05127708986401558
40.0,0.04663330689072609
44.0,0.0423431396484375
48.0,0.03884417191147804
52.0,0.036385972052812576
56.0,0.03422534465789795
60.0,0.03150317817926407
64.0,0.029705017805099487
72.0,0.027425473555922508
80.0,0.024356160312891006
88.0,0.02295644022524357
96.0,0.0212539229542017
104.0,0.01979241706430912
112.0,0.01851467601954937
120.0,0.01773960515856743
128.0,0.015351606532931328
144.0,0.012879496440291405
160.0,0.010771116241812706
176.0,0.009830140508711338
192.0,0.008507286198437214
208.0,0.0077794198878109455
224.0,0.007327590137720108
240.0,0.006965393200516701
256.0,0.0062407501973211765
288.0,0.005486208014190197
320.0,0.0045262956991791725
352.0,0.0021458719857037067
384.0,0.0017839926294982433
416.0,0.0038611372001469135
448.0,0.0056863692589104176
480.0,0.005450751166790724
512.0,0.005805524531751871
576.0,0.00630970299243927
640.0,0.006767145823687315
704.0,0.004259688314050436
768.0,0.003855669405311346
832.0,0.005464605521410704
896.0,0.004755069501698017
960.0,0.000835131504572928
1024.0,0.00037042220355942845
1152.0,0.001329493708908558
1280.0,0.00010857488086912781
1408.0,-0.0007189338211901486
1536.0,-0.004215439781546593
1664.0,-0.0060891625471413136
1792.0,-0.005646758247166872
1920.0,-0.003698852611705661
2048.0,-0.0008396757184527814
2304.0,0.008107545785605907
2560.0,0.005524567328393459
2816.0,0.002454565605148673
3072.0,0.0035949854645878077
3328.0,0.005464374087750912
3584.0,0.005958983674645424
3840.0,-0.0017085331492125988
4096.0,-0.003047577803954482
4608.0,-0.004839051049202681
5120.0,-0.0077883098274469376
5632.0,-0.0036889680195599794
6144.0,-0.0025022318586707115
6656.0,-0.00875145848840475
7168.0,-0.008164682425558567
7680.0,-0.006576302461326122
8192.0,0.0005971204373054206
9216.0,-0.0054841372184455395
10240.0,-0.004990335553884506
11264.0,0.007687796372920275
12288.0,0.0007354893023148179
13312.0,-0.0007943944656290114
14336.0,0.01722641848027706
end
