version,3.0
numOfCh,1
type,point
parent_name,dirty_0dot1-0dot1
ch_type,1_1
kcount,1
numberNandB,1
brightnessNandB,1
carpet pos,0
pc,0
Time (ms),CH1 Auto-Correlation
1.0,0.054350823163986206
2.0,0.05370134115219116
3.0,0.053062889724969864
4.0,0.05244818702340126
5.0,0.051848605275154114
6.0,0.05123214051127434
7.0,0.05064437910914421
8.0,0.05009487643837929
9.0,0.04956692457199097
10.0,0.04907597228884697
11.0,0.048548921942710876
12.0,0.04806584119796753
13.0,0.04761920124292374
14.0,0.047177474945783615
15.0,0.04671703279018402
16.0,0.046224821358919144
18.0,0.04529004544019699
20.0,0.044335607439279556
22.0,0.04341195523738861
24.0,0.04254697635769844
26.0,0.04166710376739502
28.0,0.04081747680902481
30.0,0.03992554172873497
32.0,0.03907741606235504
36.0,0.03738812357187271
40.0,0.03585924208164215
44.0,0.034462325274944305
48.0,0.03310716524720192
52.0,0.031819213181734085
56.0,0.030629878863692284
60.0,0.029601074755191803
64.0,0.028721541166305542
72.0,0.027081625536084175
80.0,0.025772958993911743
88.0,0.024790199473500252
96.0,0.023979593068361282
104.0,0.023349951952695847
112.0,0.022639285773038864
120.0,0.021789629012346268
128.0,0.02089674398303032
144.0,0.018616896122694016
160.0,0.016848813742399216
176.0,0.015725301578640938
192.0,0.01504524052143097
208.0,0.014691207557916641
224.0,0.014089987613260746
240.0,0.013163406401872635
256.0,0.012227069586515427
288.0,0.0108293816447258
320.0,0.0091395303606987
352.0,0.006887948140501976
384.0,0.00506880646571517
416.0,0.002941544633358717
448.0,0.000246737792622298
480.0,-0.001293107052333653
512.0,-0.0004083679523319006
576.0,0.0017066738801077008
640.0,0.003163798712193966
704.0,0.0032256473787128925
768.0,0.0028150631114840508
832.0,0.003239196026697755
896.0,0.006678403355181217
960.0,0.009128639474511147
1024.0,0.007873219437897205
1152.0,0.003208503592759371
1280.0,0.0017614769749343395
1408.0,-0.001631800434552133
1536.0,-0.0017735661240294576
1664.0,0.0027817892841994762
1792.0,0.0013830014504492283
1920.0,-0.00020905124256387353
2048.0,-0.004913671407848597
2304.0,-0.003590976120904088
2560.0,0.0008876712527126074
2816.0,0.0006039675208739936
3072.0,-0.005169067066162825
3328.0,-0.00018721469677984715
3584.0,0.00012295863416511565
3840.0,-0.002366387052461505
4096.0,-0.002656544791534543
4608.0,-0.0032704065088182688
5120.0,-0.004745107144117355
5632.0,-0.0020045717246830463
6144.0,-0.0017507990123704076
6656.0,-0.0027875055093318224
7168.0,-0.010746346786618233
7680.0,-0.003048308426514268
8192.0,0.0006908823270350695
9216.0,0.0026691316161304712
10240.0,0.0019724892918020487
11264.0,0.007330550812184811
12288.0,-0.002545017981901765
13312.0,-0.01328252162784338
14336.0,0.008775020018219948
end
