version,3.0
numOfCh,1
type,point
parent_name,dirty_0dot1-0dot1
ch_type,1_1
kcount,1
numberNandB,1
brightnessNandB,1
carpet pos,0
pc,0
Time (ms),CH1 Auto-Correlation
1.0,1.0768954753875732
2.0,1.0678726434707642
3.0,1.0586607456207275
4.0,1.050091028213501
5.0,1.04159677028656
6.0,1.0338127613067627
7.0,1.0260639190673828
8.0,1.01838219165802
9.0,1.0114375352859497
10.0,1.00478994846344
11.0,0.9981428384780884
12.0,0.9918270111083984
13.0,0.9864899516105652
14.0,0.9825106859207153
15.0,0.9783447980880737
16.0,0.9736343026161194
18.0,0.9642153978347778
20.0,0.9541980624198914
22.0,0.9438685774803162
24.0,0.9322075843811035
26.0,0.9189234972000122
28.0,0.904309868812561
30.0,0.88994961977005
32.0,0.8769399523735046
36.0,0.8541184067726135
40.0,0.8331927061080933
44.0,0.8080736994743347
48.0,0.7832184433937073
52.0,0.7601280212402344
56.0,0.7389641404151917
60.0,0.719139039516449
64.0,0.7001857757568359
72.0,0.6554174423217773
80.0,0.6069230437278748
88.0,0.5624362230300903
96.0,0.5163267850875854
104.0,0.47320008277893066
112.0,0.43920329213142395
120.0,0.40177372097969055
128.0,0.3671753406524658
144.0,0.313268780708313
160.0,0.2714378237724304
176.0,0.2423328161239624
192.0,0.21089798212051392
208.0,0.18000169098377228
224.0,0.14250405132770538
240.0,0.11430323868989944
256.0,0.08183605223894119
288.0,0.021754227578639984
320.0,-0.005473880097270012
352.0,-0.014309259131550789
384.0,-0.009288128465414047
416.0,-0.008721266873180866
448.0,-0.016610532999038696
480.0,-0.0266411229968071
512.0,-0.029094049707055092
576.0,-0.018054964020848274
640.0,-0.009519075974822044
704.0,0.006470250431448221
768.0,0.03547000139951706
832.0,0.07747851312160492
896.0,0.06752629578113556
960.0,0.009147063829004765
1024.0,-0.005953221581876278
1152.0,0.05206342041492462
1280.0,0.08689869940280914
1408.0,0.07475700974464417
1536.0,0.03983931243419647
1664.0,0.012222847901284695
1792.0,-0.035737473517656326
1920.0,-0.03577496111392975
2048.0,0.02003728784620762
2304.0,0.07612346112728119
2560.0,0.012673188000917435
2816.0,-0.037454575300216675
3072.0,-0.06065735965967178
3328.0,-0.06357663869857788
3584.0,0.20925793051719666
3840.0,0.02929084189236164
4096.0,-0.0373949259519577
4608.0,-0.052431151270866394
5120.0,0.040359728038311005
5632.0,-0.08928623795509338
6144.0,-0.02686002105474472
6656.0,0.015929272398352623
7168.0,0.003784419037401676
7680.0,0.14085865020751953
8192.0,-0.009479887783527374
9216.0,-0.04174480587244034
10240.0,-0.13190457224845886
11264.0,-0.09927202016115189
12288.0,-0.13740241527557373
13312.0,-0.1715148538351059
14336.0,-0.12005504965782166
end
