version,3.0
numOfCh,1
type,point
parent_name,dirty_0dot1-0dot1
ch_type,1_1
kcount,1
numberNandB,1
brightnessNandB,1
carpet pos,0
pc,0
Time (ms),CH1 Auto-Correlation
1.0,0.8289211988449097
2.0,0.8212212324142456
3.0,0.8136435747146606
4.0,0.8062015771865845
5.0,0.7987179160118103
6.0,0.7916384339332581
7.0,0.7851595282554626
8.0,0.7787483334541321
9.0,0.7725975513458252
10.0,0.7665892243385315
11.0,0.7610111236572266
12.0,0.755544900894165
13.0,0.7501954436302185
14.0,0.7449919581413269
15.0,0.7398325204849243
16.0,0.7342071533203125
18.0,0.7235590815544128
20.0,0.7125932574272156
22.0,0.7012629508972168
24.0,0.690395712852478
26.0,0.6800686120986938
28.0,0.6702954769134521
30.0,0.6609851121902466
32.0,0.6516075730323792
36.0,0.6327108144760132
40.0,0.6145970225334167
44.0,0.596479594707489
48.0,0.5772585868835449
52.0,0.5578634142875671
56.0,0.5392587780952454
60.0,0.5223557949066162
64.0,0.5057922601699829
72.0,0.4710835814476013
80.0,0.4399062395095825
88.0,0.41130074858665466
96.0,0.3839939534664154
104.0,0.3567120134830475
112.0,0.3276347517967224
120.0,0.30297282338142395
128.0,0.280950665473938
144.0,0.24314530193805695
160.0,0.19963204860687256
176.0,0.15638835728168488
192.0,0.12507212162017822
208.0,0.1063331738114357
224.0,0.0984947681427002
240.0,0.10193774104118347
256.0,0.10118306428194046
288.0,0.09620979428291321
320.0,0.07992125302553177
352.0,0.0686105489730835
384.0,0.04977351054549217
416.0,0.03293648734688759
448.0,0.03285488858819008
480.0,0.02337554842233658
512.0,-0.005428576376289129
576.0,-0.07399526238441467
640.0,-0.1163816973567009
704.0,-0.12515610456466675
768.0,-0.09681857377290726
832.0,-0.07562044262886047
896.0,-0.04447563737630844
960.0,-0.023817768320441246
1024.0,-0.03556763380765915
1152.0,-0.04235459491610527
1280.0,0.008169084787368774
1408.0,-0.008260653354227543
1536.0,-0.04170594364404678
1664.0,0.01872040517628193
1792.0,0.08013548702001572
1920.0,0.02294098027050495
2048.0,-0.03507668524980545
2304.0,0.02099170908331871
2560.0,-0.05585651472210884
2816.0,-0.08065536618232727
3072.0,0.0009582260390743613
3328.0,0.006163021083921194
3584.0,-0.019085638225078583
3840.0,-0.1272464394569397
4096.0,-0.1052243560552597
4608.0,-0.033220075070858
5120.0,0.08245198428630829
5632.0,-0.02660510316491127
6144.0,-0.07185299694538116
6656.0,0.06958920508623123
7168.0,0.09134324640035629
7680.0,-0.06617683172225952
8192.0,-0.08271855115890503
9216.0,-0.013473857194185257
10240.0,0.027072563767433167
11264.0,0.010981782339513302
12288.0,0.029791248962283134
13312.0,0.006718005519360304
14336.0,-0.03570176661014557
end
