version,3.0
numOfCh,1
type,point
parent_name,dirty_0dot1-0dot1
ch_type,1_1
kcount,1
numberNandB,1
brightnessNandB,1
carpet pos,0
pc,0
Time (ms),CH1 Auto-Correlation
1.0,0.7422628402709961
2.0,0.7336308360099792
3.0,0.725480318069458
4.0,0.7176609635353088
5.0,0.7107784748077393
6.0,0.702968418598175
7.0,0.6955986022949219
8.0,0.6888912916183472
9.0,0.6814955472946167
10.0,0.6746366024017334
11.0,0.6681854724884033
12.0,0.6615251302719116
13.0,0.654701828956604
14.0,0.6474921703338623
15.0,0.6410676836967468
16.0,0.6350566148757935
18.0,0.6223964095115662
20.0,0.608473002910614
22.0,0.5959475636482239
24.0,0.5848868489265442
26.0,0.5746012330055237
28.0,0.5650338530540466
30.0,0.5556493997573853
32.0,0.5457755327224731
36.0,0.5274195671081543
40.0,0.5094950199127197
44.0,0.49152061343193054
48.0,0.4744466245174408
52.0,0.4546433985233307
56.0,0.43402037024497986
60.0,0.4171532690525055
64.0,0.40638822317123413
72.0,0.3905814290046692
80.0,0.3800523579120636
88.0,0.370562881231308
96.0,0.3616584539413452
104.0,0.35231804847717285
112.0,0.33738142251968384
120.0,0.3236585259437561
128.0,0.30987346172332764
144.0,0.2852991819381714
160.0,0.25669345259666443
176.0,0.23488980531692505
192.0,0.21958693861961365
208.0,0.20884950459003448
224.0,0.20005027949810028
240.0,0.19194097816944122
256.0,0.1816873550415039
288.0,0.17415012419223785
320.0,0.15924829244613647
352.0,0.1741362065076828
384.0,0.1898047775030136
416.0,0.212345689535141
448.0,0.2296047806739807
480.0,0.21633414924144745
512.0,0.21658283472061157
576.0,0.16318632662296295
640.0,0.11865345388650894
704.0,0.1312512755393982
768.0,0.10808683931827545
832.0,0.12261149287223816
896.0,0.04981892183423042
960.0,0.0187341570854187
1024.0,-0.010234146378934383
1152.0,-0.02489211969077587
1280.0,-0.00012395023077260703
1408.0,-0.024472080171108246
1536.0,-0.02531564235687256
1664.0,0.004495097789913416
1792.0,0.03907177224755287
1920.0,0.014201142825186253
2048.0,0.031319305300712585
2304.0,0.13194720447063446
2560.0,0.04686599597334862
2816.0,0.05085059627890587
3072.0,0.061469655483961105
3328.0,-0.026747172698378563
3584.0,-0.004295605234801769
3840.0,-0.04841812327504158
4096.0,-0.06959379464387894
4608.0,-0.07881063967943192
5120.0,-0.08513586223125458
5632.0,-0.03758654743432999
6144.0,-0.010605615563690662
6656.0,-0.03230161592364311
7168.0,-0.04648379608988762
7680.0,-0.06608574092388153
8192.0,-0.07118447870016098
9216.0,-0.07687942683696747
10240.0,-0.129313126206398
11264.0,-0.018738938495516777
12288.0,-0.015376189723610878
13312.0,0.007048382889479399
14336.0,0.084352508187294
end
