version,3.0
numOfCh,1
type,point
parent_name,dirty_0dot1-0dot1
ch_type,1_1
kcount,1
numberNandB,1
brightnessNandB,1
carpet pos,0
pc,0
Time (ms),CH1 Auto-Correlation
1.0,0.9246195554733276
2.0,0.9143980741500854
3.0,0.9048336744308472
4.0,0.8955661654472351
5.0,0.8871429562568665
6.0,0.8795388340950012
7.0,0.8719542622566223
8.0,0.8641958236694336
9.0,0.8570985794067383
10.0,0.8495802283287048
11.0,0.8425939083099365
12.0,0.8356000781059265
13.0,0.8277434706687927
14.0,0.8203230500221252
15.0,0.8135915398597717
16.0,0.8076469898223877
18.0,0.7957879900932312
20.0,0.7836374044418335
22.0,0.7719497680664062
24.0,0.7609518766403198
26.0,0.750899612903595
28.0,0.7399128079414368
30.0,0.7284722328186035
32.0,0.7177248597145081
36.0,0.6952826976776123
40.0,0.6718980073928833
44.0,0.6468098163604736
48.0,0.6233449578285217
52.0,0.5971808433532715
56.0,0.5723000764846802
60.0,0.5516064763069153
64.0,0.5310327410697937
72.0,0.4920043647289276
80.0,0.45938366651535034
88.0,0.4286555349826813
96.0,0.3974141776561737
104.0,0.3684546947479248
112.0,0.3461984097957611
120.0,0.32257747650146484
128.0,0.29678288102149963
144.0,0.2518097460269928
160.0,0.21484071016311646
176.0,0.173567995429039
192.0,0.13154563307762146
208.0,0.10113082826137543
224.0,0.08655274659395218
240.0,0.07094363123178482
256.0,0.05397256463766098
288.0,0.026194166392087936
320.0,-0.0017111521447077394
352.0,-0.012512956745922565
384.0,-0.0202194731682539
416.0,-0.01853197067975998
448.0,0.0028110011480748653
480.0,0.026674209162592888
512.0,0.04015977308154106
576.0,0.02595388889312744
640.0,0.06434867531061172
704.0,0.11780723929405212
768.0,0.18858523666858673
832.0,0.1631138026714325
896.0,0.05962345004081726
960.0,0.0010900760535150766
1024.0,0.005672014784067869
1152.0,0.06526018679141998
1280.0,0.0478791669011116
1408.0,-0.029634494334459305
1536.0,-0.023636750876903534
1664.0,0.02105407789349556
1792.0,-0.017779020592570305
1920.0,0.033755868673324585
2048.0,0.054237764328718185
2304.0,0.016130894422531128
2560.0,-0.07428491860628128
2816.0,0.009174437262117863
3072.0,0.03532492369413376
3328.0,-0.019416548311710358
3584.0,0.03997473791241646
3840.0,0.05166790634393692
4096.0,0.06459904462099075
4608.0,-0.01486812625080347
5120.0,-0.03391261026263237
5632.0,-0.015701504424214363
6144.0,0.03379369527101517
6656.0,0.09916110336780548
7168.0,0.0020891549065709114
7680.0,-0.01367872767150402
8192.0,0.039282381534576416
9216.0,-0.08776645362377167
10240.0,-0.08887886255979538
11264.0,-0.08387526124715805
12288.0,-0.10479909181594849
13312.0,-0.18490999937057495
14336.0,-0.1971558928489685
end
