version,3.0
numOfCh,1
type,point
parent_name,dirty_0dot1-0dot1
ch_type,1_1
kcount,1
numberNandB,1
brightnessNandB,1
carpet pos,0
pc,0
Time (ms),CH1 Auto-Correlation
1.0,1.2778345346450806
2.0,1.2690622806549072
3.0,1.260390281677246
4.0,1.2513927221298218
5.0,1.2429360151290894
6.0,1.2354909181594849
7.0,1.228753924369812
8.0,1.2217285633087158
9.0,1.21538245677948
10.0,1.2087483406066895
11.0,1.2018730640411377
12.0,1.1949141025543213
13.0,1.1880120038986206
14.0,1.181812047958374
15.0,1.1749765872955322
16.0,1.16827392578125
18.0,1.1549659967422485
20.0,1.1420427560806274
22.0,1.1321444511413574
24.0,1.124453067779541
26.0,1.116824984550476
28.0,1.1094231605529785
30.0,1.1013107299804688
32.0,1.0949066877365112
36.0,1.0834928750991821
40.0,1.0710935592651367
44.0,1.0589394569396973
48.0,1.046176791191101
52.0,1.036695957183838
56.0,1.0254241228103638
60.0,1.0124149322509766
64.0,0.998064398765564
72.0,0.9704500436782837
80.0,0.9430772662162781
88.0,0.9132573008537292
96.0,0.8814060091972351
104.0,0.8453102111816406
112.0,0.8118206858634949
120.0,0.776273250579834
128.0,0.7400909662246704
144.0,0.6630059480667114
160.0,0.5924301147460938
176.0,0.5173512101173401
192.0,0.4471474289894104
208.0,0.3860947787761688
224.0,0.3341837227344513
240.0,0.27287015318870544
256.0,0.21318012475967407
288.0,0.1404976099729538
320.0,0.08513905107975006
352.0,0.03990664705634117
384.0,0.006744701415300369
416.0,-0.016179533675312996
448.0,-0.03930429741740227
480.0,-0.04828501120209694
512.0,-0.06307709217071533
576.0,-0.07727925479412079
640.0,-0.07936438173055649
704.0,-0.07776853442192078
768.0,-0.07204308360815048
832.0,-0.06822972744703293
896.0,-0.0778416320681572
960.0,-0.08697374910116196
1024.0,-0.10058213770389557
1152.0,-0.1132006049156189
1280.0,-0.10021737962961197
1408.0,-0.06756429374217987
1536.0,-0.055471356958150864
1664.0,-0.08152195811271667
1792.0,-0.080963134765625
1920.0,-0.024001210927963257
2048.0,0.06313617527484894
2304.0,0.28841766715049744
2560.0,-0.042502813041210175
2816.0,-0.04817169904708862
3072.0,-0.05331972986459732
3328.0,-0.03969404101371765
3584.0,-0.05348939448595047
3840.0,-0.0680580735206604
4096.0,-0.09019602835178375
4608.0,-0.08394775539636612
5120.0,-0.05641874670982361
5632.0,-0.04570858180522919
6144.0,-0.04612252116203308
6656.0,-0.006077163387089968
7168.0,-0.11884558200836182
7680.0,-0.07662653177976608
8192.0,-0.08021453768014908
9216.0,0.1746448129415512
10240.0,-0.01726515218615532
11264.0,0.14965853095054626
12288.0,-0.011762082576751709
13312.0,0.05213293805718422
14336.0,-0.02441919781267643
end
