version,3.0
numOfCh,1
type,point
parent_name,dirty_0dot1-0dot1
ch_type,1_1
kcount,1
numberNandB,1
brightnessNandB,1
carpet pos,0
pc,0
Time (ms),CH1 Auto-Correlation
1.0,0.7564992904663086
2.0,0.7481772899627686
3.0,0.7396777868270874
4.0,0.731512188911438
5.0,0.7233853936195374
6.0,0.7149725556373596
7.0,0.7070398926734924
8.0,0.6996146440505981
9.0,0.6926265954971313
10.0,0.6857596635818481
11.0,0.6800287365913391
12.0,0.6748735904693604
13.0,0.6697682738304138
14.0,0.66497802734375
15.0,0.6603187918663025
16.0,0.6561694741249084
18.0,0.646553635597229
20.0,0.6361285448074341
22.0,0.6257013082504272
24.0,0.6144956946372986
26.0,0.6033490300178528
28.0,0.5924003720283508
30.0,0.5812481045722961
32.0,0.5704835653305054
36.0,0.5510887503623962
40.0,0.5350260138511658
44.0,0.5216679573059082
48.0,0.5090426802635193
52.0,0.49655258655548096
56.0,0.4881491959095001
60.0,0.48364630341529846
64.0,0.4794059693813324
72.0,0.47226637601852417
80.0,0.4667322039604187
88.0,0.45554760098457336
96.0,0.4445253312587738
104.0,0.4376891255378723
112.0,0.4218039810657501
120.0,0.40734633803367615
128.0,0.3905004560947418
144.0,0.36408329010009766
160.0,0.3329731523990631
176.0,0.29561471939086914
192.0,0.2686383128166199
208.0,0.2473619431257248
224.0,0.22737178206443787
240.0,0.21204181015491486
256.0,0.19716182351112366
288.0,0.15618285536766052
320.0,0.11816057562828064
352.0,0.09556843340396881
384.0,0.0733163133263588
416.0,0.05448027327656746
448.0,0.046635404229164124
480.0,0.03458111733198166
512.0,0.019909169524908066
576.0,0.022353939712047577
640.0,0.05145856365561485
704.0,0.0940568819642067
768.0,0.138784721493721
832.0,0.16725774109363556
896.0,0.1991978883743286
960.0,0.21125739812850952
1024.0,0.20515966415405273
1152.0,0.17629235982894897
1280.0,0.09153572469949722
1408.0,0.0052520171739161015
1536.0,-0.010422305203974247
1664.0,-0.022371690720319748
1792.0,-0.04281660169363022
1920.0,0.0007690650527365506
2048.0,0.009916205890476704
2304.0,-0.05735277011990547
2560.0,-0.09775625169277191
2816.0,-0.10463443398475647
3072.0,-0.08498910814523697
3328.0,-0.1437419205904007
3584.0,-0.13900193572044373
3840.0,-0.12324591726064682
4096.0,-0.1575254499912262
4608.0,-0.1312006264925003
5120.0,-0.12921534478664398
5632.0,-0.025785626843571663
6144.0,-0.046781860291957855
6656.0,0.14252494275569916
7168.0,0.030218860134482384
7680.0,0.15280014276504517
8192.0,0.01614261418581009
9216.0,0.01734016090631485
10240.0,-0.010994061827659607
11264.0,-0.04415003955364227
12288.0,0.01904626190662384
13312.0,0.013127501122653484
14336.0,0.015863077715039253
end
