version,3.0
numOfCh,1
type,point
parent_name,dirty_0dot1-0dot1
ch_type,1_1
kcount,1
numberNandB,1
brightnessNandB,1
carpet pos,0
pc,0
Time (ms),CH1 Auto-Correlation
1.0,0.9143492579460144
2.0,0.9052658081054688
3.0,0.896528959274292
4.0,0.8885224461555481
5.0,0.880457878112793
6.0,0.8727990388870239
7.0,0.8653604388237
8.0,0.8588917851448059
9.0,0.85235995054245
10.0,0.8458841443061829
11.0,0.8391164541244507
12.0,0.8324555158615112
13.0,0.8258548378944397
14.0,0.8192400932312012
15.0,0.8127967715263367
16.0,0.8062817454338074
18.0,0.7932748198509216
20.0,0.781269371509552
22.0,0.7704576849937439
24.0,0.7608718276023865
26.0,0.7513763904571533
28.0,0.7411370873451233
30.0,0.7309352159500122
32.0,0.7211775183677673
36.0,0.703965961933136
40.0,0.6884433627128601
44.0,0.6743730306625366
48.0,0.6594023704528809
52.0,0.6434322595596313
56.0,0.628873884677887
60.0,0.6148965954780579
64.0,0.6003108620643616
72.0,0.5783922076225281
80.0,0.5606761574745178
88.0,0.5415710806846619
96.0,0.5248627066612244
104.0,0.5103275775909424
112.0,0.49512866139411926
120.0,0.4796662926673889
128.0,0.4632178246974945
144.0,0.4191538989543915
160.0,0.37768128514289856
176.0,0.34976571798324585
192.0,0.31769177317619324
208.0,0.2843857407569885
224.0,0.2451888918876648
240.0,0.21204873919487
256.0,0.19136686623096466
288.0,0.13219691812992096
320.0,0.07656489312648773
352.0,0.04551103711128235
384.0,0.02602037601172924
416.0,0.022399602457880974
448.0,0.03156410902738571
480.0,0.04552396014332771
512.0,0.055727310478687286
576.0,0.10425209254026413
640.0,0.12282279133796692
704.0,0.10289041697978973
768.0,0.10525360703468323
832.0,0.09149575978517532
896.0,0.06518034636974335
960.0,0.04286464303731918
1024.0,0.015591122210025787
1152.0,-0.027112986892461777
1280.0,-0.08683978021144867
1408.0,-0.11922759562730789
1536.0,-0.11857489496469498
1664.0,-0.09773749858140945
1792.0,-0.028628375381231308
1920.0,-0.01567024365067482
2048.0,-0.05369606986641884
2304.0,-0.15141159296035767
2560.0,-0.14165659248828888
2816.0,-0.04717694967985153
3072.0,-0.07550933212041855
3328.0,-0.059820450842380524
3584.0,0.0023453794419765472
3840.0,0.05531064420938492
4096.0,0.022662876173853874
4608.0,-0.023135213181376457
5120.0,-0.006203033495694399
5632.0,-0.0905902311205864
6144.0,-0.0785626769065857
6656.0,-0.07870609313249588
7168.0,0.04929332807660103
7680.0,0.3163307309150696
8192.0,0.12473713606595993
9216.0,-0.03758704662322998
10240.0,-0.15970222651958466
11264.0,-0.12942209839820862
12288.0,0.008214730769395828
13312.0,0.18656480312347412
14336.0,-0.4018440246582031
end
