version,3.0
numOfCh,1
type,point
parent_name,dirty_0dot1-0dot1
ch_type,1_1
kcount,1
numberNandB,1
brightnessNandB,1
carpet pos,0
pc,0
Time (ms),CH1 Auto-Correlation
1.0,0.3752728998661041
2.0,0.3719962239265442
3.0,0.36863473057746887
4.0,0.3653971552848816
5.0,0.3626216650009155
6.0,0.35962897539138794
7.0,0.35669296979904175
8.0,0.3537852466106415
9.0,0.3502127528190613
10.0,0.3470436930656433
11.0,0.3440781533718109
12.0,0.3409428298473358
13.0,0.33868592977523804
14.0,0.33643901348114014
15.0,0.3340083956718445
16.0,0.33160239458084106
18.0,0.32617586851119995
20.0,0.32104378938674927
22.0,0.3168328106403351
24.0,0.3121591806411743
26.0,0.3062361478805542
28.0,0.30108216404914856
30.0,0.29610928893089294
32.0,0.2908037006855011
36.0,0.27984148263931274
40.0,0.26945939660072327
44.0,0.2596599757671356
48.0,0.24991731345653534
52.0,0.2402518093585968
56.0,0.23094916343688965
60.0,0.222935751080513
64.0,0.21534353494644165
72.0,0.201475128531456
80.0,0.18800202012062073
88.0,0.17970089614391327
96.0,0.17823545634746552
104.0,0.17921964824199677
112.0,0.18313762545585632
120.0,0.18588224053382874
128.0,0.18814900517463684
144.0,0.18509693443775177
160.0,0.17909684777259827
176.0,0.16554903984069824
192.0,0.1496497243642807
208.0,0.13339218497276306
224.0,0.11398766189813614
240.0,0.09996754676103592
256.0,0.0873333141207695
288.0,0.07009322196245193
320.0,0.057070959359407425
352.0,0.03939007222652435
384.0,0.029606487601995468
416.0,0.024439796805381775
448.0,0.02422015182673931
480.0,0.020444603636860847
512.0,0.013538348488509655
576.0,0.00827022548764944
640.0,0.013220435939729214
704.0,0.016633424907922745
768.0,0.018415406346321106
832.0,0.020677000284194946
896.0,0.02987358346581459
960.0,0.034094929695129395
1024.0,0.03768173232674599
1152.0,0.026721922680735588
1280.0,0.015496359206736088
1408.0,0.009549788199365139
1536.0,0.0021337810903787613
1664.0,0.0055867875926196575
1792.0,0.003024264005944133
1920.0,0.0035332324914634228
2048.0,0.010957603342831135
2304.0,0.09312134981155396
2560.0,0.10025414079427719
2816.0,0.028130875900387764
3072.0,-0.0036482783034443855
3328.0,0.0017255708808079362
3584.0,-0.005405349191278219
3840.0,-0.03136472404003143
4096.0,-0.027664106339216232
4608.0,-0.009820410050451756
5120.0,-0.007409648038446903
5632.0,-0.007350994739681482
6144.0,-0.018247755244374275
6656.0,-0.028886079788208008
7168.0,-0.03137260675430298
7680.0,-0.018299492076039314
8192.0,-0.012797798030078411
9216.0,-0.045438963919878006
10240.0,-0.053085047751665115
11264.0,-0.042243145406246185
12288.0,-0.03233449533581734
13312.0,-0.03802134096622467
14336.0,0.004573664627969265
end
