version,3.0
numOfCh,1
type,point
parent_name,484af_1dot0-1dot0
ch_type,1_1
kcount,1
numberNandB,1
brightnessNandB,1
carpet pos,0
pc,0
Time (ms),CH1 Auto-Correlation
1.0,0.026384541764855385
2.0,0.02427072264254093
3.0,0.022474387660622597
4.0,0.0208706334233284
5.0,0.019404251128435135
6.0,0.018160583451390266
7.0,0.017064934596419334
8.0,0.016110150143504143
9.0,0.015259813517332077
10.0,0.014465659856796265
11.0,0.013707381673157215
12.0,0.013061904348433018
13.0,0.012469676323235035
14.0,0.01191194448620081
15.0,0.011367052793502808
16.0,0.010906205512583256
18.0,0.010067327879369259
20.0,0.00931856781244278
22.0,0.008726086467504501
24.0,0.00822371244430542
26.0,0.007722976617515087
28.0,0.007172423414885998
30.0,0.006757520139217377
32.0,0.006480593234300613
36.0,0.005849537905305624
40.0,0.005454780999571085
44.0,0.005113428924232721
48.0,0.004650107119232416
52.0,0.004081558436155319
56.0,0.003652831306681037
60.0,0.0031204973347485065
64.0,0.0028000110760331154
72.0,0.002149389823898673
80.0,0.0013300114078447223
88.0,0.0012399264378473163
96.0,0.0018147622467949986
104.0,0.002117473166435957
112.0,0.0017543009016662836
120.0,0.0012733814073726535
128.0,0.0007858347380533814
144.0,0.0007682364084757864
160.0,0.0008083674474619329
176.0,0.0009543895721435547
192.0,0.001372108468785882
208.0,0.000984483864158392
224.0,0.0006186238606460392
240.0,0.001328549231402576
256.0,0.001132302451878786
288.0,-0.00016953167505562305
320.0,-0.00010792801185743883
352.0,0.00029011882725171745
384.0,0.0010256964014843106
416.0,0.0008004552219063044
448.0,0.000529358338098973
480.0,0.0002208975056419149
512.0,4.9320104153594e-05
576.0,0.0007119950605556369
640.0,-1.0995811862812843e-05
704.0,0.00031112454598769546
768.0,0.0012281435774639249
832.0,0.0022587901912629604
896.0,0.0012614919105544686
960.0,0.0006748277228325605
1024.0,0.0005173280951566994
1152.0,-0.0007634900975972414
1280.0,-9.107627556659281e-05
1408.0,0.0004219856928102672
1536.0,0.0013865542132407427
1664.0,0.002679711440578103
1792.0,0.001416195766068995
1920.0,-6.137185118859634e-05
2048.0,0.0005468472954817116
2304.0,0.0002884218411054462
2560.0,0.00041218186379410326
2816.0,-0.0001731886004563421
3072.0,0.0007716755499131978
3328.0,0.0001589062885614112
3584.0,-0.00024276913609355688
3840.0,-5.919209070270881e-05
4096.0,-0.0010876713786274195
4608.0,-0.0002975401876028627
5120.0,-0.0005736168241128325
5632.0,-0.0011824897956103086
6144.0,-0.0011231960961595178
6656.0,-0.0006397560937330127
7168.0,-0.0014343928778544068
7680.0,-0.0014938758686184883
8192.0,-0.00023269630037248135
end
