version,3.0
numOfCh,1
type,point
parent_name,484af_1dot0-1dot0
ch_type,1_1
kcount,1
numberNandB,1
brightnessNandB,1
carpet pos,0
pc,0
Time (ms),CH1 Auto-Correlation
1.0,0.027112388983368874
2.0,0.024955909699201584
3.0,0.023115411400794983
4.0,0.02157720737159252
5.0,0.02019653469324112
6.0,0.01901678927242756
7.0,0.01794092170894146
8.0,0.017006954178214073
9.0,0.016118329018354416
10.0,0.015310295857489109
11.0,0.014525211416184902
12.0,0.013818027451634407
13.0,0.013199711218476295
14.0,0.012552998960018158
15.0,0.011930268257856369
16.0,0.011353478766977787
18.0,0.010473517701029778
20.0,0.009699119254946709
22.0,0.009024393744766712
24.0,0.008479027077555656
26.0,0.007898124866187572
28.0,0.00740787060931325
30.0,0.0069073461927473545
32.0,0.006422614678740501
36.0,0.005585165228694677
40.0,0.0050032115541398525
44.0,0.004488471429795027
48.0,0.003986210562288761
52.0,0.0034402853343635798
56.0,0.002866047900170088
60.0,0.002464113524183631
64.0,0.002263745991513133
72.0,0.0020080520771443844
80.0,0.0024452751968055964
88.0,0.0028516699094325304
96.0,0.002374583389610052
104.0,0.0021928700152784586
112.0,0.002342185704037547
120.0,0.0018581397598609328
128.0,0.0014930528122931719
144.0,0.0009181524510495365
160.0,0.0004693158552981913
176.0,0.0006848076591268182
192.0,0.0005871606990695
208.0,0.00018482800805941224
224.0,-5.7066677982220426e-05
240.0,0.0005564524908550084
256.0,0.0008340672357007861
288.0,-7.835978613002226e-05
320.0,-0.0002941886486951262
352.0,0.0005095241940580308
384.0,0.0006031253142282367
416.0,0.0006890065269544721
448.0,0.0005995724932290614
480.0,0.0003673596365842968
512.0,0.0003005055768880993
576.0,0.0015776843065395951
640.0,0.0009096230496652424
704.0,-0.0006180321797728539
768.0,-0.0013370462693274021
832.0,-0.0009329239255748689
896.0,-0.0009326216531917453
960.0,-0.0006318812957033515
1024.0,0.0005199906299822032
1152.0,-0.0004489275743253529
1280.0,-0.001314314897172153
1408.0,-0.0010129451984539628
1536.0,-5.491495903697796e-05
1664.0,-0.0002767737605609
1792.0,-0.0019470697734504938
1920.0,-0.000681611942127347
2048.0,-9.315118222730234e-05
2304.0,0.00044342715409584343
2560.0,0.00013989387662149966
2816.0,0.0011543361470103264
3072.0,-0.00033872653148137033
3328.0,0.001428410760127008
3584.0,-0.0004413643036969006
3840.0,0.0011571167269721627
4096.0,-0.0005781712243333459
4608.0,-0.00083137460751459
5120.0,-0.0006026642513461411
5632.0,-0.00032727065263316035
6144.0,-8.045166759984568e-05
6656.0,0.0003992767306044698
7168.0,-0.0001029692284646444
7680.0,-0.0004802097682841122
8192.0,-0.0014518359676003456
end
