version,3.0
numOfCh,1
type,point
parent_name,484af_1dot0-1dot0
ch_type,1_1
kcount,1
numberNandB,1
brightnessNandB,1
carpet pos,0
pc,0
Time (ms),CH1 Auto-Correlation
1.0,0.028323527425527573
2.0,0.026150906458497047
3.0,0.024291198700666428
4.0,0.02272314578294754
5.0,0.02130923420190811
6.0,0.02008880488574505
7.0,0.01904032938182354
8.0,0.018100222572684288
9.0,0.017279822379350662
10.0,0.01649954728782177
11.0,0.01584775745868683
12.0,0.01525419857352972
13.0,0.014728008769452572
14.0,0.014176106080412865
15.0,0.013638850301504135
16.0,0.013091301545500755
18.0,0.012047807686030865
20.0,0.011122443713247776
22.0,0.010184697806835175
24.0,0.009337279014289379
26.0,0.008717942051589489
28.0,0.00824217963963747
30.0,0.007862241938710213
32.0,0.007504650391638279
36.0,0.007052266038954258
40.0,0.006776716094464064
44.0,0.006396256387233734
48.0,0.005948999430984259
52.0,0.005461544264107943
56.0,0.004935931880027056
60.0,0.004522932693362236
64.0,0.004126370884478092
72.0,0.0034322331193834543
80.0,0.003055398352444172
88.0,0.0027531003579497337
96.0,0.0023696969728916883
104.0,0.001832658308558166
112.0,0.001801114995032549
120.0,0.0018198188627138734
128.0,0.0019580351654440165
144.0,0.0011820573126897216
160.0,0.0009870125213637948
176.0,0.001853683847002685
192.0,0.0009148630779236555
208.0,0.0011160046560689807
224.0,0.0012379372492432594
240.0,0.000568743736948818
256.0,0.00045262117055244744
288.0,-0.0010617338120937347
320.0,-0.001196902128867805
352.0,-0.0008395451586693525
384.0,-0.0006494069239124656
416.0,0.00023248988145496696
448.0,0.0010269501945003867
480.0,0.0007085035904310644
512.0,0.0008185577462427318
576.0,0.0009880510624498129
640.0,5.240565224085003e-05
704.0,2.159665382350795e-05
768.0,0.0004377668083179742
832.0,0.002827240154147148
896.0,0.0012397628743201494
960.0,-0.000439207477029413
1024.0,-0.0017013653414323926
1152.0,-0.000904352345969528
1280.0,0.00017344455409329385
1408.0,-0.00031645630951970816
1536.0,-0.0008113945368677378
1664.0,-0.0004058365011587739
1792.0,0.0006311207544058561
1920.0,-0.001148775452747941
2048.0,-0.0012442299630492926
2304.0,0.0006796106463298202
2560.0,-0.0004329883959144354
2816.0,-0.0007614705245941877
3072.0,2.9970835385029204e-05
3328.0,-0.001629011589102447
3584.0,-0.0013405152130872011
3840.0,-0.0021314730402082205
4096.0,-0.0005777220358140767
4608.0,-0.0007084738463163376
5120.0,0.0006425784667953849
5632.0,0.0009785180445760489
6144.0,0.00028605552506633103
6656.0,0.0008465127903036773
7168.0,-2.2720489141647704e-05
7680.0,0.0008778499905019999
8192.0,-0.0004681552527472377
end
