version,3.0
numOfCh,1
type,point
parent_name,484af_1dot0-1dot0
ch_type,1_1
kcount,1
numberNandB,1
brightnessNandB,1
carpet pos,0
pc,0
Time (ms),CH1 Auto-Correlation
1.0,0.029421575367450714
2.0,0.027247386053204536
3.0,0.025348767638206482
4.0,0.023651286959648132
5.0,0.022072922438383102
6.0,0.020719461143016815
7.0,0.01948479749262333
8.0,0.018394192680716515
9.0,0.017365220934152603
10.0,0.016562478616833687
11.0,0.015863174572587013
12.0,0.01512871403247118
13.0,0.014506093226373196
14.0,0.013981308788061142
15.0,0.013449877500534058
16.0,0.0129702128469944
18.0,0.012069731019437313
20.0,0.01134460885077715
22.0,0.010694632306694984
24.0,0.010151672177016735
26.0,0.009679481387138367
28.0,0.009217444807291031
30.0,0.00874010007828474
32.0,0.008328397758305073
36.0,0.007553865201771259
40.0,0.006640101782977581
44.0,0.005845328792929649
48.0,0.005148773547261953
52.0,0.004670256748795509
56.0,0.00423281267285347
60.0,0.0038358275778591633
64.0,0.0036982118617743254
72.0,0.003608869854360819
80.0,0.0033407576847821474
88.0,0.0026567259337753057
96.0,0.0021666274406015873
104.0,0.0017266025533899665
112.0,0.0014743561623618007
120.0,0.0014515679795295
128.0,0.00133513065520674
144.0,0.0014572617365047336
160.0,0.0016632574843242764
176.0,0.001956201158463955
192.0,0.0024361307732760906
208.0,0.002512772334739566
224.0,0.0022271929774433374
240.0,0.0018611319828778505
256.0,0.0012714480981230736
288.0,0.00021469959756359458
320.0,0.0001420582557329908
352.0,-0.0005901852855458856
384.0,-0.0008346717804670334
416.0,-0.0005700935143977404
448.0,-0.0006044076872058213
480.0,-0.0017582039581611753
512.0,-0.0008753015426918864
576.0,0.0008630650700069964
640.0,-0.00026137143140658736
704.0,-0.0021888078190386295
768.0,-0.0007067938568070531
832.0,-0.00021132666734047234
896.0,-0.00016933336155489087
960.0,-0.00017158685659524053
1024.0,0.00018695984908845276
1152.0,0.00031056354055181146
1280.0,-0.00047316859127022326
1408.0,0.00102358462754637
1536.0,0.0013935333117842674
1664.0,0.0011721935588866472
1792.0,-0.0007825815700925887
1920.0,-0.0019302477594465017
2048.0,-0.000910136615857482
2304.0,0.0002866751456167549
2560.0,-1.4601495422539301e-05
2816.0,0.00011479699605843052
3072.0,0.0014955401420593262
3328.0,-0.0007470579585060477
3584.0,-0.0006792563945055008
3840.0,0.0017392222071066499
4096.0,0.0008003341499716043
4608.0,0.00041491721640340984
5120.0,-0.00035234930692240596
5632.0,-0.00026169055490754545
6144.0,0.001173771102912724
6656.0,-0.0006205020472407341
7168.0,-0.0014701710315421224
7680.0,0.0010662947315722704
8192.0,-0.0008594543905928731
end
