version,3.0
numOfCh,1
type,point
parent_name,484af_1dot0-1dot0
ch_type,1_1
kcount,1
numberNandB,1
brightnessNandB,1
carpet pos,0
pc,0
Time (ms),CH1 Auto-Correlation
1.0,0.02831227518618107
2.0,0.02621099352836609
3.0,0.02441590651869774
4.0,0.0229360181838274
5.0,0.021604659035801888
6.0,0.02041739970445633
7.0,0.019384337589144707
8.0,0.018400317057967186
9.0,0.017452534288167953
10.0,0.016624264419078827
11.0,0.01590047962963581
12.0,0.015204672701656818
13.0,0.014503546990454197
14.0,0.013861813582479954
15.0,0.013202270492911339
16.0,0.012635436840355396
18.0,0.011564486660063267
20.0,0.010527251288294792
22.0,0.0096304165199399
24.0,0.008787288330495358
26.0,0.008054012432694435
28.0,0.007457916159182787
30.0,0.006959420163184404
32.0,0.00661446014419198
36.0,0.006013776175677776
40.0,0.005391986574977636
44.0,0.004952303133904934
48.0,0.004521215334534645
52.0,0.0038915921468287706
56.0,0.0034948766697198153
60.0,0.003251961199566722
64.0,0.0028720651753246784
72.0,0.0021965091582387686
80.0,0.0015056779375299811
88.0,0.0013686527963727713
96.0,0.0011438942747190595
104.0,0.001349459053017199
112.0,0.001529522123746574
120.0,0.0015384083380922675
128.0,0.0016919021727517247
144.0,0.0016388969961553812
160.0,0.0006786347948946059
176.0,0.000531879544723779
192.0,0.0003398059925530106
208.0,-0.0004012333520222455
224.0,-0.001060195965692401
240.0,-0.0006991698173806071
256.0,6.866351031931117e-05
288.0,-0.0003097117878496647
320.0,-0.0012858144473284483
352.0,-0.001887264777906239
384.0,-0.0017290639225393534
416.0,-0.0017792916623875499
448.0,-0.0002995722752530128
480.0,-0.0011164805619046092
512.0,9.419388516107574e-05
576.0,0.0014351486461237073
640.0,0.00018116609135176986
704.0,-0.0006884922622703016
768.0,0.0005253986455500126
832.0,-9.482502355240285e-05
896.0,-0.00026575863012112677
960.0,-0.0007233304786495864
1024.0,-0.000645441294182092
1152.0,-0.0010520138312131166
1280.0,-0.00019083482038695365
1408.0,0.0009188051335513592
1536.0,0.0016310635255649686
1664.0,0.00041116727516055107
1792.0,-0.0018057108391076326
1920.0,-0.0015218708431348205
2048.0,9.062257595360279e-05
2304.0,-9.280804988520686e-06
2560.0,-0.0006805196753703058
2816.0,-2.8204814952914603e-05
3072.0,0.0005170904332771897
3328.0,-0.00042988263885490596
3584.0,0.00041643151780590415
3840.0,-0.0009578694589436054
4096.0,-0.0011491489131003618
4608.0,-0.0003397884138394147
5120.0,-0.00023672956740483642
5632.0,0.00023477683134842664
6144.0,-0.000671928864903748
6656.0,0.0009723466355353594
7168.0,-0.00033780955709517
7680.0,0.0010437838500365615
8192.0,0.000617240322753787
end
