version,3.0
numOfCh,1
type,point
parent_name,484af_1dot0-1dot0
ch_type,1_1
kcount,1
numberNandB,1
brightnessNandB,1
carpet pos,0
pc,0
Time (ms),CH1 Auto-Correlation
1.0,0.02806507982313633
2.0,0.02525048330426216
3.0,0.023030053824186325
4.0,0.02120257169008255
5.0,0.01974407397210598
6.0,0.01855924353003502
7.0,0.01751910336315632
8.0,0.016621150076389313
9.0,0.015789493918418884
10.0,0.015049455687403679
11.0,0.014398006722331047
12.0,0.01376560889184475
13.0,0.013270843774080276
14.0,0.01279215794056654
15.0,0.01234423741698265
16.0,0.011892681941390038
18.0,0.010961867868900299
20.0,0.010197754018008709
22.0,0.009446846321225166
24.0,0.008794470690190792
26.0,0.008217232301831245
28.0,0.007733142469078302
30.0,0.007294256240129471
32.0,0.00683888653293252
36.0,0.005954645108431578
40.0,0.0053226216696202755
44.0,0.004957173950970173
48.0,0.004577707499265671
52.0,0.004322239197790623
56.0,0.0038186393212527037
60.0,0.0035326657816767693
64.0,0.0033975658006966114
72.0,0.003076110268011689
80.0,0.002485059667378664
88.0,0.0018024228047579527
96.0,0.0014475712087005377
104.0,0.000960119825322181
112.0,0.0009373383945785463
120.0,0.0012135084252804518
128.0,0.0015348682645708323
144.0,0.001151861040852964
160.0,0.000410969223594293
176.0,0.0006345717702060938
192.0,8.13934748293832e-05
208.0,-0.00011385613470338285
224.0,-0.0004904739325866103
240.0,-0.0006935012643225491
256.0,-0.0012664396781474352
288.0,-0.0007283546146936715
320.0,7.309763168450445e-05
352.0,0.0001277769624721259
384.0,0.00026324085774831474
416.0,0.001280789147131145
448.0,0.0019170308951288462
480.0,0.001305231242440641
512.0,9.970215614885092e-05
576.0,-0.0010237025562673807
640.0,-0.0007627280429005623
704.0,-0.0019871850963681936
768.0,-0.000844175519887358
832.0,-0.0007931478321552277
896.0,-0.00058656808687374
960.0,0.0002677539305295795
1024.0,-0.0005546229076571763
1152.0,-0.0017967280000448227
1280.0,-0.0009528398513793945
1408.0,-7.052418368402869e-05
1536.0,-5.9697700635297224e-05
1664.0,-0.0002331030264031142
1792.0,-0.0005618156283162534
1920.0,0.0002657923905644566
2048.0,-0.0007426391239278018
2304.0,-0.0003248326829634607
2560.0,0.0003738323284778744
2816.0,-0.0005101995775476098
3072.0,0.00031322435825131834
3328.0,0.00028613879112526774
3584.0,0.0002847680007107556
3840.0,-3.5801727790385485e-05
4096.0,-0.00022538304619956762
4608.0,0.000228045042604208
5120.0,0.00046944868518039584
5632.0,-0.0002870952885132283
6144.0,-0.00020254519768059254
6656.0,-0.00076495879329741
7168.0,-0.00011693873966578394
7680.0,0.000831686716992408
8192.0,0.0009373146458528936
end
