version,3.0
numOfCh,1
type,point
parent_name,484af_1dot0-1dot0
ch_type,1_1
kcount,1
numberNandB,1
brightnessNandB,1
carpet pos,0
pc,0
Time (ms),CH1 Auto-Correlation
1.0,0.026794444769620895
2.0,0.024633901193737984
3.0,0.022801337763667107
4.0,0.021227987483143806
5.0,0.019893255084753036
6.0,0.018685420975089073
7.0,0.017569169402122498
8.0,0.01655239425599575
9.0,0.01562861166894436
10.0,0.01485032495111227
11.0,0.01419462077319622
12.0,0.0136115662753582
13.0,0.013011084869503975
14.0,0.012502486817538738
15.0,0.012060511857271194
16.0,0.011660118587315083
18.0,0.010955502279102802
20.0,0.01037432812154293
22.0,0.009824225679039955
24.0,0.009286581538617611
26.0,0.008701592683792114
28.0,0.008227203972637653
30.0,0.007836271077394485
32.0,0.007490809541195631
36.0,0.006539026275277138
40.0,0.005920169875025749
44.0,0.0057801296934485435
48.0,0.005640553310513496
52.0,0.005409544799476862
56.0,0.004929790738970041
60.0,0.004765591584146023
64.0,0.004740602802485228
72.0,0.004250562284141779
80.0,0.00304978690110147
88.0,0.0022582432720810175
96.0,0.001905095879919827
104.0,0.0014495180221274495
112.0,0.0014287496451288462
120.0,0.0009478349820710719
128.0,0.0006656122859567404
144.0,0.0003415858664084226
160.0,0.00015316242934204638
176.0,0.0004096485208719969
192.0,0.0003863810852635652
208.0,-0.00028586824191734195
224.0,-0.0003577656752895564
240.0,0.00026154136867262423
256.0,-0.00022355183318722993
288.0,-0.0012486346531659365
320.0,-0.0011133368825539947
352.0,-0.0004562196263577789
384.0,0.0005964694428257644
416.0,-0.00024678377667441964
448.0,-0.00020358228357508779
480.0,0.0005719821783713996
512.0,0.0011986702447757125
576.0,0.0015977288130670786
640.0,0.001505071995779872
704.0,0.0013492342550307512
768.0,0.0012072933604940772
832.0,0.001069985213689506
896.0,-0.000124992715427652
960.0,-0.00018703824025578797
1024.0,-0.00019036543380934745
1152.0,-0.0003111720143351704
1280.0,0.0004468510451260954
1408.0,4.421585981617682e-05
1536.0,-0.0003439367574173957
1664.0,-6.72043233862496e-06
1792.0,-0.00022057187743484974
1920.0,-0.0005027767620049417
2048.0,-0.0006558788591064513
2304.0,0.0004262288857717067
2560.0,-5.869948654435575e-05
2816.0,0.00024225599190685898
3072.0,0.0006620708154514432
3328.0,-0.00024956819834187627
3584.0,0.0004085511027369648
3840.0,0.0005937398527748883
4096.0,-0.000616327568423003
4608.0,-7.390198152279481e-05
5120.0,0.00022580371296498924
5632.0,-0.0003557532327249646
6144.0,-0.0002119327400578186
6656.0,-0.00018852442735806108
7168.0,-0.0003674031759146601
7680.0,-0.0011828774586319923
8192.0,-0.0010579420486465096
end
