version,3.0
numOfCh,1
type,point
parent_name,484af_1dot0-1dot0
ch_type,1_1
kcount,1
numberNandB,1
brightnessNandB,1
carpet pos,0
pc,0
Time (ms),CH1 Auto-Correlation
1.0,0.02652425318956375
2.0,0.024322355166077614
3.0,0.02241579256951809
4.0,0.020716357976198196
5.0,0.0192928034812212
6.0,0.018059708178043365
7.0,0.016938084736466408
8.0,0.015980901196599007
9.0,0.015106841921806335
10.0,0.014397633261978626
11.0,0.013680923730134964
12.0,0.01297144964337349
13.0,0.01236522477120161
14.0,0.01184961386024952
15.0,0.011364048346877098
16.0,0.010909405536949635
18.0,0.010032041929662228
20.0,0.009412148036062717
22.0,0.00879486184567213
24.0,0.008264224976301193
26.0,0.007851321250200272
28.0,0.007499229162931442
30.0,0.007196650840342045
32.0,0.007031894288957119
36.0,0.0067211235873401165
40.0,0.006497575435787439
44.0,0.00628682179376483
48.0,0.006149581633508205
52.0,0.00566340796649456
56.0,0.005229430738836527
60.0,0.004854467231780291
64.0,0.00438149506226182
72.0,0.003216261975467205
80.0,0.0032357412856072187
88.0,0.0036443518474698067
96.0,0.003701431443914771
104.0,0.0035851323045790195
112.0,0.0032765220385044813
120.0,0.0032861661165952682
128.0,0.003066164208576083
144.0,0.002401843899860978
160.0,0.0019722601864486933
176.0,0.0014290583785623312
192.0,0.002296632155776024
208.0,0.0022634207271039486
224.0,0.0020885448902845383
240.0,0.0024641193449497223
256.0,0.00225319666787982
288.0,0.001743869623169303
320.0,0.002038888167589903
352.0,0.002973682014271617
384.0,0.001617301139049232
416.0,0.001627286896109581
448.0,0.0018577298615127802
480.0,0.001654562191106379
512.0,0.0014477366348728538
576.0,0.00123362906742841
640.0,0.0006528451340273023
704.0,-0.0001629635225981474
768.0,-0.00046369375195354223
832.0,-0.00011648872896330431
896.0,-0.0005960756097920239
960.0,-0.0006695907795801759
1024.0,-0.00046704604756087065
1152.0,-0.00017844584363047034
1280.0,-0.00023578258696943521
1408.0,-0.00047013003495521843
1536.0,-0.0006866900366730988
1664.0,-0.0008773459121584892
1792.0,-7.162620022427291e-05
1920.0,0.0007954903412610292
2048.0,-0.0001953847531694919
2304.0,1.5313706171582453e-05
2560.0,0.00037203109241090715
2816.0,-0.00040218132198788226
3072.0,-0.0012680778745561838
3328.0,-0.001843766774982214
3584.0,-0.0019956829492002726
3840.0,-0.0012049333890900016
4096.0,-0.0008759936317801476
4608.0,-0.0018389278557151556
5120.0,-0.0008011401514522731
5632.0,0.0004054934252053499
6144.0,0.0011168915079906583
6656.0,0.001390494522638619
7168.0,0.0014126873575150967
7680.0,0.00040183172677643597
8192.0,0.0011024500709027052
end
