version,3.0
numOfCh,1
type,point
parent_name,484af_1dot0-1dot0
ch_type,1_1
kcount,1
numberNandB,1
brightnessNandB,1
carpet pos,0
pc,0
Time (ms),CH1 Auto-Correlation
1.0,0.02871227078139782
2.0,0.026443907991051674
3.0,0.024502815678715706
4.0,0.022979361936450005
5.0,0.02160501852631569
6.0,0.02038659155368805
7.0,0.019324934110045433
8.0,0.018428528681397438
9.0,0.017540792003273964
10.0,0.016718145459890366
11.0,0.016014190390706062
12.0,0.015292615629732609
13.0,0.014636149629950523
14.0,0.014027023687958717
15.0,0.013497205451130867
16.0,0.012965857982635498
18.0,0.012149013578891754
20.0,0.011469192802906036
22.0,0.010693389922380447
24.0,0.010033837519586086
26.0,0.009511024691164494
28.0,0.008998995646834373
30.0,0.008555877022445202
32.0,0.008026570081710815
36.0,0.007199299521744251
40.0,0.006697334349155426
44.0,0.006340674590319395
48.0,0.006003850605338812
52.0,0.005609660875052214
56.0,0.005222597159445286
60.0,0.005124617833644152
64.0,0.005074219778180122
72.0,0.004893141333013773
80.0,0.004751479718834162
88.0,0.005000179633498192
96.0,0.005072474014014006
104.0,0.005197812337428331
112.0,0.005172832868993282
120.0,0.004770846106112003
128.0,0.004128761123865843
144.0,0.0031415086705237627
160.0,0.0027317185886204243
176.0,0.001775856944732368
192.0,0.0014141736319288611
208.0,0.0011032099137082696
224.0,0.0010212480556219816
240.0,0.0010042020585387945
256.0,0.0012211157009005547
288.0,0.0005805061664432287
320.0,-0.0005120971472933888
352.0,-1.413909103575861e-05
384.0,0.0011941269040107727
416.0,0.0007691520149819553
448.0,0.000537719635758549
480.0,-0.0003866466286126524
512.0,0.00010938498598989099
576.0,0.0004492669249884784
640.0,-0.0005448050214909017
704.0,0.00042503749136812985
768.0,-0.002731629880145192
832.0,-0.0009654342429712415
896.0,-0.0015362148405984044
960.0,-0.0005822958773933351
1024.0,-0.0019493344007059932
1152.0,-0.0004798637528438121
1280.0,-0.0004039659979753196
1408.0,-0.000509641831740737
1536.0,-0.001210528309457004
1664.0,-0.0012810250045731664
1792.0,-0.00025781954172998667
1920.0,-0.00013070418208371848
2048.0,-0.001295369933359325
2304.0,0.00034519832115620375
2560.0,-0.0013072703732177615
2816.0,0.0008491299813613296
3072.0,-0.00036883691791445017
3328.0,0.0030002568382769823
3584.0,0.003349778475239873
3840.0,0.001141296816058457
4096.0,0.0003119829634670168
4608.0,-0.0005364324315451086
5120.0,-0.0013631645124405622
5632.0,-0.0011108580511063337
6144.0,0.0007703439914621413
6656.0,0.0009683735552243888
7168.0,0.00030667963437736034
7680.0,-0.0005336037720553577
8192.0,0.00018449309573043138
end
