version,3.0
numOfCh,1
type,point
parent_name,484af_1dot0-1dot0
ch_type,1_1
kcount,1
numberNandB,1
brightnessNandB,1
carpet pos,0
pc,0
Time (ms),CH1 Auto-Correlation
1.0,0.0276612751185894
2.0,0.025456158444285393
3.0,0.023526770994067192
4.0,0.021870458498597145
5.0,0.02039579674601555
6.0,0.019098788499832153
7.0,0.0179822389036417
8.0,0.016973072662949562
9.0,0.01601220853626728
10.0,0.015246315859258175
11.0,0.014533176086843014
12.0,0.013805096969008446
13.0,0.013163034804165363
14.0,0.012514925561845303
15.0,0.011987225152552128
16.0,0.01139628142118454
18.0,0.010352271609008312
20.0,0.00961307529360056
22.0,0.008837264031171799
24.0,0.008070710115134716
26.0,0.007369019091129303
28.0,0.006923079490661621
30.0,0.006608687806874514
32.0,0.006249043624848127
36.0,0.005489124450832605
40.0,0.004896494559943676
44.0,0.004208181984722614
48.0,0.003775807796046138
52.0,0.0035051503218710423
56.0,0.003090610494837165
60.0,0.0025523770600557327
64.0,0.002349367132410407
72.0,0.0020856745541095734
80.0,0.0017622326267883182
88.0,0.001659395988099277
96.0,0.0019475127337500453
104.0,0.002119407057762146
112.0,0.00225670519284904
120.0,0.0018123326590284705
128.0,0.0013701304560527205
144.0,0.0015425235033035278
160.0,0.0018290234729647636
176.0,0.001867628307081759
192.0,0.0012265454279258847
208.0,6.952038529561833e-05
224.0,-0.0001669759803917259
240.0,0.00015284359687939286
256.0,0.00013040617341175675
288.0,0.0007378556183539331
320.0,0.00039761365042068064
352.0,0.0005620080628432333
384.0,-0.0006960651371628046
416.0,-0.0011861729435622692
448.0,-0.001805177191272378
480.0,-0.0022808730136603117
512.0,-0.001490838243626058
576.0,-0.0009082501055672765
640.0,-0.00068284897133708
704.0,-0.0005128790508024395
768.0,-0.0006531850667670369
832.0,-0.0004276583786122501
896.0,-0.0005894436035305262
960.0,-0.0009567673550918698
1024.0,-0.0006900056032463908
1152.0,-8.880630775820464e-05
1280.0,-0.00013160747766960412
1408.0,0.0005757419276051223
1536.0,-3.9050690247677267e-05
1664.0,0.0004474771849345416
1792.0,0.001209403621032834
1920.0,0.00041213675285689533
2048.0,-0.000488633697386831
2304.0,-0.0007356519345194101
2560.0,-0.001184444990940392
2816.0,-0.00023509479069616646
3072.0,0.00040991060086525977
3328.0,-0.0011680013267323375
3584.0,8.324328518938273e-05
3840.0,0.0011546704918146133
4096.0,0.0002785966789815575
4608.0,-0.0013010395923629403
5120.0,0.00016478005272801965
5632.0,0.000813065271358937
6144.0,-0.00025746008032001555
6656.0,4.613335113390349e-05
7168.0,5.030975898989709e-06
7680.0,0.00035748479422181845
8192.0,-0.0008988730842247605
end
