version,3.0
numOfCh,1
type,point
parent_name,484af_1dot0-1dot0
ch_type,1_1
kcount,1
numberNandB,1
brightnessNandB,1
carpet pos,0
pc,0
Time (ms),CH1 Auto-Correlation
1.0,0.027025535702705383
2.0,0.02480587549507618
3.0,0.023024512454867363
4.0,0.02146563120186329
5.0,0.020106423646211624
6.0,0.018966786563396454
7.0,0.01794261671602726
8.0,0.01705852895975113
9.0,0.016263039782643318
10.0,0.015549718402326107
11.0,0.014927762560546398
12.0,0.014346404001116753
13.0,0.013771013356745243
14.0,0.013136819936335087
15.0,0.012575149536132812
16.0,0.012011588551104069
18.0,0.011037526652216911
20.0,0.010135306045413017
22.0,0.009529034607112408
24.0,0.009094160981476307
26.0,0.008617671206593513
28.0,0.008152546361088753
30.0,0.007786543108522892
32.0,0.007334800902754068
36.0,0.006722757127135992
40.0,0.006403076928108931
44.0,0.006103863939642906
48.0,0.005725563503801823
52.0,0.005370610393583775
56.0,0.005128268152475357
60.0,0.004756598733365536
64.0,0.004078862257301807
72.0,0.003312707180157304
80.0,0.002829216653481126
88.0,0.0021123657934367657
96.0,0.0019821394234895706
104.0,0.0017995007801800966
112.0,0.0016067411052063107
120.0,0.0015122106997296214
128.0,0.001279724994674325
144.0,0.0002552329970058054
160.0,-0.00018120220920536667
176.0,0.00012619701738003641
192.0,-0.0001302241435041651
208.0,0.0005717839230783284
224.0,0.0008611434022895992
240.0,0.0010104170069098473
256.0,0.00133514276240021
288.0,0.0013195110950618982
320.0,0.00029054691549390554
352.0,-7.154323975555599e-05
384.0,-0.00022854874259792268
416.0,-0.0014568626647815108
448.0,-0.0016729480121284723
480.0,-0.001875639776699245
512.0,-0.0013692304491996765
576.0,-0.0008863055845722556
640.0,-0.00016114739992190152
704.0,-0.001373674371279776
768.0,-0.000798676919657737
832.0,-9.036184928845614e-05
896.0,0.0010031014680862427
960.0,-0.00038108255830593407
1024.0,-0.00010022781498264521
1152.0,-0.0012308134464547038
1280.0,-5.6067008699756116e-05
1408.0,0.00034945938386954367
1536.0,0.0008178212447091937
1664.0,-8.804469689493999e-05
1792.0,0.0013031021226197481
1920.0,0.0006051460513845086
2048.0,0.00025978771736845374
2304.0,0.0003764264693018049
2560.0,-0.0001747435744618997
2816.0,0.000250515848165378
3072.0,0.00029884203104302287
3328.0,-0.0006263268296606839
3584.0,-0.0012681904481723905
3840.0,-0.0005284009384922683
4096.0,0.0003205899556633085
4608.0,0.00013910545385442674
5120.0,0.00014035849017091095
5632.0,-0.0004092793387826532
6144.0,4.641840132535435e-05
6656.0,-0.00013947469415143132
7168.0,0.00030064841848798096
7680.0,-0.0005219941958785057
8192.0,-0.0022847792133688927
end
