version,3.0
numOfCh,1
type,point
parent_name,484af_1dot0-1dot0
ch_type,1_1
kcount,1
numberNandB,1
brightnessNandB,1
carpet pos,0
pc,0
Time (ms),CH1 Auto-Correlation
1.0,0.028578326106071472
2.0,0.026344960555434227
3.0,0.024478143081068993
4.0,0.02292637713253498
5.0,0.021509356796741486
6.0,0.02026377245783806
7.0,0.01917182467877865
8.0,0.01820385456085205
9.0,0.017286162823438644
10.0,0.016448425129055977
11.0,0.015711169689893723
12.0,0.015057231299579144
13.0,0.0145040238276124
14.0,0.014009850099682808
15.0,0.01353863999247551
16.0,0.013146384619176388
18.0,0.012436481192708015
20.0,0.011871513910591602
22.0,0.01145910657942295
24.0,0.011022184044122696
26.0,0.010462921112775803
28.0,0.009870925918221474
30.0,0.0093088299036026
32.0,0.008808084763586521
36.0,0.00791535247117281
40.0,0.007320101838558912
44.0,0.00639313692227006
48.0,0.005679528694599867
52.0,0.005104854702949524
56.0,0.004816919565200806
60.0,0.004724332597106695
64.0,0.0045240786857903
72.0,0.0039725094102323055
80.0,0.0034544591326266527
88.0,0.0030990145169198513
96.0,0.002820558613166213
104.0,0.0025865493807941675
112.0,0.0023863529786467552
120.0,0.0025892232079058886
128.0,0.002363709732890129
144.0,0.001639320980757475
160.0,0.0010453423019498587
176.0,0.0007063380326144397
192.0,0.00044909381540492177
208.0,0.00061326491413638
224.0,0.0004764477489516139
240.0,0.00021345105778891593
256.0,6.653336458839476e-05
288.0,-0.0006571427220478654
320.0,-0.001567067694850266
352.0,-0.0006568342796526849
384.0,0.0005722310743294656
416.0,2.214008418377489e-05
448.0,-0.00020822323858737946
480.0,-0.0009718385408632457
512.0,-0.0015165002550929785
576.0,-0.00021646636014338583
640.0,0.000143641242175363
704.0,0.00018010805069934577
768.0,0.00021111675596330315
832.0,-0.00027790426975116134
896.0,-0.002236831933259964
960.0,-0.001012216554954648
1024.0,-0.0018661781214177608
1152.0,-0.0014420635998249054
1280.0,-0.0016349537763744593
1408.0,-0.0002873023331630975
1536.0,2.7882515496457927e-05
1664.0,-0.0008133273804560304
1792.0,-0.0004687006294261664
1920.0,-0.0002536314132157713
2048.0,0.0012158978497609496
2304.0,0.00248411251232028
2560.0,0.0015888722846284509
2816.0,-0.001007646438665688
3072.0,-0.0011841858504340053
3328.0,-0.0013214338105171919
3584.0,-0.00017945602303370833
3840.0,-0.001074312487617135
4096.0,0.0007000485202297568
4608.0,0.0005959471454843879
5120.0,0.00017207933706231415
5632.0,-0.0004250590573064983
6144.0,-0.0009508367511443794
6656.0,0.0006063319160602987
7168.0,-0.001407112693414092
7680.0,9.339963435195386e-05
8192.0,-0.00019470472761895508
end
