version,3.0
numOfCh,1
type,point
parent_name,484af_1dot0-1dot0
ch_type,1_1
kcount,1
numberNandB,1
brightnessNandB,1
carpet pos,0
pc,0
Time (ms),CH1 Auto-Correlation
1.0,0.02790742740035057
2.0,0.025752108544111252
3.0,0.02392306551337242
4.0,0.022356808185577393
5.0,0.020966405048966408
6.0,0.01975310780107975
7.0,0.01868848316371441
8.0,0.017751101404428482
9.0,0.016896136105060577
10.0,0.01614244654774666
11.0,0.015406351536512375
12.0,0.01483936794102192
13.0,0.014287032186985016
14.0,0.013772249221801758
15.0,0.01333609875291586
16.0,0.012865627184510231
18.0,0.012045240961015224
20.0,0.011323773302137852
22.0,0.010625630617141724
24.0,0.010107089765369892
26.0,0.009709572419524193
28.0,0.009328721091151237
30.0,0.008936000987887383
32.0,0.008462554775178432
36.0,0.00783106591552496
40.0,0.006938157137483358
44.0,0.006176962051540613
48.0,0.005744393914937973
52.0,0.005433127284049988
56.0,0.004914453718811274
60.0,0.004351014271378517
64.0,0.0038257217966020107
72.0,0.0026640298310667276
80.0,0.002500025788322091
88.0,0.0026546914596110582
96.0,0.0019948510453104973
104.0,0.0013706139288842678
112.0,0.0008035299251787364
120.0,0.0008422544924542308
128.0,0.00118162389844656
144.0,0.0013111492153257132
160.0,0.0010313497623428702
176.0,0.000757422938477248
192.0,-0.00015322858234867454
208.0,-0.0009660767973400652
224.0,-0.000682088837493211
240.0,0.0007221662672236562
256.0,0.0007297340780496597
288.0,-0.0001244635641342029
320.0,0.0006757747614756227
352.0,0.001794479787349701
384.0,0.0022564551327377558
416.0,0.002263136673718691
448.0,0.0012704331893473864
480.0,0.0006773759378120303
512.0,0.001554677146486938
576.0,0.0010052466532215476
640.0,0.0006731385365128517
704.0,-0.0006439383723773062
768.0,-0.0005268093082122505
832.0,-8.022764086490497e-05
896.0,0.0007248351466841996
960.0,0.0018102769972756505
1024.0,0.001835519797168672
1152.0,-8.139013516483828e-05
1280.0,-0.00023742685152683407
1408.0,0.0011959230760112405
1536.0,-0.0011074166977778077
1664.0,-0.0003191307478118688
1792.0,0.00012574666470754892
1920.0,0.0007993599283508956
2048.0,2.564107853686437e-05
2304.0,0.0006834825035184622
2560.0,-0.0007469155243597925
2816.0,0.0005121469730511308
3072.0,-0.0011884779669344425
3328.0,-4.763718243339099e-05
3584.0,-0.0007567432476207614
3840.0,-1.671718928264454e-05
4096.0,-0.000973169575445354
4608.0,-0.0003765724250115454
5120.0,-0.0006709621520712972
5632.0,-0.0001467740221414715
6144.0,-0.0007567162974737585
6656.0,-0.0012081729946658015
7168.0,0.00036407893639989197
7680.0,-0.0001280686556128785
8192.0,-0.0011530083138495684
end
