version,3.0
numOfCh,1
type,point
parent_name,484af_1dot0-1dot0
ch_type,1_1
kcount,1
numberNandB,1
brightnessNandB,1
carpet pos,0
pc,0
Time (ms),CH1 Auto-Correlation
1.0,0.03177485242486
2.0,0.02882639318704605
3.0,0.026401538401842117
4.0,0.02403639443218708
5.0,0.022550204768776894
6.0,0.021274490281939507
7.0,0.020105822011828423
8.0,0.019095072522759438
9.0,0.01816164143383503
10.0,0.017319973558187485
11.0,0.01659340411424637
12.0,0.016082892194390297
13.0,0.015568670816719532
14.0,0.01512934546917677
15.0,0.014618545770645142
16.0,0.014109781943261623
18.0,0.013342481106519699
20.0,0.012525329366326332
22.0,0.01177214179188013
24.0,0.01108040101826191
26.0,0.010337228886783123
28.0,0.009732725098729134
30.0,0.009419011883437634
32.0,0.009244164451956749
36.0,0.008581796661019325
40.0,0.007861227728426456
44.0,0.00744610745459795
48.0,0.007288219872862101
52.0,0.007019819226115942
56.0,0.00698016956448555
60.0,0.0070641133934259415
64.0,0.006926229689270258
72.0,0.0063654715195298195
80.0,0.006082551553845406
88.0,0.005235899239778519
96.0,0.004722477402538061
104.0,0.004413298796862364
112.0,0.004079252481460571
120.0,0.004117643926292658
128.0,0.004317449405789375
144.0,0.003967304714024067
160.0,0.0040427460335195065
176.0,0.002899036044254899
192.0,0.0025713390205055475
208.0,0.0023494267370551825
224.0,0.0023767612874507904
240.0,0.0028581428341567516
256.0,0.00223135226406157
288.0,0.0015959087759256363
320.0,0.0007965462282299995
352.0,0.00012603725190274417
384.0,-0.0008145528263412416
416.0,-0.001002417760901153
448.0,-0.001613915665075183
480.0,-0.0031150318682193756
512.0,-0.00390708027407527
576.0,-0.002187376143410802
640.0,-0.0006552836275659502
704.0,-0.00022402501781471074
768.0,-0.0009631173452362418
832.0,0.0001317639835178852
896.0,0.000428312603617087
960.0,0.0010049851844087243
1024.0,0.0012994674034416676
1152.0,0.00013130091247148812
1280.0,-1.6490670532220975e-05
1408.0,-0.0006398727418854833
1536.0,-0.00015732116298750043
1664.0,0.00010528893471928313
1792.0,0.0015565153444185853
1920.0,0.0017306869849562645
2048.0,0.0013730931095778942
2304.0,-0.0006625017267651856
2560.0,-0.0003353297070134431
2816.0,0.0022123544476926327
3072.0,0.0011507050367072225
3328.0,-0.0006183598889037967
3584.0,0.00013561142259277403
3840.0,0.0004396370495669544
4096.0,-0.0003668562858365476
4608.0,-0.00037669818266294897
5120.0,-0.0012184707447886467
5632.0,0.001090597128495574
6144.0,-0.0006876152474433184
6656.0,-0.0013416602741926908
7168.0,-0.0009059096337296069
7680.0,0.0003349652688484639
8192.0,-0.003520340658724308
end
