version,3.0
numOfCh,1
type,point
parent_name,484af_1dot0-1dot0
ch_type,1_1
kcount,1
numberNandB,1
brightnessNandB,1
carpet pos,0
pc,0
Time (ms),CH1 Auto-Correlation
1.0,0.029064709320664406
2.0,0.02682969532907009
3.0,0.024892348796129227
4.0,0.023273220285773277
5.0,0.021818943321704865
6.0,0.020540185272693634
7.0,0.01943650096654892
8.0,0.018447628244757652
9.0,0.017518507316708565
10.0,0.016717461869120598
11.0,0.01597221940755844
12.0,0.015223442576825619
13.0,0.014507384039461613
14.0,0.013820701278746128
15.0,0.013309680856764317
16.0,0.012769847176969051
18.0,0.011634737253189087
20.0,0.010714002884924412
22.0,0.00980282761156559
24.0,0.00912412814795971
26.0,0.008465176448225975
28.0,0.007877781987190247
30.0,0.007279510144144297
32.0,0.006786191835999489
36.0,0.005818970967084169
40.0,0.005338763818144798
44.0,0.005355920642614365
48.0,0.005496298428624868
52.0,0.005349922459572554
56.0,0.005312453955411911
60.0,0.005119628272950649
64.0,0.004794827662408352
72.0,0.0037814993411302567
80.0,0.003465623129159212
88.0,0.0028203607071191072
96.0,0.001900390489026904
104.0,0.0012328235898166895
112.0,0.0007437224267050624
120.0,-1.718433304631617e-05
128.0,-1.1066778824897483e-05
144.0,-0.0005213453550823033
160.0,-0.0006492669926956296
176.0,-0.0009973569540306926
192.0,-0.0010011979611590505
208.0,-0.00021235694293864071
224.0,0.00039230837137438357
240.0,-4.877083847532049e-05
256.0,-0.00041378012974746525
288.0,0.0008746471721678972
320.0,0.00040035121492110193
352.0,0.0003181199135724455
384.0,-0.0007207627058960497
416.0,0.0007674431544728577
448.0,0.0016548142302781343
480.0,0.0016920329071581364
512.0,0.0016651606420055032
576.0,0.0009845796739682555
640.0,-0.000512808037456125
704.0,-0.0006149752880446613
768.0,0.00019032791897188872
832.0,0.0005351327126845717
896.0,0.001275727991014719
960.0,0.0005667262594215572
1024.0,0.0006231762235984206
1152.0,-0.0014477057848125696
1280.0,-0.0006956006400287151
1408.0,0.0013460326008498669
1536.0,-0.0010587017750367522
1664.0,-0.0020341179333627224
1792.0,-0.0010310328798368573
1920.0,0.00041580805554986
2048.0,-7.023356829449767e-06
2304.0,-0.0008939163526520133
2560.0,-0.0013961754739284515
2816.0,-0.00015684431127738208
3072.0,4.370706301415339e-05
3328.0,-0.0002599052095320076
3584.0,-0.0004974795738235116
3840.0,0.0008616026025265455
4096.0,0.00035008101258426905
4608.0,-5.367187986848876e-05
5120.0,0.00022857458679936826
5632.0,-0.0014345634263008833
6144.0,-0.0003212856827303767
6656.0,0.0001167504015029408
7168.0,0.0009173026774078608
7680.0,0.0005793491727672517
8192.0,0.0014070050092414021
end
