version,3.0
numOfCh,1
type,point
parent_name,484af_1dot0-1dot0
ch_type,1_1
kcount,1
numberNandB,1
brightnessNandB,1
carpet pos,0
pc,0
Time (ms),CH1 Auto-Correlation
1.0,0.028003117069602013
2.0,0.025838926434516907
3.0,0.02399352751672268
4.0,0.02237793616950512
5.0,0.020996836945414543
6.0,0.019760482013225555
7.0,0.018679501488804817
8.0,0.01770712062716484
9.0,0.016872242093086243
10.0,0.01615121401846409
11.0,0.015450038947165012
12.0,0.014818609692156315
13.0,0.01424416247755289
14.0,0.013692688196897507
15.0,0.0131748141720891
16.0,0.012648645788431168
18.0,0.01165088266134262
20.0,0.010757848620414734
22.0,0.010099124163389206
24.0,0.009551129303872585
26.0,0.009130742400884628
28.0,0.008719430305063725
30.0,0.00831693597137928
32.0,0.00791438389569521
36.0,0.007370707578957081
40.0,0.007095756009221077
44.0,0.00677644694224
48.0,0.006592360325157642
52.0,0.00642138859257102
56.0,0.0060801380313932896
60.0,0.005598094779998064
64.0,0.005287059582769871
72.0,0.005393007304519415
80.0,0.0053090304136276245
88.0,0.00483931228518486
96.0,0.0043067485094070435
104.0,0.0039019915275275707
112.0,0.003924498800188303
120.0,0.0039260233752429485
128.0,0.003615534631535411
144.0,0.003148054936900735
160.0,0.0029027992859482765
176.0,0.002017548307776451
192.0,0.0009768361924216151
208.0,0.00047851266572251916
224.0,7.926356920506805e-05
240.0,0.00023098572273738682
256.0,0.0007573653711006045
288.0,5.666592551278882e-05
320.0,0.0005178180290386081
352.0,0.00015504012117162347
384.0,0.000527306052390486
416.0,0.0009645852260291576
448.0,0.0004390465037431568
480.0,0.0016749141504988074
512.0,0.0007299975259229541
576.0,0.0007161552784964442
640.0,0.0001781136670615524
704.0,3.7388406781246886e-05
768.0,0.00020876099006272852
832.0,0.0011502690613269806
896.0,0.001304934499785304
960.0,-0.0002942760766018182
1024.0,-0.0002621716121211648
1152.0,-0.0018199566984549165
1280.0,-0.0007404047064483166
1408.0,-0.000509530829731375
1536.0,6.525812204927206e-05
1664.0,0.0004032507131341845
1792.0,-0.0004543596296571195
1920.0,-0.0015923591563478112
2048.0,-0.001501864055171609
2304.0,-1.5252720913849771e-05
2560.0,-0.0007125861593522131
2816.0,-0.0006882524467073381
3072.0,0.0012360820546746254
3328.0,0.0003735853242687881
3584.0,0.0003615980385802686
3840.0,-0.0008666554931551218
4096.0,0.0002539190754760057
4608.0,-0.0007959196227602661
5120.0,-0.0004672879877034575
5632.0,-0.0012527366634458303
6144.0,-0.00033056220854632556
6656.0,0.0005138368578627706
7168.0,-0.00022946478566154838
7680.0,0.0001518411881988868
8192.0,0.0004018697945866734
end
