version,3.0
numOfCh,1
type,point
parent_name,484af_1dot0-1dot0
ch_type,1_1
kcount,1
numberNandB,1
brightnessNandB,1
carpet pos,0
pc,0
Time (ms),CH1 Auto-Correlation
1.0,0.02782311663031578
2.0,0.025525059551000595
3.0,0.02360675111413002
4.0,0.021882446482777596
5.0,0.02043945901095867
6.0,0.01925472356379032
7.0,0.018237534910440445
8.0,0.017371876165270805
9.0,0.016548514366149902
10.0,0.01581709459424019
11.0,0.015131738968193531
12.0,0.01445484347641468
13.0,0.01383074838668108
14.0,0.01314003299921751
15.0,0.012515227310359478
16.0,0.011936129070818424
18.0,0.011003811843693256
20.0,0.010258477181196213
22.0,0.009722658433020115
24.0,0.009238021448254585
26.0,0.008914923295378685
28.0,0.008647633716464043
30.0,0.008477897383272648
32.0,0.008403272368013859
36.0,0.007946758531033993
40.0,0.007378211244940758
44.0,0.0067620971240103245
48.0,0.005909851752221584
52.0,0.005092324689030647
56.0,0.0045774863101542
60.0,0.004156490787863731
64.0,0.003701692447066307
72.0,0.0035741066094487906
80.0,0.003811431350186467
88.0,0.00372269656509161
96.0,0.003584612626582384
104.0,0.0040033855475485325
112.0,0.0037941185291856527
120.0,0.003164181485772133
128.0,0.0023949514143168926
144.0,0.002093726536259055
160.0,0.0019182749092578888
176.0,0.0011201504385098815
192.0,0.0010934730526059866
208.0,0.0011845524422824383
224.0,0.0018087269272655249
240.0,0.0018393815262243152
256.0,0.0013874592259526253
288.0,0.000692047062329948
320.0,-0.0002549709170125425
352.0,-0.0001691808138275519
384.0,0.0006933213444426656
416.0,0.0012117952574044466
448.0,0.00010087381087942049
480.0,-0.0005716897430829704
512.0,0.0007169421296566725
576.0,-0.0006798289832659066
640.0,-0.0008941894629970193
704.0,-0.0015744701959192753
768.0,-0.001980449305847287
832.0,-0.0013656093506142497
896.0,0.0002852626203093678
960.0,0.0014694841811433434
1024.0,0.002068121684715152
1152.0,0.0004157855873927474
1280.0,0.0012213396839797497
1408.0,0.0014826675178483129
1536.0,0.0007648913888260722
1664.0,-0.0006183829391375184
1792.0,-0.000750399602111429
1920.0,-0.000809317862149328
2048.0,-0.0016972451703622937
2304.0,-0.0008583464077673852
2560.0,0.0002951329806819558
2816.0,-0.00022758096747566015
3072.0,-0.00148387358058244
3328.0,-0.001290463493205607
3584.0,-0.00037446277565322816
3840.0,-0.00023579763364978135
4096.0,4.314453326514922e-05
4608.0,-0.0006506367353722453
5120.0,-0.0003275763592682779
5632.0,-1.3383124496613164e-05
6144.0,-0.0001447899849154055
6656.0,0.0013562830863520503
7168.0,0.0012839811388403177
7680.0,0.0001900579227367416
8192.0,2.631392089824658e-05
end
