version,3.0
numOfCh,1
type,point
parent_name,484af_1dot0-1dot0
ch_type,1_1
kcount,1
numberNandB,1
brightnessNandB,1
carpet pos,0
pc,0
Time (ms),CH1 Auto-Correlation
1.0,0.02833000011742115
2.0,0.026179615408182144
3.0,0.024351412430405617
4.0,0.022812072187662125
5.0,0.021372877061367035
6.0,0.020106006413698196
7.0,0.01893720030784607
8.0,0.017929865047335625
9.0,0.01699203811585903
10.0,0.016247987747192383
11.0,0.015548218972980976
12.0,0.014903015457093716
13.0,0.01422477699816227
14.0,0.013664145953953266
15.0,0.013144652359187603
16.0,0.0126106608659029
18.0,0.011660275049507618
20.0,0.010847756639122963
22.0,0.010257287882268429
24.0,0.009769180789589882
26.0,0.009312990121543407
28.0,0.00888914056122303
30.0,0.008440729230642319
32.0,0.00792910996824503
36.0,0.007020214106887579
40.0,0.006530239712446928
44.0,0.006253320723772049
48.0,0.0059356908313930035
52.0,0.00555324275046587
56.0,0.004972704686224461
60.0,0.004312492441385984
64.0,0.003968003671616316
72.0,0.0032744789496064186
80.0,0.0030786076094955206
88.0,0.0029752077534794807
96.0,0.003018865827471018
104.0,0.0027745719999074936
112.0,0.0027289311401546
120.0,0.002477109432220459
128.0,0.0024465504102408886
144.0,0.0013377416180446744
160.0,0.00036671647103503346
176.0,1.580344542162493e-05
192.0,0.0006513330736197531
208.0,0.0015057724667713046
224.0,0.0016955808969214559
240.0,0.0016951562138274312
256.0,0.0019868069794028997
288.0,0.0026313059497624636
320.0,0.0018149935640394688
352.0,0.0010277987457811832
384.0,0.0018063584575429559
416.0,0.0028963820077478886
448.0,0.001954331761226058
480.0,0.0005889555905014277
512.0,-0.00020721190958283842
576.0,-0.0007101268274709582
640.0,0.00017389038112014532
704.0,0.0001358686131425202
768.0,-0.0009534937562420964
832.0,-0.0011679437011480331
896.0,-0.0012686708942055702
960.0,-0.0005019124946556985
1024.0,0.0007674805237911642
1152.0,-0.00016273363144136965
1280.0,-0.0006673208554275334
1408.0,0.0004752945387735963
1536.0,0.0003872755041811615
1664.0,0.0010775418486446142
1792.0,0.0015436111716553569
1920.0,-0.0004957329947501421
2048.0,1.698292362561915e-05
2304.0,-0.0010426189983263612
2560.0,-0.0002726258826442063
2816.0,-9.660721843829378e-05
3072.0,0.0007006458472460508
3328.0,0.0007267494802363217
3584.0,0.0006752940244041383
3840.0,-0.0004456488532014191
4096.0,2.0360810594866052e-05
4608.0,-0.001635716762393713
5120.0,-0.0010755422990769148
5632.0,-0.0006283511174842715
6144.0,-0.001640486647374928
6656.0,-0.0011107256868854165
7168.0,0.001179009908810258
7680.0,0.0006171869463287294
8192.0,-0.0014813144225627184
end
