version,3.0
numOfCh,1
type,point
parent_name,484af_1dot0-1dot0
ch_type,1_1
kcount,1
numberNandB,1
brightnessNandB,1
carpet pos,0
pc,0
Time (ms),CH1 Auto-Correlation
1.0,0.026612307876348495
2.0,0.024343237280845642
3.0,0.022449657320976257
4.0,0.020756756886839867
5.0,0.019313199445605278
6.0,0.0180830005556345
7.0,0.01707557588815689
8.0,0.01614847034215927
9.0,0.015354947187006474
10.0,0.014683188870549202
11.0,0.014048460870981216
12.0,0.01344442181289196
13.0,0.012926621362566948
14.0,0.012425007298588753
15.0,0.012023364193737507
16.0,0.011593716219067574
18.0,0.010717739351093769
20.0,0.009952740743756294
22.0,0.009337984956800938
24.0,0.008742530830204487
26.0,0.008219906128942966
28.0,0.007652154192328453
30.0,0.007081685587763786
32.0,0.00657283840700984
36.0,0.005851145833730698
40.0,0.004998893942683935
44.0,0.0040826513431966305
48.0,0.0036261670757085085
52.0,0.003506722394376993
56.0,0.0034243448171764612
60.0,0.003442826448008418
64.0,0.003480638610199094
72.0,0.0029167269822210073
80.0,0.0024104632902890444
88.0,0.0023276640567928553
96.0,0.001981523586437106
104.0,0.0014105042209848762
112.0,0.0012222221121191978
120.0,0.0010493571171537042
128.0,0.0010493341833353043
144.0,0.001441687112674117
160.0,0.001073674880899489
176.0,0.00044153150520287454
192.0,0.0004422988276928663
208.0,0.0006401118589565158
224.0,0.0009039326687343419
240.0,0.0003849318891298026
256.0,0.00013318171841092408
288.0,8.203893230529502e-05
320.0,-0.0006218575872480869
352.0,-0.0007857396849431098
384.0,-0.0001655788510106504
416.0,-0.0007258725236169994
448.0,-0.0009442163282074034
480.0,-0.0011129420017823577
512.0,-0.0006061284220777452
576.0,-0.002019149251282215
640.0,-0.0014452454634010792
704.0,5.730434349970892e-05
768.0,0.0007821848266758025
832.0,-0.0004108048742637038
896.0,-0.0005823017563670874
960.0,-6.998662138357759e-05
1024.0,2.2282858481048606e-05
1152.0,0.0002390746958553791
1280.0,-0.0018103494076058269
1408.0,-0.0009087537182494998
1536.0,-0.00018326951249036938
1664.0,-0.0009570244001224637
1792.0,0.00028273218777030706
1920.0,0.00017737330927047879
2048.0,-0.0001228387700393796
2304.0,-0.00014708195521961898
2560.0,-1.2363502719381358e-05
2816.0,-0.0006415901007130742
3072.0,-0.00035425921669229865
3328.0,0.00117067142855376
3584.0,0.00037349789636209607
3840.0,-0.00011528152390383184
4096.0,-0.00018827289750333875
4608.0,-0.0002255779691040516
5120.0,-2.535998100938741e-05
5632.0,0.0008893429767340422
6144.0,-0.0007297334377653897
6656.0,-0.00022431218530982733
7168.0,-0.0003798634570557624
7680.0,0.00046750289038755
8192.0,-0.0005038598901592195
end
