version,3.0
numOfCh,1
type,point
parent_name,484af_1dot0-1dot0
ch_type,1_1
kcount,1
numberNandB,1
brightnessNandB,1
carpet pos,0
pc,0
Time (ms),CH1 Auto-Correlation
1.0,0.02847205474972725
2.0,0.026216035708785057
3.0,0.024305423721671104
4.0,0.02262742444872856
5.0,0.021179061383008957
6.0,0.01985526643693447
7.0,0.018703976646065712
8.0,0.017650607973337173
9.0,0.016754254698753357
10.0,0.01593133993446827
11.0,0.015166553668677807
12.0,0.01439650822430849
13.0,0.013698616065084934
14.0,0.013103343546390533
15.0,0.012539386749267578
16.0,0.011960494332015514
18.0,0.011026903986930847
20.0,0.010196694172918797
22.0,0.009510288946330547
24.0,0.008862081915140152
26.0,0.008290424942970276
28.0,0.00774244824424386
30.0,0.0073639159090816975
32.0,0.006885381415486336
36.0,0.006225614342838526
40.0,0.005852532107383013
44.0,0.005468206480145454
48.0,0.0051437546499073505
52.0,0.004846039693802595
56.0,0.004477533046156168
60.0,0.0042304713279008865
64.0,0.003676776308566332
72.0,0.002703477628529072
80.0,0.0022061336785554886
88.0,0.001473772106692195
96.0,0.0004762262979056686
104.0,-0.00010832649422809482
112.0,-0.00032400505733676255
120.0,-0.0003808638430200517
128.0,0.0006267955177463591
144.0,0.0010617575608193874
160.0,0.001078502624295652
176.0,0.001436701393686235
192.0,0.001657822635024786
208.0,0.0018302812241017818
224.0,0.00224194279871881
240.0,0.0017001698724925518
256.0,0.0012559965252876282
288.0,0.0011568436166271567
320.0,0.0017404417740181088
352.0,0.0017046822467818856
384.0,0.0003586571547202766
416.0,0.0005907489103265107
448.0,0.0006318989908322692
480.0,0.000932099181227386
512.0,0.0016077003674581647
576.0,0.0006534532876685262
640.0,0.0010490597924217582
704.0,0.0010382778709754348
768.0,0.0010766611667349935
832.0,0.0005988421034999192
896.0,0.0009935032576322556
960.0,0.0018317244248464704
1024.0,0.0025275873485952616
1152.0,0.0002503979194443673
1280.0,-0.0007314867689274251
1408.0,0.0018135405844077468
1536.0,0.0008007970172911882
1664.0,0.0002675263676792383
1792.0,-0.00036098502459935844
1920.0,1.3575496268458664e-05
2048.0,-0.0001616497029317543
2304.0,-0.0015707749407738447
2560.0,-0.0006116500589996576
2816.0,-0.0006021042936481535
3072.0,-0.0007779934094287455
3328.0,-0.0015774903586134315
3584.0,-0.0008992083603516221
3840.0,-0.0012457981938496232
4096.0,-0.0004183023702353239
4608.0,-9.003657760331407e-05
5120.0,0.0006605970556847751
5632.0,1.8174978322349489e-06
6144.0,6.7631181082106195e-06
6656.0,-9.042971942108124e-05
7168.0,-0.0010081133805215359
7680.0,-0.0011746766977012157
8192.0,-0.0016097035259008408
end
