version,3.0
numOfCh,1
type,point
parent_name,484af_1dot0-1dot0
ch_type,1_1
kcount,1
numberNandB,1
brightnessNandB,1
carpet pos,0
pc,0
Time (ms),CH1 Auto-Correlation
1.0,0.030090339481830597
2.0,0.02792329527437687
3.0,0.0260534156113863
4.0,0.024452563375234604
5.0,0.02301179990172386
6.0,0.021659916266798973
7.0,0.020445941016077995
8.0,0.019362038001418114
9.0,0.018329495564103127
10.0,0.017391415312886238
11.0,0.01651753857731819
12.0,0.015742985531687737
13.0,0.015075654722750187
14.0,0.014525304548442364
15.0,0.013991725631058216
16.0,0.013420331291854382
18.0,0.012572890147566795
20.0,0.011934845708310604
22.0,0.011299079284071922
24.0,0.01067089382559061
26.0,0.010095462203025818
28.0,0.009570909664034843
30.0,0.009098529815673828
32.0,0.008736398071050644
36.0,0.00815904326736927
40.0,0.007553881965577602
44.0,0.0067892372608184814
48.0,0.006419683340936899
52.0,0.005896603222936392
56.0,0.005462238099426031
60.0,0.004994318354874849
64.0,0.004331682343035936
72.0,0.003532998263835907
80.0,0.0021919840946793556
88.0,0.0014321972848847508
96.0,0.0013380057644098997
104.0,0.0018012219807133079
112.0,0.0021204121876507998
120.0,0.002451246604323387
128.0,0.0026859419886022806
144.0,0.00290405610576272
160.0,0.003003179794177413
176.0,0.0028241341933608055
192.0,0.002279580570757389
208.0,0.0014654500409960747
224.0,-6.481866876129061e-05
240.0,-0.0013168974546715617
256.0,-0.0015759130474179983
288.0,-0.00019763327145483345
320.0,0.00021698029013350606
352.0,-0.0012270468287169933
384.0,-0.0008474593632854521
416.0,-0.0016463270876556635
448.0,-0.0015803597634658217
480.0,-0.00144483195617795
512.0,-0.0019890074618160725
576.0,-0.0022935064043849707
640.0,-0.0004165894933976233
704.0,0.00041516724741086364
768.0,0.0018081240123137832
832.0,0.0019081264035776258
896.0,0.0015161782503128052
960.0,0.00047991369501687586
1024.0,-0.0006151199922896922
1152.0,-0.0015519147273153067
1280.0,-0.001550504588522017
1408.0,-0.0006532170227728784
1536.0,0.0012517959112301469
1664.0,0.0013203163398429751
1792.0,0.0007593316840939224
1920.0,0.000571796263102442
2048.0,-0.0016490938141942024
2304.0,0.0005416919011622667
2560.0,0.0008522443240508437
2816.0,-0.0014047061558812857
3072.0,-0.0005167927592992783
3328.0,0.000574848207179457
3584.0,3.6100493161939085e-05
3840.0,0.00041504547698423266
4096.0,7.520102371927351e-05
4608.0,-0.0014769274275749922
5120.0,3.544218998285942e-05
5632.0,-0.0003596781170926988
6144.0,0.00011068252933910117
6656.0,-0.0009119832538999617
7168.0,-0.00011277926387265325
7680.0,0.00041678122943267226
8192.0,-0.0009057096904143691
end
