version,3.0
numOfCh,1
type,point
parent_name,484af_1dot0-1dot0
ch_type,1_1
kcount,1
numberNandB,1
brightnessNandB,1
carpet pos,0
pc,0
Time (ms),CH1 Auto-Correlation
1.0,0.026436837390065193
2.0,0.024239737540483475
3.0,0.022397436201572418
4.0,0.02084924466907978
5.0,0.019485900178551674
6.0,0.018312377855181694
7.0,0.01723419688642025
8.0,0.016302326694130898
9.0,0.015447393991053104
10.0,0.01458312664180994
11.0,0.013773378916084766
12.0,0.013058689422905445
13.0,0.012384629808366299
14.0,0.011842256411910057
15.0,0.011354557238519192
16.0,0.01084115356206894
18.0,0.009844916872680187
20.0,0.008977718651294708
22.0,0.008286887779831886
24.0,0.007667917758226395
26.0,0.0069863456301391125
28.0,0.006521322298794985
30.0,0.006122248712927103
32.0,0.005823217332363129
36.0,0.005203539039939642
40.0,0.004552418831735849
44.0,0.004119313322007656
48.0,0.003671263111755252
52.0,0.003144932212308049
56.0,0.0028324134182184935
60.0,0.0025721839629113674
64.0,0.0022170275915414095
72.0,0.001661115325987339
80.0,0.0013625933788716793
88.0,0.0011975386878475547
96.0,0.001467064954340458
104.0,0.002093705115839839
112.0,0.0018939335132017732
120.0,0.0017709836829453707
128.0,0.0015125616919249296
144.0,0.001351534272544086
160.0,0.0006363434949889779
176.0,0.0006233960157260299
192.0,0.0013221633853390813
208.0,0.0010569238802418113
224.0,-7.577287033200264e-05
240.0,-0.0009779267711564898
256.0,-0.0013986873673275113
288.0,-0.0014767824904993176
320.0,-0.0008924052235670388
352.0,8.272146806120872e-05
384.0,-0.0004858674656134099
416.0,-0.0010693081421777606
448.0,-0.0012029024073854089
480.0,-0.0005656066932715476
512.0,-0.0007972376770339906
576.0,-0.0003611782449297607
640.0,0.0004220962873660028
704.0,0.0004606348229572177
768.0,0.0003801523125730455
832.0,9.819099432206713e-06
896.0,6.1469440879591275e-06
960.0,-0.0010963738895952702
1024.0,0.000813448685221374
1152.0,-0.0005894865025766194
1280.0,0.00027621848857961595
1408.0,0.0006465064943768084
1536.0,-0.00034165053511969745
1664.0,0.00021693258895538747
1792.0,0.0007762968889437616
1920.0,-7.781417662044987e-05
2048.0,-0.0008206227794289589
2304.0,-0.0007218415848910809
2560.0,-0.0007021399214863777
2816.0,7.901604840299115e-05
3072.0,0.0002096089447150007
3328.0,0.0005508448812179267
3584.0,-0.0004788730584550649
3840.0,-0.0019306158646941185
4096.0,0.0008287259843200445
4608.0,-0.00019059253099840134
5120.0,-0.0003260952653363347
5632.0,-8.5171137470752e-05
6144.0,0.0006063354667276144
6656.0,-0.000532735837623477
7168.0,-0.00035591560299508274
7680.0,0.0009540847968310118
8192.0,0.0002035413053818047
end
