version,3.0
numOfCh,1
type,point
parent_name,484af_1dot0-1dot0
ch_type,1_1
kcount,1
numberNandB,1
brightnessNandB,1
carpet pos,0
pc,0
Time (ms),CH1 Auto-Correlation
1.0,0.028367601335048676
2.0,0.02616100385785103
3.0,0.024277804419398308
4.0,0.022625839337706566
5.0,0.021184373646974564
6.0,0.01990566775202751
7.0,0.01879478245973587
8.0,0.017811613157391548
9.0,0.016903243958950043
10.0,0.016049174591898918
11.0,0.015253372490406036
12.0,0.01454443670809269
13.0,0.013850263319909573
14.0,0.013150455430150032
15.0,0.01243495848029852
16.0,0.01177106611430645
18.0,0.01063905656337738
20.0,0.009740697219967842
22.0,0.008960718289017677
24.0,0.008266379125416279
26.0,0.007743451744318008
28.0,0.007236076053231955
30.0,0.0067564742639660835
32.0,0.006372529082000256
36.0,0.005700534209609032
40.0,0.0050712148658931255
44.0,0.0047928099520504475
48.0,0.0045027052983641624
52.0,0.004161188844591379
56.0,0.003750431351363659
60.0,0.0035438574850559235
64.0,0.0031937789171934128
72.0,0.002340959385037422
80.0,0.0016758382553234696
88.0,0.0014757621102035046
96.0,0.0010650618933141232
104.0,0.0007553542964160442
112.0,0.0002745900128502399
120.0,0.0003857564879581332
128.0,0.0006642464431934059
144.0,0.001084522227756679
160.0,0.0013625957071781158
176.0,0.0008236691355705261
192.0,0.0004511525621637702
208.0,0.0006557397427968681
224.0,0.001830733148381114
240.0,0.0016945964889600873
256.0,0.002067847643047571
288.0,0.0008905484573915601
320.0,-0.00019417745352257043
352.0,0.000213996201637201
384.0,0.0002873675257433206
416.0,5.360899740480818e-05
448.0,-0.00034369350760243833
480.0,0.00014140164421405643
512.0,0.0012385932495817542
576.0,0.0010186213767156005
640.0,0.0011128511978313327
704.0,0.0003678735520225018
768.0,0.00011243278277106583
832.0,-0.0011928334133699536
896.0,-0.0014431861927732825
960.0,-0.000749278930015862
1024.0,-0.0011997900437563658
1152.0,-0.000655602605547756
1280.0,-0.00021688542619813234
1408.0,-0.0006365598528645933
1536.0,-0.000285490503301844
1664.0,5.8386252931086347e-05
1792.0,0.000941981328651309
1920.0,0.00029176834505051374
2048.0,0.00014522856508847326
2304.0,0.0009188370313495398
2560.0,0.00011024322884622961
2816.0,0.000904285756405443
3072.0,0.000867107359226793
3328.0,0.00023611620417796075
3584.0,0.000829552358482033
3840.0,-0.0006538915331475437
4096.0,2.9103111955919303e-05
4608.0,-0.001030759303830564
5120.0,-0.00026517396327108145
5632.0,0.0006800633273087442
6144.0,0.00015731772873550653
6656.0,-0.0006921978783793747
7168.0,-0.00117780570872128
7680.0,-0.0007069626008160412
8192.0,0.00034167239209637046
end
