version,3.0
numOfCh,1
type,point
parent_name,484af_1dot0-1dot0
ch_type,1_1
kcount,1
numberNandB,1
brightnessNandB,1
carpet pos,0
pc,0
Time (ms),CH1 Auto-Correlation
1.0,0.027712557464838028
2.0,0.025578215718269348
3.0,0.023683123290538788
4.0,0.022042451426386833
5.0,0.020610811188817024
6.0,0.01936166174709797
7.0,0.018307849764823914
8.0,0.01726338639855385
9.0,0.016413861885666847
10.0,0.015667729079723358
11.0,0.015018275938928127
12.0,0.014406802132725716
13.0,0.013796008192002773
14.0,0.013203293085098267
15.0,0.012657356448471546
16.0,0.012192582711577415
18.0,0.011256491765379906
20.0,0.0103674391284585
22.0,0.009809345938265324
24.0,0.009389294311404228
26.0,0.008830680511891842
28.0,0.00828059297055006
30.0,0.007874979637563229
32.0,0.007611418608576059
36.0,0.007148098200559616
40.0,0.006621106527745724
44.0,0.006131362169981003
48.0,0.0058349198661744595
52.0,0.0055679637007415295
56.0,0.004899627063423395
60.0,0.004333476535975933
64.0,0.004078019876033068
72.0,0.0038402217905968428
80.0,0.0032724873162806034
88.0,0.0026713768020272255
96.0,0.001797394477762282
104.0,0.0015555816935375333
112.0,0.001373340142890811
120.0,0.0007850531837902963
128.0,-5.398786015575752e-06
144.0,-0.0002753435692284256
160.0,-0.00034392927773296833
176.0,0.0001515650365035981
192.0,0.0012157460441812873
208.0,0.0011426337296143174
224.0,0.00029166662716306746
240.0,0.0007737434934824705
256.0,0.0013756502885371447
288.0,0.0004930483992211521
320.0,-5.8401565183885396e-05
352.0,0.0009746634750626981
384.0,0.00020770347327925265
416.0,0.00046696013305336237
448.0,0.00013862113701179624
480.0,-0.00044047730625607073
512.0,-0.0004499722854234278
576.0,-0.0007410198450088501
640.0,-0.00018102412286680192
704.0,0.0014389378484338522
768.0,0.0018057002453133464
832.0,0.0004604686691891402
896.0,0.0004936581826768816
960.0,-0.00014981350977905095
1024.0,-0.00045663813943974674
1152.0,0.0021009130869060755
1280.0,0.0005001012468710542
1408.0,0.0009784612338989973
1536.0,-0.0004344286280684173
1664.0,-0.0025557158514857292
1792.0,-0.00048784163664095104
1920.0,0.00040832816739566624
2048.0,-0.0018495392287150025
2304.0,-1.1256731795583619e-06
2560.0,-9.069993393495679e-05
2816.0,-0.001528726308606565
3072.0,-0.0014137590769678354
3328.0,0.0007746088085696101
3584.0,0.00036439954419620335
3840.0,0.0009816508973017335
4096.0,-0.0012305676937103271
4608.0,0.00027758069336414337
5120.0,-0.0002706651284825057
5632.0,0.0008633024990558624
6144.0,0.0007468359544873238
6656.0,0.0005794724565930665
7168.0,-6.823659987276187e-06
7680.0,-0.0007172039477154613
8192.0,-0.001094169681891799
end
