version,3.0
numOfCh,1
type,point
parent_name,484af_1dot0-1dot0
ch_type,1_1
kcount,1
numberNandB,1
brightnessNandB,1
carpet pos,0
pc,0
Time (ms),CH1 Auto-Correlation
1.0,0.02650788053870201
2.0,0.024401865899562836
3.0,0.022588273510336876
4.0,0.02095073275268078
5.0,0.019503360614180565
6.0,0.018219592049717903
7.0,0.017040053382515907
8.0,0.015965787693858147
9.0,0.014994360506534576
10.0,0.014183737337589264
11.0,0.013530940748751163
12.0,0.0129415113478899
13.0,0.012368770316243172
14.0,0.011870278045535088
15.0,0.011355242691934109
16.0,0.010881335474550724
18.0,0.010030955076217651
20.0,0.009244238026440144
22.0,0.008596493862569332
24.0,0.008026890456676483
26.0,0.0074165514670312405
28.0,0.006870604585856199
30.0,0.00635024206712842
32.0,0.005992402322590351
36.0,0.005192891228944063
40.0,0.004577609244734049
44.0,0.004199953284114599
48.0,0.004293118137866259
52.0,0.004472416825592518
56.0,0.004488135688006878
60.0,0.004085247870534658
64.0,0.0034768483601510525
72.0,0.003153790021315217
80.0,0.0024213430006057024
88.0,0.0018850594060495496
96.0,0.0011732281418517232
104.0,0.0012663087109103799
112.0,0.0015897053526714444
120.0,0.001764768036082387
128.0,0.001979016000404954
144.0,0.0025504818186163902
160.0,0.002240136032924056
176.0,0.00207893387414515
192.0,0.0020035607740283012
208.0,0.0020897069480270147
224.0,0.002329043112695217
240.0,0.002186100697144866
256.0,0.001495225471444428
288.0,0.0020143368747085333
320.0,0.0017348421970382333
352.0,0.0012174594448879361
384.0,0.00031800419674254954
416.0,8.21144349174574e-05
448.0,-0.00045317152398638427
480.0,-0.0008099818369373679
512.0,-0.0013276319950819016
576.0,6.457643758039922e-05
640.0,0.0010985087137669325
704.0,3.864325117319822e-05
768.0,-0.0007642506388947368
832.0,-0.0006264052935875952
896.0,-0.00044809223618358374
960.0,-0.00017468984879087657
1024.0,6.717570795444772e-05
1152.0,-0.0012683389941230416
1280.0,-0.0017764337826520205
1408.0,-0.0008285792428068817
1536.0,-0.0016048740362748504
1664.0,0.00011337323667248711
1792.0,0.00010624857532093301
1920.0,4.013107536593452e-05
2048.0,0.00109298643656075
2304.0,0.0008745835511945188
2560.0,0.0010088654235005379
2816.0,0.001259291428141296
3072.0,0.001288619008846581
3328.0,0.0005911641055718064
3584.0,-1.940892616403289e-05
3840.0,-0.0006208103732205927
4096.0,-0.0013630951289087534
4608.0,-0.0004475888854358345
5120.0,0.00039271963760256767
5632.0,0.00029281218303367496
6144.0,-0.0005376420449465513
6656.0,-0.0005484038265421987
7168.0,-0.0007569646113552153
7680.0,-0.0003420358698349446
8192.0,0.00022440750035457313
end
