version,3.0
numOfCh,1
type,point
parent_name,484af_1dot0-1dot0
ch_type,1_1
kcount,1
numberNandB,1
brightnessNandB,1
carpet pos,0
pc,0
Time (ms),CH1 Auto-Correlation
1.0,0.02659691497683525
2.0,0.0243802759796381
3.0,0.022465236485004425
4.0,0.020836228504776955
5.0,0.019484862685203552
6.0,0.018206875771284103
7.0,0.017072835937142372
8.0,0.016086919233202934
9.0,0.015188661403954029
10.0,0.014446004293859005
11.0,0.01375412568449974
12.0,0.013102006167173386
13.0,0.012440364807844162
14.0,0.011870990507304668
15.0,0.01126113347709179
16.0,0.010754336602985859
18.0,0.009875388815999031
20.0,0.009127538651227951
22.0,0.00847484078258276
24.0,0.007967104203999043
26.0,0.007422708440572023
28.0,0.006909694988280535
30.0,0.006538339424878359
32.0,0.006132012698799372
36.0,0.005357553716748953
40.0,0.004823542200028896
44.0,0.004318807739764452
48.0,0.003941934555768967
52.0,0.003772984491661191
56.0,0.003567970125004649
60.0,0.003249461529776454
64.0,0.002954642754048109
72.0,0.0023829464334994555
80.0,0.0016609051963314414
88.0,0.0016791896196082234
96.0,0.0018965596100315452
104.0,0.0017331131966784596
112.0,0.0017892498290166259
120.0,0.001956377876922488
128.0,0.001876531052403152
144.0,0.0009958662558346987
160.0,0.0009990250691771507
176.0,0.0006074710399843752
192.0,0.0001528090942883864
208.0,2.403954385954421e-05
224.0,7.730840297881514e-05
240.0,-0.0006045399932190776
256.0,-0.001189255272038281
288.0,-0.0016084223752841353
320.0,-0.0010385880013927817
352.0,-0.0011264972854405642
384.0,-0.0015483021270483732
416.0,-0.0011575504904612899
448.0,-0.0013941021170467138
480.0,-0.00105728127527982
512.0,-0.0015628172550350428
576.0,0.00014690915122628212
640.0,-8.648099901620299e-05
704.0,-0.0005888761370442808
768.0,-0.0010081573855131865
832.0,-0.0011351666180416942
896.0,-0.0012649502605199814
960.0,-0.0002975735696963966
1024.0,0.00029993371572345495
1152.0,-0.0005084451986476779
1280.0,0.0006307752919383347
1408.0,0.0021828811150044203
1536.0,0.0008769174455665052
1664.0,0.0007098022033460438
1792.0,-0.0007516503101214767
1920.0,-0.0015978725859895349
2048.0,-0.0006434182869270444
2304.0,-7.841004844522104e-05
2560.0,-0.0003496948629617691
2816.0,0.0008226828067563474
3072.0,0.0008919797837734222
3328.0,-0.0006381220300681889
3584.0,-0.001049394835717976
3840.0,-0.00010095796460518613
4096.0,3.1267674785340205e-05
4608.0,0.00014863404794596136
5120.0,-0.0010898510226979852
5632.0,0.0004828761739190668
6144.0,-0.00028561693034134805
6656.0,-0.0004855712759308517
7168.0,0.0007396774599328637
7680.0,3.250909139751457e-05
8192.0,-0.0005869943997822702
end
