version,3.0
numOfCh,1
type,point
parent_name,484af_1dot0-1dot0
ch_type,1_1
kcount,1
numberNandB,1
brightnessNandB,1
carpet pos,0
pc,0
Time (ms),CH1 Auto-Correlation
1.0,0.028098873794078827
2.0,0.025689704343676567
3.0,0.023595090955495834
4.0,0.02179313451051712
5.0,0.02025868557393551
6.0,0.018933601677417755
7.0,0.017780127003788948
8.0,0.016750000417232513
9.0,0.01583356410264969
10.0,0.015055332332849503
11.0,0.014270114712417126
12.0,0.013591431081295013
13.0,0.012989075854420662
14.0,0.012373327277600765
15.0,0.01175933051854372
16.0,0.011185959912836552
18.0,0.010257144458591938
20.0,0.009583969600498676
22.0,0.008986557833850384
24.0,0.008519202470779419
26.0,0.008075129240751266
28.0,0.0076377918012440205
30.0,0.007225339766591787
32.0,0.00690455874428153
36.0,0.006303426809608936
40.0,0.005855064373463392
44.0,0.005402373615652323
48.0,0.004823161289095879
52.0,0.004330966621637344
56.0,0.0036305347457528114
60.0,0.0032429699786007404
64.0,0.0032567917369306087
72.0,0.002962520346045494
80.0,0.0022642246913164854
88.0,0.0011725713266059756
96.0,0.0012047680793330073
104.0,0.0014375506434589624
112.0,0.0009802293498069048
120.0,0.0009536875295452774
128.0,0.0015669489512220025
144.0,0.0019150181906297803
160.0,0.0014941571280360222
176.0,0.0014315333683043718
192.0,0.0012456552358344197
208.0,0.0012392288772389293
224.0,0.0009641390643082559
240.0,0.0009432259830646217
256.0,0.001528943539597094
288.0,0.001308469451032579
320.0,0.0010871432023122907
352.0,0.00041735125705599785
384.0,-9.472275269217789e-05
416.0,-0.0002205278433393687
448.0,6.403660518117249e-05
480.0,-0.00013945854152552783
512.0,0.00042418474913574755
576.0,5.488703027367592e-05
640.0,-0.00024866682360880077
704.0,-0.00014623075549025089
768.0,-0.0003729632589966059
832.0,-0.0010280937422066927
896.0,-0.0022612493485212326
960.0,-0.0020070665050297976
1024.0,-0.0017480036476626992
1152.0,-0.0009478708379901946
1280.0,-0.0010218755342066288
1408.0,-0.00027030339697375894
1536.0,-4.4677017285721377e-05
1664.0,0.0013203007401898503
1792.0,0.0007700419519096613
1920.0,0.0005163567839190364
2048.0,-2.260839391965419e-05
2304.0,0.0003001964942086488
2560.0,0.0002070938644465059
2816.0,-0.00036191774415783584
3072.0,0.00011934399663005024
3328.0,-0.00030070196953602135
3584.0,0.0002100265264743939
3840.0,-0.0007351551903411746
4096.0,-3.3293097658315673e-05
4608.0,-0.0006542467745020986
5120.0,0.00012190412235213444
5632.0,-3.609207169574802e-06
6144.0,4.675723903346807e-05
6656.0,-0.00031882509938441217
7168.0,-0.00016804758342914283
7680.0,0.0004642522253561765
8192.0,-0.00038917409256100655
end
