version,3.0
numOfCh,1
type,point
parent_name,484af_1dot0-1dot0
ch_type,1_1
kcount,1
numberNandB,1
brightnessNandB,1
carpet pos,0
pc,0
Time (ms),CH1 Auto-Correlation
1.0,0.027753951027989388
2.0,0.025567471981048584
3.0,0.023720547556877136
4.0,0.022115930914878845
5.0,0.02063845843076706
6.0,0.01942526549100876
7.0,0.01832684874534607
8.0,0.01729864627122879
9.0,0.016418563202023506
10.0,0.015547294169664383
11.0,0.014689445495605469
12.0,0.013933856040239334
13.0,0.013225018978118896
14.0,0.01260227058082819
15.0,0.012011419050395489
16.0,0.011460055597126484
18.0,0.01054066326469183
20.0,0.009652938693761826
22.0,0.008798565715551376
24.0,0.0079995421692729
26.0,0.007251267787069082
28.0,0.006629037670791149
30.0,0.006169401109218597
32.0,0.005628740414977074
36.0,0.004635820630937815
40.0,0.003996819257736206
44.0,0.003775624558329582
48.0,0.003553754650056362
52.0,0.00291117699816823
56.0,0.0023160474374890327
60.0,0.001767921494320035
64.0,0.0012151269474998116
72.0,0.0007496101316064596
80.0,0.00075841712532565
88.0,0.0008284217910841107
96.0,0.0007290054345503449
104.0,0.0007924301316961646
112.0,0.0006062464090064168
120.0,0.00045360455987975
128.0,0.0001707110059214756
144.0,-0.0006762950215488672
160.0,-0.0008924598223529756
176.0,0.0002227169316029176
192.0,0.0007808610680513084
208.0,0.0006408983026631176
224.0,0.0009616853203624487
240.0,0.0008619712316431105
256.0,0.0002315734454896301
288.0,8.679946040501818e-05
320.0,0.001299321767874062
352.0,0.000306726957205683
384.0,0.00033114341204054654
416.0,0.0018036727560684085
448.0,0.0011504724388942122
480.0,0.0017093683127313852
512.0,0.0017628963105380535
576.0,-0.0002807474520523101
640.0,0.0013170030433684587
704.0,0.000605626089964062
768.0,-0.0006649435963481665
832.0,-0.00047459822962991893
896.0,0.00021247878612484783
960.0,-0.00027747341664507985
1024.0,-1.8590744730317965e-05
1152.0,-0.0004437817551661283
1280.0,-3.208162888768129e-05
1408.0,-0.00020563903672154993
1536.0,-0.0006023679161444306
1664.0,-2.27278742386261e-05
1792.0,0.000447817932581529
1920.0,0.0011929263127967715
2048.0,-0.0005216656136326492
2304.0,0.0003026191843673587
2560.0,-0.0001334885018877685
2816.0,-0.000472523010103032
3072.0,0.00024477450642734766
3328.0,-0.0008416768396273255
3584.0,-0.0006972673581913114
3840.0,-0.00029557812376879156
4096.0,5.478343882714398e-05
4608.0,0.0009749728487804532
5120.0,0.0002354328753426671
5632.0,-0.0007248279871419072
6144.0,-0.0005895620561204851
6656.0,-0.0005904448917135596
7168.0,-5.220033199293539e-05
7680.0,0.00047320197336375713
8192.0,-0.0007280706195160747
end
