version,3.0
numOfCh,1
type,point
parent_name,484af_1dot0-1dot0
ch_type,1_1
kcount,1
numberNandB,1
brightnessNandB,1
carpet pos,0
pc,0
Time (ms),CH1 Auto-Correlation
1.0,0.025894684717059135
2.0,0.023735197260975838
3.0,0.021920623257756233
4.0,0.020311690866947174
5.0,0.01886754296720028
6.0,0.01761796325445175
7.0,0.016501378268003464
8.0,0.0154793756082654
9.0,0.014569004066288471
10.0,0.013759251683950424
11.0,0.013021698221564293
12.0,0.012264283373951912
13.0,0.011544176377356052
14.0,0.010877769440412521
15.0,0.010285940021276474
16.0,0.009770059026777744
18.0,0.00895594246685505
20.0,0.008200127631425858
22.0,0.007532845251262188
24.0,0.0068461098708212376
26.0,0.006239555310457945
28.0,0.005641281604766846
30.0,0.005291820038110018
32.0,0.004974726587533951
36.0,0.004343383479863405
40.0,0.0036908183246850967
44.0,0.0032174689695239067
48.0,0.0030125330667942762
52.0,0.002965057734400034
56.0,0.002963884035125375
60.0,0.0029606930911540985
64.0,0.0028961084317415953
72.0,0.002945300191640854
80.0,0.0019068787805736065
88.0,0.0013906010426580906
96.0,0.0012109123636037111
104.0,0.0008326037786900997
112.0,0.0008267880766652524
120.0,0.0009873383678495884
128.0,0.001210463815368712
144.0,0.0014963995199650526
160.0,0.001335782348178327
176.0,0.0010321084409952164
192.0,0.0007627379382029176
208.0,0.0005438725929707289
224.0,-0.00017236355051863939
240.0,-0.00015860835264902562
256.0,-0.0006705382838845253
288.0,-0.0007716165855526924
320.0,-0.0006217448390088975
352.0,0.0004763812175951898
384.0,-0.0003890463267453015
416.0,-0.00050049350829795
448.0,-0.000950855202972889
480.0,-0.00011164839816046879
512.0,0.00012832430365961045
576.0,-0.0008923027780838311
640.0,-0.0003626861434895545
704.0,-0.0005564213497564197
768.0,0.00012319716915953904
832.0,0.0007299426360987127
896.0,0.0007619253592565656
960.0,-0.0005682150367647409
1024.0,0.00014678369916509837
1152.0,-0.00042970216600224376
1280.0,-0.0006869059288874269
1408.0,-0.00020373152801766992
1536.0,0.0003947455552406609
1664.0,-0.0001012370630633086
1792.0,0.0004034909070469439
1920.0,-0.0007235113298520446
2048.0,0.00019864164642058313
2304.0,3.829718480119482e-05
2560.0,0.00018018113041762263
2816.0,-0.00045001201215200126
3072.0,-0.000743592856451869
3328.0,-0.00018841303244698793
3584.0,0.0001021235148073174
3840.0,0.0005447199218906462
4096.0,-0.0010926934191957116
4608.0,-0.0005786422989331186
5120.0,-8.319165499415249e-05
5632.0,-8.311798592330888e-05
6144.0,-0.0004901839420199394
6656.0,-0.0005387184792198241
7168.0,0.00025944545632228255
7680.0,0.0006727348663844168
8192.0,4.683936822402757e-06
end
