version,3.0
numOfCh,1
type,point
parent_name,484af_1dot0-1dot0
ch_type,1_1
kcount,1
numberNandB,1
brightnessNandB,1
carpet pos,0
pc,0
Time (ms),CH1 Auto-Correlation
1.0,0.027446324005723
2.0,0.024942122399806976
3.0,0.022827832028269768
4.0,0.02107769437134266
5.0,0.01959110051393509
6.0,0.018339281901717186
7.0,0.017205869778990746
8.0,0.016135714948177338
9.0,0.015214123763144016
10.0,0.014399462379515171
11.0,0.01367803942412138
12.0,0.013007055036723614
13.0,0.012366627342998981
14.0,0.011845231056213379
15.0,0.011369858868420124
16.0,0.010904514230787754
18.0,0.010040444321930408
20.0,0.00927251297980547
22.0,0.008551244623959064
24.0,0.008009531535208225
26.0,0.0074600400403141975
28.0,0.006873656529933214
30.0,0.006309384014457464
32.0,0.005823272746056318
36.0,0.005194654688239098
40.0,0.004802064038813114
44.0,0.0044556972570717335
48.0,0.004173296503722668
52.0,0.0036670526023954153
56.0,0.003394756931811571
60.0,0.003177445149049163
64.0,0.0029118668753653765
72.0,0.0025486459489911795
80.0,0.002468372229486704
88.0,0.0024517534766346216
96.0,0.002481581410393119
104.0,0.002536340383812785
112.0,0.0022163838148117065
120.0,0.00169940700288862
128.0,0.0018491435330361128
144.0,0.0017487334553152323
160.0,0.001770272385329008
176.0,0.0016491167480126023
192.0,0.0008727950043976307
208.0,0.000990425469353795
224.0,0.0008332979632541537
240.0,0.0003150486736558378
256.0,-0.0002966008905787021
288.0,0.0002017845108639449
320.0,0.000957765500061214
352.0,0.0006267197895795107
384.0,0.00011991039355052635
416.0,-0.0005273836432024837
448.0,-0.000919578829780221
480.0,8.494101348333061e-05
512.0,-0.00012991795665584505
576.0,4.333242486609379e-06
640.0,0.0011787344701588154
704.0,0.00017119900439865887
768.0,-0.0007771314703859389
832.0,-0.001514809438958764
896.0,-0.0009209020645357668
960.0,-0.0011701732873916626
1024.0,0.0003695416380651295
1152.0,-0.0004700901044998318
1280.0,-0.00017203517199959606
1408.0,-0.0009496440761722624
1536.0,-0.0009385125595144928
1664.0,-0.0001724703179206699
1792.0,0.0014272710541263223
1920.0,0.0002515152154956013
2048.0,2.247747261208133e-06
2304.0,0.00011607346823439002
2560.0,0.00030810953467153013
2816.0,0.00029659003484994173
3072.0,0.00015224338858388364
3328.0,-0.001550473622046411
3584.0,-0.0008063802379183471
3840.0,-0.0008355742320418358
4096.0,-0.0005695263971574605
4608.0,0.001208402100019157
5120.0,-0.0007455071900039911
5632.0,-0.0008807944832369685
6144.0,0.0003935658896807581
6656.0,4.2886655137408525e-05
7168.0,0.00019622604304458946
7680.0,0.0003070868842769414
8192.0,-0.0008561195572838187
end
