version,3.0
numOfCh,1
type,point
parent_name,484af_1dot0-1dot0
ch_type,1_1
kcount,1
numberNandB,1
brightnessNandB,1
carpet pos,0
pc,0
Time (ms),CH1 Auto-Correlation
1.0,0.027197211980819702
2.0,0.024981217458844185
3.0,0.023117579519748688
4.0,0.02149359881877899
5.0,0.020117225125432014
6.0,0.018859734758734703
7.0,0.01770719699561596
8.0,0.016627993434667587
9.0,0.015700802206993103
10.0,0.014862197451293468
11.0,0.01411372423171997
12.0,0.013418964110314846
13.0,0.01274117175489664
14.0,0.012126250192523003
15.0,0.011574997566640377
16.0,0.011046476662158966
18.0,0.01007279846817255
20.0,0.00928044505417347
22.0,0.008731594309210777
24.0,0.008223064243793488
26.0,0.007830078713595867
28.0,0.007433882914483547
30.0,0.006991248112171888
32.0,0.0065973796881735325
36.0,0.005821524653583765
40.0,0.005234759766608477
44.0,0.004601794760674238
48.0,0.004023026209324598
52.0,0.003364705480635166
56.0,0.002998585579916835
60.0,0.0028090050909668207
64.0,0.002781231887638569
72.0,0.0021336895879358053
80.0,0.0013861499028280377
88.0,0.0010844479547813535
96.0,0.0007084272801876068
104.0,0.0008550403290428221
112.0,0.0010688022011891007
120.0,0.0004308052593842149
128.0,-0.00015329854795709252
144.0,-0.00019374099792912602
160.0,0.0008491129265166819
176.0,0.0006502540782094002
192.0,0.0007871876005083323
208.0,0.00016179485828615725
224.0,-3.0343897378770635e-05
240.0,-0.00037059636088088155
256.0,-0.0007797368452884257
288.0,2.2366270059137605e-05
320.0,0.00024481365107931197
352.0,0.0011563742300495505
384.0,0.0004912812728434801
416.0,-0.0010027940152212977
448.0,-0.0006701519014313817
480.0,0.00023852685990277678
512.0,0.0006592949503101408
576.0,-0.00034404557663947344
640.0,0.0006540449685417116
704.0,0.0004082644882146269
768.0,0.0008104749140329659
832.0,0.00016515790775883943
896.0,0.0002839987864717841
960.0,-0.0008532133651897311
1024.0,-0.00109933374915272
1152.0,-0.0001874613662948832
1280.0,-3.638648922787979e-05
1408.0,-0.0008939490653574467
1536.0,-0.001225647865794599
1664.0,-0.0011722649214789271
1792.0,0.0004007210081908852
1920.0,-0.00016776392294559628
2048.0,-0.00020565118757076561
2304.0,-2.0440962543943897e-05
2560.0,0.0005081059061922133
2816.0,-0.0005277673481032252
3072.0,-0.0005179783911444247
3328.0,-2.30446457862854e-05
3584.0,8.362333755940199e-05
3840.0,-0.00024587337975390255
4096.0,-0.001082330010831356
4608.0,-0.0003010414948221296
5120.0,0.00022667378652840853
5632.0,0.00030739791691303253
6144.0,0.0007984694675542414
6656.0,0.0004939904320053756
7168.0,-2.557504558353685e-05
7680.0,0.0006987647502683103
8192.0,-0.0006270367885008454
end
