version,3.0
numOfCh,1
type,point
parent_name,484af_1dot0-1dot0
ch_type,1_1
kcount,1
numberNandB,1
brightnessNandB,1
carpet pos,0
pc,0
Time (ms),CH1 Auto-Correlation
1.0,0.026559611782431602
2.0,0.024329453706741333
3.0,0.02248469740152359
4.0,0.02092602103948593
5.0,0.0195453017950058
6.0,0.01833105832338333
7.0,0.017372457310557365
8.0,0.01649429462850094
9.0,0.015657156705856323
10.0,0.01485864631831646
11.0,0.014174380339682102
12.0,0.013472981750965118
13.0,0.012807927094399929
14.0,0.012179380282759666
15.0,0.011541537940502167
16.0,0.010966653004288673
18.0,0.00990370474755764
20.0,0.008966833353042603
22.0,0.008179274387657642
24.0,0.007610070053488016
26.0,0.0072667296044528484
28.0,0.0069291009567677975
30.0,0.006472745444625616
32.0,0.006146272644400597
36.0,0.005669263191521168
40.0,0.005254730582237244
44.0,0.004622863605618477
48.0,0.00399360153824091
52.0,0.003450617427006364
56.0,0.0030211028642952442
60.0,0.002820564666762948
64.0,0.0026574358344078064
72.0,0.002411256078630686
80.0,0.0018980238819494843
88.0,0.0012920928420498967
96.0,0.0007985220872797072
104.0,0.0006726859137415886
112.0,0.00036418376839719713
120.0,0.0001845269580371678
128.0,0.00012055358820362017
144.0,0.00011566317698452622
160.0,-0.0004112606111448258
176.0,-0.0008508330211043358
192.0,-0.0007465481758117676
208.0,-0.0007779250154271722
224.0,-0.0005227802321314812
240.0,0.0003343154094181955
256.0,0.0004037019098177552
288.0,1.7739243048708886e-05
320.0,-0.0008550579659640789
352.0,-3.3184565836563706e-05
384.0,0.00023368047550320625
416.0,0.00042539520654827356
448.0,-0.0010119995567947626
480.0,-0.0004646576999220997
512.0,-0.0009295410127379
576.0,-0.0008549956837669015
640.0,0.00010778145224321634
704.0,-0.0002685672661755234
768.0,-6.648382259299979e-05
832.0,-0.00024166297225747257
896.0,-0.0007907088147476315
960.0,-0.0004621710686478764
1024.0,0.0003289590240456164
1152.0,-0.0003842063306365162
1280.0,-0.0008674030541442335
1408.0,0.0005599579308182001
1536.0,0.0014769893605262041
1664.0,0.0002101108111673966
1792.0,8.859934314386919e-05
1920.0,0.0005807379493489861
2048.0,-0.0004713704693131149
2304.0,-0.0003350035985931754
2560.0,-0.0009283630643039942
2816.0,-0.0009581446065567434
3072.0,0.0003700308734551072
3328.0,0.0007258341647684574
3584.0,-0.0005820116493850946
3840.0,-0.0006826001917943358
4096.0,-0.00032145791919901967
4608.0,0.0001096746273105964
5120.0,-0.0002522795693948865
5632.0,1.6110763681354e-05
6144.0,0.0003115454164799303
6656.0,-8.305189112434164e-05
7168.0,-6.31091243121773e-05
7680.0,0.0005123332957737148
8192.0,0.0002930362825281918
end
