version,3.0
numOfCh,1
type,point
parent_name,484af_1dot0-1dot0
ch_type,1_1
kcount,1
numberNandB,1
brightnessNandB,1
carpet pos,0
pc,0
Time (ms),CH1 Auto-Correlation
1.0,0.025702502578496933
2.0,0.023487793281674385
3.0,0.021574512124061584
4.0,0.019979797303676605
5.0,0.018591437488794327
6.0,0.017339950427412987
7.0,0.01619238592684269
8.0,0.0151841901242733
9.0,0.014289429411292076
10.0,0.013477020896971226
11.0,0.012730851769447327
12.0,0.012062073685228825
13.0,0.011423135176301003
14.0,0.010872562415897846
15.0,0.010380192659795284
16.0,0.009904574602842331
18.0,0.008990487083792686
20.0,0.008267581462860107
22.0,0.007601018529385328
24.0,0.0071017565205693245
26.0,0.006684852764010429
28.0,0.006126954220235348
30.0,0.00564935989677906
32.0,0.005251077935099602
36.0,0.004671765957027674
40.0,0.004185663070529699
44.0,0.0038255704566836357
48.0,0.0035496314521878958
52.0,0.0034108541440218687
56.0,0.0034381805453449488
60.0,0.0031592510640621185
64.0,0.002838985063135624
72.0,0.0025840988382697105
80.0,0.0023433580063283443
88.0,0.0019625555723905563
96.0,0.0012397137470543385
104.0,0.0006889728829264641
112.0,-8.00316920503974e-05
120.0,5.579529533861205e-05
128.0,0.0007599000819027424
144.0,0.000849203031975776
160.0,0.0003524594649206847
176.0,-0.00035047950223088264
192.0,-0.0009230641881003976
208.0,-0.0007512644515372813
224.0,-0.00024025545280892402
240.0,0.00014235987327992916
256.0,-0.0006038866122253239
288.0,-0.0004375667776912451
320.0,0.00028150781872682273
352.0,0.0006394564989022911
384.0,0.0014817570336163044
416.0,0.0004956327029503882
448.0,-0.00024218333419412374
480.0,-0.00015091222303453833
512.0,-0.0005476735532283783
576.0,-0.0014012411702424288
640.0,-0.001238252385519445
704.0,-0.0017995364032685757
768.0,-0.0009243957465514541
832.0,-0.0011498188832774758
896.0,0.0005823187530040741
960.0,-0.0001562458637636155
1024.0,0.00025822475436143577
1152.0,-0.00039394001942127943
1280.0,0.00012816041999030858
1408.0,0.0005529777845367789
1536.0,0.0005293210851959884
1664.0,-0.0010212530614808202
1792.0,-0.00017354334704577923
1920.0,0.00012156543380115181
2048.0,-0.0013797781430184841
2304.0,-4.3311083572916687e-05
2560.0,0.0007328293868340552
2816.0,0.0012903844472020864
3072.0,-0.0002354196913074702
3328.0,-0.0009341656696051359
3584.0,-0.0010577329667285085
3840.0,0.00031128819682635367
4096.0,0.0007480334024876356
4608.0,9.869672794593498e-05
5120.0,8.668937425682088e-07
5632.0,-0.00017553316138219088
6144.0,-0.0008405034895986319
6656.0,0.0003399229026399553
7168.0,-0.00029709964292123914
7680.0,-3.784510408877395e-05
8192.0,-0.0010274347150698304
end
