version,3.0
numOfCh,1
type,point
parent_name,484af_1dot0-1dot0
ch_type,1_1
kcount,1
numberNandB,1
brightnessNandB,1
carpet pos,0
pc,0
Time (ms),CH1 Auto-Correlation
1.0,0.0274058748036623
2.0,0.02532588504254818
3.0,0.023584969341754913
4.0,0.022101081907749176
5.0,0.020723704248666763
6.0,0.019526641815900803
7.0,0.01843218132853508
8.0,0.017435574904084206
9.0,0.01658623293042183
10.0,0.015760203823447227
11.0,0.015007209964096546
12.0,0.01435253769159317
13.0,0.013756504282355309
14.0,0.013257152400910854
15.0,0.012795149348676205
16.0,0.012321693822741508
18.0,0.011449391953647137
20.0,0.01071595773100853
22.0,0.010180994868278503
24.0,0.009728631004691124
26.0,0.009326552040874958
28.0,0.008993547409772873
30.0,0.008571132086217403
32.0,0.00817744992673397
36.0,0.007477452512830496
40.0,0.007100951857864857
44.0,0.006773307919502258
48.0,0.006322783417999744
52.0,0.006069939583539963
56.0,0.005736223421990871
60.0,0.00552509305998683
64.0,0.005427651572972536
72.0,0.004767016973346472
80.0,0.004170072730630636
88.0,0.00403097877278924
96.0,0.0036812317557632923
104.0,0.002820082474499941
112.0,0.0023446972481906414
120.0,0.0018006544560194016
128.0,0.0012697535566985607
144.0,0.00041864297236315906
160.0,0.00021030465723015368
176.0,-0.00044554442865774035
192.0,-0.0008471267647109926
208.0,-0.0003017077106051147
224.0,-0.0006069910596124828
240.0,-0.00044821761548519135
256.0,-0.0007428205572068691
288.0,-0.0007546341512352228
320.0,-0.0012154638534411788
352.0,-0.00138377258554101
384.0,-0.0019037255551666021
416.0,-0.0024142537731677294
448.0,-0.0021597074810415506
480.0,-0.0008914695354178548
512.0,-0.0004859065811615437
576.0,-0.00011874368647113442
640.0,-5.524999141925946e-05
704.0,0.0005194563418626785
768.0,0.0011769889388233423
832.0,0.0010167360305786133
896.0,0.001814369228668511
960.0,0.0017776400782167912
1024.0,-0.0003491962270345539
1152.0,-0.0002848558942787349
1280.0,-0.00044487224658951163
1408.0,0.0007403517956845462
1536.0,0.0009676179615780711
1664.0,-0.0003916538553312421
1792.0,-0.0007065564277581871
1920.0,-0.0008511882624588907
2048.0,-0.0005367007106542587
2304.0,-0.0004132723843213171
2560.0,0.0013114670291543007
2816.0,-0.0010613916674628854
3072.0,0.0006102718180045485
3328.0,0.000663421698845923
3584.0,0.000935757823754102
3840.0,-0.0018077515996992588
4096.0,0.0012262590462341905
4608.0,-0.0003039788862224668
5120.0,-7.712327351327986e-05
5632.0,0.00029257877031341195
6144.0,-0.00016036657325457782
6656.0,-0.0008595593390055001
7168.0,1.8824992366717197e-05
7680.0,-0.0008420345839112997
8192.0,3.2997857488226146e-05
end
