version,3.0
numOfCh,1
type,point
parent_name,484af_1dot0-1dot0
ch_type,1_1
kcount,1
numberNandB,1
brightnessNandB,1
carpet pos,0
pc,0
Time (ms),CH1 Auto-Correlation
1.0,0.026343265548348427
2.0,0.02418612875044346
3.0,0.02236199751496315
4.0,0.020771730691194534
5.0,0.019465511664748192
6.0,0.018286414444446564
7.0,0.017271682620048523
8.0,0.01637427508831024
9.0,0.015531920827925205
10.0,0.014773392118513584
11.0,0.01406893040984869
12.0,0.013436778448522091
13.0,0.012888401746749878
14.0,0.012389197945594788
15.0,0.0119481161236763
16.0,0.01152146328240633
18.0,0.010681556537747383
20.0,0.009991790167987347
22.0,0.009480229578912258
24.0,0.009097391739487648
26.0,0.008593820035457611
28.0,0.008136358112096786
30.0,0.007765835151076317
32.0,0.00736581813544035
36.0,0.006487867794930935
40.0,0.006136106792837381
44.0,0.005764416418969631
48.0,0.0054776608012616634
52.0,0.004871750250458717
56.0,0.004218213725835085
60.0,0.0036294832825660706
64.0,0.0031869569793343544
72.0,0.002346092602238059
80.0,0.0024280317593365908
88.0,0.002786314347758889
96.0,0.0021184729412198067
104.0,0.001574518857523799
112.0,0.0015039504505693913
120.0,0.001933487830683589
128.0,0.0019242912530899048
144.0,0.00144604139495641
160.0,0.0017848802963271737
176.0,0.0019267306197434664
192.0,0.0020701137837022543
208.0,0.0022041157353669405
224.0,0.0020308184903115034
240.0,0.0011048312298953533
256.0,0.0008486208971589804
288.0,0.0013581262901425362
320.0,0.001321014598943293
352.0,0.0009670102153904736
384.0,0.0006632084841839969
416.0,3.3410444302717224e-05
448.0,-0.0008862608228810132
480.0,-0.001251400331966579
512.0,-5.9823803894687444e-05
576.0,-0.00038163099088706076
640.0,-0.00036387049476616085
704.0,0.001009415602311492
768.0,0.0006922243046574295
832.0,0.0002599555009510368
896.0,3.847177868010476e-05
960.0,-0.0004920456558465958
1024.0,-0.00047506566625088453
1152.0,-0.00017269450472667813
1280.0,-0.0008366245892830193
1408.0,8.767180406721309e-05
1536.0,-0.0002059421967715025
1664.0,-0.0006631973665207624
1792.0,-0.002041130792349577
1920.0,-0.0014915327774360776
2048.0,-0.0013710659695789218
2304.0,-0.000565726775676012
2560.0,-0.0012124283239245415
2816.0,0.0002726655511651188
3072.0,0.0018454287201166153
3328.0,-0.0005814411561004817
3584.0,-0.00019036178127862513
3840.0,0.0002558424021117389
4096.0,-0.0004311379452701658
4608.0,7.877936150180176e-05
5120.0,-7.868678221711889e-05
5632.0,0.00010064347588922828
6144.0,0.0007317875861190259
6656.0,-0.0007559206569567323
7168.0,-0.0005028306622989476
7680.0,-0.0011419174261391163
8192.0,-0.0012689335271716118
end
