version,3.0
numOfCh,1
type,point
parent_name,dirty_0dot1-0dot01
ch_type,1_1
kcount,1
numberNandB,1
brightnessNandB,1
carpet pos,0
pc,0
Time (ms),CH1 Auto-Correlation
1.0,0.2165660858154297
2.0,0.21619628369808197
3.0,0.21585291624069214
4.0,0.21550150215625763
5.0,0.21512947976589203
6.0,0.2147403508424759
7.0,0.21434517204761505
8.0,0.21396028995513916
9.0,0.21359074115753174
10.0,0.21322675049304962
11.0,0.212840735912323
12.0,0.21246179938316345
13.0,0.2121022343635559
14.0,0.2117471992969513
15.0,0.21137899160385132
16.0,0.21101215481758118
18.0,0.21030375361442566
20.0,0.20957809686660767
22.0,0.20885489881038666
24.0,0.2081495076417923
26.0,0.2074204832315445
28.0,0.20670251548290253
30.0,0.20601755380630493
32.0,0.2053542286157608
36.0,0.20395328104496002
40.0,0.202479749917984
44.0,0.20114849507808685
48.0,0.19983862340450287
52.0,0.19851194322109222
56.0,0.19718268513679504
60.0,0.19589626789093018
64.0,0.19460763037204742
72.0,0.1920923888683319
80.0,0.18957547843456268
88.0,0.18720173835754395
96.0,0.184739887714386
104.0,0.18209220468997955
112.0,0.17944367229938507
120.0,0.17674113810062408
128.0,0.1740148365497589
144.0,0.1686716228723526
160.0,0.16329044103622437
176.0,0.15856371819972992
192.0,0.15473635494709015
208.0,0.15073251724243164
224.0,0.1470102071762085
240.0,0.14367850124835968
256.0,0.13984797894954681
288.0,0.13198794424533844
320.0,0.1262306272983551
352.0,0.12085229903459549
384.0,0.11627798527479172
416.0,0.1110888347029686
448.0,0.10694438219070435
480.0,0.10372614860534668
512.0,0.09976594895124435
576.0,0.09284237772226334
640.0,0.09022879600524902
704.0,0.09222003817558289
768.0,0.09703327715396881
832.0,0.09945454448461533
896.0,0.09870270639657974
960.0,0.09219416975975037
1024.0,0.08200693875551224
1152.0,0.06433694809675217
1280.0,0.04979725927114487
1408.0,0.039198752492666245
1536.0,0.038302626460790634
1664.0,0.03983719274401665
1792.0,0.05519014224410057
1920.0,0.07128146290779114
2048.0,0.07441836595535278
2304.0,0.061951834708452225
2560.0,0.0616302564740181
2816.0,0.0812903344631195
3072.0,0.06985900551080704
3328.0,0.03649695962667465
3584.0,0.0126121137291193
3840.0,-0.00794112216681242
4096.0,-0.019676167517900467
4608.0,-0.016998128965497017
5120.0,-0.020517623052001
5632.0,-0.02771693468093872
6144.0,-0.04597463086247444
6656.0,-0.05979505553841591
7168.0,-0.06693010032176971
7680.0,-0.053861748427152634
8192.0,-0.04648416489362717
9216.0,-0.07989225536584854
10240.0,-0.07929478585720062
11264.0,-0.07402285933494568
12288.0,-0.08184854686260223
13312.0,-0.062272295355796814
14336.0,-0.06136919558048248
end
