version,3.0
numOfCh,1
type,point
parent_name,dirty_0dot1-0dot01
ch_type,1_1
kcount,1
numberNandB,1
brightnessNandB,1
carpet pos,0
pc,0
Time (ms),CH1 Auto-Correlation
1.0,0.06714382767677307
2.0,0.06689458340406418
3.0,0.0666448324918747
4.0,0.06640387326478958
5.0,0.0661618709564209
6.0,0.06592294573783875
7.0,0.06569073349237442
8.0,0.06544611603021622
9.0,0.065216064453125
10.0,0.0649922713637352
11.0,0.06477374583482742
12.0,0.06456608325242996
13.0,0.06436672061681747
14.0,0.06418010592460632
15.0,0.06399225443601608
16.0,0.0638100802898407
18.0,0.06342393159866333
20.0,0.06305728107690811
22.0,0.0626947209239006
24.0,0.06235707551240921
26.0,0.06200464069843292
28.0,0.06165082007646561
30.0,0.06130604073405266
32.0,0.060976527631282806
36.0,0.06034402549266815
40.0,0.059714850038290024
44.0,0.05906437337398529
48.0,0.058444179594516754
52.0,0.05779784172773361
56.0,0.057148899883031845
60.0,0.05652020126581192
64.0,0.05591866746544838
72.0,0.05481206998229027
80.0,0.053865592926740646
88.0,0.05295242741703987
96.0,0.052071698009967804
104.0,0.051414430141448975
112.0,0.05071137100458145
120.0,0.05001426488161087
128.0,0.04944988340139389
144.0,0.04802951216697693
160.0,0.04606481269001961
176.0,0.04417924955487251
192.0,0.04223223775625229
208.0,0.040080852806568146
224.0,0.03819739818572998
240.0,0.03656639903783798
256.0,0.035037700086832047
288.0,0.03179183229804039
320.0,0.028369152918457985
352.0,0.02539619617164135
384.0,0.02349412627518177
416.0,0.021963832899928093
448.0,0.020660845562815666
480.0,0.018599316477775574
512.0,0.016228612512350082
576.0,0.012494219467043877
640.0,0.008723079226911068
704.0,0.004951434209942818
768.0,0.0017629772191867232
832.0,-0.0010844252537935972
896.0,-0.0017982389545068145
960.0,-0.0021129767410457134
1024.0,-0.003466855501756072
1152.0,-0.002315171994268894
1280.0,-5.7279121392639354e-05
1408.0,0.003334120847284794
1536.0,0.00844015832990408
1664.0,0.010871379636228085
1792.0,0.011260654777288437
1920.0,0.009703964926302433
2048.0,0.007033044472336769
2304.0,0.0010517488699406385
2560.0,-0.0036086319014430046
2816.0,-0.00540756294503808
3072.0,-0.007525619585067034
3328.0,-0.0030422043055295944
3584.0,-0.004387685563415289
3840.0,-0.0015576991718262434
4096.0,-0.0006399243720807135
4608.0,-0.004533838480710983
5120.0,-0.001111724297516048
5632.0,0.002662656595930457
6144.0,0.0024897390976548195
6656.0,-0.00469210185110569
7168.0,-0.00827331468462944
7680.0,-0.016021855175495148
8192.0,-0.021026602014899254
9216.0,-0.013656508177518845
10240.0,-0.004039485938847065
11264.0,0.006414175499230623
12288.0,0.005863522179424763
13312.0,-0.00236957217566669
14336.0,-0.008114160969853401
end
