version,3.0
numOfCh,1
type,point
parent_name,dirty_0dot1-0dot01
ch_type,1_1
kcount,1
numberNandB,1
brightnessNandB,1
carpet pos,0
pc,0
Time (ms),CH1 Auto-Correlation
1.0,0.37356245517730713
2.0,0.37314867973327637
3.0,0.3727344870567322
4.0,0.37231117486953735
5.0,0.371879905462265
6.0,0.37145310640335083
7.0,0.3710208237171173
8.0,0.370563805103302
9.0,0.37009650468826294
10.0,0.3696364164352417
11.0,0.3691760301589966
12.0,0.36871498823165894
13.0,0.36827096343040466
14.0,0.3678446412086487
15.0,0.36741629242897034
16.0,0.36698800325393677
18.0,0.36609771847724915
20.0,0.36522984504699707
22.0,0.3643406927585602
24.0,0.3634369373321533
26.0,0.36258894205093384
28.0,0.3617737889289856
30.0,0.3609761893749237
32.0,0.3602014482021332
36.0,0.35876569151878357
40.0,0.3574865460395813
44.0,0.35627835988998413
48.0,0.35509663820266724
52.0,0.3538186848163605
56.0,0.3525852560997009
60.0,0.351288765668869
64.0,0.349955290555954
72.0,0.3474724590778351
80.0,0.3452118933200836
88.0,0.3429858386516571
96.0,0.3410852551460266
104.0,0.3395349979400635
112.0,0.3382358253002167
120.0,0.33747127652168274
128.0,0.33710622787475586
144.0,0.33692169189453125
160.0,0.3363529145717621
176.0,0.3347930908203125
192.0,0.3333844542503357
208.0,0.3320523202419281
224.0,0.3303029239177704
240.0,0.32792261242866516
256.0,0.3249208927154541
288.0,0.32037171721458435
320.0,0.3185950219631195
352.0,0.31583598256111145
384.0,0.3090546727180481
416.0,0.29958459734916687
448.0,0.2900462746620178
480.0,0.2812035083770752
512.0,0.2743006944656372
576.0,0.26484954357147217
640.0,0.24972911179065704
704.0,0.23148062825202942
768.0,0.21887986361980438
832.0,0.20634154975414276
896.0,0.1947912722826004
960.0,0.18081599473953247
1024.0,0.1610303521156311
1152.0,0.1336526870727539
1280.0,0.09774083644151688
1408.0,0.0655055046081543
1536.0,0.04250256344676018
1664.0,0.016579750925302505
1792.0,0.0030665018130093813
1920.0,-0.005960491020232439
2048.0,-0.009835194796323776
2304.0,-0.011231118813157082
2560.0,-0.010836266912519932
2816.0,-0.007770561147481203
3072.0,-0.006056743208318949
3328.0,-0.004897215869277716
3584.0,-0.006371095776557922
3840.0,-0.007107656914740801
4096.0,-0.00920023676007986
4608.0,-0.013486788608133793
5120.0,-0.015737563371658325
5632.0,-0.023099355399608612
6144.0,-0.03836749121546745
6656.0,-0.04955821856856346
7168.0,-0.05106670781970024
7680.0,-0.04724982753396034
8192.0,-0.04501443728804588
9216.0,-0.07473260164260864
10240.0,-0.0854831337928772
11264.0,-0.028215136379003525
12288.0,-0.0554017499089241
13312.0,-0.2340266853570938
14336.0,-0.393752783536911
end
