version,3.0
numOfCh,1
type,point
parent_name,dirty_0dot1-0dot01
ch_type,1_1
kcount,1
numberNandB,1
brightnessNandB,1
carpet pos,0
pc,0
Time (ms),CH1 Auto-Correlation
1.0,0.037867382168769836
2.0,0.03765503689646721
3.0,0.03744412213563919
4.0,0.037235431373119354
5.0,0.0370304137468338
6.0,0.036832019686698914
7.0,0.036643125116825104
8.0,0.03644898161292076
9.0,0.03626381233334541
10.0,0.03607507050037384
11.0,0.03588929399847984
12.0,0.03571102395653725
13.0,0.035529136657714844
14.0,0.03535205125808716
15.0,0.03517506271600723
16.0,0.0349997878074646
18.0,0.03465092182159424
20.0,0.03430958464741707
22.0,0.033979713916778564
24.0,0.03365093469619751
26.0,0.03332418203353882
28.0,0.03299399092793465
30.0,0.03266464173793793
32.0,0.03234710171818733
36.0,0.031711071729660034
40.0,0.031073924154043198
44.0,0.030459508299827576
48.0,0.029880542308092117
52.0,0.029321681708097458
56.0,0.028783759102225304
60.0,0.028264906257390976
64.0,0.027715200558304787
72.0,0.02665114775300026
80.0,0.02571946755051613
88.0,0.024984227493405342
96.0,0.024280283600091934
104.0,0.023598887026309967
112.0,0.023006683215498924
120.0,0.022414302453398705
128.0,0.021792378276586533
144.0,0.020606227219104767
160.0,0.01954570785164833
176.0,0.01864355057477951
192.0,0.017689475789666176
208.0,0.016780253499746323
224.0,0.015814056620001793
240.0,0.014804760925471783
256.0,0.013852173462510109
288.0,0.012342073023319244
320.0,0.011374139226973057
352.0,0.010686436668038368
384.0,0.010399621911346912
416.0,0.009983789175748825
448.0,0.00979241169989109
480.0,0.009863044135272503
512.0,0.01027725450694561
576.0,0.010839849710464478
640.0,0.009441081434488297
704.0,0.008115260861814022
768.0,0.008142158389091492
832.0,0.007760592270642519
896.0,0.007121662143617868
960.0,0.007249836344271898
1024.0,0.00652783177793026
1152.0,0.006171571556478739
1280.0,0.0061368620954453945
1408.0,0.004953978583216667
1536.0,0.003872147761285305
1664.0,0.0018556074937805533
1792.0,0.001876690424978733
1920.0,0.003628622507676482
2048.0,0.005688012111932039
2304.0,0.005195352248847485
2560.0,0.005624088924378157
2816.0,0.005360417068004608
3072.0,0.004400041885674
3328.0,0.004923700820654631
3584.0,0.005857050884515047
3840.0,0.004977064672857523
4096.0,0.002914672251790762
4608.0,-0.0012455364922061563
5120.0,-0.0007272118818946183
5632.0,-0.003956949338316917
6144.0,1.1756977073673625e-05
6656.0,-0.0013201653491705656
7168.0,0.001529754139482975
7680.0,-0.002492817584425211
8192.0,-0.0005653506959788501
9216.0,-0.005128631368279457
10240.0,-0.0012104309862479568
11264.0,-0.017515476793050766
12288.0,-0.01998656988143921
13312.0,-0.01256139948964119
14336.0,-0.02091832086443901
end
