version,3.0
numOfCh,1
type,point
parent_name,dirty_0dot1-0dot01
ch_type,1_1
kcount,1
numberNandB,1
brightnessNandB,1
carpet pos,0
pc,0
Time (ms),CH1 Auto-Correlation
1.0,0.18303056061267853
2.0,0.18267711997032166
3.0,0.18233563005924225
4.0,0.18200336396694183
5.0,0.18168030679225922
6.0,0.18135914206504822
7.0,0.18103085458278656
8.0,0.18071094155311584
9.0,0.18039476871490479
10.0,0.18006935715675354
11.0,0.17974305152893066
12.0,0.17943067848682404
13.0,0.1791229397058487
14.0,0.1788240224123001
15.0,0.17851045727729797
16.0,0.17820006608963013
18.0,0.1776077300310135
20.0,0.17702855169773102
22.0,0.17642366886138916
24.0,0.17582066357135773
26.0,0.17524012923240662
28.0,0.17466211318969727
30.0,0.17406919598579407
32.0,0.1734985113143921
36.0,0.17233455181121826
40.0,0.17108723521232605
44.0,0.16985566914081573
48.0,0.16861844062805176
52.0,0.16739676892757416
56.0,0.16623379290103912
60.0,0.16512730717658997
64.0,0.16403578221797943
72.0,0.16197466850280762
80.0,0.1599234938621521
88.0,0.1579040288925171
96.0,0.1557602733373642
104.0,0.1536562293767929
112.0,0.15157273411750793
120.0,0.1495138257741928
128.0,0.14752762019634247
144.0,0.1435699760913849
160.0,0.1397421956062317
176.0,0.13589739799499512
192.0,0.13198526203632355
208.0,0.1280941218137741
224.0,0.12445195019245148
240.0,0.1206197440624237
256.0,0.11637581884860992
288.0,0.10829667747020721
320.0,0.10055363923311234
352.0,0.09290225803852081
384.0,0.08522319793701172
416.0,0.07768294960260391
448.0,0.07018866389989853
480.0,0.06308348476886749
512.0,0.056037433445453644
576.0,0.04264741763472557
640.0,0.029378732666373253
704.0,0.01721513271331787
768.0,0.008609933778643608
832.0,0.0005721263587474823
896.0,-0.007222651969641447
960.0,-0.012835935689508915
1024.0,-0.016569701954722404
1152.0,-0.020783046260476112
1280.0,-0.028020473197102547
1408.0,-0.03661821782588959
1536.0,-0.03914604336023331
1664.0,-0.03683341294527054
1792.0,-0.03956277295947075
1920.0,-0.04211079701781273
2048.0,-0.04113573208451271
2304.0,-0.03383858874440193
2560.0,-0.014002694748342037
2816.0,0.005886770784854889
3072.0,0.00893984641879797
3328.0,-0.004308193922042847
3584.0,-0.009659641422331333
3840.0,-0.001690408680588007
4096.0,-0.003385731251910329
4608.0,0.003972179256379604
5120.0,-0.0201826523989439
5632.0,-0.0377737320959568
6144.0,-0.014452952891588211
6656.0,0.021991366520524025
7168.0,0.06458667665719986
7680.0,0.06918253749608994
8192.0,0.009247517213225365
9216.0,-0.02892691269516945
10240.0,-0.018215565010905266
11264.0,-0.030469167977571487
12288.0,-0.059346530586481094
13312.0,0.02277814969420433
14336.0,0.008943386375904083
end
