version,3.0
numOfCh,1
type,point
parent_name,dirty_0dot1-0dot01
ch_type,1_1
kcount,1
numberNandB,1
brightnessNandB,1
carpet pos,0
pc,0
Time (ms),CH1 Auto-Correlation
1.0,0.03749556094408035
2.0,0.037268731743097305
3.0,0.0370493084192276
4.0,0.0368371307849884
5.0,0.03662693873047829
6.0,0.036419618874788284
7.0,0.03622054308652878
8.0,0.036029260605573654
9.0,0.035845544189214706
10.0,0.03565780073404312
11.0,0.035479433834552765
12.0,0.03530336916446686
13.0,0.03513467684388161
14.0,0.034967631101608276
15.0,0.03479662537574768
16.0,0.034638527780771255
18.0,0.034329403191804886
20.0,0.03403542935848236
22.0,0.03377753496170044
24.0,0.033511798828840256
26.0,0.03322364017367363
28.0,0.03293194994330406
30.0,0.032633136957883835
32.0,0.032365038990974426
36.0,0.031860969960689545
40.0,0.031361646950244904
44.0,0.030894853174686432
48.0,0.030442290008068085
52.0,0.030011886730790138
56.0,0.029585914686322212
60.0,0.02919621206820011
64.0,0.028848400339484215
72.0,0.028223345056176186
80.0,0.02771894447505474
88.0,0.02734626643359661
96.0,0.026930013671517372
104.0,0.026543209329247475
112.0,0.0262076947838068
120.0,0.025831224396824837
128.0,0.025494232773780823
144.0,0.024730591103434563
160.0,0.024051977321505547
176.0,0.02362040802836418
192.0,0.023255299776792526
208.0,0.022840920835733414
224.0,0.022139504551887512
240.0,0.021173598244786263
256.0,0.02022668719291687
288.0,0.019219286739826202
320.0,0.01887514442205429
352.0,0.01837795414030552
384.0,0.01750410906970501
416.0,0.016175992786884308
448.0,0.014601857401430607
480.0,0.013049297034740448
512.0,0.011929485946893692
576.0,0.010440115816891193
640.0,0.008771107532083988
704.0,0.007179158739745617
768.0,0.005803499836474657
832.0,0.003378563094884157
896.0,0.0019866363145411015
960.0,0.0017325199441984296
1024.0,0.0008942676358856261
1152.0,-0.0013421968324109912
1280.0,-0.0021014735102653503
1408.0,-0.003148286836221814
1536.0,-0.0041908263228833675
1664.0,-0.004093406721949577
1792.0,-0.0014323010109364986
1920.0,-0.00031961192144080997
2048.0,-0.0006641370127908885
2304.0,0.0005229405942372978
2560.0,-0.0004109309520572424
2816.0,-0.0016121191438287497
3072.0,-0.0025479800533503294
3328.0,-0.0033340200316160917
3584.0,-0.0031124413944780827
3840.0,-0.002360973274335265
4096.0,-0.0032720037270337343
4608.0,-0.002712514717131853
5120.0,0.002038974082097411
5632.0,0.00509706512093544
6144.0,0.00616432772949338
6656.0,0.004219128750264645
7168.0,0.007422422990202904
7680.0,0.00433757109567523
8192.0,-0.002986371982842684
9216.0,-0.010535558685660362
10240.0,-0.0034290477633476257
11264.0,-0.0033760624937713146
12288.0,-0.010365838184952736
13312.0,0.0013539039064198732
14336.0,-0.01934954524040222
end
