version,3.0
numOfCh,1
type,point
parent_name,dirty_0dot1-0dot01
ch_type,1_1
kcount,1
numberNandB,1
brightnessNandB,1
carpet pos,0
pc,0
Time (ms),CH1 Auto-Correlation
1.0,0.16086722910404205
2.0,0.1605076938867569
3.0,0.16014960408210754
4.0,0.1597795933485031
5.0,0.15942077338695526
6.0,0.1590547114610672
7.0,0.15869127213954926
8.0,0.1583285629749298
9.0,0.15796718001365662
10.0,0.15761812031269073
11.0,0.15726836025714874
12.0,0.15691430866718292
13.0,0.15655754506587982
14.0,0.15620027482509613
15.0,0.1558564454317093
16.0,0.15552110970020294
18.0,0.15486355125904083
20.0,0.15422175824642181
22.0,0.15358588099479675
24.0,0.15294663608074188
26.0,0.15229317545890808
28.0,0.15162426233291626
30.0,0.15094663202762604
32.0,0.15028421580791473
36.0,0.14894461631774902
40.0,0.14758652448654175
44.0,0.14625026285648346
48.0,0.14493948221206665
52.0,0.1436735987663269
56.0,0.14244569838047028
60.0,0.14126810431480408
64.0,0.1400507390499115
72.0,0.1376778930425644
80.0,0.13531316816806793
88.0,0.13297772407531738
96.0,0.13063347339630127
104.0,0.12841813266277313
112.0,0.1264534443616867
120.0,0.12456949055194855
128.0,0.122624471783638
144.0,0.11875221878290176
160.0,0.1150132268667221
176.0,0.11139487475156784
192.0,0.10764630883932114
208.0,0.10384257137775421
224.0,0.10005896538496017
240.0,0.09682510793209076
256.0,0.09399919956922531
288.0,0.0894242450594902
320.0,0.08590207993984222
352.0,0.08282585442066193
384.0,0.07979133725166321
416.0,0.07643754780292511
448.0,0.07377228885889053
480.0,0.07160865515470505
512.0,0.070301353931427
576.0,0.06393967568874359
640.0,0.05255942419171333
704.0,0.04427510127425194
768.0,0.03924230858683586
832.0,0.03678589314222336
896.0,0.03625520318746567
960.0,0.03747987374663353
1024.0,0.03727136552333832
1152.0,0.03188430890440941
1280.0,0.024055995047092438
1408.0,0.021580982953310013
1536.0,0.02443661540746689
1664.0,0.027255723252892494
1792.0,0.027475932613015175
1920.0,0.023983830586075783
2048.0,0.024058744311332703
2304.0,0.01881515048444271
2560.0,0.0011317265452817082
2816.0,-0.004755890462547541
3072.0,-0.027867663651704788
3328.0,-0.020345164462924004
3584.0,-0.01762990467250347
3840.0,-0.019328167662024498
4096.0,-0.03858567401766777
4608.0,-0.035447802394628525
5120.0,-0.011011623777449131
5632.0,-0.02302294597029686
6144.0,-0.05814605578780174
6656.0,-0.06330525875091553
7168.0,-0.032065752893686295
7680.0,-0.05017627403140068
8192.0,-0.06817098706960678
9216.0,-0.009687480516731739
10240.0,0.004563807975500822
11264.0,0.013507744297385216
12288.0,0.08632656931877136
13312.0,0.022240934893488884
14336.0,0.059869591146707535
end
