version,3.0
numOfCh,1
type,point
parent_name,dirty_0dot1-0dot01
ch_type,1_1
kcount,1
numberNandB,1
brightnessNandB,1
carpet pos,0
pc,0
Time (ms),CH1 Auto-Correlation
1.0,0.0248465184122324
2.0,0.024641409516334534
3.0,0.024439513683319092
4.0,0.02423974685370922
5.0,0.024039441719651222
6.0,0.023842032998800278
7.0,0.023645993322134018
8.0,0.02345590479671955
9.0,0.023258477449417114
10.0,0.023064155131578445
11.0,0.022870540618896484
12.0,0.022677501663565636
13.0,0.02248922362923622
14.0,0.022300664335489273
15.0,0.022118179127573967
16.0,0.02192976325750351
18.0,0.02156691998243332
20.0,0.02121841534972191
22.0,0.020886139944195747
24.0,0.020569728687405586
26.0,0.020265327766537666
28.0,0.019985802471637726
30.0,0.01972993277013302
32.0,0.019480345770716667
36.0,0.019018201157450676
40.0,0.018595566973090172
44.0,0.01819542609155178
48.0,0.017817366868257523
52.0,0.01746338978409767
56.0,0.017136653885245323
60.0,0.016799870878458023
64.0,0.01644439622759819
72.0,0.015811361372470856
80.0,0.015235784463584423
88.0,0.014716291800141335
96.0,0.014270000159740448
104.0,0.013869759626686573
112.0,0.01340494304895401
120.0,0.012904368340969086
128.0,0.012368566356599331
144.0,0.011383243836462498
160.0,0.010753422975540161
176.0,0.009884409606456757
192.0,0.009092186577618122
208.0,0.008380984887480736
224.0,0.007683442439883947
240.0,0.006842419505119324
256.0,0.006114989053457975
288.0,0.0051680332981050014
320.0,0.004116444382816553
352.0,0.0030568039510399103
384.0,0.002212905092164874
416.0,0.0018728618742898107
448.0,0.001594018773175776
480.0,0.0011765165254473686
512.0,0.00046919393935240805
576.0,-0.00047633505892008543
640.0,-0.0007491686847060919
704.0,-0.000886782887391746
768.0,-0.000943042803555727
832.0,-0.0005698855966329575
896.0,-0.0005622850148938596
960.0,-0.0009382746648043394
1024.0,-0.0018593205604702234
1152.0,-0.0022015608847141266
1280.0,-0.002149086445569992
1408.0,-0.0006991546251811087
1536.0,-0.0008605578332208097
1664.0,0.00020288905943743885
1792.0,-2.166719968954567e-05
1920.0,-0.00024398376990575343
2048.0,-0.001971454592421651
2304.0,-0.0033790383022278547
2560.0,-0.003703545778989792
2816.0,-0.0011448353761807084
3072.0,0.002773505635559559
3328.0,0.0032217891421169043
3584.0,0.0035912615712732077
3840.0,0.005069991573691368
4096.0,0.0018544046906754375
4608.0,-0.000248121825279668
5120.0,5.2494673582259566e-05
5632.0,-0.0030934701208025217
6144.0,-0.0005278853350318968
6656.0,0.002308314200490713
7168.0,0.0020586985629051924
7680.0,-0.0014516357332468033
8192.0,-0.0009848104091361165
9216.0,-0.0026282446924597025
10240.0,-0.0011963493889197707
11264.0,0.002406161278486252
12288.0,-0.0021907114423811436
13312.0,-0.00834108516573906
14336.0,-0.004046396352350712
end
