version,3.0
numOfCh,1
type,point
parent_name,dirty_0dot1-0dot01
ch_type,1_1
kcount,1
numberNandB,1
brightnessNandB,1
carpet pos,0
pc,0
Time (ms),CH1 Auto-Correlation
1.0,0.15130257606506348
2.0,0.15102356672286987
3.0,0.1507456749677658
4.0,0.15046264231204987
5.0,0.15018238127231598
6.0,0.14990651607513428
7.0,0.14962902665138245
8.0,0.149350106716156
9.0,0.1490681767463684
10.0,0.14879225194454193
11.0,0.14853191375732422
12.0,0.14827869832515717
13.0,0.1480260044336319
14.0,0.14777298271656036
15.0,0.14751610159873962
16.0,0.14726464450359344
18.0,0.1467677503824234
20.0,0.14629453420639038
22.0,0.14583417773246765
24.0,0.14536480605602264
26.0,0.14490891993045807
28.0,0.14445841312408447
30.0,0.14399605989456177
32.0,0.143535315990448
36.0,0.1426621824502945
40.0,0.1418163776397705
44.0,0.14098471403121948
48.0,0.14019307494163513
52.0,0.1394529789686203
56.0,0.13875475525856018
60.0,0.1379876285791397
64.0,0.13717007637023926
72.0,0.1355021446943283
80.0,0.13391827046871185
88.0,0.13236042857170105
96.0,0.13074003159999847
104.0,0.12917734682559967
112.0,0.12769702076911926
120.0,0.12631414830684662
128.0,0.12490878999233246
144.0,0.12201958894729614
160.0,0.11928040534257889
176.0,0.11668409407138824
192.0,0.11425913870334625
208.0,0.11177600175142288
224.0,0.10911376774311066
240.0,0.10647710412740707
256.0,0.10385343432426453
288.0,0.09802073240280151
320.0,0.09222614020109177
352.0,0.08728612959384918
384.0,0.08269889652729034
416.0,0.07877769321203232
448.0,0.07602886855602264
480.0,0.07271723449230194
512.0,0.06881628185510635
576.0,0.06184849515557289
640.0,0.0567190982401371
704.0,0.0500585101544857
768.0,0.04243346303701401
832.0,0.03682989999651909
896.0,0.03397499397397041
960.0,0.03335796296596527
1024.0,0.03176857531070709
1152.0,0.025974469259381294
1280.0,0.015563326887786388
1408.0,0.0006569646066054702
1536.0,-0.007967370562255383
1664.0,-0.011360425502061844
1792.0,-0.014057248830795288
1920.0,-0.013349856249988079
2048.0,-0.012047478929162025
2304.0,-0.01255592331290245
2560.0,-0.014396490529179573
2816.0,-0.01209636963903904
3072.0,-0.011842329986393452
3328.0,-0.009662389755249023
3584.0,-0.009953979402780533
3840.0,-0.008543632924556732
4096.0,0.00047878059558570385
4608.0,-7.551118324045092e-05
5120.0,-0.003893544664606452
5632.0,0.005535580683499575
6144.0,0.0021601789630949497
6656.0,0.0018685950199142098
7168.0,-0.003041694639250636
7680.0,-0.00019226274162065238
8192.0,-0.01733078993856907
9216.0,-0.01709846220910549
10240.0,-0.002386186271905899
11264.0,-0.04472208395600319
12288.0,-0.05762549489736557
13312.0,-0.04123972728848457
14336.0,0.029651964083313942
end
