version,3.0
numOfCh,1
type,point
parent_name,dirty_0dot1-0dot01
ch_type,1_1
kcount,1
numberNandB,1
brightnessNandB,1
carpet pos,0
pc,0
Time (ms),CH1 Auto-Correlation
1.0,0.2094910591840744
2.0,0.2091585248708725
3.0,0.20881761610507965
4.0,0.208473801612854
5.0,0.20812368392944336
6.0,0.20777975022792816
7.0,0.20744141936302185
8.0,0.2071041613817215
9.0,0.2067783921957016
10.0,0.20645031332969666
11.0,0.2061345875263214
12.0,0.20581786334514618
13.0,0.2055037021636963
14.0,0.2051888108253479
15.0,0.2048799693584442
16.0,0.20457018911838531
18.0,0.20397095382213593
20.0,0.20337562263011932
22.0,0.2027704119682312
24.0,0.20215465128421783
26.0,0.20154377818107605
28.0,0.2009182870388031
30.0,0.2003004252910614
32.0,0.19969888031482697
36.0,0.19849532842636108
40.0,0.19729873538017273
44.0,0.19616611301898956
48.0,0.19504334032535553
52.0,0.19394046068191528
56.0,0.19287694990634918
60.0,0.19182072579860687
64.0,0.1907208114862442
72.0,0.188368022441864
80.0,0.185989648103714
88.0,0.18364892899990082
96.0,0.181267648935318
104.0,0.1788080930709839
112.0,0.17636525630950928
120.0,0.1741030514240265
128.0,0.17196621000766754
144.0,0.1677611768245697
160.0,0.16393736004829407
176.0,0.16016879677772522
192.0,0.15672394633293152
208.0,0.15338309109210968
224.0,0.15054674446582794
240.0,0.14771366119384766
256.0,0.14520421624183655
288.0,0.13950906693935394
320.0,0.13359279930591583
352.0,0.12794354557991028
384.0,0.12303558737039566
416.0,0.11835366487503052
448.0,0.11342175304889679
480.0,0.10956911742687225
512.0,0.10606683045625687
576.0,0.0973443016409874
640.0,0.08536064624786377
704.0,0.07278501242399216
768.0,0.061997756361961365
832.0,0.05521434172987938
896.0,0.0512252151966095
960.0,0.04878968745470047
1024.0,0.04702118784189224
1152.0,0.042028311640024185
1280.0,0.03392839804291725
1408.0,0.02655421569943428
1536.0,0.025557823479175568
1664.0,0.02229660376906395
1792.0,0.022897977381944656
1920.0,0.01921112649142742
2048.0,0.01643279194831848
2304.0,0.019056273624300957
2560.0,0.03166666626930237
2816.0,0.034251242876052856
3072.0,0.033260051161050797
3328.0,0.018998751416802406
3584.0,0.017050331458449364
3840.0,0.017319485545158386
4096.0,0.015795474871993065
4608.0,-0.015455888584256172
5120.0,-0.00783343892544508
5632.0,3.4201286325696856e-05
6144.0,-0.013538364320993423
6656.0,-0.001620747148990631
7168.0,-0.010509788990020752
7680.0,-0.04600421339273453
8192.0,-0.061434924602508545
9216.0,-0.08121839165687561
10240.0,-0.09858109802007675
11264.0,-0.08914034813642502
12288.0,-0.12021753191947937
13312.0,-0.016886310651898384
14336.0,0.049707937985658646
end
