version,3.0
numOfCh,1
type,point
parent_name,dirty_0dot1-0dot01
ch_type,1_1
kcount,1
numberNandB,1
brightnessNandB,1
carpet pos,0
pc,0
Time (ms),CH1 Auto-Correlation
1.0,0.04999924451112747
2.0,0.049759071320295334
3.0,0.049512237310409546
4.0,0.049270231276750565
5.0,0.04903094843029976
6.0,0.0487908273935318
7.0,0.04853725805878639
8.0,0.04829331114888191
9.0,0.04804333671927452
10.0,0.04779260233044624
11.0,0.047543108463287354
12.0,0.04729178920388222
13.0,0.047039180994033813
14.0,0.04678384214639664
15.0,0.04653117433190346
16.0,0.04627314209938049
18.0,0.045755431056022644
20.0,0.04523669555783272
22.0,0.04473809152841568
24.0,0.04426619037985802
26.0,0.04378814995288849
28.0,0.04332917556166649
30.0,0.042894452810287476
32.0,0.042474232614040375
36.0,0.041672997176647186
40.0,0.040920134633779526
44.0,0.0402214489877224
48.0,0.03953128308057785
52.0,0.03883381932973862
56.0,0.03808905929327011
60.0,0.03729812800884247
64.0,0.03645535558462143
72.0,0.03474022448062897
80.0,0.03300363942980766
88.0,0.031466029584407806
96.0,0.029958952218294144
104.0,0.028587346896529198
112.0,0.027263736352324486
120.0,0.025939393788576126
128.0,0.02460077591240406
144.0,0.021996138617396355
160.0,0.019394526258111
176.0,0.01675340160727501
192.0,0.014401376247406006
208.0,0.012311861850321293
224.0,0.010348299518227577
240.0,0.00815652497112751
256.0,0.005986543372273445
288.0,0.0023210332728922367
320.0,-0.000945643347222358
352.0,-0.0034343760926276445
384.0,-0.00430884538218379
416.0,-0.004343115724623203
448.0,-0.00417197635397315
480.0,-0.004219223745167255
512.0,-0.004062699154019356
576.0,-0.004441768396645784
640.0,-0.004037500359117985
704.0,-0.00360570615157485
768.0,-0.0033129416406154633
832.0,-0.0026631848886609077
896.0,-0.0006671448354609311
960.0,0.0010511837899684906
1024.0,0.0007876682793721557
1152.0,-0.0008216037531383336
1280.0,-0.004485936835408211
1408.0,-0.004331082571297884
1536.0,-0.0047751921229064465
1664.0,-0.004866217728704214
1792.0,-0.004225616343319416
1920.0,-0.0003321471740491688
2048.0,0.0005309951375238597
2304.0,-0.0005186802591197193
2560.0,0.0012662444496527314
2816.0,-0.0011334503069519997
3072.0,-0.001475788070820272
3328.0,-0.0007932701846584678
3584.0,-0.005333899054676294
3840.0,-0.005600582808256149
4096.0,0.002791274106130004
4608.0,-0.0026448750868439674
5120.0,0.0021098663564771414
5632.0,0.004821966402232647
6144.0,-0.0014658980071544647
6656.0,0.0015307513531297445
7168.0,-0.00414138101041317
7680.0,0.010166844353079796
8192.0,0.002798407571390271
9216.0,-0.00529496232047677
10240.0,-0.002638919511809945
11264.0,-0.007115074433386326
12288.0,0.011837941594421864
13312.0,-0.0035483306273818016
14336.0,-0.006153216119855642
end
