version,3.0
numOfCh,1
type,point
parent_name,dirty_0dot1-0dot01
ch_type,1_1
kcount,1
numberNandB,1
brightnessNandB,1
carpet pos,0
pc,0
Time (ms),CH1 Auto-Correlation
1.0,0.16945640742778778
2.0,0.1691175103187561
3.0,0.1687876582145691
4.0,0.16845102608203888
5.0,0.16811679303646088
6.0,0.1677750051021576
7.0,0.16744349896907806
8.0,0.16710904240608215
9.0,0.16677448153495789
10.0,0.16644571721553802
11.0,0.16610731184482574
12.0,0.16578054428100586
13.0,0.16544494032859802
14.0,0.16510988771915436
15.0,0.1647801548242569
16.0,0.16446396708488464
18.0,0.16384676098823547
20.0,0.16322514414787292
22.0,0.16258688271045685
24.0,0.1619585007429123
26.0,0.16132265329360962
28.0,0.1607036590576172
30.0,0.16012349724769592
32.0,0.15956035256385803
36.0,0.15840256214141846
40.0,0.15724916756153107
44.0,0.15611714124679565
48.0,0.15502694249153137
52.0,0.1540064513683319
56.0,0.15300960838794708
60.0,0.1520189344882965
64.0,0.15100018680095673
72.0,0.148927703499794
80.0,0.14700070023536682
88.0,0.14516152441501617
96.0,0.14328031241893768
104.0,0.14146903157234192
112.0,0.13973504304885864
120.0,0.13808493316173553
128.0,0.1365828663110733
144.0,0.13347654044628143
160.0,0.1303899884223938
176.0,0.12724587321281433
192.0,0.12392114847898483
208.0,0.12055613845586777
224.0,0.11693273484706879
240.0,0.1132635846734047
256.0,0.10992397367954254
288.0,0.10391520708799362
320.0,0.09810629487037659
352.0,0.09263566881418228
384.0,0.08662062883377075
416.0,0.07983794063329697
448.0,0.07240733504295349
480.0,0.0648607537150383
512.0,0.05781500041484833
576.0,0.04554644599556923
640.0,0.03550313785672188
704.0,0.02914135344326496
768.0,0.025145018473267555
832.0,0.02189650572836399
896.0,0.01667719893157482
960.0,0.011733142659068108
1024.0,0.009505992755293846
1152.0,0.00524197006598115
1280.0,0.006774989888072014
1408.0,0.010201375931501389
1536.0,0.015566885471343994
1664.0,0.023254036903381348
1792.0,0.023209722712635994
1920.0,0.017478011548519135
2048.0,0.010979903861880302
2304.0,-0.025690140202641487
2560.0,-0.0566716231405735
2816.0,-0.07233642786741257
3072.0,-0.06770914793014526
3328.0,-0.050186753273010254
3584.0,-0.038722410798072815
3840.0,-0.045957814902067184
4096.0,-0.0591578483581543
4608.0,-0.03382600471377373
5120.0,0.015071080066263676
5632.0,0.04394916072487831
6144.0,0.03944094479084015
6656.0,0.058604706078767776
7168.0,0.039981041103601456
7680.0,0.001396135543473065
8192.0,-0.00935568381100893
9216.0,-0.06743480265140533
10240.0,-0.06113061308860779
11264.0,-0.039326317608356476
12288.0,0.02290189266204834
13312.0,0.04406064376235008
14336.0,0.054617539048194885
end
