version,3.0
numOfCh,1
type,point
parent_name,dirty_0dot1-0dot01
ch_type,1_1
kcount,1
numberNandB,1
brightnessNandB,1
carpet pos,0
pc,0
Time (ms),CH1 Auto-Correlation
1.0,0.1644877791404724
2.0,0.16424308717250824
3.0,0.1639927178621292
4.0,0.16374678909778595
5.0,0.1635037064552307
6.0,0.16326048970222473
7.0,0.16301554441452026
8.0,0.1627792865037918
9.0,0.16254639625549316
10.0,0.16231393814086914
11.0,0.16208240389823914
12.0,0.1618538647890091
13.0,0.16162779927253723
14.0,0.16140830516815186
15.0,0.16119827330112457
16.0,0.16098669171333313
18.0,0.16058483719825745
20.0,0.16019031405448914
22.0,0.15979181230068207
24.0,0.15940706431865692
26.0,0.15904724597930908
28.0,0.1587172895669937
30.0,0.1584174931049347
32.0,0.15813401341438293
36.0,0.1575881540775299
40.0,0.1570761352777481
44.0,0.1565561294555664
48.0,0.15608960390090942
52.0,0.15566816926002502
56.0,0.1552620679140091
60.0,0.1548522263765335
64.0,0.15446673333644867
72.0,0.15361876785755157
80.0,0.15264999866485596
88.0,0.15160080790519714
96.0,0.15051773190498352
104.0,0.14937910437583923
112.0,0.14820827543735504
120.0,0.14700846374034882
128.0,0.14598388969898224
144.0,0.14427289366722107
160.0,0.14253051578998566
176.0,0.14070944488048553
192.0,0.13894803822040558
208.0,0.13698574900627136
224.0,0.13499946892261505
240.0,0.13358166813850403
256.0,0.13211612403392792
288.0,0.12885083258152008
320.0,0.12566983699798584
352.0,0.12199776619672775
384.0,0.11782745271921158
416.0,0.11424271762371063
448.0,0.11054661870002747
480.0,0.10722470283508301
512.0,0.10489171743392944
576.0,0.0984467938542366
640.0,0.09188483655452728
704.0,0.08378041535615921
768.0,0.07606686651706696
832.0,0.06861521303653717
896.0,0.06049228087067604
960.0,0.052412617951631546
1024.0,0.04379667714238167
1152.0,0.031560178846120834
1280.0,0.0241269338876009
1408.0,0.019911987707018852
1536.0,0.018572447821497917
1664.0,0.018731310963630676
1792.0,0.018518323078751564
1920.0,0.01881244033575058
2048.0,0.021138621494174004
2304.0,0.024797867983579636
2560.0,0.02252134308218956
2816.0,0.011632486246526241
3072.0,0.005951533559709787
3328.0,-0.006180990487337112
3584.0,-0.015923814848065376
3840.0,-0.016616249457001686
4096.0,-0.014829513616859913
4608.0,-0.017206387594342232
5120.0,-0.02113504707813263
5632.0,-0.008936177007853985
6144.0,0.0072639500722289085
6656.0,0.020314069464802742
7168.0,0.0035131946206092834
7680.0,-0.028966590762138367
8192.0,-0.04796916991472244
9216.0,-0.023740317672491074
10240.0,-0.035287123173475266
11264.0,-0.03821457922458649
12288.0,-0.05671294778585434
13312.0,-0.09938393533229828
14336.0,-0.125056654214859
end
