version,3.0
numOfCh,1
type,point
parent_name,dirty_0dot1-0dot01
ch_type,1_1
kcount,1
numberNandB,1
brightnessNandB,1
carpet pos,0
pc,0
Time (ms),CH1 Auto-Correlation
1.0,0.26070287823677063
2.0,0.2602769136428833
3.0,0.25986820459365845
4.0,0.259449303150177
5.0,0.25902342796325684
6.0,0.2585851550102234
7.0,0.2581567168235779
8.0,0.25772619247436523
9.0,0.2573051452636719
10.0,0.256884902715683
11.0,0.2564625144004822
12.0,0.25603818893432617
13.0,0.25562477111816406
14.0,0.2552158236503601
15.0,0.2548213005065918
16.0,0.2544248700141907
18.0,0.25360947847366333
20.0,0.25275805592536926
22.0,0.2518991529941559
24.0,0.2510610520839691
26.0,0.2502138614654541
28.0,0.24934805929660797
30.0,0.24847285449504852
32.0,0.2475469708442688
36.0,0.2457825392484665
40.0,0.2440689206123352
44.0,0.24235446751117706
48.0,0.2406882494688034
52.0,0.23905113339424133
56.0,0.23746773600578308
60.0,0.23593716323375702
64.0,0.23448629677295685
72.0,0.23157131671905518
80.0,0.2287210375070572
88.0,0.22560469806194305
96.0,0.22249941527843475
104.0,0.21960905194282532
112.0,0.21659530699253082
120.0,0.21371667087078094
128.0,0.21081113815307617
144.0,0.2054213583469391
160.0,0.20108114182949066
176.0,0.19759219884872437
192.0,0.19455884397029877
208.0,0.1917601376771927
224.0,0.18944594264030457
240.0,0.1875695288181305
256.0,0.1858050525188446
288.0,0.18180100619792938
320.0,0.1780373752117157
352.0,0.17402437329292297
384.0,0.16845811903476715
416.0,0.1602606326341629
448.0,0.15091946721076965
480.0,0.14277981221675873
512.0,0.13467364013195038
576.0,0.1239311620593071
640.0,0.11620475351810455
704.0,0.11010044068098068
768.0,0.1044258177280426
832.0,0.097489133477211
896.0,0.08843051642179489
960.0,0.07996707409620285
1024.0,0.07817640900611877
1152.0,0.08021973818540573
1280.0,0.07650919258594513
1408.0,0.07154291868209839
1536.0,0.07514961063861847
1664.0,0.0687677413225174
1792.0,0.046924710273742676
1920.0,0.03126619756221771
2048.0,0.00884316023439169
2304.0,-0.004574150778353214
2560.0,-0.01720951311290264
2816.0,-0.02435333840548992
3072.0,-0.026598600670695305
3328.0,-0.037526294589042664
3584.0,-0.04709186404943466
3840.0,-0.04803085699677467
4096.0,-0.053373366594314575
4608.0,-0.07486853748559952
5120.0,-0.06300723552703857
5632.0,-0.07531481236219406
6144.0,-0.09847039729356766
6656.0,-0.09383391588926315
7168.0,-0.09602223336696625
7680.0,-0.08693140745162964
8192.0,-0.075724758207798
9216.0,0.023254714906215668
10240.0,0.041255466639995575
11264.0,0.03177155554294586
12288.0,0.04641885682940483
13312.0,0.03843023255467415
14336.0,0.057524312287569046
end
