version,3.0
numOfCh,1
type,point
parent_name,19e3e_0dot1-0dot01
ch_type,1_1
kcount,1
numberNandB,1
brightnessNandB,1
carpet pos,0
pc,0
Time (ms),CH1 Auto-Correlation
1.0,0.021297845989465714
2.0,0.021102432161569595
3.0,0.020914047956466675
4.0,0.020728396251797676
5.0,0.020543860271573067
6.0,0.020363615825772285
7.0,0.020185062661767006
8.0,0.020010530948638916
9.0,0.019832594320178032
10.0,0.019652817398309708
11.0,0.019476264715194702
12.0,0.019302058964967728
13.0,0.01912594959139824
14.0,0.018951574340462685
15.0,0.018780246376991272
16.0,0.018608367070555687
18.0,0.018275482580065727
20.0,0.017954761162400246
22.0,0.01765306666493416
24.0,0.01736658439040184
26.0,0.017104359343647957
28.0,0.016849830746650696
30.0,0.016614142805337906
32.0,0.016385475173592567
36.0,0.015926506370306015
40.0,0.015466799959540367
44.0,0.01504844892770052
48.0,0.014672796241939068
52.0,0.01432886254042387
56.0,0.013995598070323467
60.0,0.01369098573923111
64.0,0.013376121409237385
72.0,0.012732645496726036
80.0,0.012098363600671291
88.0,0.011493803933262825
96.0,0.01093011163175106
104.0,0.01044013723731041
112.0,0.010063805617392063
120.0,0.009751768782734871
128.0,0.009435979649424553
144.0,0.008854493498802185
160.0,0.008383175358176231
176.0,0.00794759951531887
192.0,0.007471255958080292
208.0,0.007011581212282181
224.0,0.0063863531686365604
240.0,0.005927568767219782
256.0,0.005499889608472586
288.0,0.004639884456992149
320.0,0.0036169507075101137
352.0,0.0028257162775844336
384.0,0.0028880031313747168
416.0,0.0028209323063492775
448.0,0.002711671171709895
480.0,0.002118219155818224
512.0,0.0019782381132245064
576.0,0.0023902510292828083
640.0,0.002486172132194042
704.0,0.002522335620597005
768.0,0.002950146794319153
832.0,0.0033339345827698708
896.0,0.0028201760724186897
960.0,0.002885119989514351
1024.0,0.003456598147749901
1152.0,0.00306192715652287
1280.0,0.0019899990875273943
1408.0,0.0010946529218927026
1536.0,0.0010961502557620406
1664.0,0.0021827041637152433
1792.0,0.00370253948494792
1920.0,0.005495008081197739
2048.0,0.004308357369154692
2304.0,0.003548906883224845
2560.0,0.004385294858366251
2816.0,0.0013202045811340213
3072.0,0.001506377593614161
3328.0,-0.0005248505622148514
3584.0,0.0012879794230684638
3840.0,-0.0005312720313668251
4096.0,-0.0021755786146968603
4608.0,0.004299371503293514
5120.0,-0.0018100710585713387
5632.0,-0.0013770705554634333
6144.0,-0.003607522463425994
6656.0,0.00020700160530395806
7168.0,-0.00433801393955946
7680.0,-0.006828284356743097
8192.0,-0.004437497816979885
end
