version,3.0
numOfCh,1
type,point
parent_name,19e3e_0dot1-0dot01
ch_type,1_1
kcount,1
numberNandB,1
brightnessNandB,1
carpet pos,0
pc,0
Time (ms),CH1 Auto-Correlation
1.0,0.10564490407705307
2.0,0.10504961013793945
3.0,0.10445453971624374
4.0,0.10387234389781952
5.0,0.10327382385730743
6.0,0.10268360376358032
7.0,0.10216020047664642
8.0,0.10165289044380188
9.0,0.10114548355340958
10.0,0.10065370053052902
11.0,0.10019508749246597
12.0,0.09974226355552673
13.0,0.09927164763212204
14.0,0.09878760576248169
15.0,0.0983046442270279
16.0,0.09785768389701843
18.0,0.09694276005029678
20.0,0.09597373753786087
22.0,0.09493767470121384
24.0,0.09394361823797226
26.0,0.0929550752043724
28.0,0.09192425012588501
30.0,0.09089823812246323
32.0,0.08989500254392624
36.0,0.0880887359380722
40.0,0.08630052208900452
44.0,0.08475178480148315
48.0,0.08351097255945206
52.0,0.0822988972067833
56.0,0.08110444247722626
60.0,0.08003366738557816
64.0,0.0791177824139595
72.0,0.07727402448654175
80.0,0.07531670480966568
88.0,0.07357149571180344
96.0,0.07197638601064682
104.0,0.07055865973234177
112.0,0.06911952793598175
120.0,0.06781454384326935
128.0,0.0665406882762909
144.0,0.06420725584030151
160.0,0.0624573640525341
176.0,0.061315882951021194
192.0,0.06043170392513275
208.0,0.059301454573869705
224.0,0.05687646567821503
240.0,0.054164592176675797
256.0,0.05293821543455124
288.0,0.05355712026357651
320.0,0.05620414763689041
352.0,0.0578543096780777
384.0,0.05939185246825218
416.0,0.0577714741230011
448.0,0.05423807352781296
480.0,0.05078015848994255
512.0,0.0461137592792511
576.0,0.031901679933071136
640.0,0.02081836573779583
704.0,0.015945620834827423
768.0,0.011786986142396927
832.0,0.010859578847885132
896.0,0.007689346559345722
960.0,-0.001012378023006022
1024.0,-0.00851137563586235
1152.0,-0.022640351206064224
1280.0,-0.023582037538290024
1408.0,-0.029047105461359024
1536.0,-0.037437498569488525
1664.0,-0.038493093103170395
1792.0,-0.037995271384716034
1920.0,-0.04014219343662262
2048.0,-0.04101504385471344
2304.0,-0.037946902215480804
2560.0,-0.03391363471746445
2816.0,-0.026091013103723526
3072.0,-0.021123912185430527
3328.0,-0.01692773401737213
3584.0,-0.0036505325697362423
3840.0,0.007412915118038654
4096.0,0.03377405181527138
4608.0,0.04843371734023094
5120.0,0.013212445192039013
5632.0,-0.018783608451485634
6144.0,-0.028204295784235
6656.0,-0.0045953551307320595
7168.0,0.0072991554625332355
end
