version,3.0
numOfCh,1
type,point
parent_name,19e3e_0dot1-0dot01
ch_type,1_1
kcount,1
numberNandB,1
brightnessNandB,1
carpet pos,0
pc,0
Time (ms),CH1 Auto-Correlation
1.0,0.020703716203570366
2.0,0.020471369847655296
3.0,0.02024020254611969
4.0,0.02001001685857773
5.0,0.019781125709414482
6.0,0.019552456215023994
7.0,0.019325759261846542
8.0,0.019103635102510452
9.0,0.01888236589729786
10.0,0.018660394474864006
11.0,0.018436353653669357
12.0,0.01821456104516983
13.0,0.017996909096837044
14.0,0.01777748204767704
15.0,0.017568057402968407
16.0,0.017357224598526955
18.0,0.016935527324676514
20.0,0.016518760472536087
22.0,0.01611270383000374
24.0,0.015704955905675888
26.0,0.015298375859856606
28.0,0.01489619817584753
30.0,0.014504164457321167
32.0,0.014125368557870388
36.0,0.013412699103355408
40.0,0.012722089886665344
44.0,0.012110535986721516
48.0,0.01161581464111805
52.0,0.011176577769219875
56.0,0.010762725956737995
60.0,0.010381435044109821
64.0,0.009980779141187668
72.0,0.009126698598265648
80.0,0.00836317241191864
88.0,0.007590626832097769
96.0,0.00675142090767622
104.0,0.005975476000458002
112.0,0.00527428463101387
120.0,0.004603529814630747
128.0,0.004023974761366844
144.0,0.00327296182513237
160.0,0.0024996951688081026
176.0,0.001801086706109345
192.0,0.001204226864501834
208.0,0.0010237100068479776
224.0,0.0009055498521775007
240.0,0.0007068965933285654
256.0,0.0005167720373719931
288.0,0.0007285589817911386
320.0,0.000726028811186552
352.0,0.00036198782618157566
384.0,0.0005250347312539816
416.0,0.00029870818252675235
448.0,-2.1698813725379296e-05
480.0,0.0002642489562276751
512.0,0.0008128714398480952
576.0,0.0004839874163735658
640.0,0.0005462484550662339
704.0,0.001385256415233016
768.0,0.0021677559707313776
832.0,0.001470473362132907
896.0,0.0001448027032893151
960.0,-0.0003426253388170153
1024.0,-0.0006347484886646271
1152.0,-0.001793980598449707
1280.0,-0.002714361995458603
1408.0,-0.0006920348387211561
1536.0,0.0009550469694659114
1664.0,0.0004088186542503536
1792.0,0.00023594526282977313
1920.0,0.0013754060491919518
2048.0,0.0005500350380316377
2304.0,-0.0021176578011363745
2560.0,-0.00020501822291407734
2816.0,-0.0012684405082836747
3072.0,-0.002814058680087328
3328.0,-0.0014532548375427723
3584.0,0.0006440148572437465
3840.0,-7.383826596196741e-05
4096.0,-0.0007138679502531886
4608.0,-2.5999313947977498e-05
5120.0,-0.001012756722047925
5632.0,0.001343534211628139
6144.0,-0.0012076632119715214
6656.0,-0.004072434734553099
7168.0,-0.0009357364033348858
7680.0,-5.889293970540166e-05
8192.0,0.002006648341193795
end
