version,3.0
numOfCh,1
type,point
parent_name,19e3e_0dot1-0dot01
ch_type,1_1
kcount,1
numberNandB,1
brightnessNandB,1
carpet pos,0
pc,0
Time (ms),CH1 Auto-Correlation
1.0,0.020368171855807304
2.0,0.020167497918009758
3.0,0.0199735090136528
4.0,0.019784314557909966
5.0,0.019599461928009987
6.0,0.019417574629187584
7.0,0.019241759553551674
8.0,0.019067052751779556
9.0,0.018895436078310013
10.0,0.018720079213380814
11.0,0.018551189452409744
12.0,0.018385350704193115
13.0,0.018227485939860344
14.0,0.018070721998810768
15.0,0.017914829775691032
16.0,0.017764225602149963
18.0,0.017461134120821953
20.0,0.017167547717690468
22.0,0.016871726140379906
24.0,0.016583263874053955
26.0,0.01630454696714878
28.0,0.016033850610256195
30.0,0.015777213498950005
32.0,0.015530643984675407
36.0,0.015082559548318386
40.0,0.014691662974655628
44.0,0.014324819669127464
48.0,0.013966747559607029
52.0,0.013615712523460388
56.0,0.013264267705380917
60.0,0.012911594472825527
64.0,0.012532620690762997
72.0,0.011828545480966568
80.0,0.011204821057617664
88.0,0.010648461058735847
96.0,0.010152539238333702
104.0,0.009709874168038368
112.0,0.009313668124377728
120.0,0.009025834500789642
128.0,0.008732442744076252
144.0,0.008259630762040615
160.0,0.00772516243159771
176.0,0.007287837099283934
192.0,0.006887761875987053
208.0,0.006665362976491451
224.0,0.006536747328937054
240.0,0.006403744220733643
256.0,0.006204858422279358
288.0,0.005438616964966059
320.0,0.0044030495919287205
352.0,0.0035861185751855373
384.0,0.0028738502878695726
416.0,0.0024984017945826054
448.0,0.0025371802039444447
480.0,0.0024755101185292006
512.0,0.0023367388639599085
576.0,0.002234972780570388
640.0,0.0019131118897348642
704.0,0.0013589545851573348
768.0,0.0005334325251169503
832.0,0.00026116930530406535
896.0,0.0007134582847356796
960.0,0.0022059392649680376
1024.0,0.003047593403607607
1152.0,0.003293000627309084
1280.0,0.0033460177946835756
1408.0,0.003911340143531561
1536.0,0.0028495630249381065
1664.0,0.0023352557327598333
1792.0,0.0014394823228940368
1920.0,0.0005273529677651823
2048.0,0.0004135826020501554
2304.0,0.0019294125959277153
2560.0,0.0012444742023944855
2816.0,0.00023937097284942865
3072.0,-0.0014940697001293302
3328.0,-0.0018362632254138589
3584.0,-0.0008869869052432477
3840.0,-0.0012781124096363783
4096.0,-0.0023705423809587955
4608.0,-0.0017655582632869482
5120.0,-0.001763233682140708
5632.0,-0.003138213884085417
6144.0,-0.0003192041185684502
6656.0,-6.281418609432876e-05
7168.0,0.001467579510062933
7680.0,0.0032014409080147743
8192.0,-0.0004934145836159587
end
