version,3.0
numOfCh,1
type,point
parent_name,19e3e_0dot1-0dot01
ch_type,1_1
kcount,1
numberNandB,1
brightnessNandB,1
carpet pos,0
pc,0
Time (ms),CH1 Auto-Correlation
1.0,0.0194497499614954
2.0,0.019254235550761223
3.0,0.019054824486374855
4.0,0.01885787770152092
5.0,0.018660498782992363
6.0,0.018459342420101166
7.0,0.018263721838593483
8.0,0.018072079867124557
9.0,0.017884263768792152
10.0,0.017704280093312263
11.0,0.017525456845760345
12.0,0.017343733459711075
13.0,0.017163066193461418
14.0,0.016990408301353455
15.0,0.016821518540382385
16.0,0.016651920974254608
18.0,0.01632731221616268
20.0,0.016008410602808
22.0,0.01568901538848877
24.0,0.015370975248515606
26.0,0.015066695399582386
28.0,0.01476912572979927
30.0,0.014479744248092175
32.0,0.014192971400916576
36.0,0.013663307763636112
40.0,0.013145488686859608
44.0,0.012617665342986584
48.0,0.012097593396902084
52.0,0.011613394133746624
56.0,0.011184620670974255
60.0,0.010808635503053665
64.0,0.010441054590046406
72.0,0.009737465530633926
80.0,0.009068070910871029
88.0,0.008470664732158184
96.0,0.007912063039839268
104.0,0.0074471174739301205
112.0,0.007066353689879179
120.0,0.006730007939040661
128.0,0.006461570505052805
144.0,0.006083962041884661
160.0,0.0057801175862550735
176.0,0.005667925346642733
192.0,0.005612238310277462
208.0,0.005528686568140984
224.0,0.005337463226169348
240.0,0.005017307121306658
256.0,0.00469393003731966
288.0,0.0036908285692334175
320.0,0.0024954720865935087
352.0,0.0013541470980271697
384.0,0.0008944028522819281
416.0,0.00131741794757545
448.0,0.0020341856870800257
480.0,0.0019003628985956311
512.0,0.0015541784232482314
576.0,0.0011444274568930268
640.0,0.0006421818980015814
704.0,0.0015270139556378126
768.0,0.002867449540644884
832.0,0.003483725246042013
896.0,0.004549977835267782
960.0,0.004504554904997349
1024.0,0.0038399994373321533
1152.0,0.002579750493168831
1280.0,0.0013970349682494998
1408.0,0.001211618771776557
1536.0,3.805386950261891e-05
1664.0,0.00043964135693386197
1792.0,0.0009304044651798904
1920.0,0.0016453888965770602
2048.0,0.0008575439569540322
2304.0,0.0021940888836979866
2560.0,-0.001384509727358818
2816.0,-0.0014122632564976811
3072.0,-0.00044785349746234715
3328.0,3.442899469519034e-05
3584.0,-0.0032294983975589275
3840.0,-0.0023926193825900555
4096.0,-0.00035077487700618804
4608.0,-0.003968227654695511
5120.0,-0.001813999842852354
5632.0,-0.005604469683021307
6144.0,-0.0037847920320928097
6656.0,-0.004793945699930191
7168.0,0.0026376976165920496
7680.0,-0.0020961295813322067
8192.0,0.001773119787685573
end
