version,3.0
numOfCh,1
type,point
parent_name,19e3e_0dot1-0dot01
ch_type,1_1
kcount,1
numberNandB,1
brightnessNandB,1
carpet pos,0
pc,0
Time (ms),CH1 Auto-Correlation
1.0,0.020284505560994148
2.0,0.02009139582514763
3.0,0.019898012280464172
4.0,0.019706550985574722
5.0,0.019518602639436722
6.0,0.019325731322169304
7.0,0.019134653732180595
8.0,0.018947018310427666
9.0,0.018766582012176514
10.0,0.018584508448839188
11.0,0.01840503327548504
12.0,0.018230995163321495
13.0,0.018060365691781044
14.0,0.017898330464959145
15.0,0.017746202647686005
16.0,0.017597828060388565
18.0,0.017299966886639595
20.0,0.01701539196074009
22.0,0.01673435978591442
24.0,0.016454627737402916
26.0,0.016169212758541107
28.0,0.01588497683405876
30.0,0.015595857985317707
32.0,0.01532396674156189
36.0,0.014827664941549301
40.0,0.01437076274305582
44.0,0.013956097885966301
48.0,0.013561301864683628
52.0,0.013166451826691628
56.0,0.012757319957017899
60.0,0.01235179603099823
64.0,0.011950349435210228
72.0,0.011221709661185741
80.0,0.010542701929807663
88.0,0.009936566464602947
96.0,0.009408809244632721
104.0,0.0089260283857584
112.0,0.008473976515233517
120.0,0.008013290353119373
128.0,0.007592861074954271
144.0,0.007101035211235285
160.0,0.006693882867693901
176.0,0.006197230890393257
192.0,0.005727042909711599
208.0,0.005282259080559015
224.0,0.005106100346893072
240.0,0.004963995423167944
256.0,0.004681454971432686
288.0,0.0041933138854801655
320.0,0.003937043249607086
352.0,0.0037443123292177916
384.0,0.003437373088672757
416.0,0.0033868453465402126
448.0,0.0034368415363132954
480.0,0.0038687654305249453
512.0,0.004172053188085556
576.0,0.0036709110718220472
640.0,0.0022898020688444376
704.0,0.0009782719425857067
768.0,0.0003435909457039088
832.0,0.0006359702092595398
896.0,0.00112797855399549
960.0,0.0011024739360436797
1024.0,0.0013857681769877672
1152.0,0.0011913470225408673
1280.0,-0.00021375161304604262
1408.0,-0.001228865934535861
1536.0,-0.0024607430677860975
1664.0,-0.004737677983939648
1792.0,-0.0069617824628949165
1920.0,-0.006136325187981129
2048.0,-0.004724365659058094
2304.0,-0.0034451826941221952
2560.0,-0.0016088384436443448
2816.0,-0.002661842620000243
3072.0,-0.0008030276512727141
3328.0,0.0015822284622117877
3584.0,0.003523930674418807
3840.0,0.0047091227024793625
4096.0,0.0037863939069211483
4608.0,0.0007163857808336616
5120.0,-0.00018934022227767855
5632.0,-0.00594524759799242
6144.0,-0.00517445569857955
6656.0,-0.004143223632127047
7168.0,0.0008665741770528257
7680.0,0.0019504784140735865
8192.0,0.00591979781165719
end
