version,3.0
numOfCh,1
type,point
parent_name,19e3e_0dot1-0dot01
ch_type,1_1
kcount,1
numberNandB,1
brightnessNandB,1
carpet pos,0
pc,0
Time (ms),CH1 Auto-Correlation
1.0,0.016941208392381668
2.0,0.016763564199209213
3.0,0.016590017825365067
4.0,0.016418350860476494
5.0,0.01625141128897667
6.0,0.016091998666524887
7.0,0.015936292707920074
8.0,0.01578308828175068
9.0,0.0156334787607193
10.0,0.015483646653592587
11.0,0.015338407829403877
12.0,0.015199889428913593
13.0,0.015063848346471786
14.0,0.014926168136298656
15.0,0.014792818576097488
16.0,0.014664198271930218
18.0,0.0144225237891078
20.0,0.01418932992964983
22.0,0.013961884193122387
24.0,0.01373739168047905
26.0,0.01351461373269558
28.0,0.013295874930918217
30.0,0.013088757172226906
32.0,0.012886165641248226
36.0,0.012484814040362835
40.0,0.012075254693627357
44.0,0.011698221787810326
48.0,0.011360987089574337
52.0,0.011049104854464531
56.0,0.010752583853900433
60.0,0.010470147244632244
64.0,0.010213072411715984
72.0,0.009757508523762226
80.0,0.009354456327855587
88.0,0.008979300037026405
96.0,0.008679598569869995
104.0,0.008453864604234695
112.0,0.008213089779019356
120.0,0.007913473062217236
128.0,0.007659062743186951
144.0,0.007177257444709539
160.0,0.006800591945648193
176.0,0.006405477877706289
192.0,0.006204698700457811
208.0,0.006094189360737801
224.0,0.00591293815523386
240.0,0.005698448047041893
256.0,0.005136140622198582
288.0,0.004153348971158266
320.0,0.003553032176569104
352.0,0.0031678236555308104
384.0,0.002734388457611203
416.0,0.002495797583833337
448.0,0.002608856186270714
480.0,0.0027593672275543213
512.0,0.0026553310453891754
576.0,0.0030801603570580482
640.0,0.002646954730153084
704.0,0.002230385784059763
768.0,0.002354810480028391
832.0,0.002417857525870204
896.0,0.0018131460528820753
960.0,0.0013100617798045278
1024.0,0.0011678599985316396
1152.0,0.0009594429866410792
1280.0,0.0006502192700281739
1408.0,0.0001628309255465865
1536.0,-0.0006969576934352517
1664.0,-0.0008412395254708827
1792.0,-0.0010322247399017215
1920.0,-0.001154257101006806
2048.0,-0.0017723329365253448
2304.0,-0.001643858733586967
2560.0,-0.0006867938209325075
2816.0,0.0014596715336665511
3072.0,0.0010268647456541657
3328.0,0.0005373979220166802
3584.0,0.00017237967404071242
3840.0,0.0008738875039853156
4096.0,0.0004092490707989782
4608.0,-0.00027651689015328884
5120.0,-0.001286775222979486
5632.0,-0.0003568930260371417
6144.0,-0.00020915847562719136
6656.0,0.0002715647569857538
7168.0,0.0009437391418032348
7680.0,0.0029807097744196653
8192.0,0.0004562739923130721
end
