version,3.0
numOfCh,1
type,point
parent_name,19e3e_0dot1-0dot01
ch_type,1_1
kcount,1
numberNandB,1
brightnessNandB,1
carpet pos,0
pc,0
Time (ms),CH1 Auto-Correlation
1.0,0.02261941321194172
2.0,0.022408246994018555
3.0,0.02220355160534382
4.0,0.02200469560921192
5.0,0.02181512489914894
6.0,0.02162940613925457
7.0,0.021445592865347862
8.0,0.02125820890069008
9.0,0.02106749638915062
10.0,0.020882539451122284
11.0,0.02070567011833191
12.0,0.020531699061393738
13.0,0.020357510074973106
14.0,0.020178167149424553
15.0,0.020004762336611748
16.0,0.01983216032385826
18.0,0.019480859860777855
20.0,0.01914585754275322
22.0,0.01880614645779133
24.0,0.01846952736377716
26.0,0.01814693957567215
28.0,0.017853934317827225
30.0,0.0175765510648489
32.0,0.01729516126215458
36.0,0.01674552448093891
40.0,0.016218967735767365
44.0,0.015705635771155357
48.0,0.01522634644061327
52.0,0.014788162894546986
56.0,0.014354821294546127
60.0,0.013930398039519787
64.0,0.013505765236914158
72.0,0.012671430595219135
80.0,0.011873124167323112
88.0,0.011093453504145145
96.0,0.010321225970983505
104.0,0.009559577330946922
112.0,0.008856052532792091
120.0,0.008268383331596851
128.0,0.007730021607130766
144.0,0.006827881094068289
160.0,0.0060714539140462875
176.0,0.005196650046855211
192.0,0.00439858203753829
208.0,0.0037074564024806023
224.0,0.0033534879330545664
240.0,0.0031417105346918106
256.0,0.002909440081566572
288.0,0.0022710899356752634
320.0,0.0023980436380952597
352.0,0.0021798366215080023
384.0,0.0016351984813809395
416.0,0.0012418931582942605
448.0,0.0006458634161390364
480.0,0.0006946133798919618
512.0,0.0008998982957564294
576.0,0.0012933799298480153
640.0,0.0008916557999327779
704.0,0.0008925164001993835
768.0,0.0007739393622614443
832.0,0.001862626988440752
896.0,0.0017560040578246117
960.0,0.001434363191947341
1024.0,0.0014234122354537249
1152.0,0.001751105533912778
1280.0,0.0007882679929025471
1408.0,-0.0017451077001169324
1536.0,-0.003304616315290332
1664.0,-0.003014060202986002
1792.0,-0.0013435912551358342
1920.0,-0.0016188551671802998
2048.0,-0.0024870794732123613
2304.0,-0.0008531875791959465
2560.0,-0.00021906426991336048
2816.0,-0.001383860013447702
3072.0,-0.001185174915008247
3328.0,-0.0021297249477356672
3584.0,-0.0015519120497629046
3840.0,-0.00039798166835680604
4096.0,0.0007083859527483582
4608.0,0.00024144422786775976
5120.0,-0.00047693352098576725
5632.0,-0.0017829799326136708
6144.0,-0.000733371009118855
6656.0,-0.0014046822907403111
7168.0,-0.0012190307024866343
7680.0,-0.0036831775214523077
8192.0,0.003960379399359226
end
