version,3.0
numOfCh,1
type,point
parent_name,19e3e_0dot1-0dot01
ch_type,1_1
kcount,1
numberNandB,1
brightnessNandB,1
carpet pos,0
pc,0
Time (ms),CH1 Auto-Correlation
1.0,0.016185220330953598
2.0,0.015987923368811607
3.0,0.01579313911497593
4.0,0.015602354891598225
5.0,0.015418551862239838
6.0,0.01523486990481615
7.0,0.015054242685437202
8.0,0.014874451793730259
9.0,0.014699360355734825
10.0,0.014528350904583931
11.0,0.014356226660311222
12.0,0.014185686595737934
13.0,0.014018135145306587
14.0,0.0138527387753129
15.0,0.01368732750415802
16.0,0.01352831069380045
18.0,0.013219728134572506
20.0,0.012927977368235588
22.0,0.012652193196117878
24.0,0.012417868711054325
26.0,0.012190444394946098
28.0,0.011966083198785782
30.0,0.01175557728856802
32.0,0.01155486237257719
36.0,0.011201021261513233
40.0,0.01085306890308857
44.0,0.010494993068277836
48.0,0.010136529803276062
52.0,0.009767520241439342
56.0,0.009392724372446537
60.0,0.009012624621391296
64.0,0.008631585165858269
72.0,0.007981741800904274
80.0,0.007542208768427372
88.0,0.007272722665220499
96.0,0.007045665290206671
104.0,0.006864831317216158
112.0,0.006686985492706299
120.0,0.006529419217258692
128.0,0.006354042794555426
144.0,0.005963529925793409
160.0,0.005688737146556377
176.0,0.0055600740015506744
192.0,0.005414665676653385
208.0,0.005189578048884869
224.0,0.004897128324955702
240.0,0.004615733399987221
256.0,0.00429743155837059
288.0,0.003669589525088668
320.0,0.0031732956413179636
352.0,0.0030892505310475826
384.0,0.0030519026331603527
416.0,0.002742093289270997
448.0,0.002583331661298871
480.0,0.002712637884542346
512.0,0.002660258673131466
576.0,0.0017988239414989948
640.0,0.001032274099998176
704.0,0.0012005968019366264
768.0,0.0005536198732443154
832.0,0.0001374181010760367
896.0,0.0003496685530990362
960.0,-1.7826132534537464e-05
1024.0,0.0004902798682451248
1152.0,0.0005033977213315666
1280.0,8.900649845600128e-05
1408.0,1.2292875908315182e-05
1536.0,-0.0002673894923646003
1664.0,0.00019813247490674257
1792.0,2.451382897561416e-05
1920.0,0.00043264369014650583
2048.0,0.0003964675706811249
2304.0,0.0024726460687816143
2560.0,0.0029044756665825844
2816.0,0.0018542184261605144
3072.0,0.0006889108917675912
3328.0,0.0003173193836119026
3584.0,0.00038514682091772556
3840.0,0.0007953500025905669
4096.0,-1.3925839084549807e-05
4608.0,8.620002518000547e-06
5120.0,-0.001905127544887364
5632.0,-0.0011729629477486014
6144.0,-0.002041228348389268
6656.0,-0.0014742311323061585
7168.0,-0.0007259479607455432
7680.0,-0.001690703327767551
8192.0,-0.0017291887197643518
end
