version,3.0
numOfCh,1
type,point
parent_name,19e3e_0dot1-0dot01
ch_type,1_1
kcount,1
numberNandB,1
brightnessNandB,1
carpet pos,0
pc,0
Time (ms),CH1 Auto-Correlation
1.0,0.02022899128496647
2.0,0.020037110894918442
3.0,0.019851241260766983
4.0,0.019667651504278183
5.0,0.019484607502818108
6.0,0.019308090209960938
7.0,0.019129546359181404
8.0,0.018950598314404488
9.0,0.018773842602968216
10.0,0.018600676208734512
11.0,0.018427353352308273
12.0,0.018260788172483444
13.0,0.018095873296260834
14.0,0.017934899777173996
15.0,0.017781326547265053
16.0,0.01762499287724495
18.0,0.017328929156064987
20.0,0.01702408865094185
22.0,0.01672441139817238
24.0,0.016426339745521545
26.0,0.016129421070218086
28.0,0.01585491932928562
30.0,0.015601985156536102
32.0,0.015359577722847462
36.0,0.014899672009050846
40.0,0.014460607431828976
44.0,0.014062506146728992
48.0,0.01369335688650608
52.0,0.013362725265324116
56.0,0.013030786998569965
60.0,0.012697332538664341
64.0,0.012400231324136257
72.0,0.011845865286886692
80.0,0.01131452526897192
88.0,0.010858089663088322
96.0,0.010488162748515606
104.0,0.010177066549658775
112.0,0.009876028634607792
120.0,0.009617956355214119
128.0,0.009359746240079403
144.0,0.008813510648906231
160.0,0.008454803377389908
176.0,0.008250472135841846
192.0,0.008000211790204048
208.0,0.007661847397685051
224.0,0.007213716395199299
240.0,0.006855818443000317
256.0,0.00664553651586175
288.0,0.006076433230191469
320.0,0.005720391869544983
352.0,0.0056038848124444485
384.0,0.005316141527146101
416.0,0.0052856807596981525
448.0,0.004642678890377283
480.0,0.0043524787761271
512.0,0.004193063359707594
576.0,0.003904065117239952
640.0,0.003877675626426935
704.0,0.0036089110653847456
768.0,0.002878790255635977
832.0,0.002359930193051696
896.0,0.0014008308062329888
960.0,0.000978893949650228
1024.0,0.0006501345196738839
1152.0,0.0002689162502065301
1280.0,-0.00028713836218230426
1408.0,0.00012908900680486113
1536.0,-4.726905444840668e-06
1664.0,-0.0009582742350175977
1792.0,-0.00027083096210844815
1920.0,-0.0006886555347591639
2048.0,-0.0009698480134829879
2304.0,-0.0006241363589651883
2560.0,-0.0005784903187304735
2816.0,-0.0012383682187646627
3072.0,-0.00017665319319348782
3328.0,0.00023039124789647758
3584.0,-0.0020262065809220076
3840.0,-0.003176370169967413
4096.0,-0.004563535563647747
4608.0,-0.005788973532617092
5120.0,-0.002720518270507455
5632.0,0.0007180418469943106
6144.0,0.0018132192781195045
6656.0,0.0016938280314207077
7168.0,0.0009609699482098222
7680.0,-0.0008011164609342813
8192.0,0.0013215051731094718
end
