version,3.0
numOfCh,1
type,point
parent_name,19e3e_0dot1-0dot01
ch_type,1_1
kcount,1
numberNandB,1
brightnessNandB,1
carpet pos,0
pc,0
Time (ms),CH1 Auto-Correlation
1.0,0.019230080768465996
2.0,0.019045695662498474
3.0,0.018865002319216728
4.0,0.018685057759284973
5.0,0.01850433088839054
6.0,0.018329448997974396
7.0,0.01816275157034397
8.0,0.01800430379807949
9.0,0.01784857176244259
10.0,0.01769922859966755
11.0,0.01755146123468876
12.0,0.017406536266207695
13.0,0.017265917733311653
14.0,0.017127640545368195
15.0,0.01698726788163185
16.0,0.016847597435116768
18.0,0.016575893387198448
20.0,0.0163124967366457
22.0,0.016047518700361252
24.0,0.015774227678775787
26.0,0.015508725307881832
28.0,0.015252289362251759
30.0,0.015004104934632778
32.0,0.014749063178896904
36.0,0.01426287554204464
40.0,0.013792191632091999
44.0,0.013311483897268772
48.0,0.012873401865363121
52.0,0.01250302605330944
56.0,0.012137498706579208
60.0,0.011745591647922993
64.0,0.011352632194757462
72.0,0.010652749799191952
80.0,0.010072448290884495
88.0,0.009586207568645477
96.0,0.009245098568499088
104.0,0.008969171904027462
112.0,0.008679878897964954
120.0,0.008388739079236984
128.0,0.008187171071767807
144.0,0.0077167777344584465
160.0,0.007257705554366112
176.0,0.006770886946469545
192.0,0.0063481866382062435
208.0,0.006056058220565319
224.0,0.0057914662174880505
240.0,0.005530875641852617
256.0,0.0051816231571137905
288.0,0.004494963679462671
320.0,0.00384767958894372
352.0,0.003331316402181983
384.0,0.003021470969542861
416.0,0.002484790747985244
448.0,0.0018131304532289505
480.0,0.0009552527917549014
512.0,0.00021268244017846882
576.0,-0.00010441757331136614
640.0,-0.0008105410379357636
704.0,-0.001527781249023974
768.0,-0.0011775573948398232
832.0,-0.0007309236098080873
896.0,-0.0008759130723774433
960.0,-0.0008247735677286983
1024.0,-0.00042008524178527296
1152.0,0.0007444604416377842
1280.0,0.001984036061912775
1408.0,0.002705708146095276
1536.0,0.003201903309673071
1664.0,0.0025043694768100977
1792.0,0.0016634846106171608
1920.0,0.0006297110812738538
2048.0,-0.000499922432936728
2304.0,-0.0006054799305275083
2560.0,-0.0021941671147942543
2816.0,-0.0022819533478468657
3072.0,-0.00019901077030226588
3328.0,-0.0015660161152482033
3584.0,-0.002144557423889637
3840.0,-0.0009127173107117414
4096.0,-0.002584022469818592
4608.0,-0.00331326387822628
5120.0,-0.002705958439037204
5632.0,-0.0009534098207950592
6144.0,-0.0005567338666878641
6656.0,0.0017681715544313192
7168.0,0.005058479495346546
7680.0,0.0024763839319348335
8192.0,0.0020886545535176992
end
