version,3.0
numOfCh,1
type,point
parent_name,19e3e_0dot1-0dot01
ch_type,1_1
kcount,1
numberNandB,1
brightnessNandB,1
carpet pos,0
pc,0
Time (ms),CH1 Auto-Correlation
1.0,0.16443675756454468
2.0,0.163689985871315
3.0,0.16294102370738983
4.0,0.16223439574241638
5.0,0.16151566803455353
6.0,0.160782590508461
7.0,0.16005569696426392
8.0,0.1593356728553772
9.0,0.15859012305736542
10.0,0.1578182876110077
11.0,0.15702518820762634
12.0,0.15629199147224426
13.0,0.1555674970149994
14.0,0.15484383702278137
15.0,0.15410655736923218
16.0,0.153478741645813
18.0,0.15227995812892914
20.0,0.15101386606693268
22.0,0.14981970191001892
24.0,0.14861077070236206
26.0,0.14738129079341888
28.0,0.14607708156108856
30.0,0.14475677907466888
32.0,0.14346641302108765
36.0,0.14093652367591858
40.0,0.13853295147418976
44.0,0.13624060153961182
48.0,0.13394169509410858
52.0,0.13161814212799072
56.0,0.12940332293510437
60.0,0.12726947665214539
64.0,0.12529997527599335
72.0,0.1219227984547615
80.0,0.11910763382911682
88.0,0.1168796494603157
96.0,0.11445967853069305
104.0,0.11150515079498291
112.0,0.10821402817964554
120.0,0.10472371429204941
128.0,0.10137608647346497
144.0,0.09510961174964905
160.0,0.08842529356479645
176.0,0.0833253487944603
192.0,0.08000706136226654
208.0,0.07858634740114212
224.0,0.07728929072618484
240.0,0.07486028969287872
256.0,0.07066880166530609
288.0,0.06096233054995537
320.0,0.05359519645571709
352.0,0.04377405345439911
384.0,0.03413662314414978
416.0,0.028613155707716942
448.0,0.02571708709001541
480.0,0.022836236283183098
512.0,0.020250234752893448
576.0,0.016956191509962082
640.0,0.018410777673125267
704.0,0.02016744203865528
768.0,0.02002357318997383
832.0,0.014260527677834034
896.0,0.004885191563516855
960.0,-0.004358179401606321
1024.0,-0.007504845969378948
1152.0,-0.009508856572210789
1280.0,-0.016265342012047768
1408.0,-0.02403329685330391
1536.0,-0.030644532293081284
1664.0,-0.0325654111802578
1792.0,-0.03353893756866455
1920.0,-0.03801961988210678
2048.0,-0.0392783060669899
2304.0,-0.04446854814887047
2560.0,-0.032093413174152374
2816.0,-0.02496705763041973
3072.0,-0.015422613359987736
3328.0,-0.015678685158491135
3584.0,-0.0332794226706028
3840.0,-0.028807369992136955
4096.0,-0.017145678400993347
4608.0,0.007664111442863941
5120.0,0.09055396169424057
5632.0,0.04403255507349968
6144.0,0.009231922216713428
6656.0,-0.01797596737742424
7168.0,-0.046749331057071686
7680.0,-0.046483658254146576
8192.0,0.007923698052763939
end
