version,3.0
numOfCh,1
type,point
parent_name,19e3e_0dot1-0dot01
ch_type,1_1
kcount,1
numberNandB,1
brightnessNandB,1
carpet pos,0
pc,0
Time (ms),CH1 Auto-Correlation
1.0,0.03151525557041168
2.0,0.03128979727625847
3.0,0.031072791665792465
4.0,0.030853133648633957
5.0,0.03062824159860611
6.0,0.030403785407543182
7.0,0.03018016740679741
8.0,0.029960524290800095
9.0,0.02974347025156021
10.0,0.029524916782975197
11.0,0.029301486909389496
12.0,0.029090000316500664
13.0,0.02886430360376835
14.0,0.028650525957345963
15.0,0.028432291001081467
16.0,0.028209643438458443
18.0,0.027781713753938675
20.0,0.027349237352609634
22.0,0.02693275548517704
24.0,0.026526058092713356
26.0,0.02611972764134407
28.0,0.025713924318552017
30.0,0.02531946823000908
32.0,0.02494100108742714
36.0,0.024162394925951958
40.0,0.023400086909532547
44.0,0.022721728309988976
48.0,0.022149505093693733
52.0,0.021617742255330086
56.0,0.02113041654229164
60.0,0.020742876455187798
64.0,0.020410507917404175
72.0,0.019783172756433487
80.0,0.01916530355811119
88.0,0.018409088253974915
96.0,0.01761077530682087
104.0,0.01666402816772461
112.0,0.015670171007514
120.0,0.014671777375042439
128.0,0.01377774402499199
144.0,0.012508435174822807
160.0,0.011988128535449505
176.0,0.011673984117805958
192.0,0.011463371105492115
208.0,0.011277482844889164
224.0,0.011205579154193401
240.0,0.011302361264824867
256.0,0.011310100555419922
288.0,0.011049119755625725
320.0,0.01054700743407011
352.0,0.009935330599546432
384.0,0.009368856437504292
416.0,0.009418684057891369
448.0,0.009463253431022167
480.0,0.008646260015666485
512.0,0.007514668628573418
576.0,0.005170202348381281
640.0,0.003203370375558734
704.0,0.002309191972017288
768.0,0.0028218741063028574
832.0,0.002972609596326947
896.0,0.002393208211287856
960.0,0.000582681386731565
1024.0,-0.0016284879529848695
1152.0,-0.00014772395661566406
1280.0,-0.0008471491746604443
1408.0,-0.0016914189327508211
1536.0,0.0004845710354857147
1664.0,0.0018641749629750848
1792.0,0.0021371636539697647
1920.0,0.002743217395618558
2048.0,0.0038775834254920483
2304.0,0.002078698016703129
2560.0,0.0007573557086288929
2816.0,0.0011417061323300004
3072.0,0.00014195065887179226
3328.0,0.00047506787814199924
3584.0,0.001400184934027493
3840.0,0.0003525526844896376
4096.0,-0.001173545839264989
4608.0,-0.004255612846463919
5120.0,-0.004324018955230713
5632.0,-0.006636098958551884
6144.0,-0.0075723156332969666
6656.0,-0.0014433016767725348
7168.0,-0.00015238868945743889
7680.0,-0.003683666465803981
8192.0,-0.006058615632355213
end
