version,3.0
numOfCh,1
type,point
parent_name,19e3e_0dot1-0dot01
ch_type,1_1
kcount,1
numberNandB,1
brightnessNandB,1
carpet pos,0
pc,0
Time (ms),CH1 Auto-Correlation
1.0,0.019209852442145348
2.0,0.018997415900230408
3.0,0.018786022439599037
4.0,0.018576432019472122
5.0,0.01836596243083477
6.0,0.018167627975344658
7.0,0.017967630177736282
8.0,0.017765076830983162
9.0,0.017561521381139755
10.0,0.017357492819428444
11.0,0.017158078029751778
12.0,0.016964208334684372
13.0,0.016782579943537712
14.0,0.016611730679869652
15.0,0.016446085646748543
16.0,0.01628400757908821
18.0,0.015983376652002335
20.0,0.01568537950515747
22.0,0.015390945598483086
24.0,0.015094428323209286
26.0,0.014796908013522625
28.0,0.014502639882266521
30.0,0.014214856550097466
32.0,0.01393241435289383
36.0,0.013381466269493103
40.0,0.012822331860661507
44.0,0.012333325110375881
48.0,0.011903009377419949
52.0,0.011509244330227375
56.0,0.011144421063363552
60.0,0.010803750716149807
64.0,0.01050799060612917
72.0,0.009922362864017487
80.0,0.009338608011603355
88.0,0.00877346470952034
96.0,0.008144102990627289
104.0,0.007486431393772364
112.0,0.006892628502100706
120.0,0.0063546402379870415
128.0,0.005836028140038252
144.0,0.004702392499893904
160.0,0.0035940641537308693
176.0,0.002584329806268215
192.0,0.0020144637674093246
208.0,0.0015590767143294215
224.0,0.0013421816984191537
240.0,0.0011457223445177078
256.0,0.0009066912462003529
288.0,0.0011879188241437078
320.0,0.001998849678784609
352.0,0.002267349511384964
384.0,0.0028178466018289328
416.0,0.0028934425208717585
448.0,0.0028387513011693954
480.0,0.00224960595369339
512.0,0.001594509114511311
576.0,0.00019447421072982252
640.0,-3.6281137454352574e-06
704.0,0.00031753614894114435
768.0,0.0011367192491889
832.0,8.977138350019231e-05
896.0,-0.0007618324598297477
960.0,-0.0018084518378600478
1024.0,-0.0017240713350474834
1152.0,-0.0003574175643734634
1280.0,0.0006891741650179029
1408.0,0.0005778983468189836
1536.0,3.7116686144145206e-05
1664.0,-0.0006957468576729298
1792.0,-0.0010937671177089214
1920.0,-0.003488066839054227
2048.0,-0.0035008054692298174
2304.0,-0.0013615605421364307
2560.0,-0.0015659074997529387
2816.0,-0.0013103035744279623
3072.0,0.0005915812216699123
3328.0,-0.0016490750713273883
3584.0,-0.0013104146346449852
3840.0,-0.00048558649723418057
4096.0,0.0008928225142881274
4608.0,-0.0013887595850974321
5120.0,-0.00039815722266212106
5632.0,-0.0001515528274467215
6144.0,-0.0008895192877389491
6656.0,0.0026739093009382486
7168.0,0.0012516425922513008
7680.0,0.0002401398669462651
8192.0,0.004568521399050951
end
