version,3.0
numOfCh,1
type,point
parent_name,19e3e_0dot1-0dot01
ch_type,1_1
kcount,1
numberNandB,1
brightnessNandB,1
carpet pos,0
pc,0
Time (ms),CH1 Auto-Correlation
1.0,0.01868007332086563
2.0,0.018498150631785393
3.0,0.018318796530365944
4.0,0.018142007291316986
5.0,0.017967604100704193
6.0,0.017798149958252907
7.0,0.017632870003581047
8.0,0.017468897625803947
9.0,0.017310896888375282
10.0,0.017158901318907738
11.0,0.017010001465678215
12.0,0.016864679753780365
13.0,0.01672213524580002
14.0,0.016582390293478966
15.0,0.01644282042980194
16.0,0.01629970595240593
18.0,0.01601674035191536
20.0,0.015748031437397003
22.0,0.015475943684577942
24.0,0.015205930918455124
26.0,0.014934651553630829
28.0,0.014667149633169174
30.0,0.014413411729037762
32.0,0.014168021269142628
36.0,0.013722951523959637
40.0,0.013303956016898155
44.0,0.01291095744818449
48.0,0.012526537291705608
52.0,0.0121612548828125
56.0,0.011829210445284843
60.0,0.011513720266520977
64.0,0.011215955018997192
72.0,0.010666859336197376
80.0,0.010205785743892193
88.0,0.009848611429333687
96.0,0.009493914432823658
104.0,0.009164741262793541
112.0,0.008823104202747345
120.0,0.008515719324350357
128.0,0.008260585367679596
144.0,0.007644591853022575
160.0,0.007106188219040632
176.0,0.006833461578935385
192.0,0.006727014668285847
208.0,0.006725281476974487
224.0,0.006710981018841267
240.0,0.006704488769173622
256.0,0.006616976577788591
288.0,0.006489389576017857
320.0,0.00652166735380888
352.0,0.00645536370575428
384.0,0.00632041972130537
416.0,0.005995495710521936
448.0,0.005306905135512352
480.0,0.004996618255972862
512.0,0.004599281586706638
576.0,0.0036664926446974277
640.0,0.003415536368265748
704.0,0.003004650818184018
768.0,0.0021695103496313095
832.0,0.0010639299871399999
896.0,0.0005391017184592783
960.0,0.000501400965731591
1024.0,0.0009325984865427017
1152.0,0.0006153475842438638
1280.0,-0.0008898514206521213
1408.0,0.00034425206831656396
1536.0,0.0009497643331997097
1664.0,0.0010757215786725283
1792.0,0.00044804043136537075
1920.0,0.00018273179011885077
2048.0,0.0010078047635033727
2304.0,0.0016234570648521185
2560.0,0.002546214032918215
2816.0,0.0021727862767875195
3072.0,0.0018110447563230991
3328.0,-0.0003947607474401593
3584.0,-0.0011383371893316507
3840.0,-0.0011021301615983248
4096.0,-0.0009501531021669507
4608.0,-0.001400941051542759
5120.0,0.0020022571552544832
5632.0,0.0007604119600728154
6144.0,-0.00038108424632810056
6656.0,-0.0005825373227708042
7168.0,-0.001545990351587534
7680.0,-0.000991369248367846
8192.0,-0.0010565511183813214
end
