version,3.0
numOfCh,1
type,point
parent_name,19e3e_0dot1-0dot01
ch_type,1_1
kcount,1
numberNandB,1
brightnessNandB,1
carpet pos,0
pc,0
Time (ms),CH1 Auto-Correlation
1.0,0.01818995736539364
2.0,0.018014734610915184
3.0,0.01783844828605652
4.0,0.01766238920390606
5.0,0.017489993944764137
6.0,0.017319802194833755
7.0,0.01715509407222271
8.0,0.016995947808027267
9.0,0.01684163510799408
10.0,0.01668505184352398
11.0,0.016531461849808693
12.0,0.016384124755859375
13.0,0.01623305305838585
14.0,0.016086502000689507
15.0,0.015944479033350945
16.0,0.015805041417479515
18.0,0.015524282120168209
20.0,0.015248436480760574
22.0,0.014979059807956219
24.0,0.014722772873938084
26.0,0.014481974765658379
28.0,0.01424320600926876
30.0,0.014009954407811165
32.0,0.01379141490906477
36.0,0.01337441150099039
40.0,0.012982401065528393
44.0,0.01260373368859291
48.0,0.012224177829921246
52.0,0.011836949735879898
56.0,0.011446388438344002
60.0,0.011074401438236237
64.0,0.010708166286349297
72.0,0.00995115377008915
80.0,0.009222367778420448
88.0,0.008581073954701424
96.0,0.008043638430535793
104.0,0.00751365115866065
112.0,0.007070463616400957
120.0,0.006732243113219738
128.0,0.006494441069662571
144.0,0.006084401160478592
160.0,0.005625889636576176
176.0,0.005064832512289286
192.0,0.004680002573877573
208.0,0.004334067460149527
224.0,0.0038877329789102077
240.0,0.003410830395296216
256.0,0.002945066662505269
288.0,0.0022842970211058855
320.0,0.001586965168826282
352.0,0.0010825314093381166
384.0,0.0008089253678917885
416.0,0.0008289210963994265
448.0,0.0009615081362426281
480.0,0.0009262405219487846
512.0,0.001053288229741156
576.0,0.001144987065345049
640.0,0.0008260519243776798
704.0,0.000986822065897286
768.0,0.0011860416270792484
832.0,0.0015993673587217927
896.0,0.002345356624573469
960.0,0.0016297633992508054
1024.0,0.0005630290252156556
1152.0,0.00047274096868932247
1280.0,-0.0004571485915221274
1408.0,-0.0012176319723948836
1536.0,-0.002330227056518197
1664.0,-0.0022503158543258905
1792.0,-0.0019458004971966147
1920.0,-0.0022394577972590923
2048.0,-0.001469109207391739
2304.0,0.0015363218262791634
2560.0,-0.0003385517920833081
2816.0,-0.0017440026858821511
3072.0,0.0005126222968101501
3328.0,0.0009833859512582421
3584.0,-0.0006321905530057847
3840.0,-0.0005420861416496336
4096.0,-0.0005310495034791529
4608.0,-0.0015622902428731322
5120.0,-0.0029777365271002054
5632.0,0.0003356270317453891
6144.0,0.0011407923884689808
6656.0,0.001560542150400579
7168.0,-0.0013506647665053606
7680.0,-0.00406216736882925
8192.0,-0.0014279541792348027
end
