version,3.0
numOfCh,1
type,point
parent_name,19e3e_0dot1-0dot01
ch_type,1_1
kcount,1
numberNandB,1
brightnessNandB,1
carpet pos,0
pc,0
Time (ms),CH1 Auto-Correlation
1.0,0.0173893291503191
2.0,0.017198164016008377
3.0,0.017013614997267723
4.0,0.016831563785672188
5.0,0.01666002906858921
6.0,0.01649012789130211
7.0,0.0163254514336586
8.0,0.016163980588316917
9.0,0.01600325107574463
10.0,0.015838831663131714
11.0,0.01567680388689041
12.0,0.01551973819732666
13.0,0.015362882055342197
14.0,0.015205536969006062
15.0,0.015055611729621887
16.0,0.01489904336631298
18.0,0.014582148753106594
20.0,0.014277507551014423
22.0,0.01398432906717062
24.0,0.013705792836844921
26.0,0.013446550816297531
28.0,0.013197392225265503
30.0,0.012938154861330986
32.0,0.012678103521466255
36.0,0.012234006077051163
40.0,0.011818759143352509
44.0,0.011420623399317265
48.0,0.011036751791834831
52.0,0.010634641163051128
56.0,0.01025191880762577
60.0,0.009866802953183651
64.0,0.00949044618755579
72.0,0.008710858412086964
80.0,0.007993962615728378
88.0,0.007397893350571394
96.0,0.006966154556721449
104.0,0.006638993509113789
112.0,0.006303183268755674
120.0,0.005935621913522482
128.0,0.0056330556981265545
144.0,0.0050947656854987144
160.0,0.004636668600142002
176.0,0.004328030627220869
192.0,0.003978869877755642
208.0,0.003559771226719022
224.0,0.003068223362788558
240.0,0.002599649131298065
256.0,0.0023198460694402456
288.0,0.0019847992807626724
320.0,0.0018885707249864936
352.0,0.002197441877797246
384.0,0.0020432325545698404
416.0,0.0015365021536126733
448.0,0.000910868460778147
480.0,0.0007451304700225592
512.0,0.000795691623352468
576.0,0.0006520075257867575
640.0,0.0008237568545155227
704.0,0.0014686963986605406
768.0,0.0010575675405561924
832.0,0.0005653915577568114
896.0,0.0004551732272375375
960.0,0.00014691773685626686
1024.0,0.0005387123674154282
1152.0,0.0016911051934584975
1280.0,0.001491108676418662
1408.0,0.0012186280218884349
1536.0,0.0014485912397503853
1664.0,-0.00031670884345658123
1792.0,-0.0022536779288202524
1920.0,-0.002688372740522027
2048.0,-0.002117318334057927
2304.0,-0.0016446388326585293
2560.0,-0.0010372663382440805
2816.0,-0.0011564214946702123
3072.0,-0.0012166595552116632
3328.0,-0.001017089351080358
3584.0,-0.0018370660254731774
3840.0,0.0007712444639764726
4096.0,2.303911605849862e-05
4608.0,-2.4831992050167173e-05
5120.0,0.0004002105270046741
5632.0,0.0011820814106613398
6144.0,-0.001682779868133366
6656.0,0.00031284563010558486
7168.0,0.000839240150526166
7680.0,-0.0012923084432259202
8192.0,0.0020498766098171473
end
