version,3.0
numOfCh,1
type,point
parent_name,19e3e_0dot1-0dot01
ch_type,1_1
kcount,1
numberNandB,1
brightnessNandB,1
carpet pos,0
pc,0
Time (ms),CH1 Auto-Correlation
1.0,0.017012640833854675
2.0,0.016820240765810013
3.0,0.016635723412036896
4.0,0.016456112265586853
5.0,0.016274364665150642
6.0,0.01608973927795887
7.0,0.015907028689980507
8.0,0.015726275742053986
9.0,0.01555017102509737
10.0,0.015370911918580532
11.0,0.015191951766610146
12.0,0.01501635555177927
13.0,0.014845238998532295
14.0,0.014670872129499912
15.0,0.01449673343449831
16.0,0.014324996620416641
18.0,0.013997677713632584
20.0,0.013686520978808403
22.0,0.013389121741056442
24.0,0.013103128410875797
26.0,0.01282426342368126
28.0,0.01255244854837656
30.0,0.01229390874505043
32.0,0.012056330218911171
36.0,0.011620815843343735
40.0,0.011210238561034203
44.0,0.010812773369252682
48.0,0.010450511239469051
52.0,0.010128064081072807
56.0,0.009822722524404526
60.0,0.009539145976305008
64.0,0.009268415160477161
72.0,0.008712504990398884
80.0,0.008227667771279812
88.0,0.007777550723403692
96.0,0.0073408037424087524
104.0,0.006931086536496878
112.0,0.006608179770410061
120.0,0.006318839732557535
128.0,0.006116656120866537
144.0,0.005738003179430962
160.0,0.005416815169155598
176.0,0.005211231764405966
192.0,0.005076784174889326
208.0,0.004851796198636293
224.0,0.0045597790740430355
240.0,0.0041697099804878235
256.0,0.003730432828888297
288.0,0.0031163727398961782
320.0,0.002919922349974513
352.0,0.0026776029262691736
384.0,0.0019172971369698644
416.0,0.0012865563621744514
448.0,0.001066233147867024
480.0,0.001089407247491181
512.0,0.000943500199355185
576.0,0.0007684219744987786
640.0,4.272390651749447e-05
704.0,-0.0005206635687500238
768.0,-0.0002904885041061789
832.0,-0.0003970288671553135
896.0,-0.001200931379571557
960.0,-0.0010804373305290937
1024.0,-0.0008657597354613245
1152.0,-0.00034914351999759674
1280.0,-0.0017940588295459747
1408.0,-0.0022831966634839773
1536.0,-0.001524594728834927
1664.0,-0.0005604297621175647
1792.0,9.154731378657743e-05
1920.0,-0.00065517274197191
2048.0,0.00015375655493699014
2304.0,-0.0004324160981923342
2560.0,-0.0005819810321554542
2816.0,0.0004184636927675456
3072.0,0.0009969122475013137
3328.0,-0.0003376885724719614
3584.0,-0.0005328583065420389
3840.0,0.0006370978662744164
4096.0,0.0006117447628639638
4608.0,-0.001258705509826541
5120.0,-0.0016081409994512796
5632.0,-0.0017829472199082375
6144.0,0.0020603034645318985
6656.0,0.0015981047181412578
7168.0,-0.0017263100016862154
7680.0,-0.0024215267039835453
8192.0,0.0006384121370501816
end
