version,3.0
numOfCh,1
type,point
parent_name,19e3e_0dot1-0dot01
ch_type,1_1
kcount,1
numberNandB,1
brightnessNandB,1
carpet pos,0
pc,0
Time (ms),CH1 Auto-Correlation
1.0,0.014498639851808548
2.0,0.014316464774310589
3.0,0.014138832688331604
4.0,0.013966173864901066
5.0,0.013795270584523678
6.0,0.01362804789096117
7.0,0.013463094830513
8.0,0.0133016062900424
9.0,0.013137993402779102
10.0,0.012975841760635376
11.0,0.012814325280487537
12.0,0.012654365040361881
13.0,0.012495938688516617
14.0,0.012343086302280426
15.0,0.012187975458800793
16.0,0.012034948915243149
18.0,0.011742768809199333
20.0,0.011459823697805405
22.0,0.011184231378138065
24.0,0.010904147289693356
26.0,0.010629725642502308
28.0,0.010366583243012428
30.0,0.010121196508407593
32.0,0.009882375597953796
36.0,0.00941763911396265
40.0,0.008986393921077251
44.0,0.008573655970394611
48.0,0.008186382241547108
52.0,0.00780591880902648
56.0,0.00742367235943675
60.0,0.007067773956805468
64.0,0.006730773951858282
72.0,0.006152707152068615
80.0,0.005642445757985115
88.0,0.005150133278220892
96.0,0.004681480582803488
104.0,0.004302484914660454
112.0,0.004034384153783321
120.0,0.0038337965961545706
128.0,0.0036296320613473654
144.0,0.003188089234754443
160.0,0.0028017594013363123
176.0,0.002406833693385124
192.0,0.0019831093959510326
208.0,0.0014246590435504913
224.0,0.0007843453204259276
240.0,0.0002460417745169252
256.0,-0.00015515177801717073
288.0,-0.0006259275251068175
320.0,-0.0009183136280626059
352.0,-0.00119507173076272
384.0,-0.0016726839821785688
416.0,-0.002285066759213805
448.0,-0.002868517767637968
480.0,-0.00261146342381835
512.0,-0.0021941664163023233
576.0,-0.0017111251363530755
640.0,-0.0019573227036744356
704.0,-0.0009484152542427182
768.0,-1.3539578503696248e-05
832.0,0.00015879422426223755
896.0,0.0004523967218119651
960.0,-0.0001416815211996436
1024.0,-0.0005712283891625702
1152.0,0.0008583040325902402
1280.0,-0.00017726003716234118
1408.0,-0.0010858399327844381
1536.0,-0.002212631981819868
1664.0,-0.0018364886054769158
1792.0,-0.0002269092801725492
1920.0,0.0004679296398535371
2048.0,0.0014568977057933807
2304.0,0.0018840859411284328
2560.0,0.0013057816540822387
2816.0,-0.0007460464839823544
3072.0,-0.0013750831130892038
3328.0,-0.0009390214690938592
3584.0,0.0007642817217856646
3840.0,-0.0007183184497989714
4096.0,-0.0003321420808788389
4608.0,5.415324994828552e-05
5120.0,2.713503818085883e-06
5632.0,-0.0026652412489056587
6144.0,0.0001282614393858239
6656.0,0.0009901255834847689
7168.0,0.0016553632449358702
7680.0,-0.001336134853772819
8192.0,-0.002037510508671403
end
