version,3.0
numOfCh,1
type,point
parent_name,19e3e_0dot1-0dot01
ch_type,1_1
kcount,1
numberNandB,1
brightnessNandB,1
carpet pos,0
pc,0
Time (ms),CH1 Auto-Correlation
1.0,0.023704418912529945
2.0,0.023487862199544907
3.0,0.023278724402189255
4.0,0.023074185475707054
5.0,0.022878943011164665
6.0,0.022688619792461395
7.0,0.022498441860079765
8.0,0.022307414561510086
9.0,0.022117698565125465
10.0,0.02193252369761467
11.0,0.021759817376732826
12.0,0.021587660536170006
13.0,0.021414166316390038
14.0,0.021242033690214157
15.0,0.021070808172225952
16.0,0.020909246057271957
18.0,0.02059914730489254
20.0,0.020308129489421844
22.0,0.020050399005413055
24.0,0.01981753669679165
26.0,0.019597254693508148
28.0,0.019401172176003456
30.0,0.019218824803829193
32.0,0.019023876637220383
36.0,0.018637727946043015
40.0,0.018222413957118988
44.0,0.017781972885131836
48.0,0.017351342365145683
52.0,0.016943924129009247
56.0,0.01656326837837696
60.0,0.01620969921350479
64.0,0.015881357714533806
72.0,0.015263840556144714
80.0,0.014619351364672184
88.0,0.014018773101270199
96.0,0.01355743408203125
104.0,0.013158714398741722
112.0,0.012703162617981434
120.0,0.012232632376253605
128.0,0.011773337610065937
144.0,0.010872307233512402
160.0,0.010142742656171322
176.0,0.009536989964544773
192.0,0.008892565965652466
208.0,0.008378301747143269
224.0,0.00810761097818613
240.0,0.007784734480082989
256.0,0.007478849031031132
288.0,0.007102473638951778
320.0,0.0071623665280640125
352.0,0.007462069392204285
384.0,0.00720634963363409
416.0,0.007215738762170076
448.0,0.0069311452098190784
480.0,0.00661731930449605
512.0,0.005979769863188267
576.0,0.004763136152178049
640.0,0.0046327440068125725
704.0,0.00512084411457181
768.0,0.0047340961173176765
832.0,0.004206549376249313
896.0,0.0029428666457533836
960.0,0.001379320165142417
1024.0,0.0010877851163968444
1152.0,0.0011728026438504457
1280.0,-0.0012080282904207706
1408.0,-0.0038247157353907824
1536.0,-0.003305732971057296
1664.0,-0.00418107770383358
1792.0,-0.0054402900859713554
1920.0,-0.004236952401697636
2048.0,-0.004227082710713148
2304.0,-0.005632002837955952
2560.0,-0.005306561943143606
2816.0,-0.004308744333684444
3072.0,-0.0038871231954544783
3328.0,-0.0039761681109666824
3584.0,-0.002129334257915616
3840.0,-0.001607797690667212
4096.0,0.0010441020131111145
4608.0,0.0016923401271924376
5120.0,0.0052496823482215405
5632.0,0.004755857400596142
6144.0,0.005308880936354399
6656.0,0.0032275994308292866
7168.0,-0.004465678706765175
7680.0,-0.00929255597293377
8192.0,-0.011151034384965897
end
