version,3.0
numOfCh,1
type,point
parent_name,19e3e_0dot1-0dot01
ch_type,1_1
kcount,1
numberNandB,1
brightnessNandB,1
carpet pos,0
pc,0
Time (ms),CH1 Auto-Correlation
1.0,0.10100388526916504
2.0,0.09996768832206726
3.0,0.09886398911476135
4.0,0.09780202060937881
5.0,0.09681589901447296
6.0,0.0958220362663269
7.0,0.094895139336586
8.0,0.09396436810493469
9.0,0.09306041896343231
10.0,0.0921877771615982
11.0,0.09133737534284592
12.0,0.09048938751220703
13.0,0.08966103196144104
14.0,0.08884532749652863
15.0,0.08807633817195892
16.0,0.08732379227876663
18.0,0.0859302505850792
20.0,0.08458524942398071
22.0,0.08318959176540375
24.0,0.08180505037307739
26.0,0.08049958199262619
28.0,0.07927922159433365
30.0,0.07813237607479095
32.0,0.07696926593780518
36.0,0.07448823750019073
40.0,0.07209134101867676
44.0,0.07019959390163422
48.0,0.06837201863527298
52.0,0.06608741730451584
56.0,0.06401720643043518
60.0,0.06296300143003464
64.0,0.06211371347308159
72.0,0.06022195518016815
80.0,0.057978902012109756
88.0,0.05543576553463936
96.0,0.052757006138563156
104.0,0.050374586135149
112.0,0.04788048937916756
120.0,0.046414218842983246
128.0,0.04477481544017792
144.0,0.041645247489213943
160.0,0.0373782180249691
176.0,0.031008614227175713
192.0,0.024091435596346855
208.0,0.017088279128074646
224.0,0.013765714131295681
240.0,0.010475706309080124
256.0,0.006747142877429724
288.0,0.0016062423819676042
320.0,0.0003084845084231347
352.0,0.0002571023942437023
384.0,-0.0005423515103757381
416.0,-0.001646862248890102
448.0,-0.002876965096220374
480.0,-0.0042148977518081665
512.0,-0.004705911036580801
576.0,-0.006944703403860331
640.0,-0.007742594927549362
704.0,-0.01094864308834076
768.0,-0.011545123532414436
832.0,-0.009599951095879078
896.0,-0.005361882504075766
960.0,-0.0032179125119000673
1024.0,-0.0006337816012091935
1152.0,-0.00021952514362055808
1280.0,0.0022439109161496162
1408.0,-1.4966450180509128e-05
1536.0,-0.005030019208788872
1664.0,-0.008100681938230991
1792.0,-0.009691214188933372
1920.0,-0.007641655392944813
2048.0,-0.0034635949414223433
2304.0,-0.004746822640299797
2560.0,-0.0004330860683694482
2816.0,-0.00034275365760549903
3072.0,-0.0024776628706604242
3328.0,-0.0030612661503255367
3584.0,-0.0015084159094840288
3840.0,0.006112600211054087
4096.0,0.001006562844850123
4608.0,-0.001982912188395858
5120.0,-0.006822869647294283
5632.0,-0.00636726850643754
6144.0,-0.012356719002127647
6656.0,-0.007413854822516441
7168.0,-0.001150305150076747
7680.0,0.011985714547336102
8192.0,0.059310588985681534
end
