version,3.0
numOfCh,1
type,point
parent_name,19e3e_0dot1-0dot01
ch_type,1_1
kcount,1
numberNandB,1
brightnessNandB,1
carpet pos,0
pc,0
Time (ms),CH1 Auto-Correlation
1.0,0.017014019191265106
2.0,0.016833629459142685
3.0,0.016656044870615005
4.0,0.016488414257764816
5.0,0.016323838382959366
6.0,0.016166318207979202
7.0,0.016005998477339745
8.0,0.0158471018075943
9.0,0.015687931329011917
10.0,0.015533707104623318
11.0,0.01538396067917347
12.0,0.015231795608997345
13.0,0.015082432888448238
14.0,0.0149342967197299
15.0,0.014789365231990814
16.0,0.01464556623250246
18.0,0.01436778623610735
20.0,0.014102443121373653
22.0,0.013842282816767693
24.0,0.013584338128566742
26.0,0.013328960165381432
28.0,0.013074034824967384
30.0,0.012832000851631165
32.0,0.0126047907397151
36.0,0.012183872051537037
40.0,0.011783957481384277
44.0,0.011397788301110268
48.0,0.01102333702147007
52.0,0.010657954961061478
56.0,0.010303580202162266
60.0,0.009975716471672058
64.0,0.009685629047453403
72.0,0.0091162770986557
80.0,0.008619776926934719
88.0,0.008122025988996029
96.0,0.0076986453495919704
104.0,0.007345892023295164
112.0,0.006995775271207094
120.0,0.006719327997416258
128.0,0.006469068117439747
144.0,0.005946374498307705
160.0,0.005296018440276384
176.0,0.004767241422086954
192.0,0.004369014874100685
208.0,0.003972190897911787
224.0,0.003785312408581376
240.0,0.0036780068185180426
256.0,0.0033222741913050413
288.0,0.002485889010131359
320.0,0.0019164482364431024
352.0,0.001732430187985301
384.0,0.0012245116522535682
416.0,0.0005071294726803899
448.0,0.00040648228605277836
480.0,0.0003474129771348089
512.0,-0.00027832205523736775
576.0,-0.0005393881001509726
640.0,-0.0003039455914404243
704.0,-0.00024694122839719057
768.0,-0.0008648569346405566
832.0,-0.0008238265290856361
896.0,-0.0023533247876912355
960.0,-0.001722949557006359
1024.0,-0.0014185260515660048
1152.0,-3.6550420645653503e-06
1280.0,-0.0006826093303970993
1408.0,0.0012125810608267784
1536.0,0.0020577593240886927
1664.0,0.0022627536673098803
1792.0,0.0016479773912578821
1920.0,0.0012152241542935371
2048.0,0.001706963055767119
2304.0,-0.00014059318345971406
2560.0,-0.0006665181135758758
2816.0,-0.0005715825827792287
3072.0,-0.0002987539628520608
3328.0,0.00041861142381094396
3584.0,0.0013023801147937775
3840.0,0.001029939274303615
4096.0,0.0005633425316773355
4608.0,-0.0007659777766093612
5120.0,-0.0023969535250216722
5632.0,0.000547612551599741
6144.0,-0.0006388790206983685
6656.0,-0.0016332394443452358
7168.0,-0.0028063913341611624
7680.0,-0.000699706666637212
8192.0,-0.000723743112757802
end
