version,3.0
numOfCh,1
type,point
parent_name,dirty_0dot2-0dot01
ch_type,1_1
kcount,1
numberNandB,1
brightnessNandB,1
carpet pos,0
pc,0
Time (ms),CH1 Auto-Correlation
1.0,0.05248322710394859
2.0,0.051884133368730545
3.0,0.051278721541166306
4.0,0.050692979246377945
5.0,0.0501166507601738
6.0,0.04954804480075836
7.0,0.049027521163225174
8.0,0.048503659665584564
9.0,0.04798872023820877
10.0,0.0474739633500576
11.0,0.04697857052087784
12.0,0.04648567736148834
13.0,0.046000756323337555
14.0,0.045528583228588104
15.0,0.04505385830998421
16.0,0.04460028186440468
18.0,0.0437692292034626
20.0,0.042959120124578476
22.0,0.042153533548116684
24.0,0.041379787027835846
26.0,0.04064617305994034
28.0,0.03995348885655403
30.0,0.03924361988902092
32.0,0.0385330431163311
36.0,0.03724726662039757
40.0,0.03614029288291931
44.0,0.03516114503145218
48.0,0.03425268456339836
52.0,0.033419713377952576
56.0,0.032587289810180664
60.0,0.031692005693912506
64.0,0.030792679637670517
72.0,0.028883974999189377
80.0,0.02709907479584217
88.0,0.025553127750754356
96.0,0.024523235857486725
104.0,0.02373960055410862
112.0,0.023006202653050423
120.0,0.02254648320376873
128.0,0.022478874772787094
144.0,0.022783856838941574
160.0,0.022465908899903297
176.0,0.021244993433356285
192.0,0.019479036331176758
208.0,0.017871826887130737
224.0,0.01637648604810238
240.0,0.015108853578567505
256.0,0.013953284360468388
288.0,0.013572375290095806
320.0,0.013259714469313622
352.0,0.011157386004924774
384.0,0.008977140299975872
416.0,0.006059190724045038
448.0,0.005765082314610481
480.0,0.006093984469771385
512.0,0.005853679031133652
576.0,0.005258255638182163
640.0,0.005062006413936615
704.0,0.002972412621602416
768.0,0.0020845476537942886
832.0,0.0017118318937718868
896.0,0.0020908864680677652
960.0,0.003195700701326132
1024.0,0.00394213804975152
1152.0,0.008416005410254002
1280.0,0.008826417848467827
1408.0,0.007484829053282738
1536.0,0.0057706101797521114
1664.0,0.00628409069031477
1792.0,0.0042121075093746185
1920.0,-0.0017196310218423605
2048.0,-0.0014399030478671193
2304.0,0.0025047457311302423
2560.0,0.0033648114185780287
2816.0,-0.000503770774230361
3072.0,-0.0007824826170690358
3328.0,-4.147672370891087e-05
3584.0,-0.001501163700595498
3840.0,-0.0014762397622689605
4096.0,-0.0023317120503634214
4608.0,-0.0011197950225323439
5120.0,-0.003786312183365226
5632.0,-0.010415159165859222
6144.0,-0.009350336156785488
6656.0,-0.013496247120201588
7168.0,-0.013181588612496853
7680.0,-0.008172410540282726
8192.0,-0.006154546979814768
9216.0,-0.00027925195172429085
10240.0,0.001988146686926484
11264.0,0.002389857778325677
12288.0,0.0038262666203081608
13312.0,0.009073727764189243
14336.0,0.008863113820552826
end
