version,3.0
numOfCh,1
type,point
parent_name,dirty_0dot2-0dot01
ch_type,1_1
kcount,1
numberNandB,1
brightnessNandB,1
carpet pos,0
pc,0
Time (ms),CH1 Auto-Correlation
1.0,0.6544446349143982
2.0,0.6534395813941956
3.0,0.6524327397346497
4.0,0.6514607071876526
5.0,0.6505993008613586
6.0,0.6497818827629089
7.0,0.6490423679351807
8.0,0.648323655128479
9.0,0.6476391553878784
10.0,0.6469584107398987
11.0,0.646220862865448
12.0,0.6454466581344604
13.0,0.6446727514266968
14.0,0.6438782811164856
15.0,0.6431050300598145
16.0,0.6423295140266418
18.0,0.6408709287643433
20.0,0.6393858790397644
22.0,0.6378498077392578
24.0,0.6364133954048157
26.0,0.6349003911018372
28.0,0.6333593130111694
30.0,0.6318439841270447
32.0,0.6304699778556824
36.0,0.6278941631317139
40.0,0.6250779032707214
44.0,0.6221475601196289
48.0,0.6192014813423157
52.0,0.6161642670631409
56.0,0.6132538914680481
60.0,0.6105644106864929
64.0,0.6075679659843445
72.0,0.6019384264945984
80.0,0.5963340997695923
88.0,0.5908108353614807
96.0,0.5860176682472229
104.0,0.5816992521286011
112.0,0.5767216682434082
120.0,0.5715870261192322
128.0,0.5662451386451721
144.0,0.5560529232025146
160.0,0.5461351871490479
176.0,0.5359572172164917
192.0,0.5251097083091736
208.0,0.5137134790420532
224.0,0.5030094981193542
240.0,0.49095219373703003
256.0,0.4779236614704132
288.0,0.45344698429107666
320.0,0.42864006757736206
352.0,0.40672314167022705
384.0,0.38968777656555176
416.0,0.37833020091056824
448.0,0.36862048506736755
480.0,0.3552514612674713
512.0,0.3397100567817688
576.0,0.31836992502212524
640.0,0.2939503490924835
704.0,0.2718883752822876
768.0,0.2448745220899582
832.0,0.21777567267417908
896.0,0.19156846404075623
960.0,0.16236567497253418
1024.0,0.14320215582847595
1152.0,0.09469681978225708
1280.0,0.046085555106401443
1408.0,0.012472305446863174
1536.0,0.002926818560808897
1664.0,0.00040258781518787146
1792.0,0.0012040265137329698
1920.0,0.0036377671640366316
2048.0,0.002045099390670657
2304.0,-0.016543269157409668
2560.0,-0.026541808620095253
2816.0,-0.03416818007826805
3072.0,-0.03703313693404198
3328.0,-0.04053274542093277
3584.0,-0.035552993416786194
3840.0,-0.0252250786870718
4096.0,-0.02557380497455597
4608.0,-0.003100753528997302
5120.0,-0.016395697370171547
5632.0,-0.022464631125330925
6144.0,-0.02909701131284237
6656.0,-0.013541010208427906
7168.0,-0.05229847878217697
7680.0,-0.03740863502025604
8192.0,-0.044142480939626694
9216.0,-0.08016791939735413
10240.0,-0.10204855352640152
11264.0,-0.07668343931436539
12288.0,-0.12157479673624039
13312.0,-0.26454418897628784
14336.0,-0.28875067830085754
end
