version,3.0
numOfCh,1
type,point
parent_name,dirty_0dot2-0dot01
ch_type,1_1
kcount,1
numberNandB,1
brightnessNandB,1
carpet pos,0
pc,0
Time (ms),CH1 Auto-Correlation
1.0,0.18494391441345215
2.0,0.18430770933628082
3.0,0.18368035554885864
4.0,0.18305757641792297
5.0,0.18245279788970947
6.0,0.18185338377952576
7.0,0.18129046261310577
8.0,0.18076452612876892
9.0,0.1802583485841751
10.0,0.1797487586736679
11.0,0.17923258244991302
12.0,0.17873048782348633
13.0,0.17822153866291046
14.0,0.17771275341510773
15.0,0.17720353603363037
16.0,0.17669937014579773
18.0,0.17572468519210815
20.0,0.1747899353504181
22.0,0.17388980090618134
24.0,0.17303051054477692
26.0,0.17220228910446167
28.0,0.17137092351913452
30.0,0.1705237179994583
32.0,0.16967281699180603
36.0,0.16803009808063507
40.0,0.1664518266916275
44.0,0.16497856378555298
48.0,0.1633920520544052
52.0,0.16182245314121246
56.0,0.16030888259410858
60.0,0.15887588262557983
64.0,0.15756912529468536
72.0,0.15512590110301971
80.0,0.1526908427476883
88.0,0.1504962146282196
96.0,0.14832398295402527
104.0,0.14636148512363434
112.0,0.1445903480052948
120.0,0.14276215434074402
128.0,0.14073733985424042
144.0,0.1372329443693161
160.0,0.1342315822839737
176.0,0.13126437366008759
192.0,0.12882064282894135
208.0,0.1266442984342575
224.0,0.1255066692829132
240.0,0.12488632649183273
256.0,0.12391877174377441
288.0,0.12003754824399948
320.0,0.11516305059194565
352.0,0.1109490618109703
384.0,0.10607884079217911
416.0,0.10245802253484726
448.0,0.10095839202404022
480.0,0.09902548044919968
512.0,0.09726125746965408
576.0,0.08993163704872131
640.0,0.08235307782888412
704.0,0.08008207380771637
768.0,0.08001476526260376
832.0,0.07661407440900803
896.0,0.07078570127487183
960.0,0.06671760976314545
1024.0,0.06692162156105042
1152.0,0.05475708469748497
1280.0,0.04322867467999458
1408.0,0.03305334597826004
1536.0,0.019043225795030594
1664.0,0.01396674383431673
1792.0,0.015484053641557693
1920.0,0.015044163912534714
2048.0,0.010236984118819237
2304.0,-0.0005759306950494647
2560.0,-0.01010196004062891
2816.0,-0.006838393397629261
3072.0,-0.00120086211245507
3328.0,-0.003409680910408497
3584.0,-0.0072259060107171535
3840.0,-0.007939847186207771
4096.0,-0.008111221715807915
4608.0,-0.009748142212629318
5120.0,-0.009858076460659504
5632.0,-0.011638774536550045
6144.0,-0.010062144137918949
6656.0,-0.0031683058477938175
7168.0,-0.0013532839948311448
7680.0,-0.014609184116125107
8192.0,-0.027507172897458076
9216.0,-0.01700047217309475
10240.0,-0.014216804876923561
11264.0,-0.03274029120802879
12288.0,-0.032313957810401917
13312.0,-0.08648673444986343
14336.0,-0.18780948221683502
end
