version,3.0
numOfCh,1
type,point
parent_name,dirty_0dot2-0dot01
ch_type,1_1
kcount,1
numberNandB,1
brightnessNandB,1
carpet pos,0
pc,0
Time (ms),CH1 Auto-Correlation
1.0,0.03437817469239235
2.0,0.033808402717113495
3.0,0.033273935317993164
4.0,0.03275782987475395
5.0,0.032267432659864426
6.0,0.03179216384887695
7.0,0.0313226617872715
8.0,0.030875500291585922
9.0,0.03044133074581623
10.0,0.03002721443772316
11.0,0.029601680114865303
12.0,0.02918512374162674
13.0,0.02877720631659031
14.0,0.028374476358294487
15.0,0.027977699413895607
16.0,0.02757321298122406
18.0,0.026789316907525063
20.0,0.02608940750360489
22.0,0.025445347651839256
24.0,0.024824723601341248
26.0,0.02424737997353077
28.0,0.023692665621638298
30.0,0.02315952070057392
32.0,0.022634131833910942
36.0,0.02159300446510315
40.0,0.020597374066710472
44.0,0.019753623753786087
48.0,0.019026419147849083
52.0,0.018438167870044708
56.0,0.0179542675614357
60.0,0.017467927187681198
64.0,0.016981253400444984
72.0,0.015839777886867523
80.0,0.014662676490843296
88.0,0.013555917888879776
96.0,0.012440814636647701
104.0,0.011465140618383884
112.0,0.010696656070649624
120.0,0.00999240018427372
128.0,0.00938772689551115
144.0,0.008124188520014286
160.0,0.006939237471669912
176.0,0.005859752185642719
192.0,0.005248225759714842
208.0,0.0050985803827643394
224.0,0.004820875357836485
240.0,0.004689397756010294
256.0,0.004732058849185705
288.0,0.004650959745049477
320.0,0.005040780641138554
352.0,0.005532389972358942
384.0,0.005363525822758675
416.0,0.00509853009134531
448.0,0.0047891875728964806
480.0,0.003917801193892956
512.0,0.002659702207893133
576.0,-0.001279021380469203
640.0,-0.002958363853394985
704.0,-0.0014850189909338951
768.0,-0.0010874189902096987
832.0,-0.0009674544562585652
896.0,-0.0024614708963781595
960.0,-0.003959368448704481
1024.0,-0.005372392013669014
1152.0,-0.001505146618001163
1280.0,-0.0004311756056267768
1408.0,0.00022126574185676873
1536.0,0.00026732863625511527
1664.0,0.005289287306368351
1792.0,0.0030070701614022255
1920.0,0.0007920833304524422
2048.0,0.001879852032288909
2304.0,-0.0005156337283551693
2560.0,-0.001706714858300984
2816.0,-0.0004985967534594238
3072.0,0.00020973902428522706
3328.0,0.002658606506884098
3584.0,0.004031906370073557
3840.0,0.0005426594871096313
4096.0,-0.0032205383758991957
4608.0,-0.0011600336292758584
5120.0,0.0020425545517355204
5632.0,-0.0020804370287805796
6144.0,-0.0036032141651958227
6656.0,-0.0014548462349921465
7168.0,-0.003078354522585869
7680.0,-0.00401415815576911
8192.0,0.0001350078673567623
9216.0,-0.003935252781957388
10240.0,0.0012138724559918046
11264.0,0.0007291535730473697
12288.0,-0.002359049627557397
13312.0,0.0030397658701986074
14336.0,-0.00019575394981075078
end
