version,3.0
numOfCh,1
type,point
parent_name,dirty_0dot2-0dot01
ch_type,1_1
kcount,1
numberNandB,1
brightnessNandB,1
carpet pos,0
pc,0
Time (ms),CH1 Auto-Correlation
1.0,0.11382921040058136
2.0,0.11305520683526993
3.0,0.11229588836431503
4.0,0.11154492944478989
5.0,0.11081749200820923
6.0,0.11012641340494156
7.0,0.10945948213338852
8.0,0.10878492146730423
9.0,0.10812630504369736
10.0,0.10746563225984573
11.0,0.10684540122747421
12.0,0.106253482401371
13.0,0.10568702965974808
14.0,0.10510505735874176
15.0,0.10452555865049362
16.0,0.10395307838916779
18.0,0.10287650674581528
20.0,0.10189887136220932
22.0,0.10102565586566925
24.0,0.10014636069536209
26.0,0.09929682314395905
28.0,0.0984717532992363
30.0,0.09760378301143646
32.0,0.09677599370479584
36.0,0.09527816623449326
40.0,0.09375182539224625
44.0,0.09217879921197891
48.0,0.09059284627437592
52.0,0.08900149166584015
56.0,0.08752104640007019
60.0,0.08609966933727264
64.0,0.08475790172815323
72.0,0.08239620923995972
80.0,0.08057242631912231
88.0,0.07942766696214676
96.0,0.07856492698192596
104.0,0.07800649106502533
112.0,0.07718214392662048
120.0,0.07572939246892929
128.0,0.07416604459285736
144.0,0.07132213562726974
160.0,0.0672776997089386
176.0,0.06277448683977127
192.0,0.05855798348784447
208.0,0.05468115583062172
224.0,0.05186142027378082
240.0,0.04944359138607979
256.0,0.04719768092036247
288.0,0.042506344616413116
320.0,0.03759966790676117
352.0,0.03390594944357872
384.0,0.031240642070770264
416.0,0.02892393246293068
448.0,0.0271440576761961
480.0,0.02542286179959774
512.0,0.023462722077965736
576.0,0.02105853706598282
640.0,0.021313877776265144
704.0,0.020823510363698006
768.0,0.018784616142511368
832.0,0.019969293847680092
896.0,0.020994829013943672
960.0,0.025716044008731842
1024.0,0.02388644404709339
1152.0,0.01444806344807148
1280.0,0.009560386650264263
1408.0,0.005777251441031694
1536.0,0.0021637585014104843
1664.0,0.0021415501832962036
1792.0,0.0028569037094712257
1920.0,0.0027468241751194
2048.0,-0.0005165399634279311
2304.0,-0.006895196158438921
2560.0,-0.009844747371971607
2816.0,-0.005553008988499641
3072.0,-0.0008835644111968577
3328.0,8.368380804313347e-05
3584.0,-0.0013579614460468292
3840.0,0.0025620749220252037
4096.0,-0.0019276621751487255
4608.0,-0.0007681167917326093
5120.0,-0.0036438344977796078
5632.0,-0.004460196942090988
6144.0,2.164165380236227e-05
6656.0,0.005126482807099819
7168.0,-0.011081390082836151
7680.0,0.004582249093800783
8192.0,-0.006283487658947706
9216.0,-0.017962967976927757
10240.0,-0.01907377690076828
11264.0,-0.006654155906289816
12288.0,0.0025036761071532965
13312.0,-0.03980281203985214
14336.0,-0.056681789457798004
end
