version,3.0
numOfCh,1
type,point
parent_name,dirty_0dot2-0dot01
ch_type,1_1
kcount,1
numberNandB,1
brightnessNandB,1
carpet pos,0
pc,0
Time (ms),CH1 Auto-Correlation
1.0,0.37744954228401184
2.0,0.3767991364002228
3.0,0.37614116072654724
4.0,0.3754848837852478
5.0,0.3748197555541992
6.0,0.3741398751735687
7.0,0.37346693873405457
8.0,0.3727900981903076
9.0,0.3721036911010742
10.0,0.37140530347824097
11.0,0.3707315921783447
12.0,0.37006914615631104
13.0,0.36939769983291626
14.0,0.36871767044067383
15.0,0.3680645227432251
16.0,0.3674183785915375
18.0,0.3661288022994995
20.0,0.36492136120796204
22.0,0.3637295067310333
24.0,0.36256295442581177
26.0,0.36144062876701355
28.0,0.36036598682403564
30.0,0.35934191942214966
32.0,0.3583518862724304
36.0,0.35655680298805237
40.0,0.35501837730407715
44.0,0.35363104939460754
48.0,0.3523195683956146
52.0,0.3510330617427826
56.0,0.3497113287448883
60.0,0.34827226400375366
64.0,0.3467407822608948
72.0,0.34363532066345215
80.0,0.34059444069862366
88.0,0.3377140164375305
96.0,0.3346370458602905
104.0,0.3315768241882324
112.0,0.32871732115745544
120.0,0.32595476508140564
128.0,0.3233101963996887
144.0,0.3183605670928955
160.0,0.3136809766292572
176.0,0.3098112940788269
192.0,0.30576130747795105
208.0,0.30245524644851685
224.0,0.29946988821029663
240.0,0.2969690263271332
256.0,0.2937762439250946
288.0,0.28536954522132874
320.0,0.2784402072429657
352.0,0.27134862542152405
384.0,0.2634599208831787
416.0,0.2542196810245514
448.0,0.24498358368873596
480.0,0.2370198369026184
512.0,0.2276628315448761
576.0,0.20788921415805817
640.0,0.1834067553281784
704.0,0.15823017060756683
768.0,0.14113998413085938
832.0,0.1237918958067894
896.0,0.10159418731927872
960.0,0.08061360567808151
1024.0,0.06531639397144318
1152.0,0.04447782039642334
1280.0,0.027732456102967262
1408.0,0.013456960208714008
1536.0,0.009767602197825909
1664.0,0.015658296644687653
1792.0,0.018817581236362457
1920.0,0.02537808008491993
2048.0,0.038492199033498764
2304.0,0.07631409913301468
2560.0,0.101995088160038
2816.0,0.09991306811571121
3072.0,0.07379686832427979
3328.0,0.03342808037996292
3584.0,-0.019444648176431656
3840.0,-0.05501013994216919
4096.0,-0.07970195263624191
4608.0,-0.09832509607076645
5120.0,-0.12372138351202011
5632.0,-0.17144201695919037
6144.0,-0.18375173211097717
6656.0,-0.16916215419769287
7168.0,-0.16475224494934082
7680.0,-0.1392648071050644
8192.0,-0.1190171167254448
9216.0,-0.024685001000761986
10240.0,0.024334510788321495
11264.0,0.07521138340234756
12288.0,0.10035058110952377
13312.0,0.10866643488407135
14336.0,0.11461945623159409
end
