version,3.0
numOfCh,1
type,point
parent_name,dirty_0dot2-0dot01
ch_type,1_1
kcount,1
numberNandB,1
brightnessNandB,1
carpet pos,0
pc,0
Time (ms),CH1 Auto-Correlation
1.0,0.425760418176651
2.0,0.42473578453063965
3.0,0.4237663745880127
4.0,0.4228249192237854
5.0,0.4219067394733429
6.0,0.42104098200798035
7.0,0.4201667904853821
8.0,0.41931039094924927
9.0,0.418455570936203
10.0,0.41767072677612305
11.0,0.41689857840538025
12.0,0.41613730788230896
13.0,0.41542425751686096
14.0,0.4146516025066376
15.0,0.41393643617630005
16.0,0.41324958205223083
18.0,0.41196703910827637
20.0,0.41063088178634644
22.0,0.40925684571266174
24.0,0.40801379084587097
26.0,0.40673238039016724
28.0,0.4052368402481079
30.0,0.40370649099349976
32.0,0.402255117893219
36.0,0.39919474720954895
40.0,0.39636582136154175
44.0,0.3937336802482605
48.0,0.3913823366165161
52.0,0.38933172821998596
56.0,0.38715678453445435
60.0,0.38463035225868225
64.0,0.382163941860199
72.0,0.377652108669281
80.0,0.37264811992645264
88.0,0.36786556243896484
96.0,0.36327505111694336
104.0,0.3583119511604309
112.0,0.3536190688610077
120.0,0.35028964281082153
128.0,0.3471773862838745
144.0,0.34019532799720764
160.0,0.33394545316696167
176.0,0.33049774169921875
192.0,0.32798659801483154
208.0,0.325931191444397
224.0,0.3246922492980957
240.0,0.32297393679618835
256.0,0.32039615511894226
288.0,0.31168103218078613
320.0,0.2984762489795685
352.0,0.2828405499458313
384.0,0.2661612629890442
416.0,0.2520432472229004
448.0,0.23954729735851288
480.0,0.22881484031677246
512.0,0.2161807268857956
576.0,0.1951180398464203
640.0,0.16762492060661316
704.0,0.14506857097148895
768.0,0.12470880895853043
832.0,0.10249616205692291
896.0,0.07437728345394135
960.0,0.05461034178733826
1024.0,0.04361915960907936
1152.0,0.02983006462454796
1280.0,0.012593178078532219
1408.0,-0.00444029038771987
1536.0,-0.012119367718696594
1664.0,-0.010107136331498623
1792.0,-0.010442925617098808
1920.0,-0.007792830001562834
2048.0,-0.0062146238051354885
2304.0,0.00023721611069049686
2560.0,-0.0010940241627395153
2816.0,-0.0012845039600506425
3072.0,0.0077012283727526665
3328.0,0.005693173501640558
3584.0,-0.0038781631737947464
3840.0,-0.015735112130641937
4096.0,-0.02301706001162529
4608.0,-0.04234200716018677
5120.0,-0.04021724686026573
5632.0,-0.03191392496228218
6144.0,-0.02968391589820385
6656.0,-0.021122131496667862
7168.0,-0.02696738764643669
7680.0,-0.019164305180311203
8192.0,-0.018249768763780594
9216.0,0.00018452879157848656
10240.0,-0.03696788474917412
11264.0,-0.03787631914019585
12288.0,-0.0782887265086174
13312.0,-0.136008158326149
14336.0,-0.3248862624168396
end
