version,3.0
numOfCh,1
type,point
parent_name,dirty_0dot2-0dot01
ch_type,1_1
kcount,1
numberNandB,1
brightnessNandB,1
carpet pos,0
pc,0
Time (ms),CH1 Auto-Correlation
1.0,0.03183135390281677
2.0,0.03125402331352234
3.0,0.030711883679032326
4.0,0.030170315876603127
5.0,0.029644696041941643
6.0,0.029163846746087074
7.0,0.028701189905405045
8.0,0.028245283290743828
9.0,0.0278144720941782
10.0,0.027405640110373497
11.0,0.027020491659641266
12.0,0.02663591131567955
13.0,0.026264071464538574
14.0,0.025908775627613068
15.0,0.025555791333317757
16.0,0.02521342970430851
18.0,0.02455260045826435
20.0,0.023968759924173355
22.0,0.02344634011387825
24.0,0.022947456687688828
26.0,0.022449113428592682
28.0,0.021973256021738052
30.0,0.021502863615751266
32.0,0.0210237056016922
36.0,0.020136332139372826
40.0,0.019389737397432327
44.0,0.018744442611932755
48.0,0.01821773312985897
52.0,0.017705602571368217
56.0,0.017247213050723076
60.0,0.016761764883995056
64.0,0.016213688999414444
72.0,0.015349425375461578
80.0,0.014711569994688034
88.0,0.01403999887406826
96.0,0.013126811943948269
104.0,0.01231007557362318
112.0,0.011667026206851006
120.0,0.011256673373281956
128.0,0.010903095826506615
144.0,0.010507795959711075
160.0,0.010376610793173313
176.0,0.010120454244315624
192.0,0.009400095790624619
208.0,0.008641342632472515
224.0,0.008189691230654716
240.0,0.008053318597376347
256.0,0.00778717827051878
288.0,0.007865026593208313
320.0,0.007675573695451021
352.0,0.006883826106786728
384.0,0.006489721592515707
416.0,0.0072855278849601746
448.0,0.007696161046624184
480.0,0.007318600546568632
512.0,0.007156568579375744
576.0,0.006572805345058441
640.0,0.0040457663126289845
704.0,0.0017682609613984823
768.0,0.002744454424828291
832.0,0.0033690310083329678
896.0,0.0027106190100312233
960.0,0.0022824127227067947
1024.0,0.002836841158568859
1152.0,0.000936201133299619
1280.0,-0.0015840587439015508
1408.0,4.214342698105611e-05
1536.0,0.0015191116835922003
1664.0,-0.001403455389663577
1792.0,-0.002560313092544675
1920.0,-0.0008103264844976366
2048.0,0.0006042552413418889
2304.0,0.00014562960132025182
2560.0,0.0013938668416813016
2816.0,-0.00036713379085995257
3072.0,-0.00047318972065113485
3328.0,-0.0013733436353504658
3584.0,0.001435881364159286
3840.0,0.0007137473439797759
4096.0,0.0005779070779681206
4608.0,0.00011066149454563856
5120.0,-0.0015081000747159123
5632.0,-0.004289479926228523
6144.0,-0.004697808995842934
6656.0,-0.0058471751399338245
7168.0,-0.0037973911967128515
7680.0,-0.0039220587350428104
8192.0,-0.00402259174734354
9216.0,-0.00019247193995397538
10240.0,-0.004601039458066225
11264.0,0.0025254525244235992
12288.0,0.007288102526217699
13312.0,0.0035363102797418833
14336.0,0.002806279109790921
end
