version,3.0
numOfCh,1
type,point
parent_name,dirty_0dot2-0dot01
ch_type,1_1
kcount,1
numberNandB,1
brightnessNandB,1
carpet pos,0
pc,0
Time (ms),CH1 Auto-Correlation
1.0,0.06238870695233345
2.0,0.06184281408786774
3.0,0.06129143759608269
4.0,0.06076277419924736
5.0,0.060274045914411545
6.0,0.05980125814676285
7.0,0.059340208768844604
8.0,0.0588761530816555
9.0,0.05841862037777901
10.0,0.05797308310866356
11.0,0.057543572038412094
12.0,0.05713711678981781
13.0,0.05672900006175041
14.0,0.05633892863988876
15.0,0.05597897619009018
16.0,0.055630967020988464
18.0,0.054985251277685165
20.0,0.0543527789413929
22.0,0.05372651293873787
24.0,0.05316777899861336
26.0,0.05266503617167473
28.0,0.052143655717372894
30.0,0.051601141691207886
32.0,0.051072731614112854
36.0,0.050112638622522354
40.0,0.04923475161194801
44.0,0.0485045500099659
48.0,0.04781358316540718
52.0,0.04722624272108078
56.0,0.04660414159297943
60.0,0.04595141112804413
64.0,0.04536573961377144
72.0,0.04432224854826927
80.0,0.04343809932470322
88.0,0.04242139682173729
96.0,0.04136798158288002
104.0,0.0403955802321434
112.0,0.03945690765976906
120.0,0.03862369805574417
128.0,0.03772147372364998
144.0,0.03590426221489906
160.0,0.034328874200582504
176.0,0.032295212149620056
192.0,0.03044276498258114
208.0,0.028557609766721725
224.0,0.02709764800965786
240.0,0.02610999345779419
256.0,0.025317661464214325
288.0,0.023719165474176407
320.0,0.020547764375805855
352.0,0.0175230260938406
384.0,0.015606425702571869
416.0,0.01318811159580946
448.0,0.01098987739533186
480.0,0.008676046505570412
512.0,0.006938247010111809
576.0,0.004205733072012663
640.0,0.0005749859265051782
704.0,-0.003272410249337554
768.0,-0.004255203530192375
832.0,-0.003682089038193226
896.0,-0.002003480913117528
960.0,-0.0015553055563941598
1024.0,-0.0009466807241551578
1152.0,0.001854569185525179
1280.0,0.006979112513363361
1408.0,0.012776262126863003
1536.0,0.013515481725335121
1664.0,0.012199888937175274
1792.0,0.009018355049192905
1920.0,0.00263446057215333
2048.0,-0.0013519549975171685
2304.0,-0.0019069545669481158
2560.0,0.002882837550714612
2816.0,0.007869182154536247
3072.0,0.0089912423864007
3328.0,0.004746031016111374
3584.0,0.0005099581903778017
3840.0,0.0015588015085086226
4096.0,0.00039552419912070036
4608.0,-0.0026965776924043894
5120.0,-0.005996093153953552
5632.0,-0.003727713832631707
6144.0,0.0037269035819917917
6656.0,0.005413561128079891
7168.0,-0.002293247729539871
7680.0,-0.0031785147730261087
8192.0,-0.005448480136692524
9216.0,3.346407174831256e-05
10240.0,-0.003934520296752453
11264.0,-0.023093312978744507
12288.0,-0.010206334292888641
13312.0,-0.022014975547790527
14336.0,-0.019927285611629486
end
