version,3.0
numOfCh,1
type,point
parent_name,dirty_0dot2-0dot01
ch_type,1_1
kcount,1
numberNandB,1
brightnessNandB,1
carpet pos,0
pc,0
Time (ms),CH1 Auto-Correlation
1.0,0.5434367656707764
2.0,0.5425883531570435
3.0,0.5417562127113342
4.0,0.540961742401123
5.0,0.540216863155365
6.0,0.5394337773323059
7.0,0.5386218428611755
8.0,0.537797212600708
9.0,0.5369520783424377
10.0,0.5361241698265076
11.0,0.5353015065193176
12.0,0.5344670414924622
13.0,0.5336329936981201
14.0,0.5327994227409363
15.0,0.53200364112854
16.0,0.5312194228172302
18.0,0.5296850204467773
20.0,0.5281011462211609
22.0,0.5266045928001404
24.0,0.5251145362854004
26.0,0.5236643552780151
28.0,0.5222631096839905
30.0,0.5209306478500366
32.0,0.5195602774620056
36.0,0.5166674256324768
40.0,0.51365727186203
44.0,0.5106977820396423
48.0,0.5075875520706177
52.0,0.5044047832489014
56.0,0.5011360049247742
60.0,0.49807778000831604
64.0,0.4952192008495331
72.0,0.49024197459220886
80.0,0.48552772402763367
88.0,0.48037275671958923
96.0,0.4754974842071533
104.0,0.4708082973957062
112.0,0.4659893810749054
120.0,0.46102219820022583
128.0,0.45642802119255066
144.0,0.4481397867202759
160.0,0.43889740109443665
176.0,0.42937523126602173
192.0,0.4215039610862732
208.0,0.41317611932754517
224.0,0.4049505293369293
240.0,0.3970811665058136
256.0,0.38908204436302185
288.0,0.37862440943717957
320.0,0.3701658546924591
352.0,0.3596515953540802
384.0,0.3460237681865692
416.0,0.33471453189849854
448.0,0.3270150125026703
480.0,0.3217393457889557
512.0,0.3184307813644409
576.0,0.30758270621299744
640.0,0.2968797981739044
704.0,0.2932907044887543
768.0,0.28554767370224
832.0,0.2709803879261017
896.0,0.2455054670572281
960.0,0.21478985249996185
1024.0,0.18649204075336456
1152.0,0.15413163602352142
1280.0,0.15123683214187622
1408.0,0.1557503044605255
1536.0,0.17332269251346588
1664.0,0.1711992770433426
1792.0,0.14687027037143707
1920.0,0.10387934744358063
2048.0,0.09625572711229324
2304.0,0.09117136895656586
2560.0,0.05441899970173836
2816.0,-0.009813455864787102
3072.0,-0.02583090215921402
3328.0,-0.03513631969690323
3584.0,-0.03660932928323746
3840.0,-0.0341542586684227
4096.0,-0.02327648736536503
4608.0,-0.028979025781154633
5120.0,-0.030509838834404945
5632.0,-0.04022994637489319
6144.0,-0.0565001554787159
6656.0,-0.06587324291467667
7168.0,-0.0800633579492569
7680.0,-0.08878126740455627
8192.0,-0.0979992225766182
9216.0,-0.12805841863155365
10240.0,-0.16929151117801666
11264.0,-0.20476627349853516
12288.0,-0.3085743486881256
13312.0,-0.21966002881526947
14336.0,-0.12304893136024475
end
