version,3.0
numOfCh,1
type,point
parent_name,dirty_0dot2-0dot01
ch_type,1_1
kcount,1
numberNandB,1
brightnessNandB,1
carpet pos,0
pc,0
Time (ms),CH1 Auto-Correlation
1.0,0.5708200335502625
2.0,0.570066511631012
3.0,0.5693098306655884
4.0,0.5685659050941467
5.0,0.5678315162658691
6.0,0.5671249628067017
7.0,0.566403329372406
8.0,0.5656744241714478
9.0,0.5649137496948242
10.0,0.5641445517539978
11.0,0.5633575320243835
12.0,0.5625728964805603
13.0,0.5618042349815369
14.0,0.5610478520393372
15.0,0.5602912902832031
16.0,0.5595391988754272
18.0,0.5581455230712891
20.0,0.55677729845047
22.0,0.5554246306419373
24.0,0.554151713848114
26.0,0.5528972148895264
28.0,0.5516608953475952
30.0,0.5504522323608398
32.0,0.5492559671401978
36.0,0.546964704990387
40.0,0.5446032285690308
44.0,0.5422566533088684
48.0,0.5399267077445984
52.0,0.5375571250915527
56.0,0.5350848436355591
60.0,0.53253573179245
64.0,0.5300576090812683
72.0,0.5249038934707642
80.0,0.5201774835586548
88.0,0.515896737575531
96.0,0.5117313265800476
104.0,0.5080857276916504
112.0,0.5049448013305664
120.0,0.5021229386329651
128.0,0.4993419051170349
144.0,0.49391624331474304
160.0,0.48787593841552734
176.0,0.4822756350040436
192.0,0.47794976830482483
208.0,0.47332045435905457
224.0,0.468157559633255
240.0,0.46275755763053894
256.0,0.457843542098999
288.0,0.449385404586792
320.0,0.4395044445991516
352.0,0.4326268136501312
384.0,0.4251042306423187
416.0,0.4176110625267029
448.0,0.4085291624069214
480.0,0.3964187800884247
512.0,0.3826899826526642
576.0,0.35560163855552673
640.0,0.3266829550266266
704.0,0.29924309253692627
768.0,0.2767603397369385
832.0,0.25614890456199646
896.0,0.2297666370868683
960.0,0.20696891844272614
1024.0,0.18883711099624634
1152.0,0.14760786294937134
1280.0,0.10562609136104584
1408.0,0.07978790998458862
1536.0,0.06437789648771286
1664.0,0.042546045035123825
1792.0,0.02224050648510456
1920.0,0.008460777811706066
2048.0,-0.006979886442422867
2304.0,-0.040171362459659576
2560.0,-0.07891078293323517
2816.0,-0.1116168424487114
3072.0,-0.13704149425029755
3328.0,-0.14407970011234283
3584.0,-0.14253456890583038
3840.0,-0.1275561898946762
4096.0,-0.09456948190927505
4608.0,0.01237240806221962
5120.0,0.08511088788509369
5632.0,0.05217292532324791
6144.0,-0.05925625190138817
6656.0,-0.11072363704442978
7168.0,-0.09314294159412384
7680.0,-0.12476512789726257
8192.0,-0.16159053146839142
9216.0,-0.1254129558801651
10240.0,-0.12690918147563934
11264.0,-0.04553108289837837
12288.0,0.01611115038394928
13312.0,0.01756702922284603
14336.0,-0.01486350130289793
end
