version,3.0
numOfCh,1
type,point
parent_name,dirty_0dot2-0dot01
ch_type,1_1
kcount,1
numberNandB,1
brightnessNandB,1
carpet pos,0
pc,0
Time (ms),CH1 Auto-Correlation
1.0,0.0555967316031456
2.0,0.0549524687230587
3.0,0.05433039739727974
4.0,0.05371808260679245
5.0,0.05312211811542511
6.0,0.05252842605113983
7.0,0.05195575952529907
8.0,0.05141356587409973
9.0,0.05087289214134216
10.0,0.05032886564731598
11.0,0.04977462813258171
12.0,0.0492185540497303
13.0,0.048670072108507156
14.0,0.04815683513879776
15.0,0.047631796449422836
16.0,0.04711484909057617
18.0,0.04613800346851349
20.0,0.0452110581099987
22.0,0.04430373013019562
24.0,0.043403469026088715
26.0,0.042501192539930344
28.0,0.041580867022275925
30.0,0.040648311376571655
32.0,0.03973405063152313
36.0,0.0380413793027401
40.0,0.03645308315753937
44.0,0.03500700369477272
48.0,0.033650659024715424
52.0,0.032436393201351166
56.0,0.03127588331699371
60.0,0.030230583623051643
64.0,0.02936466783285141
72.0,0.027806751430034637
80.0,0.026245441287755966
88.0,0.024921515956521034
96.0,0.023776935413479805
104.0,0.022551344707608223
112.0,0.021362001076340675
120.0,0.020277544856071472
128.0,0.01916722021996975
144.0,0.01717985048890114
160.0,0.015265469439327717
176.0,0.013651453889906406
192.0,0.012141129933297634
208.0,0.010646871291100979
224.0,0.009305013343691826
240.0,0.0083008436486125
256.0,0.007122074253857136
288.0,0.005092634819447994
320.0,0.004416104406118393
352.0,0.002924226224422455
384.0,0.0008146180771291256
416.0,-0.001221795566380024
448.0,-0.002445680322125554
480.0,-0.0029280639719218016
512.0,-0.003612224478274584
576.0,-0.004969308618456125
640.0,-0.0064564053900539875
704.0,-0.0065054818987846375
768.0,-0.006617402657866478
832.0,-0.007274361327290535
896.0,-0.007718950044363737
960.0,-0.006359418388456106
1024.0,-0.0037226586136966944
1152.0,0.0023715898860245943
1280.0,0.005980547983199358
1408.0,0.005513486452400684
1536.0,0.007430636789649725
1664.0,0.007242527790367603
1792.0,0.004676241893321276
1920.0,-0.0010159069206565619
2048.0,-0.0035295921843498945
2304.0,-0.004172233864665031
2560.0,-0.0004331696545705199
2816.0,-0.007388000376522541
3072.0,-0.006368525791913271
3328.0,-0.001399153028614819
3584.0,-0.004800018854439259
3840.0,-0.006140815559774637
4096.0,-0.00448833080008626
4608.0,0.0005829224828630686
5120.0,-0.005273559130728245
5632.0,-0.0038444222882390022
6144.0,0.010445156134665012
6656.0,0.0017072975169867277
7168.0,-0.0029311832040548325
7680.0,0.007824706844985485
8192.0,0.006578321103006601
9216.0,-0.0019389176741242409
10240.0,-5.4469535825774074e-05
11264.0,-0.002880740212276578
12288.0,-0.001059686648659408
13312.0,0.0002693105780053884
14336.0,0.002739999443292618
end
