version,3.0
numOfCh,1
type,point
parent_name,dirty_0dot2-0dot01
ch_type,1_1
kcount,1
numberNandB,1
brightnessNandB,1
carpet pos,0
pc,0
Time (ms),CH1 Auto-Correlation
1.0,0.7520943284034729
2.0,0.7514271140098572
3.0,0.7507749795913696
4.0,0.7501477003097534
5.0,0.749540388584137
6.0,0.7489203810691833
7.0,0.7483375668525696
8.0,0.7477322816848755
9.0,0.7471334934234619
10.0,0.7465445399284363
11.0,0.7459797859191895
12.0,0.7454483509063721
13.0,0.7449249029159546
14.0,0.7444013953208923
15.0,0.7438973784446716
16.0,0.7433925271034241
18.0,0.7424454092979431
20.0,0.7415268421173096
22.0,0.7405996322631836
24.0,0.7396464347839355
26.0,0.7386822700500488
28.0,0.7377243638038635
30.0,0.7367400527000427
32.0,0.735733151435852
36.0,0.7337510585784912
40.0,0.7318101525306702
44.0,0.7299103140830994
48.0,0.7280832529067993
52.0,0.7262617945671082
56.0,0.724602997303009
60.0,0.7229278087615967
64.0,0.72132807970047
72.0,0.7174293398857117
80.0,0.7132521867752075
88.0,0.7090363502502441
96.0,0.7042010426521301
104.0,0.6989842653274536
112.0,0.6939212679862976
120.0,0.6892375946044922
128.0,0.6849157810211182
144.0,0.6763508915901184
160.0,0.6683390736579895
176.0,0.6604197025299072
192.0,0.6532865166664124
208.0,0.646641194820404
224.0,0.6414982080459595
240.0,0.6376801133155823
256.0,0.6340967416763306
288.0,0.6267402172088623
320.0,0.6202645301818848
352.0,0.6128470301628113
384.0,0.6038795709609985
416.0,0.5934113264083862
448.0,0.5802608728408813
480.0,0.5662416219711304
512.0,0.5522423982620239
576.0,0.5225972533226013
640.0,0.49689361453056335
704.0,0.4725521504878998
768.0,0.45241618156433105
832.0,0.43494659662246704
896.0,0.412695050239563
960.0,0.3831304609775543
1024.0,0.34693631529808044
1152.0,0.2881366014480591
1280.0,0.24318595230579376
1408.0,0.1812841147184372
1536.0,0.12183494120836258
1664.0,0.0662725567817688
1792.0,0.005200193729251623
1920.0,-0.03648003935813904
2048.0,-0.07228274643421173
2304.0,-0.11598001420497894
2560.0,-0.1412956267595291
2816.0,-0.15603213012218475
3072.0,-0.16018489003181458
3328.0,-0.17157745361328125
3584.0,-0.18073640763759613
3840.0,-0.17827574908733368
4096.0,-0.19033758342266083
4608.0,-0.21055465936660767
5120.0,-0.22411538660526276
5632.0,-0.22145195305347443
6144.0,-0.22246837615966797
6656.0,-0.18384014070034027
7168.0,-0.1596764177083969
7680.0,-0.14799059927463531
8192.0,-0.12679892778396606
9216.0,-0.06850361078977585
10240.0,0.07946501672267914
11264.0,0.12305740267038345
12288.0,0.12999671697616577
13312.0,0.1299135684967041
14336.0,0.13969779014587402
end
