version,3.0
numOfCh,1
type,point
parent_name,dirty_0dot2-0dot01
ch_type,1_1
kcount,1
numberNandB,1
brightnessNandB,1
carpet pos,0
pc,0
Time (ms),CH1 Auto-Correlation
1.0,0.205587238073349
2.0,0.20481915771961212
3.0,0.20405910909175873
4.0,0.20329199731349945
5.0,0.20247536897659302
6.0,0.2017168253660202
7.0,0.20095869898796082
8.0,0.2002076655626297
9.0,0.19940751791000366
10.0,0.198622927069664
11.0,0.19782479107379913
12.0,0.1970158964395523
13.0,0.1961953341960907
14.0,0.19539758563041687
15.0,0.19461573660373688
16.0,0.193873330950737
18.0,0.19247281551361084
20.0,0.1911688894033432
22.0,0.18992722034454346
24.0,0.18871091306209564
26.0,0.18752601742744446
28.0,0.18635497987270355
30.0,0.18522542715072632
32.0,0.18410877883434296
36.0,0.18192559480667114
40.0,0.17977797985076904
44.0,0.17773596942424774
48.0,0.17591354250907898
52.0,0.17427054047584534
56.0,0.1727592796087265
60.0,0.17122367024421692
64.0,0.16969163715839386
72.0,0.16670995950698853
80.0,0.16340163350105286
88.0,0.16006095707416534
96.0,0.1568848192691803
104.0,0.1535494327545166
112.0,0.14932173490524292
120.0,0.14524897933006287
128.0,0.14237405359745026
144.0,0.137156143784523
160.0,0.1320406049489975
176.0,0.12603609263896942
192.0,0.1183878481388092
208.0,0.11196017265319824
224.0,0.10562536120414734
240.0,0.09929841756820679
256.0,0.09159112721681595
288.0,0.07689851522445679
320.0,0.062028542160987854
352.0,0.04889252409338951
384.0,0.03602899610996246
416.0,0.024385549128055573
448.0,0.015883130952715874
480.0,0.010343560948967934
512.0,0.00515335937961936
576.0,-0.0018297689966857433
640.0,-0.0071136076003313065
704.0,-0.013465705327689648
768.0,-0.016119761392474174
832.0,-0.016953248530626297
896.0,-0.017317693680524826
960.0,-0.013338074088096619
1024.0,-0.008852869272232056
1152.0,0.006447436287999153
1280.0,0.011084920726716518
1408.0,0.011476635932922363
1536.0,0.008197695948183537
1664.0,0.0037634330801665783
1792.0,-0.0005136743420735002
1920.0,-0.010209653526544571
2048.0,-0.013665650971233845
2304.0,-0.003998164553195238
2560.0,0.009900478646159172
2816.0,0.0056416187435388565
3072.0,-0.021555863320827484
3328.0,-0.04407196119427681
3584.0,-0.045495860278606415
3840.0,-0.03723146766424179
4096.0,-0.027792951092123985
4608.0,-0.024956466630101204
5120.0,-0.018663309514522552
5632.0,-0.030489249154925346
6144.0,-0.021798454225063324
6656.0,0.04894687235355377
7168.0,-0.015546868555247784
7680.0,0.002095118397846818
8192.0,0.05123548209667206
9216.0,0.012927203439176083
10240.0,0.010667894035577774
11264.0,-0.004206585697829723
12288.0,-0.001531918765977025
13312.0,-0.009743272326886654
14336.0,-0.02187802642583847
end
