version,3.0
numOfCh,1
type,point
parent_name,dirty_0dot2-0dot01
ch_type,1_1
kcount,1
numberNandB,1
brightnessNandB,1
carpet pos,0
pc,0
Time (ms),CH1 Auto-Correlation
1.0,0.056497473269701004
2.0,0.05593181401491165
3.0,0.05538946017622948
4.0,0.054858364164829254
5.0,0.05433904007077217
6.0,0.053827621042728424
7.0,0.0533396378159523
8.0,0.05286187306046486
9.0,0.052395571023225784
10.0,0.051928021013736725
11.0,0.05146762356162071
12.0,0.051014453172683716
13.0,0.050575144588947296
14.0,0.05017353966832161
15.0,0.04978353902697563
16.0,0.04939240589737892
18.0,0.04865490272641182
20.0,0.047918651252985
22.0,0.04721210151910782
24.0,0.04652058705687523
26.0,0.04583116993308067
28.0,0.045155029743909836
30.0,0.044505372643470764
32.0,0.04390616714954376
36.0,0.04277031496167183
40.0,0.04172418266534805
44.0,0.0407535582780838
48.0,0.03984575346112251
52.0,0.03904108703136444
56.0,0.03829817846417427
60.0,0.03755021467804909
64.0,0.036849312484264374
72.0,0.03559357672929764
80.0,0.03433710336685181
88.0,0.03326769918203354
96.0,0.03250752389431
104.0,0.031933724880218506
112.0,0.031108036637306213
120.0,0.03026548959314823
128.0,0.029557259753346443
144.0,0.027909154072403908
160.0,0.02649521641433239
176.0,0.025117723271250725
192.0,0.024079836905002594
208.0,0.023133793845772743
224.0,0.021788103505969048
240.0,0.019961735233664513
256.0,0.01787840574979782
288.0,0.014071804471313953
320.0,0.011271926574409008
352.0,0.009226921945810318
384.0,0.008148016408085823
416.0,0.007960383780300617
448.0,0.007813559845089912
480.0,0.006696836091578007
512.0,0.006384158506989479
576.0,0.005767101421952248
640.0,0.006185467820614576
704.0,0.004809088073670864
768.0,0.003433648496866226
832.0,0.0034961956553161144
896.0,0.0032883314415812492
960.0,0.0013078622287139297
1024.0,-0.00015250219439622015
1152.0,-0.0006103532505221665
1280.0,-0.001130550866946578
1408.0,-0.001902695163153112
1536.0,-0.0044630421325564384
1664.0,-0.0046360124833881855
1792.0,-0.0049345726147294044
1920.0,-0.0031606436241418123
2048.0,-0.0026389462873339653
2304.0,-0.002472738502547145
2560.0,-0.0054602716118097305
2816.0,-0.007285661529749632
3072.0,-0.00014834979083389044
3328.0,0.004720957484096289
3584.0,0.003720798995345831
3840.0,0.0051911696791648865
4096.0,0.00451944163069129
4608.0,-0.0009836767567321658
5120.0,-0.00177081732545048
5632.0,-0.00729698222130537
6144.0,-0.003760450752452016
6656.0,-0.006994706578552723
7168.0,-0.0076658958569169044
7680.0,-0.004451068118214607
8192.0,-0.007467109709978104
9216.0,-0.000696812232490629
10240.0,0.0034853226970881224
11264.0,-0.0025681820698082447
12288.0,0.005102469585835934
13312.0,0.0047401669435203075
14336.0,0.00400238111615181
end
