version,3.0
numOfCh,1
type,point
parent_name,dirty_0dot2-0dot01
ch_type,1_1
kcount,1
numberNandB,1
brightnessNandB,1
carpet pos,0
pc,0
Time (ms),CH1 Auto-Correlation
1.0,0.18014384806156158
2.0,0.17932282388210297
3.0,0.17851771414279938
4.0,0.17775335907936096
5.0,0.17698346078395844
6.0,0.17621156573295593
7.0,0.1754598617553711
8.0,0.17473305761814117
9.0,0.1740051507949829
10.0,0.17327438294887543
11.0,0.1725437492132187
12.0,0.1717958152294159
13.0,0.1710682213306427
14.0,0.1703612059354782
15.0,0.16970427334308624
16.0,0.16903862357139587
18.0,0.16774201393127441
20.0,0.16650284826755524
22.0,0.16521333158016205
24.0,0.16398310661315918
26.0,0.16277509927749634
28.0,0.16165858507156372
30.0,0.16059482097625732
32.0,0.1595710664987564
36.0,0.15780092775821686
40.0,0.15625271201133728
44.0,0.15463890135288239
48.0,0.15305303037166595
52.0,0.15154500305652618
56.0,0.14978769421577454
60.0,0.1479196846485138
64.0,0.14607885479927063
72.0,0.1424936205148697
80.0,0.1393369883298874
88.0,0.13619288802146912
96.0,0.1332400143146515
104.0,0.13033072650432587
112.0,0.12780167162418365
120.0,0.12536635994911194
128.0,0.12280140817165375
144.0,0.11726564913988113
160.0,0.11020062863826752
176.0,0.10401983559131622
192.0,0.09924803674221039
208.0,0.09442780911922455
224.0,0.0902760699391365
240.0,0.08632107079029083
256.0,0.08216642588376999
288.0,0.076094850897789
320.0,0.06975923478603363
352.0,0.06656510382890701
384.0,0.06421147286891937
416.0,0.06393103301525116
448.0,0.06343556940555573
480.0,0.06520054489374161
512.0,0.06770806759595871
576.0,0.07035829871892929
640.0,0.06939348578453064
704.0,0.06139940768480301
768.0,0.052663758397102356
832.0,0.04968728497624397
896.0,0.049381960183382034
960.0,0.05079367384314537
1024.0,0.048017557710409164
1152.0,0.04234079271554947
1280.0,0.02391892671585083
1408.0,0.015539170242846012
1536.0,0.0172728318721056
1664.0,0.011546136811375618
1792.0,-0.0077436696738004684
1920.0,-0.02626444399356842
2048.0,-0.036681532859802246
2304.0,-0.038647059351205826
2560.0,-0.04446245729923248
2816.0,-0.048721618950366974
3072.0,-0.052134666591882706
3328.0,-0.052732065320014954
3584.0,-0.049742039293050766
3840.0,-0.05756527930498123
4096.0,-0.0582096241414547
4608.0,-0.030149372294545174
5120.0,0.01063606422394514
5632.0,0.01594836823642254
6144.0,0.0480402335524559
6656.0,0.03288043662905693
7168.0,0.019416777417063713
7680.0,0.0032317503355443478
8192.0,-0.016098614782094955
9216.0,-0.036940354853868484
10240.0,-0.048897966742515564
11264.0,-0.012644467875361443
12288.0,0.02816462516784668
13312.0,0.0321102999150753
14336.0,0.03917568922042847
end
