version,3.0
numOfCh,1
type,point
parent_name,dirty_0dot2-0dot01
ch_type,1_1
kcount,1
numberNandB,1
brightnessNandB,1
carpet pos,0
pc,0
Time (ms),CH1 Auto-Correlation
1.0,0.3093777000904083
2.0,0.3089442253112793
3.0,0.30851367115974426
4.0,0.30809536576271057
5.0,0.30768853425979614
6.0,0.307292103767395
7.0,0.3068883419036865
8.0,0.30649131536483765
9.0,0.30609992146492004
10.0,0.3057110607624054
11.0,0.30532941222190857
12.0,0.3049500584602356
13.0,0.30456796288490295
14.0,0.30419042706489563
15.0,0.3038084805011749
16.0,0.3034265339374542
18.0,0.30265963077545166
20.0,0.3019000291824341
22.0,0.3011694550514221
24.0,0.30045920610427856
26.0,0.2997627556324005
28.0,0.2990342974662781
30.0,0.29827386140823364
32.0,0.2975172996520996
36.0,0.2960118353366852
40.0,0.29454413056373596
44.0,0.29312723875045776
48.0,0.2917766869068146
52.0,0.29046767950057983
56.0,0.2891027629375458
60.0,0.2877063751220703
64.0,0.286377489566803
72.0,0.28369560837745667
80.0,0.28115132451057434
88.0,0.27873465418815613
96.0,0.27627310156822205
104.0,0.2737581729888916
112.0,0.2712891101837158
120.0,0.2686236500740051
128.0,0.2659568786621094
144.0,0.2612661123275757
160.0,0.25731363892555237
176.0,0.25377827882766724
192.0,0.2500210404396057
208.0,0.2463720440864563
224.0,0.24273324012756348
240.0,0.23941820859909058
256.0,0.23634974658489227
288.0,0.2303076535463333
320.0,0.22472204267978668
352.0,0.2194356620311737
384.0,0.21276052296161652
416.0,0.20577113330364227
448.0,0.19813165068626404
480.0,0.19074569642543793
512.0,0.18459784984588623
576.0,0.17204800248146057
640.0,0.1621740758419037
704.0,0.1514163613319397
768.0,0.1387101113796234
832.0,0.12799771130084991
896.0,0.12002377957105637
960.0,0.11031471937894821
1024.0,0.09968133270740509
1152.0,0.07755860686302185
1280.0,0.0684419497847557
1408.0,0.06551777571439743
1536.0,0.06045015901327133
1664.0,0.05585145950317383
1792.0,0.05693105235695839
1920.0,0.060410939157009125
2048.0,0.05727414786815643
2304.0,0.05988142266869545
2560.0,0.056712519377470016
2816.0,0.045395348221063614
3072.0,0.04360457509756088
3328.0,0.038545090705156326
3584.0,0.0278928279876709
3840.0,0.032740771770477295
4096.0,0.04813254624605179
4608.0,0.03548518195748329
5120.0,-0.012021323665976524
5632.0,-0.06024154648184776
6144.0,-0.1214151531457901
6656.0,-0.17374300956726074
7168.0,-0.16350121796131134
7680.0,-0.1414782851934433
8192.0,-0.11443070322275162
9216.0,-0.09824811667203903
10240.0,-0.11468667536973953
11264.0,-0.09969542175531387
12288.0,-0.0864097848534584
13312.0,0.026880314573645592
14336.0,0.1627870798110962
end
