version,3.0
numOfCh,1
type,point
parent_name,0cd20_0dot6-0dot01
ch_type,1_1
kcount,1
numberNandB,1
brightnessNandB,1
carpet pos,0
pc,0
Time (ms),CH1 Auto-Correlation
1.0,0.023906487971544266
2.0,0.02279793657362461
3.0,0.021760348230600357
4.0,0.02083667553961277
5.0,0.019992617890238762
6.0,0.019245857372879982
7.0,0.018567774444818497
8.0,0.017926277592778206
9.0,0.01732279546558857
10.0,0.0167449489235878
11.0,0.016173627227544785
12.0,0.01565391942858696
13.0,0.015193937346339226
14.0,0.014783794991672039
15.0,0.014373047277331352
16.0,0.013989551924169064
18.0,0.013271249830722809
20.0,0.012602213770151138
22.0,0.011969305574893951
24.0,0.011413420550525188
26.0,0.010891368612647057
28.0,0.010426648892462254
30.0,0.010061225853860378
32.0,0.009746178984642029
36.0,0.009118660353124142
40.0,0.00854996033012867
44.0,0.008046668022871017
48.0,0.007541477680206299
52.0,0.007155728526413441
56.0,0.0069031184539198875
60.0,0.006643916014581919
64.0,0.006259721703827381
72.0,0.0057595474645495415
80.0,0.005501107312738895
88.0,0.00512044969946146
96.0,0.0045094736851751804
104.0,0.003931279294192791
112.0,0.003783463267609477
120.0,0.003927295561879873
128.0,0.0038922138046473265
144.0,0.0032051538582891226
160.0,0.0030618980526924133
176.0,0.0033743164967745543
192.0,0.003134476486593485
208.0,0.0026506150607019663
224.0,0.0023158956319093704
240.0,0.0019393176771700382
256.0,0.002194274216890335
288.0,0.0016958502819761634
320.0,0.0012993196723982692
352.0,0.001473340205848217
384.0,0.001440083491615951
416.0,0.002196797402575612
448.0,0.002241028007119894
480.0,0.002139595802873373
512.0,0.0023652464151382446
576.0,0.0014398788334801793
640.0,0.0018766220891848207
704.0,0.0009127294761128724
768.0,0.0007317279814742506
832.0,-0.00041707741911523044
896.0,-0.0020768395625054836
960.0,-0.002194755943492055
1024.0,-0.0011726121883839369
1152.0,-0.0007534511387348175
1280.0,-0.002341368468478322
1408.0,-0.0025279042311012745
1536.0,-0.00046430324437096715
1664.0,-0.0014724336797371507
1792.0,-0.001164661138318479
1920.0,9.537707956042141e-05
2048.0,0.0008931471384130418
2304.0,0.0013711622450500727
2560.0,0.0009774714708328247
2816.0,0.0010272050276398659
3072.0,0.0006060967571102083
3328.0,0.00047542210086248815
3584.0,-0.0004679123230744153
3840.0,1.3787469470116775e-05
4096.0,0.001238456228747964
4608.0,0.00012778905511368066
5120.0,-0.0008156117401085794
5632.0,-0.0019376548007130623
6144.0,-0.0007915100432001054
6656.0,0.0013310262002050877
7168.0,0.0007758208084851503
7680.0,-0.0018438040278851986
8192.0,-0.0030541527085006237
end
