version,3.0
numOfCh,1
type,point
parent_name,0cd20_0dot6-0dot01
ch_type,1_1
kcount,1
numberNandB,1
brightnessNandB,1
carpet pos,0
pc,0
Time (ms),CH1 Auto-Correlation
1.0,0.021937677636742592
2.0,0.020823106169700623
3.0,0.01986297219991684
4.0,0.018997685983777046
5.0,0.018133040517568588
6.0,0.017342818900942802
7.0,0.01661672443151474
8.0,0.01593412272632122
9.0,0.015322803519666195
10.0,0.014746430329978466
11.0,0.014196944423019886
12.0,0.013700726442039013
13.0,0.013240179978311062
14.0,0.012833356857299805
15.0,0.012471788562834263
16.0,0.01215655542910099
18.0,0.011559244245290756
20.0,0.01096455566585064
22.0,0.010386762209236622
24.0,0.009905612096190453
26.0,0.009501788765192032
28.0,0.009097986854612827
30.0,0.008712658658623695
32.0,0.00828778650611639
36.0,0.007512957789003849
40.0,0.0068519227206707
44.0,0.006156930699944496
48.0,0.005583523772656918
52.0,0.005254750605672598
56.0,0.0050903852097690105
60.0,0.004931884352117777
64.0,0.004755583591759205
72.0,0.0039687445387244225
80.0,0.0033131479285657406
88.0,0.002815661719068885
96.0,0.0021456999238580465
104.0,0.0018438684055581689
112.0,0.001703919842839241
120.0,0.0015819898108020425
128.0,0.0014766133390367031
144.0,0.0019081239588558674
160.0,0.0023299017921090126
176.0,0.002267976989969611
192.0,0.001719166524708271
208.0,0.0015348386950790882
224.0,0.0012033169623464346
240.0,0.0008258745656348765
256.0,0.00041621355921961367
288.0,0.0006216781330294907
320.0,0.00014876894420012832
352.0,0.0008105526794679463
384.0,0.0018163634231314063
416.0,0.0019773151725530624
448.0,0.0014393123565241694
480.0,0.0012949586380273104
512.0,0.0009868263732641935
576.0,0.0013383753830567002
640.0,0.00013492321886587888
704.0,-0.00017988888430409133
768.0,0.0009139308822341263
832.0,0.0009522433392703533
896.0,0.00016236038936767727
960.0,0.0006277458742260933
1024.0,-0.00017239128646906465
1152.0,-0.0011479161912575364
1280.0,-0.000511583115439862
1408.0,6.690416921628639e-05
1536.0,-5.287590465741232e-05
1664.0,-0.002469131723046303
1792.0,-0.0015529909869655967
1920.0,-0.0020367808174341917
2048.0,-0.0013835354475304484
2304.0,-0.0018609154503792524
2560.0,-0.0007643524440936744
2816.0,-0.00147503602784127
3072.0,0.0005155003746040165
3328.0,0.001183221465907991
3584.0,0.001919645699672401
3840.0,0.0016346541233360767
4096.0,0.00022694228391628712
4608.0,0.00046430935617536306
5120.0,-0.002043146872892976
5632.0,-0.0021256068721413612
6144.0,-0.0009858808480203152
6656.0,-0.00016257008246611804
7168.0,-0.0001565513084642589
7680.0,0.0023329181130975485
8192.0,0.0014555504312738776
end
