version,3.0
numOfCh,1
type,point
parent_name,0cd20_0dot6-0dot01
ch_type,1_1
kcount,1
numberNandB,1
brightnessNandB,1
carpet pos,0
pc,0
Time (ms),CH1 Auto-Correlation
1.0,0.02181858755648136
2.0,0.020743250846862793
3.0,0.019770707935094833
4.0,0.018897537142038345
5.0,0.018107552081346512
6.0,0.017376011237502098
7.0,0.016730036586523056
8.0,0.01611453667283058
9.0,0.015520431101322174
10.0,0.014955944381654263
11.0,0.014424708671867847
12.0,0.01392675656825304
13.0,0.013428086414933205
14.0,0.013011087663471699
15.0,0.012626245617866516
16.0,0.012276215478777885
18.0,0.01163791585713625
20.0,0.011097493581473827
22.0,0.010647231712937355
24.0,0.010219334624707699
26.0,0.0097891204059124
28.0,0.00937733892351389
30.0,0.009042361751198769
32.0,0.008733274415135384
36.0,0.008324461057782173
40.0,0.007940474897623062
44.0,0.007731148973107338
48.0,0.0075434730388224125
52.0,0.00729764299467206
56.0,0.006939907558262348
60.0,0.006717764772474766
64.0,0.006422878708690405
72.0,0.0058928076177835464
80.0,0.005595414433628321
88.0,0.005099929869174957
96.0,0.004595625679939985
104.0,0.004486388061195612
112.0,0.004077499732375145
120.0,0.0035297288559377193
128.0,0.0031105466187000275
144.0,0.002861541463062167
160.0,0.0029724924825131893
176.0,0.003041444346308708
192.0,0.002745995530858636
208.0,0.002635560929775238
224.0,0.002435778733342886
240.0,0.0024093908723443747
256.0,0.0019552286248654127
288.0,0.0017757286550477147
320.0,0.0025323263835161924
352.0,0.0013723733136430383
384.0,0.0008038579253479838
416.0,0.0003843609010800719
448.0,-0.00016622994735371321
480.0,-0.0012569661485031247
512.0,-0.0002744423400145024
576.0,0.0007577018113806844
640.0,0.00034472468541935086
704.0,-0.0007793602417223155
768.0,-0.0006381329149007797
832.0,-0.0007794901030138135
896.0,9.188786498270929e-05
960.0,-0.0004041832289658487
1024.0,-0.0013260060222819448
1152.0,-0.0012525318888947368
1280.0,0.0006096346769481897
1408.0,-0.00010383665357949212
1536.0,4.7137167712207884e-05
1664.0,0.00021839178225491196
1792.0,0.0006470436928793788
1920.0,0.000504727999214083
2048.0,0.00023951363982632756
2304.0,-0.0007255622185766697
2560.0,-0.0014511714689433575
2816.0,-0.0005888103623874485
3072.0,-0.0015253752935677767
3328.0,-0.0029678065329790115
3584.0,-0.0007340276497416198
3840.0,-9.394868538947776e-05
4096.0,0.0019364854088053107
4608.0,0.000527387426700443
5120.0,-0.0014704756904393435
5632.0,-0.00017388875130563974
6144.0,-0.00012979097664356232
6656.0,-6.04813831159845e-05
7168.0,-0.003392911748960614
7680.0,-8.341890497831628e-05
8192.0,0.0030758418142795563
end
