version,3.0
numOfCh,1
type,point
parent_name,0cd20_0dot6-0dot01
ch_type,1_1
kcount,1
numberNandB,1
brightnessNandB,1
carpet pos,0
pc,0
Time (ms),CH1 Auto-Correlation
1.0,0.025729497894644737
2.0,0.02459017187356949
3.0,0.023571999743580818
4.0,0.02266506664454937
5.0,0.02184360660612583
6.0,0.021087972447276115
7.0,0.02036953903734684
8.0,0.019740642979741096
9.0,0.01916005276143551
10.0,0.018649578094482422
11.0,0.018157165497541428
12.0,0.017705466598272324
13.0,0.017258400097489357
14.0,0.016810832545161247
15.0,0.01642080768942833
16.0,0.01603706181049347
18.0,0.015260876156389713
20.0,0.01447554212063551
22.0,0.013767748139798641
24.0,0.013142935000360012
26.0,0.012623155489563942
28.0,0.012142281979322433
30.0,0.011723199859261513
32.0,0.011383606120944023
36.0,0.010724355466663837
40.0,0.010277810506522655
44.0,0.009868502616882324
48.0,0.00951608456671238
52.0,0.009162374772131443
56.0,0.008736354298889637
60.0,0.008290449157357216
64.0,0.007817878387868404
72.0,0.007023632060736418
80.0,0.006238005124032497
88.0,0.005639105103909969
96.0,0.004923859611153603
104.0,0.0044124675914645195
112.0,0.00419176509603858
120.0,0.004133037757128477
128.0,0.0038469319697469473
144.0,0.003338898764923215
160.0,0.0027222302742302418
176.0,0.002462247386574745
192.0,0.002458347473293543
208.0,0.0020098965615034103
224.0,0.001932308659888804
240.0,0.002056901575997472
256.0,0.002432255307212472
288.0,0.0015040411381050944
320.0,0.0009062015451490879
352.0,-0.0005004166741855443
384.0,-0.0009023722959682345
416.0,-0.0011767484247684479
448.0,-0.0008272593840956688
480.0,-0.0009395636152476072
512.0,-0.0005710830446332693
576.0,0.0001981069945031777
640.0,-0.00038508721627295017
704.0,-0.0017655667616054416
768.0,-0.003005049657076597
832.0,-0.002313013654202223
896.0,-0.0014788706321269274
960.0,-0.0010020032059401274
1024.0,-0.0017615115502849221
1152.0,0.0013985055265948176
1280.0,0.0018954232800751925
1408.0,0.0016575426561757922
1536.0,0.0014700256288051605
1664.0,-0.0008484061108902097
1792.0,0.000988764688372612
1920.0,-0.00026381475618109107
2048.0,0.0010841848561540246
2304.0,-0.0013343221507966518
2560.0,0.00031612030579708517
2816.0,0.0007658967515453696
3072.0,0.00030171938124112785
3328.0,-0.00151148927398026
3584.0,0.0003207469417247921
3840.0,0.000774417188949883
4096.0,0.0006836421089246869
4608.0,-0.001570262247696519
5120.0,-0.0004171074542682618
5632.0,0.0009320463286712766
6144.0,-0.0013858339516445994
6656.0,-0.0017605382017791271
7168.0,0.0001972642494365573
7680.0,0.0002357823250349611
8192.0,0.0008578933193348348
end
