version,3.0
numOfCh,1
type,point
parent_name,0cd20_0dot6-0dot01
ch_type,1_1
kcount,1
numberNandB,1
brightnessNandB,1
carpet pos,0
pc,0
Time (ms),CH1 Auto-Correlation
1.0,0.0719088688492775
2.0,0.07052625715732574
3.0,0.06924692541360855
4.0,0.06802684813737869
5.0,0.06693869829177856
6.0,0.06593724340200424
7.0,0.06500913947820663
8.0,0.06413146108388901
9.0,0.06324579566717148
10.0,0.06238647922873497
11.0,0.06153518334031105
12.0,0.06077831611037254
13.0,0.060060303658246994
14.0,0.05936121195554733
15.0,0.05868881568312645
16.0,0.05805069953203201
18.0,0.05692403018474579
20.0,0.055871475487947464
22.0,0.05479060858488083
24.0,0.05366750806570053
26.0,0.0525142103433609
28.0,0.05136757344007492
30.0,0.05026056244969368
32.0,0.04918530210852623
36.0,0.04727668687701225
40.0,0.04557562991976738
44.0,0.04422200471162796
48.0,0.04296419769525528
52.0,0.04182259738445282
56.0,0.04112594202160835
60.0,0.0402090884745121
64.0,0.03933873027563095
72.0,0.03680574521422386
80.0,0.03542489930987358
88.0,0.03439255803823471
96.0,0.032917480915784836
104.0,0.03139642998576164
112.0,0.029871800914406776
120.0,0.028455007821321487
128.0,0.02638333849608898
144.0,0.023308835923671722
160.0,0.021082274615764618
176.0,0.020293621346354485
192.0,0.02006003074347973
208.0,0.019593695178627968
224.0,0.018934030085802078
240.0,0.01733410730957985
256.0,0.01582610420882702
288.0,0.014481043443083763
320.0,0.01350193377584219
352.0,0.012917885556817055
384.0,0.012687243521213531
416.0,0.01159521285444498
448.0,0.010179132223129272
480.0,0.010252407751977444
512.0,0.013706672936677933
576.0,0.01320820301771164
640.0,0.010688473470509052
704.0,0.01127886027097702
768.0,0.012939062900841236
832.0,0.010368483141064644
896.0,0.004737691953778267
960.0,0.0012631104327738285
1024.0,0.0003934896958526224
1152.0,-0.0017607443733140826
1280.0,-0.0012743906117975712
1408.0,-0.001139808795414865
1536.0,0.0013399431481957436
1664.0,0.0034830234944820404
1792.0,0.0018235769821330905
1920.0,-0.00010641368862707168
2048.0,-0.0010923822410404682
2304.0,-0.0022246416192501783
2560.0,-0.0016316137043759227
2816.0,-0.004202177748084068
3072.0,-0.0033318547066301107
3328.0,-0.00022038206225261092
3584.0,-0.0019580081570893526
3840.0,-0.0013099864590913057
4096.0,0.0005337204784154892
4608.0,-0.0018117147265002131
5120.0,-0.0051218015141785145
5632.0,-0.0025238560047000647
6144.0,0.0037499398458749056
6656.0,0.006720645818859339
7168.0,0.005580748897045851
7680.0,-0.0047163935378193855
8192.0,-0.01162900310009718
end
