version,3.0
numOfCh,1
type,point
parent_name,0cd20_0dot6-0dot01
ch_type,1_1
kcount,1
numberNandB,1
brightnessNandB,1
carpet pos,0
pc,0
Time (ms),CH1 Auto-Correlation
1.0,0.02433297224342823
2.0,0.023185310885310173
3.0,0.022142885252833366
4.0,0.0211800429970026
5.0,0.020262105390429497
6.0,0.019444212317466736
7.0,0.01867094822227955
8.0,0.01798323728144169
9.0,0.017340324819087982
10.0,0.01674862951040268
11.0,0.016178108751773834
12.0,0.015671735629439354
13.0,0.015223409980535507
14.0,0.01482316479086876
15.0,0.014428222551941872
16.0,0.014060738496482372
18.0,0.013392884284257889
20.0,0.012732012197375298
22.0,0.012122780084609985
24.0,0.011544544249773026
26.0,0.011034979484975338
28.0,0.0105770044028759
30.0,0.010135619901120663
32.0,0.00968196988105774
36.0,0.008883615024387836
40.0,0.008327226154506207
44.0,0.0078091807663440704
48.0,0.007272722199559212
52.0,0.006838804576545954
56.0,0.006395330186933279
60.0,0.006051321979612112
64.0,0.005843706429004669
72.0,0.005412537604570389
80.0,0.004993073176592588
88.0,0.004586364142596722
96.0,0.004047038499265909
104.0,0.0037650042213499546
112.0,0.0035287931095808744
120.0,0.0032647971529513597
128.0,0.002910761861130595
144.0,0.0023562172427773476
160.0,0.0017960378900170326
176.0,0.0011809460120275617
192.0,0.0003134832077194005
208.0,0.0001917277550091967
224.0,6.620416388614103e-05
240.0,0.0002412315661786124
256.0,0.000658194359857589
288.0,0.001064322772435844
320.0,0.0007856016745790839
352.0,0.0005703276838175952
384.0,0.0015519890002906322
416.0,0.0023543592542409897
448.0,0.0010234600631520152
480.0,-0.0002025943249464035
512.0,-2.7848684112541378e-05
576.0,0.00011667343642329797
640.0,0.0006815458764322102
704.0,4.50612060376443e-05
768.0,-0.00011506689043017104
832.0,0.0008749235421419144
896.0,0.0001591241016285494
960.0,0.0003549624525476247
1024.0,3.35036929755006e-05
1152.0,-0.00015260365034919232
1280.0,0.0013631023466587067
1408.0,-0.0015680850483477116
1536.0,-0.001981590408831835
1664.0,-0.0005471694166772068
1792.0,-0.0015710375737398863
1920.0,-0.0005669721285812557
2048.0,-0.0003488492511678487
2304.0,-5.510336268343963e-05
2560.0,0.00010967420530505478
2816.0,-0.0015407565515488386
3072.0,-0.0012892917729914188
3328.0,0.0013916227035224438
3584.0,-0.0014298410387709737
3840.0,-0.0014271503314375877
4096.0,-0.0008540707640349865
4608.0,-0.00025336878024972975
5120.0,-0.0011288304813206196
5632.0,-0.0007122898823581636
6144.0,6.426640175050125e-05
6656.0,0.0012116071302443743
7168.0,0.0015320307575166225
7680.0,0.0017475017812103033
8192.0,-0.0006799933034926653
end
