version,3.0
numOfCh,1
type,point
parent_name,0cd20_0dot6-0dot01
ch_type,1_1
kcount,1
numberNandB,1
brightnessNandB,1
carpet pos,0
pc,0
Time (ms),CH1 Auto-Correlation
1.0,0.021778153255581856
2.0,0.020701877772808075
3.0,0.019701797515153885
4.0,0.01883574202656746
5.0,0.018056871369481087
6.0,0.017288830131292343
7.0,0.016593562439084053
8.0,0.01597026363015175
9.0,0.015414160676300526
10.0,0.014897748827934265
11.0,0.014372622594237328
12.0,0.013864479027688503
13.0,0.013375235721468925
14.0,0.012926354072988033
15.0,0.012520387768745422
16.0,0.01213785819709301
18.0,0.011390120722353458
20.0,0.010730699636042118
22.0,0.010166002437472343
24.0,0.009600712917745113
26.0,0.009049361571669579
28.0,0.008544616401195526
30.0,0.008123082108795643
32.0,0.007715676445513964
36.0,0.00704362103715539
40.0,0.0064609469845891
44.0,0.006084343884140253
48.0,0.005851660389453173
52.0,0.005514821968972683
56.0,0.004966435953974724
60.0,0.004630743991583586
64.0,0.004363208077847958
72.0,0.004085559863597155
80.0,0.003921630792319775
88.0,0.003795191179960966
96.0,0.003557383781298995
104.0,0.0030439465772360563
112.0,0.002482888987287879
120.0,0.0020939677488058805
128.0,0.0018043514573946595
144.0,0.0015355204232037067
160.0,0.0008994369418360293
176.0,0.00013508285337593406
192.0,-0.0010696400422602892
208.0,-0.0018125295173376799
224.0,-0.0021755658090114594
240.0,-0.0018166115041822195
256.0,-0.0017202312592417002
288.0,-0.001598975039087236
320.0,-0.0023722443729639053
352.0,-0.002296507591381669
384.0,-0.0016145556000992656
416.0,-0.0011665639467537403
448.0,-0.0007842501509003341
480.0,-0.0008970773778855801
512.0,-0.0014170435024425387
576.0,-9.727426368044689e-05
640.0,0.0014192218659445643
704.0,0.0015487252967432141
768.0,0.001575292320922017
832.0,0.0008766063838265836
896.0,0.0011058718664571643
960.0,0.0006527731311507523
1024.0,0.00015791579789947718
1152.0,-0.0014621498994529247
1280.0,-0.0012914581457152963
1408.0,-0.0009165185620076954
1536.0,0.000643416540697217
1664.0,0.00021670019486919045
1792.0,-0.0005328405532054603
1920.0,0.00022814300609752536
2048.0,-0.0002589008945506066
2304.0,-0.0008079958497546613
2560.0,3.910076338797808e-05
2816.0,4.741871453006752e-05
3072.0,-0.0006610878626815975
3328.0,0.0005299609620124102
3584.0,-0.00046446360647678375
3840.0,-0.0007965160766616464
4096.0,-0.0003096420841757208
4608.0,-0.0010954499011859298
5120.0,0.0005807941779494286
5632.0,0.00015892161172814667
6144.0,0.00031136133475229144
6656.0,0.0009221073123626411
7168.0,0.00021695454779546708
7680.0,-0.0007767556235194206
8192.0,-0.0003271600871812552
end
