version,3.0
numOfCh,1
type,point
parent_name,0cd20_0dot6-0dot01
ch_type,1_1
kcount,1
numberNandB,1
brightnessNandB,1
carpet pos,0
pc,0
Time (ms),CH1 Auto-Correlation
1.0,0.01953548565506935
2.0,0.01841074600815773
3.0,0.017403941601514816
4.0,0.016494885087013245
5.0,0.015634477138519287
6.0,0.01481762994080782
7.0,0.01406093593686819
8.0,0.013373471796512604
9.0,0.012727499008178711
10.0,0.01213815063238144
11.0,0.01160469651222229
12.0,0.011086337268352509
13.0,0.010586918331682682
14.0,0.01012270525097847
15.0,0.009676902554929256
16.0,0.00928595382720232
18.0,0.008552635088562965
20.0,0.00789928063750267
22.0,0.0073868278414011
24.0,0.006868646014481783
26.0,0.006376239471137524
28.0,0.005968932993710041
30.0,0.005607618950307369
32.0,0.005297584924846888
36.0,0.004801702219992876
40.0,0.004323150962591171
44.0,0.003923630807548761
48.0,0.003672349266707897
52.0,0.003510677721351385
56.0,0.003338750684633851
60.0,0.003123824717476964
64.0,0.0029514168854802847
72.0,0.0027198316529393196
80.0,0.002597089856863022
88.0,0.0022354223765432835
96.0,0.0021644283551722765
104.0,0.002069156151264906
112.0,0.0021655147429555655
120.0,0.002285127993673086
128.0,0.002237701090052724
144.0,0.0021544289775192738
160.0,0.0017845690017566085
176.0,0.002052727621048689
192.0,0.00200785044580698
208.0,0.002070539863780141
224.0,0.002006255090236664
240.0,0.001554490183480084
256.0,0.0013553652679547668
288.0,0.0011323076905682683
320.0,0.0008929228060878813
352.0,0.0006888554780744016
384.0,-0.0006167239043861628
416.0,-0.0005866603460162878
448.0,2.784196476568468e-05
480.0,-2.3574591978103854e-05
512.0,-0.0005887674633413553
576.0,-0.00048127336776815355
640.0,0.0001699882122920826
704.0,-0.00019835503189824522
768.0,-0.00018693259335123003
832.0,-0.00028713399660773575
896.0,6.359295639413176e-06
960.0,6.709901208523661e-05
1024.0,0.00040129548870027065
1152.0,-5.8156900195172057e-05
1280.0,-0.00010268740152241662
1408.0,-0.0005190099473111331
1536.0,0.00011480125249363482
1664.0,6.374986696755514e-05
1792.0,0.00018207344692200422
1920.0,4.7391749831149355e-05
2048.0,0.0008596082916483283
2304.0,0.0006887799827381968
2560.0,0.00044314481783658266
2816.0,-0.00046544295037165284
3072.0,-0.0003938779700547457
3328.0,-0.00043678737711161375
3584.0,-0.000669236178509891
3840.0,-0.00060644670156762
4096.0,-0.0008069516625255346
4608.0,-0.0007725764880888164
5120.0,0.0001871287968242541
5632.0,0.00014179742720443755
6144.0,-0.0005640140734612942
6656.0,-0.00016208535816986114
7168.0,0.000384865008527413
7680.0,-0.0005270821857266128
8192.0,7.114599429769441e-05
end
