version,3.0
numOfCh,1
type,point
parent_name,0cd20_0dot6-0dot01
ch_type,1_1
kcount,1
numberNandB,1
brightnessNandB,1
carpet pos,0
pc,0
Time (ms),CH1 Auto-Correlation
1.0,0.02246505208313465
2.0,0.02140006422996521
3.0,0.020468857139348984
4.0,0.019641226157546043
5.0,0.018855733796954155
6.0,0.01813582517206669
7.0,0.017432115972042084
8.0,0.016794076189398766
9.0,0.0161858219653368
10.0,0.01560937613248825
11.0,0.015067837201058865
12.0,0.014581611379981041
13.0,0.014136041514575481
14.0,0.013694669120013714
15.0,0.013294549658894539
16.0,0.012916811741888523
18.0,0.012186243198812008
20.0,0.01155796181410551
22.0,0.011003561317920685
24.0,0.010505234822630882
26.0,0.010074694640934467
28.0,0.009669740684330463
30.0,0.009305310435593128
32.0,0.009001870639622211
36.0,0.008376887068152428
40.0,0.00778556801378727
44.0,0.007263803388923407
48.0,0.006730283610522747
52.0,0.006317433435469866
56.0,0.005870533175766468
60.0,0.005494804587215185
64.0,0.0051572578959167
72.0,0.004423863720148802
80.0,0.0038170081097632647
88.0,0.0036624441854655743
96.0,0.0035231083165854216
104.0,0.0030725414399057627
112.0,0.002533466089516878
120.0,0.0021141848992556334
128.0,0.001971556106582284
144.0,0.0017564533045515418
160.0,0.002394684124737978
176.0,0.0027799292001873255
192.0,0.0024324855767190456
208.0,0.0017080410616472363
224.0,0.0007891227141954005
240.0,6.0215883422642946e-05
256.0,2.3607661205460317e-05
288.0,-0.0003807503671851009
320.0,-0.0005462800618261099
352.0,-0.0003246046253480017
384.0,0.0006111309630796313
416.0,0.0015066805062815547
448.0,0.001150056254118681
480.0,0.0008721660706214607
512.0,0.000802400172688067
576.0,0.0013692780630663037
640.0,0.000933258153963834
704.0,-0.00110915070399642
768.0,0.00011529919720487669
832.0,-0.0004860389744862914
896.0,-0.000965616200119257
960.0,0.00011220180022064596
1024.0,0.0008044966962188482
1152.0,-0.00013285447494126856
1280.0,-0.001979407388716936
1408.0,-0.001336210290901363
1536.0,-0.0007369827362708747
1664.0,0.0008259779424406588
1792.0,0.0008151062065735459
1920.0,0.0002681001788005233
2048.0,0.0006331767654046416
2304.0,0.0002804082178045064
2560.0,-2.3882726964075118e-05
2816.0,3.320833911857335e-06
3072.0,-0.0011444715782999992
3328.0,-0.000677640491630882
3584.0,-1.2268881619093008e-05
3840.0,-0.0008839844376780093
4096.0,-0.0011730844853445888
4608.0,0.0001898455375339836
5120.0,-0.00035013380693271756
5632.0,-0.00011930574692087248
6144.0,-0.00027951854281127453
6656.0,-0.0008322447538375854
7168.0,-0.0007783973123878241
7680.0,0.0013986957492306828
8192.0,0.0008446588180959225
end
