version,3.0
numOfCh,1
type,point
parent_name,0cd20_0dot6-0dot01
ch_type,1_1
kcount,1
numberNandB,1
brightnessNandB,1
carpet pos,0
pc,0
Time (ms),CH1 Auto-Correlation
1.0,0.023634664714336395
2.0,0.022502020001411438
3.0,0.02145928516983986
4.0,0.020503390580415726
5.0,0.01962600089609623
6.0,0.0188175980001688
7.0,0.018053539097309113
8.0,0.017298681661486626
9.0,0.016618432477116585
10.0,0.016036732122302055
11.0,0.015485528856515884
12.0,0.014965804293751717
13.0,0.014486287720501423
14.0,0.013994215987622738
15.0,0.013552813790738583
16.0,0.013144015334546566
18.0,0.012390016578137875
20.0,0.011707652360200882
22.0,0.011109932325780392
24.0,0.010589716956019402
26.0,0.010178644210100174
28.0,0.009847533889114857
30.0,0.009565846994519234
32.0,0.00931889284402132
36.0,0.008878204971551895
40.0,0.008484474383294582
44.0,0.00813476461917162
48.0,0.007659075316041708
52.0,0.007174637168645859
56.0,0.006792668253183365
60.0,0.006495883222669363
64.0,0.006349361501634121
72.0,0.006468461360782385
80.0,0.0064971256069839
88.0,0.006245674565434456
96.0,0.005897712893784046
104.0,0.005647809244692326
112.0,0.005325267557054758
120.0,0.004699856508523226
128.0,0.004488405305892229
144.0,0.0037710347678512335
160.0,0.003118145279586315
176.0,0.0028958150651305914
192.0,0.0035154507495462894
208.0,0.0031499292235821486
224.0,0.0025319205597043037
240.0,0.0024149746168404818
256.0,0.0017491913167759776
288.0,0.0018325173296034336
320.0,0.0008794611203484237
352.0,0.0003339555987622589
384.0,0.0001503931707702577
416.0,-0.0003742776461876929
448.0,-0.000464603683212772
480.0,-0.00046147924149408937
512.0,0.0003505699569359422
576.0,-0.0011228263610973954
640.0,-0.0013363145990297198
704.0,-0.0012811804190278053
768.0,-0.0008282799390144646
832.0,-0.00031152216251939535
896.0,0.00041345012141391635
960.0,0.0010553898755460978
1024.0,0.002018217695876956
1152.0,0.00295193656347692
1280.0,0.0020126954186707735
1408.0,0.0007990737212821841
1536.0,-0.00010149954323424026
1664.0,-0.0014949120813980699
1792.0,-0.0013417735463008285
1920.0,-0.0010277241235598922
2048.0,-0.0005193110555410385
2304.0,-0.00018044759053736925
2560.0,9.37963523028884e-06
2816.0,-0.00028407134232111275
3072.0,-0.0008141151047311723
3328.0,-0.0011064455611631274
3584.0,-0.0007416544831357896
3840.0,-0.0003350648330524564
4096.0,0.0009022467420436442
4608.0,-0.0004377539735287428
5120.0,-0.001192742958664894
5632.0,-0.0017815135652199388
6144.0,-0.0019904382061213255
6656.0,-0.001998355844989419
7168.0,0.0003299421223346144
7680.0,-0.0008172269444912672
8192.0,0.0009148131357505918
end
