version,3.0
numOfCh,1
type,point
parent_name,0cd20_0dot6-0dot01
ch_type,1_1
kcount,1
numberNandB,1
brightnessNandB,1
carpet pos,0
pc,0
Time (ms),CH1 Auto-Correlation
1.0,0.03112410008907318
2.0,0.030070951208472252
3.0,0.0291020255535841
4.0,0.028207698836922646
5.0,0.027373632416129112
6.0,0.026584194973111153
7.0,0.025873491540551186
8.0,0.025207078084349632
9.0,0.024593884125351906
10.0,0.024018682539463043
11.0,0.023488689213991165
12.0,0.022999972105026245
13.0,0.022521574050188065
14.0,0.022085098549723625
15.0,0.021649733185768127
16.0,0.021251626312732697
18.0,0.020569050684571266
20.0,0.019995614886283875
22.0,0.019537432119250298
24.0,0.019109858199954033
26.0,0.01869833655655384
28.0,0.018348926678299904
30.0,0.018011178821325302
32.0,0.017642658203840256
36.0,0.016833286732435226
40.0,0.015970591455698013
44.0,0.015145678073167801
48.0,0.014442970044910908
52.0,0.013967772014439106
56.0,0.01345836278051138
60.0,0.012879937887191772
64.0,0.01242142729461193
72.0,0.011330942623317242
80.0,0.010249287821352482
88.0,0.009423852898180485
96.0,0.00857711024582386
104.0,0.007920265197753906
112.0,0.007349913939833641
120.0,0.00695947278290987
128.0,0.0064542475156486034
144.0,0.006029224954545498
160.0,0.005488737486302853
176.0,0.004021967761218548
192.0,0.002854139544069767
208.0,0.0023814314045011997
224.0,0.0025144678074866533
240.0,0.002275259932503104
256.0,0.0025224024429917336
288.0,0.0017352427821606398
320.0,0.0005706198862753808
352.0,-0.0002740760683082044
384.0,0.0009665884426794946
416.0,0.0013762584421783686
448.0,0.0017041752580553293
480.0,0.0014757143799215555
512.0,0.0009904721518978477
576.0,0.0013954057358205318
640.0,0.002480260794982314
704.0,0.0014394783647730947
768.0,0.0012321103131398559
832.0,0.0031146013643592596
896.0,0.003070493694394827
960.0,0.001287676626816392
1024.0,0.0004953867173753679
1152.0,-0.000714543042704463
1280.0,-0.0025004909839481115
1408.0,-0.0012112660333514214
1536.0,0.0007900487398728728
1664.0,-2.8299864425207488e-05
1792.0,0.002116468269377947
1920.0,-0.00038248003693297505
2048.0,-0.0011956129455938935
2304.0,0.0026974172797054052
2560.0,-0.0005273341666907072
2816.0,-0.0003754662466235459
3072.0,-0.0008507152670063078
3328.0,-0.0018943826435133815
3584.0,-0.001063701929524541
3840.0,0.0004935146425850689
4096.0,0.0013145143166184425
4608.0,0.0003608637198340148
5120.0,-0.0007142660324461758
5632.0,-0.0004386855580378324
6144.0,-0.0012121951440349221
6656.0,-0.005766922142356634
7168.0,-0.0021490156650543213
7680.0,-0.0020090811885893345
8192.0,0.0021626974921673536
end
