version,3.0
numOfCh,1
type,point
parent_name,0cd20_0dot6-0dot01
ch_type,1_1
kcount,1
numberNandB,1
brightnessNandB,1
carpet pos,0
pc,0
Time (ms),CH1 Auto-Correlation
1.0,0.02476857230067253
2.0,0.023653730750083923
3.0,0.022665219381451607
4.0,0.02178039960563183
5.0,0.020967720076441765
6.0,0.020203949883580208
7.0,0.019484054297208786
8.0,0.01879572495818138
9.0,0.018162602558732033
10.0,0.017587343230843544
11.0,0.01705029048025608
12.0,0.016543187201023102
13.0,0.016045721247792244
14.0,0.015591173432767391
15.0,0.015172257088124752
16.0,0.014750651083886623
18.0,0.013916918076574802
20.0,0.013155356980860233
22.0,0.012420972809195518
24.0,0.01175042986869812
26.0,0.011207984760403633
28.0,0.010718027129769325
30.0,0.01022380031645298
32.0,0.009747480042278767
36.0,0.00895778276026249
40.0,0.008378383703529835
44.0,0.007765098474919796
48.0,0.007315064314752817
52.0,0.007034752052277327
56.0,0.006830053869634867
60.0,0.006642021704465151
64.0,0.0066523137502372265
72.0,0.0064908661879599094
80.0,0.005961285904049873
88.0,0.005275823175907135
96.0,0.004823508206754923
104.0,0.004501518327742815
112.0,0.004126185085624456
120.0,0.003968458157032728
128.0,0.003789399517700076
144.0,0.003597098169848323
160.0,0.0037865834310650826
176.0,0.0037755107041448355
192.0,0.0034237580839544535
208.0,0.0026750273536890745
224.0,0.0028404376935213804
240.0,0.0031543741934001446
256.0,0.0026307692751288414
288.0,0.0011242724722251296
320.0,0.0011154477251693606
352.0,0.0006266308482736349
384.0,5.251850961940363e-05
416.0,0.0003419110144022852
448.0,0.0005134294042363763
480.0,0.0013073101872578263
512.0,0.0016449239337816834
576.0,0.0018932134844362736
640.0,0.001938304165378213
704.0,0.001365465810522437
768.0,0.001286133425310254
832.0,0.0008127103792503476
896.0,0.0010631626937538385
960.0,0.00019977001647930592
1024.0,0.00021329395531211048
1152.0,-0.0003481937455944717
1280.0,0.00039599629235453904
1408.0,0.0014329416444525123
1536.0,0.0028746884781867266
1664.0,0.0028645703569054604
1792.0,0.0030396138317883015
1920.0,0.002806766191497445
2048.0,0.0016001983312889934
2304.0,0.0005367713747546077
2560.0,-0.0010839164024218917
2816.0,0.00036629673559218645
3072.0,8.077771053649485e-05
3328.0,0.00046652890159748495
3584.0,0.0018648258410394192
3840.0,0.0012955793645232916
4096.0,0.00029774944414384663
4608.0,-0.0004740782896988094
5120.0,0.0016703138826414943
5632.0,-0.00012234391761012375
6144.0,-0.0024388153105974197
6656.0,-0.00036106817424297333
7168.0,-0.0016994000179693103
7680.0,-0.0028491385746747255
8192.0,-0.0031510198023170233
end
