version,3.0
numOfCh,1
type,point
parent_name,0cd20_0dot6-0dot01
ch_type,1_1
kcount,1
numberNandB,1
brightnessNandB,1
carpet pos,0
pc,0
Time (ms),CH1 Auto-Correlation
1.0,0.02079632878303528
2.0,0.01970853842794895
3.0,0.018703559413552284
4.0,0.017771467566490173
5.0,0.01693965680897236
6.0,0.01618019863963127
7.0,0.015474097803235054
8.0,0.01485028862953186
9.0,0.01424099039286375
10.0,0.013695876114070415
11.0,0.013161237351596355
12.0,0.012654764577746391
13.0,0.012131327763199806
14.0,0.011670212261378765
15.0,0.011247148737311363
16.0,0.010884758085012436
18.0,0.010073998011648655
20.0,0.00931863859295845
22.0,0.008680339902639389
24.0,0.008179844357073307
26.0,0.007759703788906336
28.0,0.007502702530473471
30.0,0.0072929030284285545
32.0,0.007201847620308399
36.0,0.006736180279403925
40.0,0.006437236908823252
44.0,0.006116737611591816
48.0,0.0057220542803406715
52.0,0.005171425174921751
56.0,0.004638757556676865
60.0,0.004092969000339508
64.0,0.0034412206150591373
72.0,0.003094317391514778
80.0,0.003028774168342352
88.0,0.0030704326927661896
96.0,0.0028470424003899097
104.0,0.002635654527693987
112.0,0.00214984267950058
120.0,0.002088025212287903
128.0,0.0019042656058445573
144.0,0.0015074533876031637
160.0,0.0011236750287935138
176.0,0.0010392324766144156
192.0,0.000877578801009804
208.0,0.0007044191006571054
224.0,0.0006130145047791302
240.0,0.0003152949211653322
256.0,-0.0007391336257569492
288.0,-0.0014730372931808233
320.0,-0.002558615058660507
352.0,-0.0020247658248990774
384.0,-0.00018793389608617872
416.0,-0.00011809892748715356
448.0,-0.0005930701154284179
480.0,-0.0002847891882993281
512.0,-0.00016311538638547063
576.0,0.0011781230568885803
640.0,0.002878861967474222
704.0,0.001625344157218933
768.0,0.0002135057293344289
832.0,0.0007322602905333042
896.0,-0.0008935864898376167
960.0,-0.002403001068159938
1024.0,-0.0016332418890669942
1152.0,0.0005362120573408902
1280.0,-0.0004434617003425956
1408.0,-0.00012021146540064365
1536.0,-0.0002504890435375273
1664.0,-0.0013982410309836268
1792.0,0.0010610485915094614
1920.0,0.0010225684382021427
2048.0,0.001143546076491475
2304.0,-0.0024447685573250055
2560.0,-0.00020957829838152975
2816.0,-0.0004322337335906923
3072.0,-0.001352523104287684
3328.0,-0.0003114165738224983
3584.0,0.0007131447782739997
3840.0,-0.0008810663712210953
4096.0,-0.001966670621186495
end
