version,3.0
numOfCh,1
type,point
parent_name,0cd20_0dot6-0dot01
ch_type,1_1
kcount,1
numberNandB,1
brightnessNandB,1
carpet pos,0
pc,0
Time (ms),CH1 Auto-Correlation
1.0,0.02012675441801548
2.0,0.018985506147146225
3.0,0.01794467493891716
4.0,0.016998253762722015
5.0,0.016129454597830772
6.0,0.015371478162705898
7.0,0.014661219902336597
8.0,0.013980478048324585
9.0,0.013355737552046776
10.0,0.012799757532775402
11.0,0.012283047661185265
12.0,0.01181016955524683
13.0,0.01135298702865839
14.0,0.010916841216385365
15.0,0.010495567694306374
16.0,0.010072522796690464
18.0,0.009363789111375809
20.0,0.008746183477342129
22.0,0.008220197632908821
24.0,0.007751700468361378
26.0,0.007315431721508503
28.0,0.006887263152748346
30.0,0.00649051321670413
32.0,0.006188880652189255
36.0,0.005642839707434177
40.0,0.005359258968383074
44.0,0.0051636542193591595
48.0,0.0049771517515182495
52.0,0.004800140392035246
56.0,0.0045964522287249565
60.0,0.004459100309759378
64.0,0.004527282901108265
72.0,0.004202889744192362
80.0,0.0037807754706591368
88.0,0.0035164521541446447
96.0,0.003300852607935667
104.0,0.0029681206215173006
112.0,0.0028573893941938877
120.0,0.0030224572401493788
128.0,0.0029224546160548925
144.0,0.0028099871706217527
160.0,0.0021012776996940374
176.0,0.002329412614926696
192.0,0.0025899612810462713
208.0,0.0026906419079750776
224.0,0.0022754401434212923
240.0,0.0014875412452965975
256.0,0.0003251169400755316
288.0,0.00036555022234097123
320.0,0.0009778386447578669
352.0,0.001722477376461029
384.0,0.0016358960419893265
416.0,0.0005465851281769574
448.0,0.0009159453329630196
480.0,0.0010335749248042703
512.0,0.0015817279927432537
576.0,0.0010156205389648676
640.0,0.0008119409903883934
704.0,0.0004411365371197462
768.0,0.0004890039563179016
832.0,0.00021458927949424833
896.0,0.00043990742415189743
960.0,0.0004713207599706948
1024.0,0.0004485308891162276
1152.0,-0.000739361101295799
1280.0,-0.0014219452859833837
1408.0,-0.000677398347761482
1536.0,0.0007283982704393566
1664.0,-0.00019786990014836192
1792.0,-0.0002690242254175246
1920.0,-0.00021376446238718927
2048.0,-0.0006856663967482746
2304.0,-0.00031191008747555315
2560.0,-1.032606292028504e-06
2816.0,-0.0007497346377931535
3072.0,4.591412562149344e-06
3328.0,0.00011078747775172815
3584.0,0.001113987062126398
3840.0,0.00026021854137070477
4096.0,0.0007435342413373291
4608.0,-0.0002267920644953847
5120.0,-0.00023882259847596288
5632.0,-0.0013068916741758585
6144.0,-0.0021639447659254074
6656.0,-0.0007187636219896376
7168.0,0.0003752255579456687
7680.0,0.00032547954469919205
8192.0,-0.0008228856022469699
end
