version,3.0
numOfCh,1
type,point
parent_name,0cd20_0dot6-0dot01
ch_type,1_1
kcount,1
numberNandB,1
brightnessNandB,1
carpet pos,0
pc,0
Time (ms),CH1 Auto-Correlation
1.0,0.024546708911657333
2.0,0.023454813286662102
3.0,0.022472381591796875
4.0,0.02154926396906376
5.0,0.02071732096374035
6.0,0.01997010037302971
7.0,0.01925286464393139
8.0,0.01857905648648739
9.0,0.017967212945222855
10.0,0.017435044050216675
11.0,0.016939012333750725
12.0,0.016477692872285843
13.0,0.016031160950660706
14.0,0.015646997839212418
15.0,0.015249470248818398
16.0,0.014891952276229858
18.0,0.014230022206902504
20.0,0.0136265205219388
22.0,0.013057166710495949
24.0,0.012570517137646675
26.0,0.012062753550708294
28.0,0.011542536318302155
30.0,0.011070510372519493
32.0,0.010652435012161732
36.0,0.00996172334998846
40.0,0.00938318856060505
44.0,0.008853403851389885
48.0,0.008326366543769836
52.0,0.007872521877288818
56.0,0.007483039516955614
60.0,0.00708011956885457
64.0,0.0067493850365281105
72.0,0.006457563489675522
80.0,0.00572545500472188
88.0,0.0047850217670202255
96.0,0.004255138803273439
104.0,0.0036586662754416466
112.0,0.003128588665276766
120.0,0.0027400373946875334
128.0,0.0025789346545934677
144.0,0.0025244825519621372
160.0,0.001865609548985958
176.0,0.0016145901754498482
192.0,0.0022303438745439053
208.0,0.0025677999947220087
224.0,0.0026382063515484333
240.0,0.0029378687031567097
256.0,0.0032400833442807198
288.0,0.002739737741649151
320.0,0.001207180554047227
352.0,-0.0002694551949389279
384.0,-0.0005839716177433729
416.0,-0.0005732141435146332
448.0,9.519144077785313e-05
480.0,0.0004404868232086301
512.0,0.0007131031015887856
576.0,-0.0008956925594247878
640.0,-0.0011127336183562875
704.0,0.00022426008945330977
768.0,0.0007680400158278644
832.0,-0.0014766777167096734
896.0,-0.002815274288877845
960.0,-0.0017287678783759475
1024.0,-0.0015692104352638125
1152.0,0.00041701667942106724
1280.0,0.0006789570907130837
1408.0,-0.00023127274471335113
1536.0,-0.0002604657202027738
1664.0,-0.0006462868768721819
1792.0,0.0006176796741783619
1920.0,0.000690734013915062
2048.0,0.0013271871721372008
2304.0,0.0001957665226655081
2560.0,-0.00048262791824527085
2816.0,-0.0013342691818252206
3072.0,-0.0016861604526638985
3328.0,-0.0009596198215149343
3584.0,-0.0012114743003621697
3840.0,0.00039667802047915757
4096.0,-0.000335060030920431
4608.0,4.1233215597458184e-05
5120.0,-0.00038999467506073415
5632.0,0.00035175614175386727
6144.0,0.002113147871568799
6656.0,0.0003063350450247526
7168.0,-0.0002625661436468363
7680.0,-3.8604321161983535e-05
8192.0,0.0002252299600513652
end
