version,3.0
numOfCh,1
type,point
parent_name,0cd20_0dot6-0dot01
ch_type,1_1
kcount,1
numberNandB,1
brightnessNandB,1
carpet pos,0
pc,0
Time (ms),CH1 Auto-Correlation
1.0,0.02426239289343357
2.0,0.023165740072727203
3.0,0.022181237116456032
4.0,0.02127271145582199
5.0,0.020427342504262924
6.0,0.01965249888598919
7.0,0.018929580226540565
8.0,0.01825801469385624
9.0,0.017622005194425583
10.0,0.01703641377389431
11.0,0.016507934778928757
12.0,0.016018949449062347
13.0,0.015545783564448357
14.0,0.015118766576051712
15.0,0.01473047211766243
16.0,0.014375965110957623
18.0,0.013699481263756752
20.0,0.013106418773531914
22.0,0.012582619674503803
24.0,0.012128161266446114
26.0,0.011730494908988476
28.0,0.011316152289509773
30.0,0.010948065668344498
32.0,0.010611429810523987
36.0,0.010055429302155972
40.0,0.009437215514481068
44.0,0.008922377601265907
48.0,0.008490237407386303
52.0,0.008051502518355846
56.0,0.007760477717965841
60.0,0.0075417496263980865
64.0,0.007306924555450678
72.0,0.006494847126305103
80.0,0.005941055249422789
88.0,0.0055041625164449215
96.0,0.005187879782170057
104.0,0.005009103566408157
112.0,0.005072597414255142
120.0,0.005208631977438927
128.0,0.005116855725646019
144.0,0.0042305272072553635
160.0,0.003267988795414567
176.0,0.003190115327015519
192.0,0.0026407348923385143
208.0,0.0022550611756742
224.0,0.0016123176319524646
240.0,0.0009232074953615665
256.0,-0.00025155110051855445
288.0,-0.0009376511443406343
320.0,4.485212411964312e-05
352.0,-0.0004903760273009539
384.0,-0.0014781685313209891
416.0,-0.0018147496739402413
448.0,-0.0012983991764485836
480.0,-0.0017797239124774933
512.0,-0.0016983728855848312
576.0,-0.0017226827330887318
640.0,-0.0005409350269474089
704.0,0.0008402108796872199
768.0,0.0007536166813224554
832.0,-0.000964211649261415
896.0,-7.15463756932877e-05
960.0,0.00011812493175966665
1024.0,0.0006585630471818149
1152.0,0.001520176068879664
1280.0,-0.0003771994961425662
1408.0,-0.0023661719169467688
1536.0,-0.0014915973879396915
1664.0,-0.0009105715434998274
1792.0,-0.00015463704767171293
1920.0,0.00035463369567878544
2048.0,0.0003588134131859988
2304.0,0.0017749798716977239
2560.0,-0.0005160407163202763
2816.0,-0.0009783112909644842
3072.0,0.000833519094157964
3328.0,-0.0005933350184932351
3584.0,-0.0019352379022166133
3840.0,-0.00036260249908082187
4096.0,0.0014595395186915994
4608.0,-0.0036851416807621717
5120.0,0.00013236927043180913
5632.0,-0.003331797430291772
6144.0,0.0010446165688335896
6656.0,-0.0005821991944685578
7168.0,0.0023699717130512
7680.0,-0.0024717040359973907
8192.0,0.0002566592884249985
end
