version,3.0
numOfCh,1
type,point
parent_name,0cd20_0dot6-0dot01
ch_type,1_1
kcount,1
numberNandB,1
brightnessNandB,1
carpet pos,0
pc,0
Time (ms),CH1 Auto-Correlation
1.0,0.023699412122368813
2.0,0.022632664069533348
3.0,0.021645527333021164
4.0,0.02072981931269169
5.0,0.019920697435736656
6.0,0.019223816692829132
7.0,0.018579786643385887
8.0,0.01797836646437645
9.0,0.01738630048930645
10.0,0.01684490777552128
11.0,0.016352985054254532
12.0,0.015874750912189484
13.0,0.015426496043801308
14.0,0.01501002348959446
15.0,0.014613684266805649
16.0,0.014219054952263832
18.0,0.013524571433663368
20.0,0.012880722060799599
22.0,0.012321249581873417
24.0,0.011780897155404091
26.0,0.011232525110244751
28.0,0.010738416574895382
30.0,0.010372493416070938
32.0,0.0100141242146492
36.0,0.009394477121531963
40.0,0.008764547295868397
44.0,0.00814797356724739
48.0,0.0075670587830245495
52.0,0.007008934393525124
56.0,0.006475719623267651
60.0,0.006002349779009819
64.0,0.00557131739333272
72.0,0.004989277571439743
80.0,0.004539021756500006
88.0,0.004325601272284985
96.0,0.004364979453384876
104.0,0.004448631312698126
112.0,0.0040130396373569965
120.0,0.0036206895019859076
128.0,0.00315968319773674
144.0,0.0028869027737528086
160.0,0.00253283535130322
176.0,0.002520197071135044
192.0,0.0021151334512978792
208.0,0.001808034721761942
224.0,0.001121716108173132
240.0,2.6424047973705456e-05
256.0,-0.0005573977250605822
288.0,-0.00027354812482371926
320.0,-0.0003137185121886432
352.0,0.0006145257502794266
384.0,0.000667240412440151
416.0,0.00012070398952346295
448.0,0.0003061966272071004
480.0,0.0006374913500621915
512.0,0.0005296471063047647
576.0,0.0011239794548600912
640.0,0.001267162966541946
704.0,0.0022414489649236202
768.0,0.0010444726794958115
832.0,-0.0011275396682322025
896.0,-0.0013859932078048587
960.0,-0.0008679700549691916
1024.0,0.0008535444503650069
1152.0,0.0010563860414549708
1280.0,0.0001633311912883073
1408.0,-0.0007950337021611631
1536.0,-0.002388577675446868
1664.0,-0.003247272688895464
1792.0,-0.001949074910953641
1920.0,-0.0012885499745607376
2048.0,-0.0014167941408231854
2304.0,-0.0010284470627084374
2560.0,-0.0005986584001220763
2816.0,-0.0009656082838773727
3072.0,0.0005879085510969162
3328.0,0.001257322495803237
3584.0,0.001819142373278737
3840.0,0.0009025847539305687
4096.0,5.449477976071648e-05
4608.0,0.0006298905937001109
5120.0,-0.0005980432615615427
5632.0,-0.0022246562875807285
6144.0,-0.0023328301031142473
6656.0,-0.0013763708993792534
7168.0,0.001177363214083016
7680.0,0.0026409970596432686
8192.0,0.002638966776430607
end
