version,3.0
numOfCh,1
type,point
parent_name,0cd20_0dot6-0dot01
ch_type,1_1
kcount,1
numberNandB,1
brightnessNandB,1
carpet pos,0
pc,0
Time (ms),CH1 Auto-Correlation
1.0,0.02420400083065033
2.0,0.0230865515768528
3.0,0.022051438689231873
4.0,0.021115295588970184
5.0,0.020259270444512367
6.0,0.019487332552671432
7.0,0.01878790371119976
8.0,0.018140500411391258
9.0,0.01753390021622181
10.0,0.016959892585873604
11.0,0.0164380744099617
12.0,0.015933692455291748
13.0,0.015469065867364407
14.0,0.0150758670642972
15.0,0.014712993986904621
16.0,0.014358163811266422
18.0,0.013701234012842178
20.0,0.01309929508715868
22.0,0.012580431997776031
24.0,0.012143534608185291
26.0,0.011711912229657173
28.0,0.011308752000331879
30.0,0.011043689213693142
32.0,0.0108374934643507
36.0,0.010428196750581264
40.0,0.01015109196305275
44.0,0.009867136366665363
48.0,0.009471346624195576
52.0,0.009063922800123692
56.0,0.00852434616535902
60.0,0.00796521082520485
64.0,0.007516834884881973
72.0,0.0071684555150568485
80.0,0.006949075032025576
88.0,0.006592913996428251
96.0,0.00615433556959033
104.0,0.00575443496927619
112.0,0.005063145887106657
120.0,0.004610867239534855
128.0,0.004486126825213432
144.0,0.004185215104371309
160.0,0.0032626388128846884
176.0,0.0024422321002930403
192.0,0.0027793452609330416
208.0,0.0025378840509802103
224.0,0.001836528186686337
240.0,0.001741102896630764
256.0,0.00130754173733294
288.0,0.0011426458368077874
320.0,0.0010335157858207822
352.0,0.0006243684329092503
384.0,-2.2550730136572383e-05
416.0,-0.0005458884406834841
448.0,-0.0008227235521189868
480.0,-0.0008385350811295211
512.0,-0.0007230946212075651
576.0,3.230467700632289e-05
640.0,0.00026074686320498586
704.0,0.000293189164949581
768.0,-0.00141487258952111
832.0,-0.0015661147190257907
896.0,-0.001583434990607202
960.0,-0.001475573517382145
1024.0,-0.0007526201079599559
1152.0,-8.018592779990286e-05
1280.0,-0.0004106335109099746
1408.0,0.0017490183236077428
1536.0,0.0025976733304560184
1664.0,0.002761425217613578
1792.0,0.002821999602019787
1920.0,0.0012023928575217724
2048.0,0.0008448368171229959
2304.0,-0.0011232459219172597
2560.0,0.0003035065601579845
2816.0,6.424511229852214e-05
3072.0,0.0005193211836740375
3328.0,-0.0006847572512924671
3584.0,-0.001897671027109027
3840.0,-0.0010507821571081877
4096.0,-0.0013047539396211505
4608.0,0.0003991829580627382
5120.0,-0.0017022727988660336
5632.0,-0.002868418116122484
6144.0,-0.0004653770010918379
6656.0,-0.0005779771599918604
7168.0,-0.0016619901871308684
7680.0,-0.0011793398298323154
8192.0,-0.0010680216364562511
end
