version,3.0
numOfCh,1
type,point
parent_name,0cd20_0dot6-0dot01
ch_type,1_1
kcount,1
numberNandB,1
brightnessNandB,1
carpet pos,0
pc,0
Time (ms),CH1 Auto-Correlation
1.0,0.021803267300128937
2.0,0.020636586472392082
3.0,0.019603896886110306
4.0,0.018665244802832603
5.0,0.017799202352762222
6.0,0.01702045649290085
7.0,0.016306184232234955
8.0,0.015606001950800419
9.0,0.014956929720938206
10.0,0.014385206624865532
11.0,0.013843560591340065
12.0,0.013333283364772797
13.0,0.01284751296043396
14.0,0.012407305650413036
15.0,0.012022155337035656
16.0,0.011647459119558334
18.0,0.010914623737335205
20.0,0.010228504426777363
22.0,0.009558950550854206
24.0,0.009007424116134644
26.0,0.008429929614067078
28.0,0.00793128740042448
30.0,0.007411052472889423
32.0,0.006912115961313248
36.0,0.006088976748287678
40.0,0.0054964590817689896
44.0,0.0049338811077177525
48.0,0.004391233902424574
52.0,0.004010604694485664
56.0,0.0036671285051852465
60.0,0.003286774270236492
64.0,0.003073877189308405
72.0,0.00305929291062057
80.0,0.0028505842201411724
88.0,0.0028562303632497787
96.0,0.0030924943275749683
104.0,0.0030638580210506916
112.0,0.0031664036214351654
120.0,0.003187882713973522
128.0,0.0028485488146543503
144.0,0.00238187238574028
160.0,0.001119105494581163
176.0,0.0006378705729730427
192.0,0.0007428951212204993
208.0,0.0005101616843603551
224.0,0.0006959013408049941
240.0,0.0005836171330884099
256.0,0.00045277783647179604
288.0,0.00041371554834768176
320.0,0.0002243952767457813
352.0,0.0005546073662117124
384.0,0.0009491314995102584
416.0,0.0006353402859531343
448.0,-0.0006188721163198352
480.0,0.0001783339394023642
512.0,0.000861241074744612
576.0,0.0008043891284614801
640.0,0.001092605642043054
704.0,-0.00021931678929831833
768.0,-0.0009270931477658451
832.0,-0.0008261369075626135
896.0,-0.0014198062708601356
960.0,-0.0009163073846139014
1024.0,-0.0004385516222100705
1152.0,-0.0004455054004210979
1280.0,-0.0001274330134037882
1408.0,-0.0007561130332760513
1536.0,0.0006102379411458969
1664.0,0.0017680649179965258
1792.0,0.0013411124236881733
1920.0,0.001317638554610312
2048.0,0.00032835747697390616
2304.0,-0.0007698085391893983
2560.0,-0.000734945759177208
2816.0,-0.0009831541683524847
3072.0,-0.000501600094139576
3328.0,6.22729494352825e-05
3584.0,0.0003146521048620343
3840.0,0.00022023761994205415
4096.0,-0.0013377470895648003
4608.0,-0.0013497561449185014
5120.0,-0.00121431821025908
5632.0,-0.0001503391977166757
6144.0,-0.0006260033696889877
6656.0,-0.0005412071477621794
7168.0,0.000744190881960094
7680.0,0.0008080349070951343
8192.0,0.00022751065262127668
end
