version,3.0
numOfCh,1
type,point
parent_name,0cd20_0dot6-0dot01
ch_type,1_1
kcount,1
numberNandB,1
brightnessNandB,1
carpet pos,0
pc,0
Time (ms),CH1 Auto-Correlation
1.0,0.02298717387020588
2.0,0.021836604923009872
3.0,0.020791487768292427
4.0,0.01984572969377041
5.0,0.01900048367679119
6.0,0.01817011833190918
7.0,0.01740083657205105
8.0,0.01669570803642273
9.0,0.016067177057266235
10.0,0.015483967028558254
11.0,0.014931890182197094
12.0,0.01440331619232893
13.0,0.013881848193705082
14.0,0.013416743837296963
15.0,0.012983628548681736
16.0,0.012561214156448841
18.0,0.011749138124287128
20.0,0.011073213070631027
22.0,0.010511824861168861
24.0,0.010021446272730827
26.0,0.009537800215184689
28.0,0.009061288088560104
30.0,0.008555830456316471
32.0,0.008089253678917885
36.0,0.007367188110947609
40.0,0.006781500298529863
44.0,0.00625133840367198
48.0,0.005679565016180277
52.0,0.005099976435303688
56.0,0.00462290458381176
60.0,0.0041849748231470585
64.0,0.0037561103235930204
72.0,0.003266569459810853
80.0,0.0028948229737579823
88.0,0.0025373948737978935
96.0,0.002066113753244281
104.0,0.001760844374075532
112.0,0.001780423684976995
120.0,0.001998715102672577
128.0,0.0019996301271021366
144.0,0.0015286923153325915
160.0,0.001050313701853156
176.0,0.0009150794357992709
192.0,0.00017458910588175058
208.0,0.0004199172544758767
224.0,0.0009869287023320794
240.0,0.0014632968232035637
256.0,0.0016781763406470418
288.0,0.0016567222774028778
320.0,0.0018353272462263703
352.0,0.0018571233376860619
384.0,0.0016366193303838372
416.0,0.001062905415892601
448.0,0.000247080170083791
480.0,0.0009323479607701302
512.0,0.0014278339222073555
576.0,0.0015545437345281243
640.0,8.885908755473793e-05
704.0,-0.00042395215132273734
768.0,-0.0007230118499137461
832.0,-0.0004803214396815747
896.0,0.000587182876188308
960.0,3.341863339301199e-05
1024.0,-3.837400799966417e-05
1152.0,0.0009898004354909062
1280.0,-0.0006822354043833911
1408.0,-0.00045125928591005504
1536.0,0.0004302457964513451
1664.0,-0.0005403560935519636
1792.0,-0.0008372253505513072
1920.0,-0.0009530275128781796
2048.0,0.0003996507730334997
2304.0,-0.0019876721780747175
2560.0,-0.0006041165324859321
2816.0,-0.0006100193713791668
3072.0,0.00024726343690417707
3328.0,-0.0007576954667456448
3584.0,-7.952309533720836e-05
3840.0,6.231379302334972e-06
4096.0,0.0014325471129268408
4608.0,0.0004253837396390736
5120.0,-6.28483685432002e-05
5632.0,-0.000878476130310446
6144.0,-0.0013707401230931282
6656.0,-0.0005705178482457995
7168.0,0.0007025472004897892
7680.0,-0.0006180847994983196
8192.0,-0.00014335854211822152
end
