version,3.0
numOfCh,1
type,point
parent_name,0cd20_0dot6-0dot01
ch_type,1_1
kcount,1
numberNandB,1
brightnessNandB,1
carpet pos,0
pc,0
Time (ms),CH1 Auto-Correlation
1.0,0.022560181096196175
2.0,0.021436018869280815
3.0,0.020437709987163544
4.0,0.019497999921441078
5.0,0.01863393560051918
6.0,0.017851684242486954
7.0,0.017113272100687027
8.0,0.016422893851995468
9.0,0.01577538065612316
10.0,0.015169982798397541
11.0,0.014604291878640652
12.0,0.014031773433089256
13.0,0.01347153726965189
14.0,0.012977954931557178
15.0,0.01250349823385477
16.0,0.01204640232026577
18.0,0.011232445016503334
20.0,0.01043221540749073
22.0,0.009762217290699482
24.0,0.009158480912446976
26.0,0.008603647351264954
28.0,0.008128552697598934
30.0,0.007735688704997301
32.0,0.007339405827224255
36.0,0.006750836502760649
40.0,0.006355379242449999
44.0,0.006057683378458023
48.0,0.005738131236284971
52.0,0.005312479566782713
56.0,0.00483075063675642
60.0,0.004414782859385014
64.0,0.0042431410402059555
72.0,0.0037983942311257124
80.0,0.0034556316677480936
88.0,0.0032827244140207767
96.0,0.003092986298725009
104.0,0.0027477112598717213
112.0,0.0021977429278194904
120.0,0.0016967285191640258
128.0,0.0011413338361307979
144.0,0.0013901505153626204
160.0,0.0015023758169263601
176.0,0.001566960010677576
192.0,0.0019441648619249463
208.0,0.0013404607307165861
224.0,0.0005197643768042326
240.0,0.0006468706415034831
256.0,0.0008137505501508713
288.0,0.0018188812537118793
320.0,0.001195729710161686
352.0,0.0012806979939341545
384.0,0.0015272629680112004
416.0,0.0006656323093920946
448.0,0.0006660926737822592
480.0,-0.00022042497585061938
512.0,-0.0011316713644191623
576.0,-0.0008953793440014124
640.0,-0.0015677461633458734
704.0,-0.0011574075324460864
768.0,-0.00047500221990048885
832.0,-0.0008188688661903143
896.0,-0.0011250211391597986
960.0,-0.0006989292451180518
1024.0,-0.000724310870282352
1152.0,-0.0002503206196706742
1280.0,0.0005547556793317199
1408.0,-0.0004320965090300888
1536.0,0.0002838933141902089
1664.0,-0.0006062031025066972
1792.0,-3.664400355773978e-05
1920.0,0.0003768937021959573
2048.0,0.00012879013956990093
2304.0,-0.0006149702239781618
2560.0,0.00023546752345282584
2816.0,-2.6685609554988332e-05
3072.0,-0.0007813897682353854
3328.0,-0.0006960938335396349
3584.0,-0.0006109245005063713
3840.0,-0.00013637768279295415
4096.0,0.0012976645957678556
4608.0,-0.00025621330132707953
5120.0,-0.0008887253352440894
5632.0,0.00029114654171280563
6144.0,0.00014330745034385473
6656.0,-0.0003988859534729272
7168.0,4.0663494473847095e-06
7680.0,-0.0004930549766868353
8192.0,0.00030516256811097264
end
