version,3.0
numOfCh,1
type,point
parent_name,0cd20_0dot6-0dot01
ch_type,1_1
kcount,1
numberNandB,1
brightnessNandB,1
carpet pos,0
pc,0
Time (ms),CH1 Auto-Correlation
1.0,0.02458472177386284
2.0,0.02355213649570942
3.0,0.022613361477851868
4.0,0.021763920783996582
5.0,0.02102351374924183
6.0,0.020353911444544792
7.0,0.01971806213259697
8.0,0.0191437229514122
9.0,0.018580863252282143
10.0,0.018056785687804222
11.0,0.017565760761499405
12.0,0.017085077241063118
13.0,0.016600459814071655
14.0,0.016154015436768532
15.0,0.01575416699051857
16.0,0.015377327799797058
18.0,0.014690274372696877
20.0,0.014089124277234077
22.0,0.013525591231882572
24.0,0.013012909330427647
26.0,0.012582147493958473
28.0,0.012250217609107494
30.0,0.012007856741547585
32.0,0.011892001144587994
36.0,0.011771885678172112
40.0,0.011621283367276192
44.0,0.011427123099565506
48.0,0.011210605502128601
52.0,0.010904012247920036
56.0,0.01058256532996893
60.0,0.010127917863428593
64.0,0.009571448899805546
72.0,0.008545050397515297
80.0,0.008022015914320946
88.0,0.0076294238679111
96.0,0.007316808216273785
104.0,0.006721822544932365
112.0,0.006132012698799372
120.0,0.005653034895658493
128.0,0.0050761280581355095
144.0,0.00484314514324069
160.0,0.005316226277500391
176.0,0.005274417344480753
192.0,0.0050083366222679615
208.0,0.005306336097419262
224.0,0.005241998936980963
240.0,0.004681271966546774
256.0,0.00398994842544198
288.0,0.0024527614004909992
320.0,0.0019862831104546785
352.0,0.001331797568127513
384.0,0.0014545820886269212
416.0,0.0010479878401383758
448.0,0.0009764009737409651
480.0,0.0009360918193124235
512.0,0.000305516499793157
576.0,0.0005640353192575276
640.0,0.00014077698870096356
704.0,-0.0006392981740646064
768.0,-0.00045838727965019643
832.0,0.00016393206897191703
896.0,-0.0003946314682252705
960.0,-0.0004796781577169895
1024.0,6.27902481937781e-05
1152.0,0.0001788856607163325
1280.0,0.0016313460655510426
1408.0,0.0023331220727413893
1536.0,0.00020536920055747032
1664.0,-0.0007249057525768876
1792.0,-0.0012263394892215729
1920.0,-0.0010730448411777616
2048.0,-0.0009678520145826042
2304.0,0.0006817143294028938
2560.0,0.0028070341795682907
2816.0,0.0010508213890716434
3072.0,0.00010037999891210347
3328.0,0.0013664138969033957
3584.0,0.00014291662955656648
3840.0,-0.0004611024050973356
4096.0,-0.0024189387913793325
4608.0,-0.0013872863491997123
5120.0,-0.0024542873725295067
5632.0,-0.0035997468512505293
6144.0,-0.0009818763937801123
6656.0,-0.0006671301671303809
7168.0,-0.0014145171735435724
7680.0,-0.001674832310527563
8192.0,-0.0010779781732708216
end
