version,3.0
numOfCh,1
type,point
parent_name,484af_3dot0-0dot01
ch_type,1_1
kcount,1
numberNandB,1
brightnessNandB,1
carpet pos,0
pc,0
Time (ms),CH1 Auto-Correlation
1.0,0.02639407105743885
2.0,0.021671829745173454
3.0,0.01835811696946621
4.0,0.015910467132925987
5.0,0.014213241636753082
6.0,0.012779581360518932
7.0,0.011697057634592056
8.0,0.010706470347940922
9.0,0.010047796182334423
10.0,0.00942580122500658
11.0,0.008856937289237976
12.0,0.008275986649096012
13.0,0.0076905800960958
14.0,0.007208207622170448
15.0,0.006869354285299778
16.0,0.0064997198060154915
18.0,0.005540741607546806
20.0,0.004859416279941797
22.0,0.0042408122681081295
24.0,0.003953070379793644
26.0,0.003508128924295306
28.0,0.0030968657229095697
30.0,0.002980585442855954
32.0,0.0028405289631336927
36.0,0.002623249776661396
40.0,0.002561317989602685
44.0,0.0026315366849303246
48.0,0.002240370726212859
52.0,0.0017937602242454886
56.0,0.0015237261541187763
60.0,0.0013285708846524358
64.0,0.0011798413470387459
72.0,0.0014878158690407872
80.0,0.0022920838091522455
88.0,0.0021193623542785645
96.0,0.0014189326902851462
104.0,0.0004910682328045368
112.0,0.000515514169819653
120.0,0.0004949395661242306
128.0,0.0011494860518723726
144.0,0.0001602495030965656
160.0,-0.0005999702261760831
176.0,-0.0007651336491107941
192.0,-0.0009992157574743032
208.0,-0.001380169647745788
224.0,-0.0005878036026842892
240.0,-0.0005782719817943871
256.0,-0.0006076531717553735
288.0,-0.00046230442239902914
320.0,-0.0005418183282017708
352.0,0.00014638883294537663
384.0,-0.0004804464988410473
416.0,-0.0004839376488234848
448.0,-0.0013372955145314336
480.0,1.4293938875198364e-05
512.0,-0.0004522328672464937
576.0,-0.0006400600541383028
640.0,-0.0003278497024439275
704.0,0.00023831780708860606
768.0,-8.324536611326039e-05
832.0,0.00012201142817502841
896.0,0.0004290288779884577
960.0,0.0007181174587458372
1024.0,0.00033075211104005575
1152.0,0.00041359319584444165
1280.0,-0.0004531396843958646
1408.0,-0.000528844422660768
1536.0,-0.0006562263588421047
1664.0,0.0005502324784174562
1792.0,0.0002969245833810419
1920.0,-0.0002758741320576519
2048.0,0.0001880658237496391
2304.0,3.325237048557028e-05
2560.0,0.0002802926173899323
2816.0,-0.00016300301649607718
3072.0,-0.0009718744549900293
3328.0,0.0008901930996216834
3584.0,7.993196049937978e-06
3840.0,-0.0008374310564249754
4096.0,-0.00012411038915161043
4608.0,2.756970570771955e-05
5120.0,-0.00011947657185373828
5632.0,5.447967123473063e-05
6144.0,-0.0004423396894708276
6656.0,0.00012213717855047435
7168.0,-0.00047443134826608
7680.0,0.0004728925123345107
8192.0,-0.0003913859254680574
end
