version,3.0
numOfCh,1
type,point
parent_name,484af_3dot0-0dot01
ch_type,1_1
kcount,1
numberNandB,1
brightnessNandB,1
carpet pos,0
pc,0
Time (ms),CH1 Auto-Correlation
1.0,0.023648271337151527
2.0,0.018948642536997795
3.0,0.01584259606897831
4.0,0.013340874575078487
5.0,0.0113274110481143
6.0,0.009721732698380947
7.0,0.008531994186341763
8.0,0.007547663524746895
9.0,0.00684428121894598
10.0,0.006314359605312347
11.0,0.005671348422765732
12.0,0.005175984464585781
13.0,0.004877646453678608
14.0,0.004610524512827396
15.0,0.004508174490183592
16.0,0.004461802542209625
18.0,0.004233660642057657
20.0,0.0038902226369827986
22.0,0.0035635638050734997
24.0,0.003257345873862505
26.0,0.0030810243915766478
28.0,0.002876579063013196
30.0,0.0027045137248933315
32.0,0.0026879562065005302
36.0,0.0026588791515678167
40.0,0.002590087940916419
44.0,0.0018484588945284486
48.0,0.001109367236495018
52.0,0.0010020185727626085
56.0,0.0012357073137536645
60.0,0.001688706804998219
64.0,0.0017222376773133874
72.0,0.0012768781743943691
80.0,0.0009011150687001646
88.0,0.0012789550237357616
96.0,0.0018321729730814695
104.0,0.002330522984266281
112.0,0.002815280808135867
120.0,0.0025104673113673925
128.0,0.0019093016162514687
144.0,0.0009269774309359491
160.0,0.0005791776929982007
176.0,0.00011461832036729902
192.0,0.0003220477083232254
208.0,-0.00027836888330057263
224.0,0.00018773881311062723
240.0,-0.0001771111856214702
256.0,-0.00031485952786169946
288.0,-0.00021305873815435916
320.0,-0.001278640585951507
352.0,-0.000778127578087151
384.0,-0.00038890677387826145
416.0,-0.0003722484107129276
448.0,0.00011228286166442558
480.0,-0.0008911429322324693
512.0,-0.0007486779359169304
576.0,0.00020203973690513521
640.0,-0.00026231398805975914
704.0,0.00035486725391820073
768.0,0.0003767208254430443
832.0,-0.000563128967769444
896.0,-0.0006238696514628828
960.0,-0.00020794369629584253
1024.0,0.000251869234489277
1152.0,2.138083982572425e-05
1280.0,0.0006009636563248932
1408.0,-0.000413262692745775
1536.0,-0.0004574177728500217
1664.0,0.00046836314140819013
1792.0,0.00033915022504515946
1920.0,0.00012982096814084798
2048.0,2.6297113436157815e-05
2304.0,0.00024912995286285877
2560.0,-0.0002539549896027893
2816.0,-0.00026522192638367414
3072.0,0.00029631186043843627
3328.0,-0.0006300962995737791
3584.0,-0.0003630027058534324
3840.0,-0.0007875137962400913
4096.0,-0.0002800256770569831
4608.0,-0.0002882090338971466
5120.0,-0.0003808022302109748
5632.0,-0.00044820315088145435
6144.0,-0.00021460658172145486
6656.0,0.0004734255198854953
7168.0,0.00015379933756776154
7680.0,0.0004578304069582373
8192.0,-0.00043340804404579103
end
