version,3.0
numOfCh,1
type,point
parent_name,484af_3dot0-0dot01
ch_type,1_1
kcount,1
numberNandB,1
brightnessNandB,1
carpet pos,0
pc,0
Time (ms),CH1 Auto-Correlation
1.0,0.029555989429354668
2.0,0.024965031072497368
3.0,0.021630631759762764
4.0,0.019149713218212128
5.0,0.017185436561703682
6.0,0.015590225346386433
7.0,0.014291996136307716
8.0,0.01332910917699337
9.0,0.01238059252500534
10.0,0.011620867066085339
11.0,0.01090784091502428
12.0,0.01038606371730566
13.0,0.009894640184938908
14.0,0.00939088873565197
15.0,0.008867725729942322
16.0,0.008244126103818417
18.0,0.007429583463817835
20.0,0.0067461952567100525
22.0,0.0063415030017495155
24.0,0.006029149517416954
26.0,0.005801343359053135
28.0,0.005707413423806429
30.0,0.005404144059866667
32.0,0.0053101759403944016
36.0,0.004834008868783712
40.0,0.004396869335323572
44.0,0.004045502748340368
48.0,0.0038803042843937874
52.0,0.003000321565195918
56.0,0.002717559225857258
60.0,0.002873418154194951
64.0,0.0031412127427756786
72.0,0.0033825035206973553
80.0,0.002951835049316287
88.0,0.002521577524021268
96.0,0.0022787265479564667
104.0,0.002570372773334384
112.0,0.002850642427802086
120.0,0.00229332665912807
128.0,0.0019789785146713257
144.0,0.0020255695562809706
160.0,0.00038128343294374645
176.0,0.00016387677169404924
192.0,0.001152837765403092
208.0,0.001040333998389542
224.0,-0.0002174031687900424
240.0,0.00019150020671077073
256.0,-0.00016946488176472485
288.0,0.0008429975132457912
320.0,0.001200408092699945
352.0,0.0014857258647680283
384.0,0.0016546971164643764
416.0,0.0011197335552424192
448.0,0.0018950090743601322
480.0,0.0019120849901810288
512.0,0.001711324555799365
576.0,0.0005209226510487497
640.0,0.00032680804724805057
704.0,0.00020068736921530217
768.0,0.0002024269924731925
832.0,0.00034486272488720715
896.0,0.00029238435672596097
960.0,0.000659580749925226
1024.0,0.00037908245576545596
1152.0,-0.0006726965075358748
1280.0,-0.0005770062562078238
1408.0,0.0003707895230036229
1536.0,-0.0005913263303227723
1664.0,-0.0005261668702587485
1792.0,-0.0009451612131670117
1920.0,-0.000776833388954401
2048.0,-0.0011696721194311976
2304.0,0.0003080442256759852
2560.0,-0.0003873390087392181
2816.0,-8.536157838534564e-05
3072.0,-0.00038164365105330944
3328.0,0.0005392826278693974
3584.0,-0.00043687038123607635
3840.0,-0.00053190509788692
4096.0,-0.000500748457852751
4608.0,-0.0007033238653093576
5120.0,-0.0007616935181431472
5632.0,0.0002135555405402556
6144.0,-6.211394065758213e-05
6656.0,-0.00034334385418333113
7168.0,1.7327485693385825e-05
7680.0,0.00045774312457069755
8192.0,0.001417361432686448
end
