version,3.0
numOfCh,1
type,point
parent_name,484af_3dot0-0dot01
ch_type,1_1
kcount,1
numberNandB,1
brightnessNandB,1
carpet pos,0
pc,0
Time (ms),CH1 Auto-Correlation
1.0,0.029142439365386963
2.0,0.024680806323885918
3.0,0.021588457748293877
4.0,0.0191490538418293
5.0,0.017419511452317238
6.0,0.015967531129717827
7.0,0.014795380644500256
8.0,0.013838120736181736
9.0,0.012760919518768787
10.0,0.011936281807720661
11.0,0.011124806478619576
12.0,0.010716523043811321
13.0,0.010307367891073227
14.0,0.00980574730783701
15.0,0.00953630730509758
16.0,0.009288127534091473
18.0,0.008500929921865463
20.0,0.007790790870785713
22.0,0.007143757306039333
24.0,0.006897527724504471
26.0,0.006442793644964695
28.0,0.006130868569016457
30.0,0.005958122201263905
32.0,0.005941298790276051
36.0,0.005579083692282438
40.0,0.004848241340368986
44.0,0.004304343368858099
48.0,0.00423148600384593
52.0,0.004529538564383984
56.0,0.0041849659755826
60.0,0.0038830714765936136
64.0,0.004058235324919224
72.0,0.0039843362756073475
80.0,0.004215606022626162
88.0,0.0035166677553206682
96.0,0.002893779193982482
104.0,0.003021910088136792
112.0,0.0036624365020543337
120.0,0.0037883217446506023
128.0,0.003733950899913907
144.0,0.004305030219256878
160.0,0.0039166235364973545
176.0,0.003308295737951994
192.0,0.002920217113569379
208.0,0.0030197834130376577
224.0,0.003199746599420905
240.0,0.0029255743138492107
256.0,0.002621046034619212
288.0,0.002825396368280053
320.0,0.002729373751208186
352.0,0.0018608530517667532
384.0,0.002072573872283101
416.0,0.0020908804144710302
448.0,0.001631341059692204
480.0,0.00045291046262718737
512.0,0.0008461183169856668
576.0,0.0019135184120386839
640.0,0.0011933379573747516
704.0,0.0005387480487115681
768.0,-6.383757408912061e-06
832.0,4.301172521081753e-05
896.0,-0.00043557811295613647
960.0,-0.00022256332158576697
1024.0,-0.0018082308815792203
1152.0,-0.001105356146581471
1280.0,-0.0006731540779583156
1408.0,-0.00032769719837233424
1536.0,-8.997232362162322e-05
1664.0,0.0002723661018535495
1792.0,0.0010818644659593701
1920.0,0.0005241379258222878
2048.0,0.0006256806664168835
2304.0,0.00026584925944916904
2560.0,0.00038075889460742474
2816.0,0.00023936462821438909
3072.0,-0.0006215291796252131
3328.0,-0.0003529179666657001
3584.0,-0.0014153573429211974
3840.0,-0.0018043610034510493
4096.0,-0.0014027911238372326
4608.0,-0.001132529228925705
5120.0,-0.0016005655052140355
5632.0,-0.0019261023262515664
6144.0,-0.001135550206527114
6656.0,0.00036897443351335824
7168.0,-0.0004063810338266194
7680.0,-0.0011433653999119997
8192.0,-0.0010229905601590872
end
