version,3.0
numOfCh,1
type,point
parent_name,484af_3dot0-0dot01
ch_type,1_1
kcount,1
numberNandB,1
brightnessNandB,1
carpet pos,0
pc,0
Time (ms),CH1 Auto-Correlation
1.0,0.02602650225162506
2.0,0.021169858053326607
3.0,0.017636317759752274
4.0,0.015166406519711018
5.0,0.013295751065015793
6.0,0.011726927943527699
7.0,0.0106970788910985
8.0,0.009851927869021893
9.0,0.009087814018130302
10.0,0.008426102809607983
11.0,0.008060111664235592
12.0,0.007581036072224379
13.0,0.007077119778841734
14.0,0.0066728354431688786
15.0,0.006235174834728241
16.0,0.006003042217344046
18.0,0.005533170886337757
20.0,0.004951292648911476
22.0,0.004665132146328688
24.0,0.004290529061108828
26.0,0.0038703412283211946
28.0,0.0036163837648928165
30.0,0.00330635835416615
32.0,0.0031230079475790262
36.0,0.0024086651392281055
40.0,0.0019752609077841043
44.0,0.0020343151409178972
48.0,0.001786683453246951
52.0,0.0015459036221727729
56.0,0.0016749548958614469
60.0,0.001412034034729004
64.0,0.0012682556407526135
72.0,0.00071954500162974
80.0,0.0005976315587759018
88.0,0.0006030899821780622
96.0,0.0008861119276843965
104.0,0.0008417329518124461
112.0,0.0013538385974243283
120.0,0.0014201245503500104
128.0,0.00167267385404557
144.0,0.0009894752874970436
160.0,0.0005775265162810683
176.0,0.00010776277486002073
192.0,-0.000285347894532606
208.0,-0.0004010326520074159
224.0,0.00018578457820694894
240.0,0.0003627205442171544
256.0,1.992345460166689e-05
288.0,-0.0001056297987815924
320.0,-0.0003357684472575784
352.0,-0.0004635509685613215
384.0,0.0004352658870629966
416.0,-1.3052959729975555e-05
448.0,0.0007381504983641207
480.0,0.0011938698589801788
512.0,0.0004532629973255098
576.0,-0.000356644915882498
640.0,-3.76550160581246e-05
704.0,-0.0007815093849785626
768.0,-0.0008438976365141571
832.0,-0.0009292397298850119
896.0,-0.0007918344927020371
960.0,-0.0005677334265783429
1024.0,-0.0008651016978546977
1152.0,-0.0007743278983980417
1280.0,0.00018658468616195023
1408.0,0.0004944734391756356
1536.0,-0.0001105767150875181
1664.0,0.0011295470176264644
1792.0,0.0006931573152542114
1920.0,0.0005922862910665572
2048.0,-0.00019382755272090435
2304.0,-0.00017805112292990088
2560.0,-0.00041637144749984145
2816.0,-0.0005563005688600242
3072.0,6.89336156938225e-05
3328.0,0.00027543719625100493
3584.0,2.9665416150237434e-05
3840.0,0.00015128635277505964
4096.0,-0.00042657830636017025
4608.0,-0.00028429075609892607
5120.0,0.0005824710242450237
5632.0,0.0002727032115217298
6144.0,-0.0005621646996587515
6656.0,-0.0003181036445312202
7168.0,6.236727494979277e-05
7680.0,-0.0004105282132513821
8192.0,-0.00040538699249736965
end
