version,3.0
numOfCh,1
type,point
parent_name,484af_3dot0-0dot01
ch_type,1_1
kcount,1
numberNandB,1
brightnessNandB,1
carpet pos,0
pc,0
Time (ms),CH1 Auto-Correlation
1.0,0.02846059761941433
2.0,0.02366618812084198
3.0,0.020485898479819298
4.0,0.017982926219701767
5.0,0.015913473442196846
6.0,0.014227013103663921
7.0,0.012792438268661499
8.0,0.011745641008019447
9.0,0.010929177515208721
10.0,0.010064451955258846
11.0,0.009184306487441063
12.0,0.008500872179865837
13.0,0.008060595020651817
14.0,0.007786612957715988
15.0,0.007589837070554495
16.0,0.007431929465383291
18.0,0.007068970240652561
20.0,0.006675838492810726
22.0,0.006224626675248146
24.0,0.00580306863412261
26.0,0.005776674021035433
28.0,0.005553561262786388
30.0,0.00539368437603116
32.0,0.004962588660418987
36.0,0.004509358201175928
40.0,0.00410816865041852
44.0,0.0038892519660294056
48.0,0.003765509696677327
52.0,0.0038534710183739662
56.0,0.0035580433905124664
60.0,0.0036415038630366325
64.0,0.003922824747860432
72.0,0.0032995811197906733
80.0,0.003044962650164962
88.0,0.0026746150106191635
96.0,0.002573286183178425
104.0,0.002032214542850852
112.0,0.0018177186138927937
120.0,0.0008420054218731821
128.0,0.0005757180624641478
144.0,0.0002675429277587682
160.0,-0.0005806366098113358
176.0,-0.0006588433170691133
192.0,-0.0002264745271531865
208.0,-0.0003012636152561754
224.0,-0.0006435758550651371
240.0,0.0003412851074244827
256.0,-7.437432941514999e-05
288.0,-0.00046843744348734617
320.0,-1.0201577424595598e-05
352.0,-6.104414933361113e-05
384.0,0.00016179254453163594
416.0,0.0006637098849751055
448.0,0.0006810498307459056
480.0,0.0008776517934165895
512.0,0.0011477284133434296
576.0,0.0009048354113474488
640.0,-0.00011930387699976563
704.0,-3.2461357477586716e-05
768.0,5.445273927762173e-05
832.0,0.00030765432165935636
896.0,5.662912008119747e-05
960.0,0.0008230590610764921
1024.0,0.0008301975904032588
1152.0,-0.00041165275615639985
1280.0,-0.0007728422642685473
1408.0,-0.0004195893125142902
1536.0,0.0003699061635416001
1664.0,0.00075516477227211
1792.0,-0.00046182749792933464
1920.0,-0.0007319265860132873
2048.0,-0.0006435493705794215
2304.0,0.0006026526680216193
2560.0,-0.0005910655600018799
2816.0,0.0005328338593244553
3072.0,-9.953228072845377e-06
3328.0,0.00011242539039812982
3584.0,-0.00043503151391632855
3840.0,-6.692035822197795e-05
4096.0,-2.615988023535465e-06
4608.0,4.02497198592755e-06
5120.0,-0.00019780821457970887
5632.0,2.3377466277452186e-05
6144.0,0.0004360132443252951
6656.0,0.00047081601223908365
7168.0,-0.0002252990088891238
7680.0,-0.0009245766559615731
8192.0,-0.0006921935128048062
end
