version,3.0
numOfCh,1
type,point
parent_name,484af_3dot0-0dot01
ch_type,1_1
kcount,1
numberNandB,1
brightnessNandB,1
carpet pos,0
pc,0
Time (ms),CH1 Auto-Correlation
1.0,0.030218586325645447
2.0,0.025612756609916687
3.0,0.02234685979783535
4.0,0.019871506839990616
5.0,0.0179289523512125
6.0,0.016147177666425705
7.0,0.014954975806176662
8.0,0.013928225263953209
9.0,0.01288557704538107
10.0,0.012356492690742016
11.0,0.011813124641776085
12.0,0.011366662569344044
13.0,0.010884609073400497
14.0,0.010671925731003284
15.0,0.010153308510780334
16.0,0.0095443120226264
18.0,0.00868565309792757
20.0,0.00798795372247696
22.0,0.007315708789974451
24.0,0.006746477447450161
26.0,0.006421388126909733
28.0,0.006163605954498053
30.0,0.0057908580638468266
32.0,0.005864838603883982
36.0,0.006239236332476139
40.0,0.006272120401263237
44.0,0.005747763905674219
48.0,0.005020658485591412
52.0,0.00459061237052083
56.0,0.004895051475614309
60.0,0.004938927479088306
64.0,0.005099516361951828
72.0,0.005144461989402771
80.0,0.005235277581959963
88.0,0.005275610368698835
96.0,0.005035165697336197
104.0,0.0046001304872334
112.0,0.003580793272703886
120.0,0.003435253631323576
128.0,0.0030774755869060755
144.0,0.0025008898228406906
160.0,0.002952791517600417
176.0,0.002966003492474556
192.0,0.0026886172126978636
208.0,0.0012625708477571607
224.0,0.0010870258556678891
240.0,0.0016388127114623785
256.0,0.0013335536932572722
288.0,0.0016646530712023377
320.0,0.001450102194212377
352.0,0.0023835143074393272
384.0,0.0025840424932539463
416.0,0.0019409442320466042
448.0,0.001420307788066566
480.0,0.0008242569747380912
512.0,0.001633746549487114
576.0,0.001045625889673829
640.0,0.001692623132839799
704.0,0.003037553746253252
768.0,0.003238086588680744
832.0,0.0019889092072844505
896.0,9.290513844462112e-05
960.0,0.00035606123856268823
1024.0,0.0013191672042012215
1152.0,0.0019969805143773556
1280.0,0.00044131476897746325
1408.0,0.0005287427338771522
1536.0,0.0008858302608132362
1664.0,-7.361063035205007e-05
1792.0,0.0011776958126574755
1920.0,0.0012186524691060185
2048.0,0.0009364734869450331
2304.0,-0.00012314334162510931
2560.0,0.0003433460369706154
2816.0,0.0005583775928243995
3072.0,0.0007030590786598623
3328.0,0.0007280662539415061
3584.0,-0.0005432200850918889
3840.0,-0.0004390557005535811
4096.0,0.0005934874643571675
4608.0,-0.001079579466022551
5120.0,-0.0015808666357770562
5632.0,-0.001528435735963285
6144.0,-0.0012111772084608674
6656.0,-0.0013560946099460125
7168.0,-0.0011289895046502352
7680.0,-0.001776720630005002
8192.0,-0.0015467031626030803
end
