version,3.0
numOfCh,1
type,point
parent_name,484af_3dot0-0dot01
ch_type,1_1
kcount,1
numberNandB,1
brightnessNandB,1
carpet pos,0
pc,0
Time (ms),CH1 Auto-Correlation
1.0,0.028396083042025566
2.0,0.023862702772021294
3.0,0.020520472899079323
4.0,0.018087834119796753
5.0,0.015931278467178345
6.0,0.014374730177223682
7.0,0.013261782005429268
8.0,0.012274529784917831
9.0,0.011689991690218449
10.0,0.011130701750516891
11.0,0.010623561218380928
12.0,0.010111553594470024
13.0,0.009586277417838573
14.0,0.009148528799414635
15.0,0.008767603896558285
16.0,0.008387480862438679
18.0,0.008068413473665714
20.0,0.007872797548770905
22.0,0.007689516991376877
24.0,0.007655053399503231
26.0,0.007714759558439255
28.0,0.00758820166811347
30.0,0.007073779124766588
32.0,0.006791824474930763
36.0,0.0059753842651844025
40.0,0.005193229764699936
44.0,0.004583196248859167
48.0,0.004678476136177778
52.0,0.004696204327046871
56.0,0.004572475329041481
60.0,0.0040242914110422134
64.0,0.0037627569399774075
72.0,0.003734133206307888
80.0,0.003589024068787694
88.0,0.0035768505185842514
96.0,0.003883583936840296
104.0,0.004372097086161375
112.0,0.004241507966071367
120.0,0.0045876894146203995
128.0,0.004110174719244242
144.0,0.0036804862320423126
160.0,0.002825764939188957
176.0,0.0020971179474145174
192.0,0.0020468004513531923
208.0,0.002346149180084467
224.0,0.0026537557132542133
240.0,0.00341965863481164
256.0,0.0034089479595422745
288.0,0.0029362738132476807
320.0,0.0035271476954221725
352.0,0.0036498480476439
384.0,0.004245510324835777
416.0,0.003611256368458271
448.0,0.00395793654024601
480.0,0.003220096928998828
512.0,0.003266336629167199
576.0,0.0025503786746412516
640.0,0.0028907586820423603
704.0,0.003057236783206463
768.0,0.0033413097262382507
832.0,0.002751493826508522
896.0,0.0019973565358668566
960.0,0.0020622103475034237
1024.0,0.0020493464544415474
1152.0,0.002997684059664607
1280.0,0.0016492028953507543
1408.0,0.0022924880031496286
1536.0,0.0015422786818817258
1664.0,0.001109850942157209
1792.0,0.0016162157990038395
1920.0,0.002053759293630719
2048.0,0.0008278367458842695
2304.0,0.0012403130531311035
2560.0,-0.00014800226199440658
2816.0,-9.328023588750511e-05
3072.0,0.00012368021998554468
3328.0,-4.8865247663343325e-05
3584.0,-0.0014547364553436637
3840.0,-0.0007539234356954694
4096.0,-0.0005254687857814133
4608.0,-0.0013507491676136851
5120.0,-0.0018780399113893509
5632.0,-0.002410882618278265
6144.0,-0.003685448784381151
6656.0,-0.004073786083608866
7168.0,-0.003164805704727769
7680.0,-0.0026253738906234503
8192.0,-0.002730876673012972
end
