version,3.0
numOfCh,1
type,point
parent_name,484af_3dot0-0dot01
ch_type,1_1
kcount,1
numberNandB,1
brightnessNandB,1
carpet pos,0
pc,0
Time (ms),CH1 Auto-Correlation
1.0,0.028374189510941505
2.0,0.023761851713061333
3.0,0.020459437742829323
4.0,0.017935490235686302
5.0,0.016020741313695908
6.0,0.014484761282801628
7.0,0.013170690275728703
8.0,0.012090922333300114
9.0,0.011172479018568993
10.0,0.010275323875248432
11.0,0.009560845792293549
12.0,0.009005742147564888
13.0,0.008538550697267056
14.0,0.008104866370558739
15.0,0.007712121587246656
16.0,0.007503648288547993
18.0,0.006833087652921677
20.0,0.006526470649987459
22.0,0.006222601514309645
24.0,0.005934367422014475
26.0,0.005534244701266289
28.0,0.005308960564434528
30.0,0.0050512258894741535
32.0,0.0050040315836668015
36.0,0.004716196563094854
40.0,0.00411297008395195
44.0,0.003951268270611763
48.0,0.003543579252436757
52.0,0.0034566796384751797
56.0,0.0037896153517067432
60.0,0.003674710402265191
64.0,0.0035490139853209257
72.0,0.002765231765806675
80.0,0.002322812331840396
88.0,0.001886023674160242
96.0,0.0016942049842327833
104.0,0.0014875673223286867
112.0,0.0015973849222064018
120.0,0.0018932996317744255
128.0,0.001854441943578422
144.0,0.0020932808984071016
160.0,0.001972874626517296
176.0,0.0016242588171735406
192.0,0.0015626252861693501
208.0,0.0007998106884770095
224.0,0.0007276961114257574
240.0,0.0004641614796128124
256.0,0.0013517189072445035
288.0,0.0008406246197409928
320.0,0.000811741454526782
352.0,0.0008337653707712889
384.0,0.0002829607983585447
416.0,0.000122038196423091
448.0,-0.0005332379951141775
480.0,0.0007754845428280532
512.0,0.0012666737893596292
576.0,0.00045724399387836456
640.0,0.00010454097355250269
704.0,-0.00024118607689160854
768.0,0.00037079775938764215
832.0,-0.00013314108946360648
896.0,7.954079592309427e-06
960.0,0.00041048426646739244
1024.0,0.0002727627579588443
1152.0,0.00039631177787669003
1280.0,0.00022778211859986186
1408.0,0.0006117854500189424
1536.0,-1.7906552329804981e-06
1664.0,-7.084458775352687e-05
1792.0,0.00019215448992326856
1920.0,0.0012364289723336697
2048.0,0.0007657685782760382
2304.0,0.0001576920330990106
2560.0,0.00028698789537884295
2816.0,-0.0007278993143700063
3072.0,0.0001100929148378782
3328.0,-0.0002945539599750191
3584.0,-0.00025207875296473503
3840.0,0.0003854796232189983
4096.0,-0.0017520994879305363
4608.0,-0.00021874946833122522
5120.0,0.000560435582883656
5632.0,0.000719345873221755
6144.0,-0.00018958472355734557
6656.0,-0.0009952379623427987
7168.0,0.0007900578202679753
7680.0,0.001136562554165721
8192.0,-0.0005967620527371764
end
