version,3.0
numOfCh,1
type,point
parent_name,484af_3dot0-0dot01
ch_type,1_1
kcount,1
numberNandB,1
brightnessNandB,1
carpet pos,0
pc,0
Time (ms),CH1 Auto-Correlation
1.0,0.2224658876657486
2.0,0.22037294507026672
3.0,0.2187349647283554
4.0,0.21733099222183228
5.0,0.21611253917217255
6.0,0.2148505300283432
7.0,0.21361896395683289
8.0,0.21252456307411194
9.0,0.21164041757583618
10.0,0.21074223518371582
11.0,0.2096521407365799
12.0,0.20858930051326752
13.0,0.20767346024513245
14.0,0.20667430758476257
15.0,0.20565450191497803
16.0,0.2046894133090973
18.0,0.20297476649284363
20.0,0.20150820910930634
22.0,0.2001354992389679
24.0,0.19877693057060242
26.0,0.19735650718212128
28.0,0.19616056978702545
30.0,0.19495552778244019
32.0,0.19391538202762604
36.0,0.19215670228004456
40.0,0.19046996533870697
44.0,0.18875211477279663
48.0,0.18715278804302216
52.0,0.1856367588043213
56.0,0.18434002995491028
60.0,0.18307748436927795
64.0,0.18161658942699432
72.0,0.17922648787498474
80.0,0.17704612016677856
88.0,0.17415763437747955
96.0,0.1707296073436737
104.0,0.1663997322320938
112.0,0.16299259662628174
120.0,0.16016261279582977
128.0,0.15675735473632812
144.0,0.150358647108078
160.0,0.14627443253993988
176.0,0.14351899921894073
192.0,0.1390058696269989
208.0,0.13342399895191193
224.0,0.129241481423378
240.0,0.12514753639698029
256.0,0.12090801447629929
288.0,0.11405958980321884
320.0,0.10998017340898514
352.0,0.10739795118570328
384.0,0.09793441742658615
416.0,0.09263965487480164
448.0,0.08731194585561752
480.0,0.08031539618968964
512.0,0.07926161587238312
576.0,0.07045350968837738
640.0,0.05356128513813019
704.0,0.04619578644633293
768.0,0.05124790221452713
832.0,0.05945105478167534
896.0,0.06545868515968323
960.0,0.05510324239730835
1024.0,0.04249212145805359
1152.0,0.0285809226334095
1280.0,0.009361328557133675
1408.0,0.007136412896215916
1536.0,-0.015999410301446915
1664.0,-0.03505358472466469
1792.0,-0.026377204805612564
1920.0,-0.03335293009877205
2048.0,-0.042041435837745667
2304.0,-0.04274618253111839
2560.0,-0.15738987922668457
2816.0,-0.2355572134256363
3072.0,-0.23505516350269318
3328.0,-0.2032814472913742
3584.0,-0.2749665379524231
end
