version,3.0
numOfCh,1
type,point
parent_name,484af_3dot0-0dot01
ch_type,1_1
kcount,1
numberNandB,1
brightnessNandB,1
carpet pos,0
pc,0
Time (ms),CH1 Auto-Correlation
1.0,0.03340591862797737
2.0,0.02855045534670353
3.0,0.02503267116844654
4.0,0.022601637989282608
5.0,0.020569760352373123
6.0,0.018440114334225655
7.0,0.01671389304101467
8.0,0.015711836516857147
9.0,0.015011695213615894
10.0,0.014350483193993568
11.0,0.013602560386061668
12.0,0.012999260798096657
13.0,0.01286848820745945
14.0,0.013047943823039532
15.0,0.012922370806336403
16.0,0.012276232242584229
18.0,0.011375471949577332
20.0,0.010827104561030865
22.0,0.010167647153139114
24.0,0.009936095215380192
26.0,0.009366719052195549
28.0,0.008654573000967503
30.0,0.007867544889450073
32.0,0.007264773827046156
36.0,0.006321473978459835
40.0,0.005533607676625252
44.0,0.0049227261915802956
48.0,0.004819199442863464
52.0,0.004883735906332731
56.0,0.005038583651185036
60.0,0.004572466015815735
64.0,0.0045965611934661865
72.0,0.004995359573513269
80.0,0.004724844358861446
88.0,0.005701584275811911
96.0,0.005169178359210491
104.0,0.005597918760031462
112.0,0.003006565384566784
120.0,0.0031454144045710564
128.0,0.0035955358762294054
144.0,0.0028112882282584906
160.0,0.0019544654060155153
176.0,0.0022932866122573614
192.0,0.003475644625723362
208.0,0.003289424814283848
224.0,0.0034491054248064756
240.0,0.002302163979038596
256.0,0.0015380423283204436
288.0,0.0028699117247015238
320.0,0.000760198337957263
352.0,0.00035442967782728374
384.0,0.0009131957776844501
416.0,0.0009018122218549252
448.0,0.0008762757061049342
480.0,0.0023277716245502234
512.0,0.00011189641372766346
576.0,-0.0001658800320001319
640.0,-0.001702550332993269
704.0,-0.0023953826166689396
768.0,-0.004536249674856663
832.0,-0.004744417034089565
896.0,-0.002770500723272562
960.0,-0.001756930025294423
1024.0,-0.0017389733111485839
1152.0,-0.0016171993920579553
1280.0,0.0005406865384429693
1408.0,0.0035589144099503756
1536.0,0.0026127612218260765
1664.0,0.00208230409771204
1792.0,-0.00013062931247986853
1920.0,0.00033284336677752435
2048.0,-0.0016116711776703596
2304.0,-0.0035196554381400347
2560.0,-0.0016805279301479459
2816.0,0.002648993395268917
3072.0,0.004453510511666536
3328.0,0.0006453618407249451
3584.0,-0.005185759626328945
3840.0,-0.010834363289177418
4096.0,-0.008244309574365616
end
