version,3.0
numOfCh,1
type,point
parent_name,484af_3dot0-0dot01
ch_type,1_1
kcount,1
numberNandB,1
brightnessNandB,1
carpet pos,0
pc,0
Time (ms),CH1 Auto-Correlation
1.0,0.041919052600860596
2.0,0.03768609091639519
3.0,0.0345425084233284
4.0,0.03216579183936119
5.0,0.03015086054801941
6.0,0.028506925329566002
7.0,0.02711614966392517
8.0,0.025898363441228867
9.0,0.024852702394127846
10.0,0.023990167304873466
11.0,0.02322978712618351
12.0,0.02260802499949932
13.0,0.021946119144558907
14.0,0.02147376537322998
15.0,0.021098986268043518
16.0,0.020590484142303467
18.0,0.019675206393003464
20.0,0.018754620105028152
22.0,0.01755407825112343
24.0,0.0165964774787426
26.0,0.016181211918592453
28.0,0.016056768596172333
30.0,0.015934115275740623
32.0,0.015566461719572544
36.0,0.015251463279128075
40.0,0.01510697789490223
44.0,0.015004891902208328
48.0,0.015025094151496887
52.0,0.01505345106124878
56.0,0.014963256195187569
60.0,0.014486432075500488
64.0,0.01302450429648161
72.0,0.012381253764033318
80.0,0.01149548776447773
88.0,0.01058934349566698
96.0,0.009564220905303955
104.0,0.009710574522614479
112.0,0.009470919147133827
120.0,0.009093904867768288
128.0,0.008668391034007072
144.0,0.008751715533435345
160.0,0.007813612930476665
176.0,0.007780298124998808
192.0,0.0075396387837827206
208.0,0.007669250015169382
224.0,0.00581816490739584
240.0,0.004922584630548954
256.0,0.004589803051203489
288.0,0.0029290125239640474
320.0,0.002855655737221241
352.0,0.0024223141372203827
384.0,0.0031704294960945845
416.0,0.0038387884851545095
448.0,0.0046913400292396545
480.0,0.004119896795600653
512.0,0.006728664506226778
576.0,0.007813628762960434
640.0,0.009761867113411427
704.0,0.00684454757720232
768.0,0.005633086431771517
832.0,0.004008463118225336
896.0,0.0019615658093243837
960.0,0.000858849030919373
1024.0,0.0013756674015894532
1152.0,0.002335130935534835
1280.0,0.0044296905398368835
1408.0,0.005659440997987986
1536.0,0.002622742671519518
1664.0,0.00017565189045853913
1792.0,0.0007699012057855725
1920.0,0.0010821487521752715
2048.0,0.0013911218848079443
2304.0,0.00011398884817026556
2560.0,0.0017194018000736833
2816.0,0.0015115838032215834
3072.0,0.001918349415063858
3328.0,-0.0003184340021107346
3584.0,-0.0007847889792174101
3840.0,-0.0032793222926557064
4096.0,-0.002976085990667343
4608.0,-0.004301039967685938
5120.0,-0.001749054528772831
5632.0,-0.0025925571098923683
6144.0,-0.007637904491275549
6656.0,-0.008568002842366695
7168.0,-0.00589568167924881
7680.0,-0.002007152186706662
8192.0,-0.0008111349889077246
end
