version,3.0
numOfCh,1
type,point
parent_name,484af_3dot0-0dot01
ch_type,1_1
kcount,1
numberNandB,1
brightnessNandB,1
carpet pos,0
pc,0
Time (ms),CH1 Auto-Correlation
1.0,0.0327712781727314
2.0,0.028732096776366234
3.0,0.026063350960612297
4.0,0.023964909836649895
5.0,0.022184090688824654
6.0,0.020904896780848503
7.0,0.019854573532938957
8.0,0.01882311888039112
9.0,0.01813599094748497
10.0,0.017516788095235825
11.0,0.016751762479543686
12.0,0.01597658358514309
13.0,0.015376566909253597
14.0,0.01499701663851738
15.0,0.014589161612093449
16.0,0.014207215048372746
18.0,0.013582641258835793
20.0,0.012946629896759987
22.0,0.012265500612556934
24.0,0.01198147889226675
26.0,0.011757143773138523
28.0,0.01130124181509018
30.0,0.010993599891662598
32.0,0.010464619845151901
36.0,0.009794626384973526
40.0,0.009157263673841953
44.0,0.00894596055150032
48.0,0.009142406284809113
52.0,0.008796771056950092
56.0,0.008894180878996849
60.0,0.008724306710064411
64.0,0.008320801891386509
72.0,0.008286618627607822
80.0,0.008283158764243126
88.0,0.007114351261407137
96.0,0.006511255633085966
104.0,0.006442151498049498
112.0,0.006592435762286186
120.0,0.0063776238821446896
128.0,0.005695938598364592
144.0,0.005858625750988722
160.0,0.0052918363362550735
176.0,0.004237609449774027
192.0,0.003601896343752742
208.0,0.0025380344595760107
224.0,0.002849779324606061
240.0,0.003036736510694027
256.0,0.0041025555692613125
288.0,0.003428090363740921
320.0,0.0036990682128816843
352.0,0.0031022559851408005
384.0,0.0028981738723814487
416.0,0.0026989122852683067
448.0,0.002670431276783347
480.0,0.002032738644629717
512.0,0.0018572121625766158
576.0,0.0014988204929977655
640.0,0.00025444728089496493
704.0,0.0003441562585067004
768.0,0.00204971875064075
832.0,0.002164263976737857
896.0,0.0019962654914706945
960.0,0.0003338968672323972
1024.0,0.00016375345876440406
1152.0,-0.0012640629429370165
1280.0,-0.0010385543573647738
1408.0,0.0013825870119035244
1536.0,0.0013986618723720312
1664.0,0.00019034395518247038
1792.0,-0.000787487137131393
1920.0,0.0006854786188341677
2048.0,-0.0017304348293691874
2304.0,-0.0013960624346509576
2560.0,-0.001028749393299222
2816.0,-0.002367011969909072
3072.0,-0.0020623670425266027
3328.0,-0.0006508405203931034
3584.0,-0.0017781328642740846
3840.0,-0.0021236115135252476
4096.0,-0.00040699372766539454
4608.0,-0.002476226072758436
5120.0,-0.0041323015466332436
5632.0,-0.0009424234158359468
6144.0,0.000940292957238853
6656.0,0.0019243898568674922
7168.0,0.0039277225732803345
7680.0,0.0029442410450428724
8192.0,0.0006366802263073623
end
