version,3.0
numOfCh,1
type,point
parent_name,484af_3dot0-0dot01
ch_type,1_1
kcount,1
numberNandB,1
brightnessNandB,1
carpet pos,0
pc,0
Time (ms),CH1 Auto-Correlation
1.0,0.048903509974479675
2.0,0.04504501074552536
3.0,0.04210417717695236
4.0,0.040072038769721985
5.0,0.03831063210964203
6.0,0.0365469790995121
7.0,0.035058002918958664
8.0,0.033738911151885986
9.0,0.03284802287817001
10.0,0.03208950534462929
11.0,0.03106743097305298
12.0,0.030084125697612762
13.0,0.02938130497932434
14.0,0.028899256139993668
15.0,0.02855903096497059
16.0,0.02818046137690544
18.0,0.0272276122123003
20.0,0.02606269344687462
22.0,0.025234544649720192
24.0,0.024604955688118935
26.0,0.023801904171705246
28.0,0.022818585857748985
30.0,0.022357508540153503
32.0,0.02178853191435337
36.0,0.02145165577530861
40.0,0.020686201751232147
44.0,0.019871322438120842
48.0,0.019182633608579636
52.0,0.018643049523234367
56.0,0.01830879971385002
60.0,0.01741105504333973
64.0,0.016853533685207367
72.0,0.015896793454885483
80.0,0.01683071255683899
88.0,0.016484521329402924
96.0,0.015453813597559929
104.0,0.014403415843844414
112.0,0.013555248267948627
120.0,0.011404487304389477
128.0,0.009016191586852074
144.0,0.005658102687448263
160.0,0.0027669870760291815
176.0,0.004881198983639479
192.0,0.0051723322831094265
208.0,0.0058507234789431095
224.0,0.004625791218131781
240.0,0.0036566019989550114
256.0,0.004106931854039431
288.0,0.0042673456482589245
320.0,0.007485655136406422
352.0,0.006279164459556341
384.0,0.005095224827528
416.0,0.003110335674136877
448.0,0.002501774812117219
480.0,0.0013855743454769254
512.0,-0.0005088637699373066
576.0,-0.0013087752740830183
640.0,-0.0006673454772680998
704.0,-0.000865655078087002
768.0,-0.0012291776947677135
832.0,-0.002737772883847356
896.0,-0.005118331406265497
960.0,-0.002936496865004301
1024.0,-0.005083006341010332
1152.0,-0.005764653440564871
1280.0,-0.006031300872564316
1408.0,-0.009757057763636112
1536.0,-0.010052856989204884
1664.0,-0.00858259666711092
1792.0,-0.011112106032669544
1920.0,-0.00856761820614338
2048.0,-0.005149238742887974
end
