version,3.0
numOfCh,1
type,point
parent_name,34766_0dot6-0dot01
ch_type,1_1
kcount,1
numberNandB,1
brightnessNandB,1
carpet pos,0
pc,0
Time (ms),CH1 Auto-Correlation
1.0,0.03060176409780979
2.0,0.029485244303941727
3.0,0.028434928506612778
4.0,0.027492934837937355
5.0,0.02663310244679451
6.0,0.025861570611596107
7.0,0.025158805772662163
8.0,0.024513809010386467
9.0,0.023950835689902306
10.0,0.023390835151076317
11.0,0.022892266511917114
12.0,0.022402828559279442
13.0,0.021928273141384125
14.0,0.021511750295758247
15.0,0.021094221621751785
16.0,0.020693352445960045
18.0,0.019984576851129532
20.0,0.01933390460908413
22.0,0.01866164803504944
24.0,0.018086114898324013
26.0,0.017567351460456848
28.0,0.0170466098934412
30.0,0.016563616693019867
32.0,0.016052965074777603
36.0,0.015156535431742668
40.0,0.014282447285950184
44.0,0.013453464955091476
48.0,0.012659967876970768
52.0,0.012034023180603981
56.0,0.011373399756848812
60.0,0.010772814974188805
64.0,0.010357649065554142
72.0,0.010037596337497234
80.0,0.009769158437848091
88.0,0.009662168100476265
96.0,0.00973268412053585
104.0,0.009617919102311134
112.0,0.009439276531338692
120.0,0.00910509005188942
128.0,0.008822904899716377
144.0,0.00804203376173973
160.0,0.007198420353233814
176.0,0.0066615138202905655
192.0,0.006285751238465309
208.0,0.005945910699665546
224.0,0.0054508694447577
240.0,0.004912701901048422
256.0,0.004603032022714615
288.0,0.0035386618692427874
320.0,0.002934302669018507
352.0,0.003106917953118682
384.0,0.0025584085378795862
416.0,0.0024844161234796047
448.0,0.0020560615230351686
480.0,0.0007266940083354712
512.0,-0.00018334643391426653
576.0,-0.0008985218009911478
640.0,-0.0009939660085365176
704.0,0.0002827006974257529
768.0,0.0013259516563266516
832.0,-8.922379493014887e-05
896.0,-0.0003178966580890119
960.0,-0.002312168013304472
1024.0,-0.0031487494707107544
1152.0,-0.0022890851832926273
1280.0,-0.0008730808040127158
1408.0,0.001790302456356585
1536.0,0.0029845479875802994
1664.0,0.0014127332251518965
1792.0,-0.00023316763690672815
1920.0,0.0008454383350908756
2048.0,0.0013976545305922627
2304.0,0.00025915270089171827
2560.0,-0.0012048522476106882
2816.0,7.039377578621497e-06
3072.0,-1.762992724252399e-05
3328.0,0.00016956854960881174
3584.0,-0.0021614450961351395
3840.0,-0.0035793946590274572
4096.0,-0.0035668842028826475
4608.0,0.0017805580282583833
5120.0,0.000874830293469131
5632.0,-0.0033096985425800085
6144.0,0.001155712059698999
6656.0,0.0009075890993699431
7168.0,-0.0021695028990507126
7680.0,-0.002027641050517559
8192.0,-0.001669842517003417
end
