version,3.0
numOfCh,1
type,point
parent_name,34766_0dot6-0dot01
ch_type,1_1
kcount,1
numberNandB,1
brightnessNandB,1
carpet pos,0
pc,0
Time (ms),CH1 Auto-Correlation
1.0,0.02877814695239067
2.0,0.027617335319519043
3.0,0.026583056896924973
4.0,0.02560931257903576
5.0,0.024698814377188683
6.0,0.023855535313487053
7.0,0.023100441321730614
8.0,0.022391438484191895
9.0,0.021715112030506134
10.0,0.021099552512168884
11.0,0.020520126447081566
12.0,0.019983714446425438
13.0,0.019509397447109222
14.0,0.019051482900977135
15.0,0.018653303384780884
16.0,0.01826411299407482
18.0,0.017662014812231064
20.0,0.017071614041924477
22.0,0.016515374183654785
24.0,0.01604527048766613
26.0,0.015494167804718018
28.0,0.014900721609592438
30.0,0.014285657554864883
32.0,0.013699236325919628
36.0,0.012596025131642818
40.0,0.011751161888241768
44.0,0.010947865433990955
48.0,0.010308424010872841
52.0,0.009813891723752022
56.0,0.009437277913093567
60.0,0.008881516754627228
64.0,0.008280554786324501
72.0,0.007510133553296328
80.0,0.007402859628200531
88.0,0.007185216993093491
96.0,0.006904765497893095
104.0,0.006852440070360899
112.0,0.006886483170092106
120.0,0.006839395966380835
128.0,0.006655863951891661
144.0,0.006170252338051796
160.0,0.005724186543375254
176.0,0.005675261374562979
192.0,0.005823931191116571
208.0,0.00638637924566865
224.0,0.005845670122653246
240.0,0.005254438146948814
256.0,0.0043522659689188
288.0,0.002083701314404607
320.0,0.0007291071233339608
352.0,0.0004975029150955379
384.0,0.0008365658577531576
416.0,0.0017379268538206816
448.0,0.0024644359946250916
480.0,0.00010717559780459851
512.0,-0.0012504919432103634
576.0,-0.0008122478611767292
640.0,-0.000575966143514961
704.0,-0.0014734031865373254
768.0,-0.003019183175638318
832.0,-0.0023258591536432505
896.0,-0.0007172735640779138
960.0,-0.00212647533044219
1024.0,-0.001169119612313807
1152.0,-0.0011624142061918974
1280.0,-0.0001277875853702426
1408.0,-0.0009699445799924433
1536.0,-0.00044080434599891305
1664.0,-0.00014343131624627858
1792.0,-0.0013361278688535094
1920.0,-0.00019294832600280643
2048.0,-0.0009671721491031349
2304.0,0.0019496767781674862
2560.0,0.0021549819502979517
2816.0,0.0009528163354843855
3072.0,-0.0011120035778731108
3328.0,-0.0023783640936017036
3584.0,-0.001938211265951395
3840.0,5.547542605199851e-05
4096.0,0.0017015497433021665
4608.0,0.000819611712358892
5120.0,-0.0016089387936517596
5632.0,-0.0004342323518358171
6144.0,0.0011727109085768461
6656.0,-0.0004840075271204114
7168.0,-0.0036062097642570734
7680.0,-0.0038759028539061546
8192.0,-0.0014905669959262013
end
