version,3.0
numOfCh,1
type,point
parent_name,34766_0dot6-0dot01
ch_type,1_1
kcount,1
numberNandB,1
brightnessNandB,1
carpet pos,0
pc,0
Time (ms),CH1 Auto-Correlation
1.0,0.03376111760735512
2.0,0.03267018869519234
3.0,0.031661637127399445
4.0,0.030765138566493988
5.0,0.029926327988505363
6.0,0.0291471965610981
7.0,0.028430189937353134
8.0,0.02776198275387287
9.0,0.027121972292661667
10.0,0.02656281180679798
11.0,0.026029588654637337
12.0,0.025521965697407722
13.0,0.025069521740078926
14.0,0.024615520611405373
15.0,0.024164922535419464
16.0,0.023701198399066925
18.0,0.022827593609690666
20.0,0.021940041333436966
22.0,0.021159162744879723
24.0,0.02039479650557041
26.0,0.019664237275719643
28.0,0.018868189305067062
30.0,0.01810089685022831
32.0,0.01734464429318905
36.0,0.01588057540357113
40.0,0.014577455818653107
44.0,0.013524672947824001
48.0,0.012798787094652653
52.0,0.012245864607393742
56.0,0.011693879030644894
60.0,0.011173517443239689
64.0,0.010773854330182076
72.0,0.010310971178114414
80.0,0.010079297237098217
88.0,0.00992117915302515
96.0,0.009672231040894985
104.0,0.009436764754354954
112.0,0.009563053026795387
120.0,0.009940559044480324
128.0,0.00988524779677391
144.0,0.009419909678399563
160.0,0.008950430899858475
176.0,0.00853987317532301
192.0,0.007903462275862694
208.0,0.007365741301327944
224.0,0.006539958994835615
240.0,0.005752291064709425
256.0,0.005651293788105249
288.0,0.005287521984428167
320.0,0.00458881352096796
352.0,0.0034694522619247437
384.0,0.003382960334420204
416.0,0.003051206935197115
448.0,0.0020177005790174007
480.0,0.002346221124753356
512.0,0.0019229223253205419
576.0,0.0011719473404809833
640.0,0.002531070029363036
704.0,0.0037432468961924314
768.0,0.0015791613841429353
832.0,0.0002537873515393585
896.0,0.0020399608183652163
960.0,-0.0011646251659840345
1024.0,-0.0008338958723470569
1152.0,-0.0009258043137378991
1280.0,-0.0005744195077568293
1408.0,-0.0024388579186052084
1536.0,-0.004396046977490187
1664.0,-0.006003459449857473
1792.0,-0.005055360030382872
1920.0,-0.00173222238663584
2048.0,-0.00011902452388312668
2304.0,-0.0027817832306027412
2560.0,-0.000658951117657125
2816.0,0.002012805547565222
3072.0,0.002834730315953493
3328.0,0.0031663067638874054
3584.0,0.0029023203533142805
3840.0,0.0012332112528383732
4096.0,0.001423847395926714
4608.0,-0.0027324992697685957
5120.0,-0.0017727174563333392
5632.0,-0.0012413348304107785
6144.0,0.0017235259292647243
6656.0,0.0011642985045909882
7168.0,-0.0020344716031104326
7680.0,-0.006084589287638664
8192.0,-0.0035442053340375423
end
