version,3.0
numOfCh,1
type,point
parent_name,34766_0dot6-0dot01
ch_type,1_1
kcount,1
numberNandB,1
brightnessNandB,1
carpet pos,0
pc,0
Time (ms),CH1 Auto-Correlation
1.0,0.02519562840461731
2.0,0.024118341505527496
3.0,0.02317902445793152
4.0,0.02230312116444111
5.0,0.02147245779633522
6.0,0.020706236362457275
7.0,0.020018724724650383
8.0,0.019378328695893288
9.0,0.018809089437127113
10.0,0.018265854567289352
11.0,0.01776840351521969
12.0,0.017278574407100677
13.0,0.016833215951919556
14.0,0.016400909051299095
15.0,0.01598992757499218
16.0,0.01559489592909813
18.0,0.014883721247315407
20.0,0.014279496856033802
22.0,0.013715716078877449
24.0,0.013189774006605148
26.0,0.01264569628983736
28.0,0.012183679267764091
30.0,0.011809298768639565
32.0,0.011555871926248074
36.0,0.011301441118121147
40.0,0.010968208312988281
44.0,0.010490119457244873
48.0,0.0099193649366498
52.0,0.009393400512635708
56.0,0.00887870229780674
60.0,0.008566821925342083
64.0,0.008413576520979404
72.0,0.008104276843369007
80.0,0.007864944636821747
88.0,0.007587403990328312
96.0,0.007172989659011364
104.0,0.006914868485182524
112.0,0.006803946103900671
120.0,0.0066810790449380875
128.0,0.006390408147126436
144.0,0.005426579620689154
160.0,0.005585730541497469
176.0,0.005659164395183325
192.0,0.0054268320091068745
208.0,0.005555052310228348
224.0,0.006063122767955065
240.0,0.006323918234556913
256.0,0.005772972013801336
288.0,0.0048448191955685616
320.0,0.003915959503501654
352.0,0.003978173714131117
384.0,0.003211717354133725
416.0,0.0024188964162021875
448.0,0.0013136944035068154
480.0,0.0013424558565020561
512.0,0.0016017407178878784
576.0,0.0002416912029730156
640.0,-1.3512574696505908e-05
704.0,-0.00024213905271608382
768.0,9.073108230950311e-05
832.0,-0.0008510733023285866
896.0,-0.0009930124506354332
960.0,-0.0002922121493611485
1024.0,-0.00025605224072933197
1152.0,-0.0015635460149496794
1280.0,-0.0008812901214696467
1408.0,-0.0008582083974033594
1536.0,-0.0006938974838703871
1664.0,-0.0005620918818749487
1792.0,0.0014346989337354898
1920.0,0.001032359665259719
2048.0,0.0020283516496419907
2304.0,0.0018637311877682805
2560.0,0.0003668835270218551
2816.0,-0.0016660398105159402
3072.0,-0.0031856554560363293
3328.0,-0.002153195906430483
3584.0,-0.0018320715753361583
3840.0,0.00037395721301436424
4096.0,0.0004625240690074861
4608.0,0.0009895962430164218
5120.0,-0.0023278628941625357
5632.0,-0.0009390701889060438
6144.0,-0.001958206994459033
6656.0,-0.0009155204752460122
7168.0,-0.0011156051186844707
7680.0,-0.0016629431629553437
8192.0,0.001650561927817762
end
