version,3.0
numOfCh,1
type,point
parent_name,34766_0dot6-0dot01
ch_type,1_1
kcount,1
numberNandB,1
brightnessNandB,1
carpet pos,0
pc,0
Time (ms),CH1 Auto-Correlation
1.0,0.021189521998167038
2.0,0.020106622949242592
3.0,0.01910362020134926
4.0,0.018240243196487427
5.0,0.017462708055973053
6.0,0.016691114753484726
7.0,0.015994375571608543
8.0,0.015371175482869148
9.0,0.014821087010204792
10.0,0.014304861426353455
11.0,0.013778910040855408
12.0,0.013274046592414379
13.0,0.01278864685446024
14.0,0.012352241203188896
15.0,0.011952477507293224
16.0,0.011573700234293938
18.0,0.010830010287463665
20.0,0.01019368413835764
22.0,0.00966086145490408
24.0,0.009113460779190063
26.0,0.0085759237408638
28.0,0.008089843206107616
30.0,0.007685145828872919
32.0,0.007275890093296766
36.0,0.006558699067682028
40.0,0.005976470652967691
44.0,0.005562272854149342
48.0,0.005312835332006216
52.0,0.0049703698605299
56.0,0.004436124581843615
60.0,0.004065477754920721
64.0,0.003787190420553088
72.0,0.0035924245603382587
80.0,0.00348352431319654
88.0,0.003470631781965494
96.0,0.003316632704809308
104.0,0.0028595782350748777
112.0,0.0021844750735908747
120.0,0.0019241581903770566
128.0,0.001622825744561851
144.0,0.001370645477436483
160.0,0.0007272901711985469
176.0,-0.0002230214304290712
192.0,-0.001330727362073958
208.0,-0.002072189934551716
224.0,-0.002392251743003726
240.0,-0.0021909342613071203
256.0,-0.0021238771732896566
288.0,-0.0018538041040301323
320.0,-0.002197959693148732
352.0,-0.002519149100407958
384.0,-0.0017486794386059046
416.0,-0.000984607613645494
448.0,-0.00037449225783348083
480.0,-0.0003376384265720844
512.0,-0.0008139266283251345
576.0,-6.731466419296339e-05
640.0,0.0011641524033620954
704.0,0.0008588206255808473
768.0,0.0010909035336226225
832.0,0.00013964706158731133
896.0,0.000754053529817611
960.0,8.680768951307982e-05
1024.0,0.0005480025429278612
1152.0,-7.908905536169186e-05
1280.0,-0.000985138351097703
1408.0,-0.00135886762291193
1536.0,0.0004976517520844936
1664.0,0.0005107454489916563
1792.0,-0.0005629834486171603
1920.0,-0.00028312901849858463
2048.0,-0.0005690400721505284
2304.0,-0.0006685423431918025
2560.0,0.0008395244367420673
2816.0,-0.0006829328485764563
3072.0,8.108033944154158e-05
3328.0,-0.00025307221221737564
3584.0,-0.0006982661434449255
3840.0,-4.136884308536537e-05
4096.0,0.0004932407755404711
4608.0,-0.00045624180347658694
5120.0,0.0002995588583871722
5632.0,-2.3818790850782534e-06
6144.0,0.00041664158925414085
6656.0,0.0005514744552783668
7168.0,-0.00028028193628415465
7680.0,0.0002540575515013188
8192.0,-0.0003941873146686703
end
