version,3.0
numOfCh,1
type,point
parent_name,34766_0dot6-0dot01
ch_type,1_1
kcount,1
numberNandB,1
brightnessNandB,1
carpet pos,0
pc,0
Time (ms),CH1 Auto-Correlation
1.0,0.03712152689695358
2.0,0.03597757965326309
3.0,0.034936606884002686
4.0,0.033982954919338226
5.0,0.033070407807826996
6.0,0.03223857656121254
7.0,0.031439606100320816
8.0,0.030714211985468864
9.0,0.030033962801098824
10.0,0.029409905895590782
11.0,0.02880617044866085
12.0,0.028257004916667938
13.0,0.027748271822929382
14.0,0.027306275442242622
15.0,0.026869887486100197
16.0,0.0264788456261158
18.0,0.025768263265490532
20.0,0.025076912716031075
22.0,0.024416986852884293
24.0,0.0237989854067564
26.0,0.023216668516397476
28.0,0.02268403209745884
30.0,0.022144516929984093
32.0,0.021593676880002022
36.0,0.02068028226494789
40.0,0.01998501643538475
44.0,0.01935620605945587
48.0,0.018699264153838158
52.0,0.018176617100834846
56.0,0.017720559611916542
60.0,0.017262982204556465
64.0,0.016853943467140198
72.0,0.016106704249978065
80.0,0.015396949835121632
88.0,0.014574827626347542
96.0,0.013712622225284576
104.0,0.013118467293679714
112.0,0.01250806450843811
120.0,0.011776380240917206
128.0,0.011069431900978088
144.0,0.010194418951869011
160.0,0.00965935830026865
176.0,0.0087067149579525
192.0,0.007597710005939007
208.0,0.006628634873777628
224.0,0.006178295239806175
240.0,0.00646846042945981
256.0,0.006911414675414562
288.0,0.006878491956740618
320.0,0.005777848418802023
352.0,0.004667218308895826
384.0,0.0038611621130257845
416.0,0.0039023354183882475
448.0,0.0019405483035370708
480.0,-0.00028617974021472037
512.0,0.0005094208172522485
576.0,0.001710879267193377
640.0,0.0008725830120965838
704.0,0.0001808745291782543
768.0,-0.0006168097606860101
832.0,0.0005410528974607587
896.0,-0.0006456054397858679
960.0,-0.0020163266453891993
1024.0,-0.003241134574636817
1152.0,-0.0035434775054454803
1280.0,-0.0021136843133717775
1408.0,-0.004815863911062479
1536.0,-0.002033028518781066
1664.0,0.0012802663259208202
1792.0,0.002935848431661725
1920.0,0.003047680016607046
2048.0,-0.0006989446701481938
2304.0,0.0013970854924991727
2560.0,-0.0006262504030019045
2816.0,-0.0030355597846210003
3072.0,-0.0012337090447545052
3328.0,-0.00021485085017047822
3584.0,-0.00025734922382980585
3840.0,-0.0018335584318265319
4096.0,-0.0018226882675662637
4608.0,-0.0012278459034860134
5120.0,-0.0020261777099221945
5632.0,-0.003071666695177555
6144.0,4.6880442823749036e-05
6656.0,0.002063858089968562
7168.0,0.002661749953404069
7680.0,0.001920143491588533
8192.0,-0.0002136060647899285
end
