version,3.0
numOfCh,1
type,point
parent_name,34766_0dot6-0dot01
ch_type,1_1
kcount,1
numberNandB,1
brightnessNandB,1
carpet pos,0
pc,0
Time (ms),CH1 Auto-Correlation
1.0,0.06486213952302933
2.0,0.06368950754404068
3.0,0.06259262561798096
4.0,0.061580657958984375
5.0,0.06065710261464119
6.0,0.059821464121341705
7.0,0.05903288349509239
8.0,0.05829285457730293
9.0,0.057609375566244125
10.0,0.05695671960711479
11.0,0.05636867508292198
12.0,0.0557631179690361
13.0,0.05519866198301315
14.0,0.05465278401970863
15.0,0.05410885810852051
16.0,0.05355238541960716
18.0,0.05235202610492706
20.0,0.051426809281110764
22.0,0.05048355832695961
24.0,0.04957640916109085
26.0,0.048671480268239975
28.0,0.047769416123628616
30.0,0.04688822850584984
32.0,0.04609083756804466
36.0,0.04419349133968353
40.0,0.04280426353216171
44.0,0.04155121371150017
48.0,0.04036847501993179
52.0,0.03901860862970352
56.0,0.03769642487168312
60.0,0.03650229051709175
64.0,0.03541456162929535
72.0,0.03252788260579109
80.0,0.03103461302816868
88.0,0.03015928715467453
96.0,0.02894357219338417
104.0,0.027740001678466797
112.0,0.026992356404662132
120.0,0.02674519270658493
128.0,0.02669469453394413
144.0,0.02593524567782879
160.0,0.0254537183791399
176.0,0.025526076555252075
192.0,0.025398792698979378
208.0,0.025600705295801163
224.0,0.025110358372330666
240.0,0.023057693615555763
256.0,0.020645534619688988
288.0,0.01293923705816269
320.0,0.010184237733483315
352.0,0.007708294317126274
384.0,0.006971613969653845
416.0,0.005586419254541397
448.0,0.0045528411865234375
480.0,0.0042564296163618565
512.0,0.0031007316429167986
576.0,0.0009796491358429193
640.0,-0.00025048048701137304
704.0,0.0006458066636696458
768.0,-0.0003142985806334764
832.0,0.0015411527128890157
896.0,0.0025321461725980043
960.0,0.004186596255749464
1024.0,0.007699534762650728
1152.0,0.009236780926585197
1280.0,0.005740690510720015
1408.0,0.0037757819518446922
1536.0,-3.374517473275773e-05
1664.0,7.454086153302342e-05
1792.0,0.0012894978281110525
1920.0,0.0020807983819395304
2048.0,0.00026740547036752105
2304.0,0.0008387834532186389
2560.0,-0.0005000700475648046
2816.0,-0.0005179541185498238
3072.0,-0.000817484688013792
3328.0,0.0008126014727167785
3584.0,0.004187001381069422
3840.0,0.003109838580712676
4096.0,0.00039685293450020254
4608.0,0.0012951478129252791
5120.0,0.00044161456753499806
5632.0,0.0007991589372977614
6144.0,0.0015939063159748912
6656.0,0.0012632132275030017
7168.0,0.0016166362911462784
7680.0,0.000827575393486768
8192.0,-0.002012171782553196
end
