version,3.0
numOfCh,1
type,point
parent_name,34766_0dot6-0dot01
ch_type,1_1
kcount,1
numberNandB,1
brightnessNandB,1
carpet pos,0
pc,0
Time (ms),CH1 Auto-Correlation
1.0,0.2490846812725067
2.0,0.24820929765701294
3.0,0.24739155173301697
4.0,0.2465844452381134
5.0,0.24580103158950806
6.0,0.24508363008499146
7.0,0.24438826739788055
8.0,0.24369479715824127
9.0,0.2430599480867386
10.0,0.24248160421848297
11.0,0.24191193282604218
12.0,0.24136830866336823
13.0,0.24086596071720123
14.0,0.24037310481071472
15.0,0.23993019759655
16.0,0.23946374654769897
18.0,0.23859861493110657
20.0,0.23778925836086273
22.0,0.23705202341079712
24.0,0.23645274341106415
26.0,0.23587721586227417
28.0,0.2352890968322754
30.0,0.2347225695848465
32.0,0.23416641354560852
36.0,0.23299682140350342
40.0,0.23196355998516083
44.0,0.23081931471824646
48.0,0.229583740234375
52.0,0.2283351719379425
56.0,0.22704775631427765
60.0,0.2258833646774292
64.0,0.22467781603336334
72.0,0.2220650166273117
80.0,0.21958187222480774
88.0,0.21711976826190948
96.0,0.21433213353157043
104.0,0.21156129240989685
112.0,0.20896227657794952
120.0,0.20623235404491425
128.0,0.2036115676164627
144.0,0.19800403714179993
160.0,0.19270703196525574
176.0,0.18660874664783478
192.0,0.18018239736557007
208.0,0.17340242862701416
224.0,0.16653934121131897
240.0,0.15864525735378265
256.0,0.15103627741336823
288.0,0.13324753940105438
320.0,0.1187087744474411
352.0,0.10427495092153549
384.0,0.09089107066392899
416.0,0.07864204049110413
448.0,0.06667119264602661
480.0,0.05676186829805374
512.0,0.04667743667960167
576.0,0.02566870115697384
640.0,0.013375828042626381
704.0,0.007007676176726818
768.0,0.0031814188696444035
832.0,0.0016888721147552133
896.0,0.0006511773099191487
960.0,-0.0010925255483016372
1024.0,-0.003126227529719472
1152.0,-0.002315153833478689
1280.0,-0.004382982384413481
1408.0,-0.005742938257753849
1536.0,-0.00558773148804903
1664.0,-0.007024244870990515
1792.0,-0.0034026694484055042
1920.0,0.0027386897709220648
2048.0,0.009551990777254105
2304.0,0.002366183325648308
2560.0,-0.0004670607449952513
2816.0,0.009032493457198143
3072.0,0.015659485012292862
3328.0,-0.0018974915146827698
3584.0,-0.021213337779045105
3840.0,-0.02465818263590336
4096.0,-0.02241315320134163
4608.0,-0.03553624078631401
5120.0,-0.01673932559788227
5632.0,-0.01790279895067215
6144.0,-0.03642380237579346
6656.0,-0.06129851192235947
7168.0,-0.07894552499055862
7680.0,-0.12817923724651337
8192.0,-0.17343933880329132
end
