version,3.0
numOfCh,1
type,point
parent_name,34766_0dot6-0dot01
ch_type,1_1
kcount,1
numberNandB,1
brightnessNandB,1
carpet pos,0
pc,0
Time (ms),CH1 Auto-Correlation
1.0,0.023983487859368324
2.0,0.02283405512571335
3.0,0.021804967895150185
4.0,0.020872486755251884
5.0,0.01999945566058159
6.0,0.019195040687918663
7.0,0.01847638562321663
8.0,0.017812123522162437
9.0,0.017199251800775528
10.0,0.016619717702269554
11.0,0.0160785261541605
12.0,0.01555858738720417
13.0,0.015049301087856293
14.0,0.014537467621266842
15.0,0.014094110578298569
16.0,0.013689595274627209
18.0,0.01296804379671812
20.0,0.012420037761330605
22.0,0.011977282352745533
24.0,0.011583141051232815
26.0,0.011221126653254032
28.0,0.010921241715550423
30.0,0.010624144226312637
32.0,0.010302760638296604
36.0,0.009668372571468353
40.0,0.009168406017124653
44.0,0.008656010031700134
48.0,0.008150716312229633
52.0,0.007684109266847372
56.0,0.007425914518535137
60.0,0.007114808540791273
64.0,0.006833139806985855
72.0,0.005923926830291748
80.0,0.00513688288629055
88.0,0.004764568991959095
96.0,0.004562674555927515
104.0,0.004369012545794249
112.0,0.004367212764918804
120.0,0.004295703489333391
128.0,0.004225388169288635
144.0,0.004074697848409414
160.0,0.0036336821503937244
176.0,0.003036792390048504
192.0,0.002905892673879862
208.0,0.0026637311093509197
224.0,0.0017882265383377671
240.0,0.000931575137656182
256.0,0.00097768590785563
288.0,0.0001115308768930845
320.0,-0.00018676425679586828
352.0,-0.0006629166891798377
384.0,-0.0004962632083334029
416.0,-0.0002803430543281138
448.0,-0.00019101155339740217
480.0,0.0002352963638259098
512.0,0.00012594986765179783
576.0,-3.524118073983118e-05
640.0,0.0007860501646064222
704.0,0.000505748379509896
768.0,0.0011472241021692753
832.0,0.001914845546707511
896.0,0.0014006701530888677
960.0,0.0006995205185376108
1024.0,0.000574922130908817
1152.0,-0.0003106370859313756
1280.0,-0.00103392219170928
1408.0,-0.0015133407432585955
1536.0,-0.000258304993622005
1664.0,-0.00028342712903395295
1792.0,-0.0007849206449463964
1920.0,4.139548764214851e-05
2048.0,-0.0005196483107283711
2304.0,-0.0009377761743962765
2560.0,-0.0007082612719386816
2816.0,-0.001861943630501628
3072.0,-0.0012819531839340925
3328.0,-0.00115204940084368
3584.0,-0.0007698496920056641
3840.0,0.0005968238110654056
4096.0,0.0012155058793723583
4608.0,0.0009112988482229412
5120.0,0.000755057146307081
5632.0,0.00019526512187439948
6144.0,0.0004847056698054075
6656.0,0.00023057375801727176
7168.0,-0.0004609898023772985
7680.0,-0.0025433464907109737
8192.0,-0.0014023681869730353
end
