version,3.0
numOfCh,1
type,point
parent_name,34766_0dot6-0dot01
ch_type,1_1
kcount,1
numberNandB,1
brightnessNandB,1
carpet pos,0
pc,0
Time (ms),CH1 Auto-Correlation
1.0,0.023998206481337547
2.0,0.022889409214258194
3.0,0.021875223144888878
4.0,0.020932849496603012
5.0,0.020080434158444405
6.0,0.019272567704319954
7.0,0.01854579523205757
8.0,0.017855891957879066
9.0,0.017186511307954788
10.0,0.016581105068325996
11.0,0.01601029932498932
12.0,0.015493446961045265
13.0,0.015031920745968819
14.0,0.014597159810364246
15.0,0.014149567112326622
16.0,0.013711828738451004
18.0,0.01289660856127739
20.0,0.012203141115605831
22.0,0.011649196967482567
24.0,0.011173877865076065
26.0,0.0107193598523736
28.0,0.010306852869689465
30.0,0.009904746897518635
32.0,0.009569644927978516
36.0,0.008958831429481506
40.0,0.008421648293733597
44.0,0.00797395408153534
48.0,0.007628267630934715
52.0,0.007326154038310051
56.0,0.007183253299444914
60.0,0.007009904831647873
64.0,0.006784101016819477
72.0,0.006067553069442511
80.0,0.005229733884334564
88.0,0.004503163043409586
96.0,0.004205034580081701
104.0,0.004140566103160381
112.0,0.003763664746657014
120.0,0.0034681730903685093
128.0,0.0034970890264958143
144.0,0.0032201262656599283
160.0,0.003664239775389433
176.0,0.0042307423427701
192.0,0.003781203180551529
208.0,0.00301515799947083
224.0,0.002765284851193428
240.0,0.002737337024882436
256.0,0.002741557313129306
288.0,0.0021592972334474325
320.0,0.0018423350993543863
352.0,0.0021655913442373276
384.0,0.0018331963801756501
416.0,0.0019309140043333173
448.0,0.0016887508099898696
480.0,0.0005989326164126396
512.0,0.00021925197506789118
576.0,0.0009493984398432076
640.0,0.0016499359626322985
704.0,0.0008158264099620283
768.0,0.000674998911563307
832.0,0.000597689941059798
896.0,0.000461979623651132
960.0,0.0018006705213338137
1024.0,0.0030550609808415174
1152.0,0.0010895536979660392
1280.0,0.0002916995726991445
1408.0,4.4190594053361565e-05
1536.0,-0.002731553977355361
1664.0,-0.0015859454870224
1792.0,0.0004993051406927407
1920.0,0.00021455774549394846
2048.0,0.0003568673855625093
2304.0,0.00046218710485845804
2560.0,-0.001235910807736218
2816.0,-0.00042813774780370295
3072.0,0.0014215954579412937
3328.0,0.00129557098262012
3584.0,-0.0006775165093131363
3840.0,-0.001137541956268251
4096.0,0.0010049677221104503
4608.0,-0.0015687027480453253
5120.0,-0.0006674277829006314
5632.0,-0.0008931482443585992
6144.0,-0.0005254657007753849
6656.0,-0.0017575742676854134
7168.0,-0.002374220173805952
7680.0,-0.0014107943279668689
8192.0,-0.0030887050088495016
end
