version,3.0
numOfCh,1
type,point
parent_name,34766_0dot6-0dot01
ch_type,1_1
kcount,1
numberNandB,1
brightnessNandB,1
carpet pos,0
pc,0
Time (ms),CH1 Auto-Correlation
1.0,0.042312294244766235
2.0,0.04126331955194473
3.0,0.04031064733862877
4.0,0.039436373859643936
5.0,0.03862433508038521
6.0,0.0378914549946785
7.0,0.03719611093401909
8.0,0.036538828164339066
9.0,0.03588946536183357
10.0,0.035246510058641434
11.0,0.03466513752937317
12.0,0.03411032631993294
13.0,0.0335761196911335
14.0,0.033090971410274506
15.0,0.03262690454721451
16.0,0.03218204900622368
18.0,0.03136274591088295
20.0,0.030638400465250015
22.0,0.029973002150654793
24.0,0.029356932267546654
26.0,0.02879432402551174
28.0,0.02836563251912594
30.0,0.027989620342850685
32.0,0.027639789506793022
36.0,0.02692231349647045
40.0,0.026268362998962402
44.0,0.02555648423731327
48.0,0.024901945143938065
52.0,0.024271387606859207
56.0,0.023596519604325294
60.0,0.02294369973242283
64.0,0.022540800273418427
72.0,0.02173098549246788
80.0,0.020707691088318825
88.0,0.0200534425675869
96.0,0.019695758819580078
104.0,0.01949557662010193
112.0,0.019137710332870483
120.0,0.01875217631459236
128.0,0.018227877095341682
144.0,0.017383141443133354
160.0,0.016457408666610718
176.0,0.015852592885494232
192.0,0.015297375619411469
208.0,0.014980974607169628
224.0,0.014862493611872196
240.0,0.0141934584826231
256.0,0.013572386465966702
288.0,0.013198304921388626
320.0,0.012465571984648705
352.0,0.01252491120249033
384.0,0.012118873186409473
416.0,0.012204375118017197
448.0,0.012411598116159439
480.0,0.01190090924501419
512.0,0.010426518507301807
576.0,0.010223756544291973
640.0,0.00918977428227663
704.0,0.00785287655889988
768.0,0.007847310043871403
832.0,0.00756659684702754
896.0,0.0068350667133927345
960.0,0.006442819256335497
1024.0,0.005754752084612846
1152.0,0.005701851565390825
1280.0,0.004129162058234215
1408.0,0.00390302250161767
1536.0,0.0036482741124927998
1664.0,0.0022251636255532503
1792.0,0.0036991832312196493
1920.0,0.0021088230423629284
2048.0,0.001917550340294838
2304.0,0.003382469527423382
2560.0,0.005179439205676317
2816.0,0.004547152202576399
3072.0,0.0031095787417143583
3328.0,0.004793358966708183
3584.0,0.007134018931537867
3840.0,0.0026545124128460884
4096.0,-7.678167457925156e-05
4608.0,-0.000554328435100615
5120.0,0.001943224691785872
5632.0,0.0017424861434847116
6144.0,-0.000673855422064662
6656.0,-0.0029209908097982407
7168.0,-0.00479646073654294
7680.0,-0.005361743271350861
8192.0,-0.0027195687871426344
end
