version,3.0
numOfCh,1
type,point
parent_name,34766_0dot6-0dot01
ch_type,1_1
kcount,1
numberNandB,1
brightnessNandB,1
carpet pos,0
pc,0
Time (ms),CH1 Auto-Correlation
1.0,0.2560965418815613
2.0,0.2547852396965027
3.0,0.25352299213409424
4.0,0.25235387682914734
5.0,0.2512155771255493
6.0,0.2501510679721832
7.0,0.2491331398487091
8.0,0.2481127381324768
9.0,0.2471388280391693
10.0,0.24623194336891174
11.0,0.2453293651342392
12.0,0.24439334869384766
13.0,0.2435230165719986
14.0,0.24267993867397308
15.0,0.2418210506439209
16.0,0.24106289446353912
18.0,0.23973454535007477
20.0,0.2384575754404068
22.0,0.23712296783924103
24.0,0.23582449555397034
26.0,0.23455668985843658
28.0,0.23320254683494568
30.0,0.23198643326759338
32.0,0.23092077672481537
36.0,0.2291821837425232
40.0,0.22733156383037567
44.0,0.22523999214172363
48.0,0.22322845458984375
52.0,0.22106891870498657
56.0,0.21886347234249115
60.0,0.21668122708797455
64.0,0.21491463482379913
72.0,0.2112337052822113
80.0,0.20713141560554504
88.0,0.20381739735603333
96.0,0.20019681751728058
104.0,0.19614066183567047
112.0,0.1930387169122696
120.0,0.1896412968635559
128.0,0.18669477105140686
144.0,0.18059180676937103
160.0,0.171225443482399
176.0,0.16212454438209534
192.0,0.154033362865448
208.0,0.14584383368492126
224.0,0.13839562237262726
240.0,0.131843701004982
256.0,0.12570323050022125
288.0,0.11593341827392578
320.0,0.10945622622966766
352.0,0.104435496032238
384.0,0.10447914898395538
416.0,0.10323745757341385
448.0,0.10340925306081772
480.0,0.1036921814084053
512.0,0.1001100018620491
576.0,0.0968022495508194
640.0,0.08591296523809433
704.0,0.06614378094673157
768.0,0.059266138821840286
832.0,0.059190306812524796
896.0,0.06237729266285896
960.0,0.07220102846622467
1024.0,0.0846693217754364
1152.0,0.08928292244672775
1280.0,0.08721834421157837
1408.0,0.08069488406181335
1536.0,0.07909717410802841
1664.0,0.06477295607328415
1792.0,0.0509919635951519
1920.0,0.02548179216682911
2048.0,0.0056882151402533054
2304.0,0.0013433268759399652
2560.0,0.0001928509009303525
2816.0,-0.005599401891231537
3072.0,-0.007720203138887882
3328.0,-0.01121332123875618
3584.0,-0.009065475314855576
3840.0,-0.01385318860411644
4096.0,-0.020355481654405594
4608.0,-0.027032986283302307
5120.0,-0.030157694593071938
5632.0,-0.037400707602500916
6144.0,-0.04017508029937744
6656.0,-0.06384574621915817
7168.0,-0.049729783087968826
7680.0,-0.06463170051574707
8192.0,-0.07242707908153534
end
