version,3.0
numOfCh,1
type,point
parent_name,34766_0dot6-0dot01
ch_type,1_1
kcount,1
numberNandB,1
brightnessNandB,1
carpet pos,0
pc,0
Time (ms),CH1 Auto-Correlation
1.0,0.027381379157304764
2.0,0.02633734792470932
3.0,0.025396082550287247
4.0,0.024519048631191254
5.0,0.02369840443134308
6.0,0.02290666289627552
7.0,0.022172724828124046
8.0,0.02150091715157032
9.0,0.020898036658763885
10.0,0.02036958560347557
11.0,0.01990823820233345
12.0,0.019462088122963905
13.0,0.019030332565307617
14.0,0.018622444942593575
15.0,0.01824747584760189
16.0,0.017918430268764496
18.0,0.0172566045075655
20.0,0.016653694212436676
22.0,0.01610657386481762
24.0,0.015577971935272217
26.0,0.015079360455274582
28.0,0.01460183784365654
30.0,0.01416509598493576
32.0,0.013778356835246086
36.0,0.013090278953313828
40.0,0.012567013502120972
44.0,0.012102209031581879
48.0,0.011529221199452877
52.0,0.010991537012159824
56.0,0.010457728058099747
60.0,0.009906386025249958
64.0,0.009366622194647789
72.0,0.008591383695602417
80.0,0.00801416952162981
88.0,0.007575572468340397
96.0,0.007214098237454891
104.0,0.006747364066541195
112.0,0.0060209003277122974
120.0,0.005209614522755146
128.0,0.005051306448876858
144.0,0.004508023615926504
160.0,0.0041846479289233685
176.0,0.0037612668238580227
192.0,0.003524553496390581
208.0,0.0029534827917814255
224.0,0.0022747719194740057
240.0,0.0017084506107494235
256.0,0.0017234812257811427
288.0,0.0012078367872163653
320.0,0.0005561062716878951
352.0,0.0004393486597109586
384.0,-0.00039778792415745556
416.0,-0.0005226710927672684
448.0,-0.0008411153103224933
480.0,-4.8383299144916236e-05
512.0,0.0010979524813592434
576.0,0.002462133066728711
640.0,0.0029882171656936407
704.0,0.003495291108265519
768.0,0.001940813148394227
832.0,0.0012626193929463625
896.0,0.0016812310786917806
960.0,0.0017303717322647572
1024.0,0.0009381600539200008
1152.0,-0.0004720566503237933
1280.0,0.0008428215514868498
1408.0,0.0019570698495954275
1536.0,0.002075589494779706
1664.0,0.0005818319623358548
1792.0,-0.00015782359696459025
1920.0,0.0005307114915922284
2048.0,0.0028352830559015274
2304.0,0.0006815610686317086
2560.0,0.0004069800488650799
2816.0,0.0014532788190990686
3072.0,-0.0007981579983606935
3328.0,-0.0004143296682741493
3584.0,0.0022946924436837435
3840.0,0.0008131666691042483
4096.0,-8.049469761317596e-05
4608.0,-3.413890226511285e-05
5120.0,0.0013681631535291672
5632.0,-0.0014295567525550723
6144.0,-0.00013297598343342543
6656.0,0.00018592982087284327
7168.0,-0.001201158040203154
7680.0,-0.002431082772091031
8192.0,-0.005030451342463493
end
