version,3.0
numOfCh,1
type,point
parent_name,34766_0dot6-0dot01
ch_type,1_1
kcount,1
numberNandB,1
brightnessNandB,1
carpet pos,0
pc,0
Time (ms),CH1 Auto-Correlation
1.0,0.06390749663114548
2.0,0.06268814951181412
3.0,0.06159054860472679
4.0,0.06060461699962616
5.0,0.05965295061469078
6.0,0.05881985276937485
7.0,0.058034177869558334
8.0,0.05727146938443184
9.0,0.056527186185121536
10.0,0.055838052183389664
11.0,0.05523940175771713
12.0,0.05467233061790466
13.0,0.05409320071339607
14.0,0.05352075397968292
15.0,0.05294082313776016
16.0,0.05237742140889168
18.0,0.05109306052327156
20.0,0.04998468607664108
22.0,0.04892300069332123
24.0,0.047899868339300156
26.0,0.04689894616603851
28.0,0.04596734419465065
30.0,0.045086998492479324
32.0,0.044245824217796326
36.0,0.042589008808135986
40.0,0.04100329801440239
44.0,0.039645493030548096
48.0,0.03806673735380173
52.0,0.036412663757801056
56.0,0.034979235380887985
60.0,0.03371404856443405
64.0,0.03231187164783478
72.0,0.02973821572959423
80.0,0.027267275378108025
88.0,0.02522692270576954
96.0,0.023752257227897644
104.0,0.02255239523947239
112.0,0.021014390513300896
120.0,0.0193940382450819
128.0,0.0179231446236372
144.0,0.015173990279436111
160.0,0.013558679260313511
176.0,0.012633715756237507
192.0,0.011769258417189121
208.0,0.010854056105017662
224.0,0.01048523560166359
240.0,0.011240958236157894
256.0,0.012890295125544071
288.0,0.014391349628567696
320.0,0.013347556814551353
352.0,0.010989432223141193
384.0,0.007522348780184984
416.0,0.0040647913701832294
448.0,0.0023726269137114286
480.0,0.0006867372430860996
512.0,0.0014927396550774574
576.0,0.004731887485831976
640.0,0.004518069792538881
704.0,0.0022460860200226307
768.0,-0.000203818577574566
832.0,0.0016453039133921266
896.0,0.0018150816904380918
960.0,0.0029800429474562407
1024.0,-0.0010210471227765083
1152.0,-0.0008924590656533837
1280.0,-0.0011979083064943552
1408.0,-0.002222076989710331
1536.0,-0.0011016754433512688
1664.0,-0.0017929718596860766
1792.0,0.001158573548309505
1920.0,0.001102797337807715
2048.0,0.0004836563894059509
2304.0,-0.0004485856043174863
2560.0,0.0007257145480252802
2816.0,-0.0018249063286930323
3072.0,0.0007671683561056852
3328.0,-0.0006177522009238601
3584.0,-8.405647531617433e-05
3840.0,0.002020974177867174
4096.0,0.003359685419127345
4608.0,0.0016479340847581625
5120.0,2.804633550113067e-05
5632.0,-0.002452080836519599
6144.0,-0.0012897321721538901
6656.0,-0.0020367943216115236
7168.0,-0.00043043732875958085
7680.0,-0.0024770048912614584
8192.0,0.0045180232264101505
end
