version,3.0
numOfCh,1
type,point
parent_name,0cd20_0dot069-0dot1
ch_type,1_1
kcount,1
numberNandB,1
brightnessNandB,1
carpet pos,0
pc,0
Time (ms),CH1 Auto-Correlation
1.0,0.06571084260940552
2.0,0.06515311449766159
3.0,0.06458844244480133
4.0,0.0640311986207962
5.0,0.06355305761098862
6.0,0.06302377581596375
7.0,0.06252250075340271
8.0,0.06202217936515808
9.0,0.06149971857666969
10.0,0.061005815863609314
11.0,0.060518037527799606
12.0,0.06006746366620064
13.0,0.0596383735537529
14.0,0.05918097123503685
15.0,0.05871375650167465
16.0,0.05821489542722702
18.0,0.05728517472743988
20.0,0.05645732209086418
22.0,0.05561572313308716
24.0,0.05476290360093117
26.0,0.05399170145392418
28.0,0.053206223994493484
30.0,0.05230136588215828
32.0,0.05143227428197861
36.0,0.04980187863111496
40.0,0.048223257064819336
44.0,0.04664091765880585
48.0,0.04503900185227394
52.0,0.0436265729367733
56.0,0.042296648025512695
60.0,0.041069865226745605
64.0,0.03993235155940056
72.0,0.03788353130221367
80.0,0.03593550994992256
88.0,0.03415758162736893
96.0,0.032682061195373535
104.0,0.03126964345574379
112.0,0.02973860874772072
120.0,0.028288884088397026
128.0,0.02691124565899372
144.0,0.024230988696217537
160.0,0.021913211792707443
176.0,0.01983463019132614
192.0,0.017536867409944534
208.0,0.015218530781567097
224.0,0.013160276226699352
240.0,0.01123250275850296
256.0,0.009416516870260239
288.0,0.00592747051268816
320.0,0.0034985095262527466
352.0,0.0017242602771148086
384.0,0.0003218470374122262
416.0,-0.0014880957314744592
448.0,-0.0029532790649682283
480.0,-0.003334630746394396
512.0,-0.004793606698513031
576.0,-0.010780693963170052
640.0,-0.014410129748284817
704.0,-0.01583372987806797
768.0,-0.01496858149766922
832.0,-0.011955716647207737
896.0,-0.00977032259106636
960.0,-0.007681659422814846
1024.0,-0.005696377716958523
1152.0,-0.0003249427827540785
1280.0,0.008617892861366272
1408.0,0.009064191952347755
1536.0,0.0033657315652817488
1664.0,-0.0026056873612105846
1792.0,-0.006211249157786369
1920.0,-0.009364977478981018
2048.0,-0.010717489756643772
2304.0,-0.00108368881046772
2560.0,0.006261395290493965
2816.0,0.003940964117646217
3072.0,0.0023142192512750626
3328.0,-0.003109716111794114
3584.0,0.00020648768986575305
3840.0,0.010753375478088856
4096.0,0.003013898618519306
4608.0,-0.0030125314369797707
5120.0,-0.006275022868067026
5632.0,-0.0018359670648351312
6144.0,-0.005984860472381115
6656.0,0.0021896040998399258
7168.0,0.015601337887346745
7680.0,-0.0038409612607210875
8192.0,-0.005998642649501562
end
