version,3.0
numOfCh,1
type,point
parent_name,0cd20_0dot069-0dot1
ch_type,1_1
kcount,1
numberNandB,1
brightnessNandB,1
carpet pos,0
pc,0
Time (ms),CH1 Auto-Correlation
1.0,0.08630939573049545
2.0,0.0858101025223732
3.0,0.08532162755727768
4.0,0.08484885096549988
5.0,0.08438536524772644
6.0,0.08395334333181381
7.0,0.08350270241498947
8.0,0.08307157456874847
9.0,0.08265479654073715
10.0,0.082252137362957
11.0,0.08185335248708725
12.0,0.08145622909069061
13.0,0.08105743676424026
14.0,0.08067042380571365
15.0,0.08029234409332275
16.0,0.07992088794708252
18.0,0.0791410282254219
20.0,0.0783793181180954
22.0,0.07763990014791489
24.0,0.07690455764532089
26.0,0.07619210332632065
28.0,0.0755242109298706
30.0,0.07489398866891861
32.0,0.07427787780761719
36.0,0.07303173094987869
40.0,0.0717599168419838
44.0,0.07051065564155579
48.0,0.06934324651956558
52.0,0.06828712671995163
56.0,0.06728055328130722
60.0,0.06629195064306259
64.0,0.06536784023046494
72.0,0.06348850578069687
80.0,0.061679936945438385
88.0,0.06003133952617645
96.0,0.058515604585409164
104.0,0.05718700960278511
112.0,0.05604491010308266
120.0,0.05499282106757164
128.0,0.05400878190994263
144.0,0.05238206312060356
160.0,0.050976626574993134
176.0,0.04950844123959541
192.0,0.04807363450527191
208.0,0.047049395740032196
224.0,0.046148549765348434
240.0,0.04554985091090202
256.0,0.045152876526117325
288.0,0.042565565556287766
320.0,0.03901482746005058
352.0,0.03730468824505806
384.0,0.036881715059280396
416.0,0.036902882158756256
448.0,0.036202918738126755
480.0,0.03565472364425659
512.0,0.0349397286772728
576.0,0.03241690248250961
640.0,0.03305638208985329
704.0,0.034294113516807556
768.0,0.032531656324863434
832.0,0.02935059741139412
896.0,0.026204900816082954
960.0,0.025067918002605438
1024.0,0.02277376316487789
1152.0,0.016493476927280426
1280.0,0.006739333271980286
1408.0,0.0008639271836727858
1536.0,0.0001391491387039423
1664.0,0.00258538406342268
1792.0,0.0017344884108752012
1920.0,-0.004928944632411003
2048.0,-0.006183917634189129
2304.0,-0.002406496088951826
2560.0,-0.005604460835456848
2816.0,0.0021927431225776672
3072.0,0.0022896125447005033
3328.0,0.007402374874800444
3584.0,0.002648797584697604
3840.0,-0.0023007476702332497
4096.0,-0.0005437983199954033
4608.0,-0.008697767741978168
5120.0,-0.017479322850704193
5632.0,-0.026209384202957153
6144.0,-0.0312923900783062
6656.0,-0.022301694378256798
7168.0,-0.0066300383768975735
7680.0,0.012212937697768211
8192.0,0.018382856622338295
end
