version,3.0
numOfCh,1
type,point
parent_name,0cd20_0dot069-0dot1
ch_type,1_1
kcount,1
numberNandB,1
brightnessNandB,1
carpet pos,0
pc,0
Time (ms),CH1 Auto-Correlation
1.0,0.05840113013982773
2.0,0.057882994413375854
3.0,0.05738275125622749
4.0,0.05689578130841255
5.0,0.056378163397312164
6.0,0.0558944009244442
7.0,0.0553898960351944
8.0,0.05489162728190422
9.0,0.05441877245903015
10.0,0.05397399887442589
11.0,0.05351142957806587
12.0,0.0530521459877491
13.0,0.05257997289299965
14.0,0.05211663991212845
15.0,0.05170133709907532
16.0,0.051283665001392365
18.0,0.050406333059072495
20.0,0.04956967383623123
22.0,0.048775117844343185
24.0,0.04803027957677841
26.0,0.04728960990905762
28.0,0.04654825106263161
30.0,0.04579005017876625
32.0,0.045027364045381546
36.0,0.043564941734075546
40.0,0.042153771966695786
44.0,0.040740981698036194
48.0,0.0393868163228035
52.0,0.038012996315956116
56.0,0.03664253279566765
60.0,0.03537696227431297
64.0,0.03425993397831917
72.0,0.03221004456281662
80.0,0.03044767677783966
88.0,0.028783457353711128
96.0,0.027358373627066612
104.0,0.026200123131275177
112.0,0.025335188955068588
120.0,0.024520764127373695
128.0,0.0237108301371336
144.0,0.022170787677168846
160.0,0.020885562524199486
176.0,0.01957758516073227
192.0,0.01879729889333248
208.0,0.017970910295844078
224.0,0.016955962404608727
240.0,0.016258515417575836
256.0,0.015393317677080631
288.0,0.012796218506991863
320.0,0.009350284934043884
352.0,0.005678317975252867
384.0,0.002575095510110259
416.0,0.0005067024030722678
448.0,-0.00020160205895081162
480.0,-0.0011755269952118397
512.0,-0.0027617327868938446
576.0,-0.005601836834102869
640.0,-0.008433344773948193
704.0,-0.009808870032429695
768.0,-0.009498466737568378
832.0,-0.011452019214630127
896.0,-0.013990241102874279
960.0,-0.011456956155598164
1024.0,-0.0073605794459581375
1152.0,-0.006085056811571121
1280.0,-0.0064259921200573444
1408.0,-0.008922294713556767
1536.0,-0.007275515701621771
1664.0,-0.0059170909225940704
1792.0,-0.0054168798960745335
1920.0,-0.00561993382871151
2048.0,-0.0031213639304041862
2304.0,0.0032145408913493156
2560.0,0.006154753267765045
2816.0,0.007542609702795744
3072.0,0.004312794655561447
3328.0,0.0023189038038253784
3584.0,-0.005707711447030306
3840.0,-0.00626927288249135
4096.0,-0.005616280250251293
4608.0,-0.0013528771232813597
5120.0,0.010158861055970192
5632.0,0.004823486786335707
6144.0,-0.0019225612049922347
6656.0,-0.012787594459950924
7168.0,-0.0034039365127682686
7680.0,0.005126870237290859
8192.0,0.01547454483807087
end
