version,3.0
numOfCh,1
type,point
parent_name,0cd20_0dot069-0dot1
ch_type,1_1
kcount,1
numberNandB,1
brightnessNandB,1
carpet pos,0
pc,0
Time (ms),CH1 Auto-Correlation
1.0,0.061907172203063965
2.0,0.06135733798146248
3.0,0.06087459996342659
4.0,0.06038564443588257
5.0,0.05993029847741127
6.0,0.059487320482730865
7.0,0.059092652052640915
8.0,0.05868147686123848
9.0,0.05825561285018921
10.0,0.05786146596074104
11.0,0.057464100420475006
12.0,0.05705729499459267
13.0,0.05665839463472366
14.0,0.05627170205116272
15.0,0.055886298418045044
16.0,0.05551119148731232
18.0,0.05476059392094612
20.0,0.05404255911707878
22.0,0.05337963253259659
24.0,0.052757102996110916
26.0,0.05214038863778114
28.0,0.05156397074460983
30.0,0.051048096269369125
32.0,0.05053486302495003
36.0,0.049625687301158905
40.0,0.048760563135147095
44.0,0.04796116426587105
48.0,0.04717807099223137
52.0,0.04638431593775749
56.0,0.045684684067964554
60.0,0.04505087807774544
64.0,0.044449348002672195
72.0,0.04331693425774574
80.0,0.04207010939717293
88.0,0.040870338678359985
96.0,0.03973310813307762
104.0,0.0388902872800827
112.0,0.03803616017103195
120.0,0.037105217576026917
128.0,0.03612327203154564
144.0,0.03373399376869202
160.0,0.03131222724914551
176.0,0.029461044818162918
192.0,0.027796654030680656
208.0,0.02610667236149311
224.0,0.02466384880244732
240.0,0.023374121636152267
256.0,0.021764952689409256
288.0,0.01866537146270275
320.0,0.0164475254714489
352.0,0.013771257363259792
384.0,0.01198216900229454
416.0,0.0094742551445961
448.0,0.00655746553093195
480.0,0.005320176016539335
512.0,0.0045655956491827965
576.0,0.005570869892835617
640.0,0.006128710228949785
704.0,0.006979621015489101
768.0,0.005882566794753075
832.0,0.006794751156121492
896.0,0.007455202750861645
960.0,0.01015945803374052
1024.0,0.01191595196723938
1152.0,0.013300182297825813
1280.0,0.011801166459918022
1408.0,0.008777950890362263
1536.0,0.002956751035526395
1664.0,-0.0006492352695204318
1792.0,-0.0013886989327147603
1920.0,-0.004092372953891754
2048.0,-0.003351592691615224
2304.0,-0.004755184054374695
2560.0,-0.007002481259405613
2816.0,-0.00941941887140274
3072.0,-0.00400494085624814
3328.0,-0.0072443606331944466
3584.0,-0.012384846806526184
3840.0,-0.008356664329767227
4096.0,-0.006250442937016487
4608.0,-0.011178174056112766
5120.0,-0.008839130401611328
5632.0,-0.010995411314070225
6144.0,-0.003785362932831049
6656.0,0.00030315175536088645
7168.0,0.007738310843706131
7680.0,-0.000740452844183892
8192.0,0.008480329066514969
end
