version,3.0
numOfCh,1
type,point
parent_name,0cd20_0dot069-0dot1
ch_type,1_1
kcount,1
numberNandB,1
brightnessNandB,1
carpet pos,0
pc,0
Time (ms),CH1 Auto-Correlation
1.0,0.08361120522022247
2.0,0.08299154788255692
3.0,0.08239832520484924
4.0,0.08181940764188766
5.0,0.08123158663511276
6.0,0.08064959943294525
7.0,0.08011222630739212
8.0,0.07957590371370316
9.0,0.07903952151536942
10.0,0.07851997017860413
11.0,0.07801125943660736
12.0,0.07751554995775223
13.0,0.07702722400426865
14.0,0.07658495008945465
15.0,0.07614778727293015
16.0,0.07571262121200562
18.0,0.07484441250562668
20.0,0.07396940886974335
22.0,0.07307403534650803
24.0,0.0721529871225357
26.0,0.07123391330242157
28.0,0.07036267966032028
30.0,0.0695599690079689
32.0,0.06880154460668564
36.0,0.06753267347812653
40.0,0.06649797409772873
44.0,0.06556764990091324
48.0,0.06462733447551727
52.0,0.06372693181037903
56.0,0.06278696656227112
60.0,0.061759788542985916
64.0,0.06073106825351715
72.0,0.05876617506146431
80.0,0.056724678725004196
88.0,0.05465798079967499
96.0,0.05290858820080757
104.0,0.05125986784696579
112.0,0.04980524629354477
120.0,0.048257503658533096
128.0,0.046628437936306
144.0,0.04359881579875946
160.0,0.040343597531318665
176.0,0.03772745281457901
192.0,0.03585760295391083
208.0,0.03398512676358223
224.0,0.031911514699459076
240.0,0.029466792941093445
256.0,0.027204738929867744
288.0,0.025867119431495667
320.0,0.025387700647115707
352.0,0.02547590434551239
384.0,0.025551293045282364
416.0,0.02554568275809288
448.0,0.026263125240802765
480.0,0.027274273335933685
512.0,0.02763242833316326
576.0,0.024961479008197784
640.0,0.020706241950392723
704.0,0.01844683848321438
768.0,0.016249235719442368
832.0,0.016230180859565735
896.0,0.01574193872511387
960.0,0.016774941235780716
1024.0,0.01801176182925701
1152.0,0.018831027671694756
1280.0,0.016799068078398705
1408.0,0.012288295663893223
1536.0,0.00852927565574646
1664.0,0.00585390767082572
1792.0,0.001808666973374784
1920.0,-0.005998494103550911
2048.0,-0.013454925268888474
2304.0,-0.010994600132107735
2560.0,-0.010298246517777443
2816.0,-0.010375911369919777
3072.0,-0.010101942345499992
3328.0,-0.010623008012771606
3584.0,-0.006048995070159435
3840.0,-0.004813456907868385
4096.0,-0.015561433508992195
4608.0,-0.00366526679135859
5120.0,-0.006040431093424559
5632.0,-0.01613903045654297
6144.0,0.0024415445514023304
6656.0,-0.00786598026752472
7168.0,-0.005968277808278799
7680.0,0.004009975586086512
8192.0,-0.008130891248583794
end
