version,3.0
numOfCh,1
type,point
parent_name,0cd20_0dot069-0dot1
ch_type,1_1
kcount,1
numberNandB,1
brightnessNandB,1
carpet pos,0
pc,0
Time (ms),CH1 Auto-Correlation
1.0,0.05192290619015694
2.0,0.051436956971883774
3.0,0.050967130810022354
4.0,0.050479814410209656
5.0,0.05001160874962807
6.0,0.04954884201288223
7.0,0.049081653356552124
8.0,0.048629648983478546
9.0,0.048192448914051056
10.0,0.04776298627257347
11.0,0.04734889790415764
12.0,0.04694205895066261
13.0,0.04655664041638374
14.0,0.04618258774280548
15.0,0.045819640159606934
16.0,0.04548654705286026
18.0,0.04482826963067055
20.0,0.04416506364941597
22.0,0.043489329516887665
24.0,0.042815305292606354
26.0,0.04214769974350929
28.0,0.04150799661874771
30.0,0.04088824614882469
32.0,0.04028406739234924
36.0,0.03910260647535324
40.0,0.03790999948978424
44.0,0.036787036806344986
48.0,0.03575994074344635
52.0,0.03474404290318489
56.0,0.033686134964227676
60.0,0.03262706100940704
64.0,0.03160109743475914
72.0,0.029553597792983055
80.0,0.027515392750501633
88.0,0.025729993358254433
96.0,0.02417554147541523
104.0,0.022625060752034187
112.0,0.021241407841444016
120.0,0.019734257832169533
128.0,0.01830299012362957
144.0,0.015764812007546425
160.0,0.014003623276948929
176.0,0.01267791073769331
192.0,0.011622925288975239
208.0,0.010846917517483234
224.0,0.010114523582160473
240.0,0.009514657780528069
256.0,0.009451337158679962
288.0,0.010146776214241982
320.0,0.010115065611898899
352.0,0.01022221427410841
384.0,0.009898655116558075
416.0,0.00926728080958128
448.0,0.0080938171595335
480.0,0.006734429392963648
512.0,0.005086506716907024
576.0,0.004290241748094559
640.0,0.005606030113995075
704.0,0.006346522364765406
768.0,0.005602156277745962
832.0,0.005628048907965422
896.0,0.004954199306666851
960.0,0.004432974383234978
1024.0,0.004972465801984072
1152.0,0.007326832041144371
1280.0,0.007517558056861162
1408.0,0.00869636982679367
1536.0,0.00904003530740738
1664.0,0.007227716967463493
1792.0,0.0024742959067225456
1920.0,0.007771793752908707
2048.0,0.010925925336778164
2304.0,0.012588610872626305
2560.0,0.009180726483464241
2816.0,-0.0010187756270170212
3072.0,0.0002852230682037771
3328.0,0.005140228662639856
3584.0,0.004868908319622278
3840.0,0.0011511800112202764
4096.0,0.0011263053165748715
4608.0,0.0023387030232697725
5120.0,-0.007120723836123943
5632.0,-0.005343314725905657
6144.0,-0.0065284473821520805
6656.0,-0.008782879449427128
7168.0,-0.00858642254024744
7680.0,-0.009863103739917278
8192.0,-0.011570754460990429
end
