version,3.0
numOfCh,1
type,point
parent_name,0cd20_0dot069-0dot1
ch_type,1_1
kcount,1
numberNandB,1
brightnessNandB,1
carpet pos,0
pc,0
Time (ms),CH1 Auto-Correlation
1.0,0.15179531276226044
2.0,0.14798419177532196
3.0,0.144404336810112
4.0,0.14098875224590302
5.0,0.13757914304733276
6.0,0.13416805863380432
7.0,0.13084359467029572
8.0,0.12765559554100037
9.0,0.12442321330308914
10.0,0.12154707312583923
11.0,0.11903290450572968
12.0,0.1168191060423851
13.0,0.11484967172145844
14.0,0.11327910423278809
15.0,0.1118527501821518
16.0,0.11051896214485168
18.0,0.10889218747615814
20.0,0.10704021900892258
22.0,0.10464674234390259
24.0,0.10264728218317032
26.0,0.1008787453174591
28.0,0.09904415160417557
30.0,0.0969853550195694
32.0,0.09414151310920715
36.0,0.08767567574977875
40.0,0.08095390349626541
44.0,0.0751228854060173
48.0,0.07078757137060165
52.0,0.06685269623994827
56.0,0.0633358284831047
60.0,0.061555370688438416
64.0,0.060273677110672
72.0,0.05714991316199303
80.0,0.0524589903652668
88.0,0.04753825441002846
96.0,0.04547290876507759
104.0,0.04968789592385292
112.0,0.05232665315270424
120.0,0.04933976009488106
128.0,0.04853885993361473
144.0,0.04824090749025345
160.0,0.04076409712433815
176.0,0.03915322944521904
192.0,0.03866279497742653
208.0,0.036154214292764664
224.0,0.03649414703249931
240.0,0.03263363242149353
256.0,0.031994208693504333
288.0,0.025031961500644684
320.0,0.02162942849099636
352.0,0.016872534528374672
384.0,0.007978513836860657
416.0,0.0011369185522198677
448.0,-0.0029570949263870716
480.0,-0.010687320493161678
512.0,-0.019799795001745224
576.0,-0.022097963839769363
640.0,-0.020637614652514458
704.0,-0.01826459914445877
768.0,-0.020341167226433754
832.0,-0.020624076947569847
896.0,-0.0161215141415596
960.0,-0.016591431573033333
1024.0,-0.011642539873719215
1152.0,0.00039721938082948327
1280.0,0.010631410405039787
1408.0,0.018661679700016975
1536.0,0.02399950474500656
1664.0,0.01639115810394287
1792.0,0.010365571826696396
1920.0,0.004256748128682375
2048.0,-0.002572730416432023
2304.0,-0.007596534211188555
2560.0,-0.009830993600189686
2816.0,-0.013619608245790005
3072.0,-0.0050206733867526054
3328.0,-0.013401106931269169
3584.0,-0.013453074730932713
3840.0,0.003207435365766287
4096.0,-0.003716209437698126
4608.0,0.010718739591538906
5120.0,-0.01841139793395996
5632.0,-0.030329974368214607
6144.0,0.036311808973550797
6656.0,-0.012197415344417095
7168.0,-0.06074356287717819
7680.0,0.0699349120259285
8192.0,-0.014654014259576797
end
