version,3.0
numOfCh,1
type,point
parent_name,0cd20_0dot069-0dot1
ch_type,1_1
kcount,1
numberNandB,1
brightnessNandB,1
carpet pos,0
pc,0
Time (ms),CH1 Auto-Correlation
1.0,0.0738060474395752
2.0,0.07299228012561798
3.0,0.07218334823846817
4.0,0.07140980660915375
5.0,0.07073090970516205
6.0,0.07007084041833878
7.0,0.0694587454199791
8.0,0.06886738538742065
9.0,0.06828437745571136
10.0,0.06777071207761765
11.0,0.06717436760663986
12.0,0.06661111861467361
13.0,0.06613551080226898
14.0,0.06566398590803146
15.0,0.06517250835895538
16.0,0.06468229740858078
18.0,0.06391459703445435
20.0,0.06313735991716385
22.0,0.062238384038209915
24.0,0.06147636100649834
26.0,0.06065811589360237
28.0,0.059725321829319
30.0,0.058759741485118866
32.0,0.05781104788184166
36.0,0.05599428340792656
40.0,0.054419368505477905
44.0,0.05332792550325394
48.0,0.05220617353916168
52.0,0.05087210610508919
56.0,0.0496232695877552
60.0,0.04882761836051941
64.0,0.047968845814466476
72.0,0.04607724770903587
80.0,0.044394176453351974
88.0,0.042695414274930954
96.0,0.04091772064566612
104.0,0.03944745287299156
112.0,0.03787411376833916
120.0,0.03587251156568527
128.0,0.03423670679330826
144.0,0.030990272760391235
160.0,0.028297800570726395
176.0,0.02611033245921135
192.0,0.024341383948922157
208.0,0.02277444861829281
224.0,0.021113602444529533
240.0,0.01915747858583927
256.0,0.017270706593990326
288.0,0.01401718519628048
320.0,0.009934065863490105
352.0,0.007548607420176268
384.0,0.004674156196415424
416.0,0.0014580594142898917
448.0,-0.001452965778298676
480.0,-0.003540339646860957
512.0,-0.005717740394175053
576.0,-0.010198746807873249
640.0,-0.01218999084085226
704.0,-0.014837197959423065
768.0,-0.01646803319454193
832.0,-0.01808832585811615
896.0,-0.019824771210551262
960.0,-0.01750262826681137
1024.0,-0.013910647481679916
1152.0,-0.005658791400492191
1280.0,-0.003166653448715806
1408.0,-0.0007191040785983205
1536.0,0.006479785777628422
1664.0,0.009539746679365635
1792.0,0.01233331486582756
1920.0,0.018156740814447403
2048.0,0.011950950138270855
2304.0,-0.0036750338040292263
2560.0,-0.01382936630398035
2816.0,-0.007687418255954981
3072.0,0.0003406345203984529
3328.0,0.0072563411667943
3584.0,0.00578133761882782
3840.0,0.0013308067573234439
4096.0,-0.0031574617605656385
4608.0,-0.0057961605489254
5120.0,-0.0031457259319722652
5632.0,-0.004864380229264498
6144.0,0.003992730285972357
6656.0,-0.013321144506335258
7168.0,-0.000391179695725441
7680.0,0.005348586943000555
8192.0,-0.0011240402236580849
end
