version,3.0
numOfCh,1
type,point
parent_name,0cd20_0dot069-0dot1
ch_type,1_1
kcount,1
numberNandB,1
brightnessNandB,1
carpet pos,0
pc,0
Time (ms),CH1 Auto-Correlation
1.0,0.08975234627723694
2.0,0.0886068046092987
3.0,0.08749018609523773
4.0,0.08649705350399017
5.0,0.08550041168928146
6.0,0.08452416211366653
7.0,0.0835895910859108
8.0,0.08277605473995209
9.0,0.0820227563381195
10.0,0.08130566775798798
11.0,0.08051608502864838
12.0,0.07979729771614075
13.0,0.07903329282999039
14.0,0.07831133902072906
15.0,0.0777023583650589
16.0,0.07707483321428299
18.0,0.07592153549194336
20.0,0.07488677650690079
22.0,0.07389368861913681
24.0,0.07271571457386017
26.0,0.07153002172708511
28.0,0.07043839991092682
30.0,0.06926701217889786
32.0,0.06812021881341934
36.0,0.0660489946603775
40.0,0.06407108157873154
44.0,0.06224947050213814
48.0,0.060828227549791336
52.0,0.05966166779398918
56.0,0.058424629271030426
60.0,0.05729956552386284
64.0,0.05594075471162796
72.0,0.05364161729812622
80.0,0.0514744333922863
88.0,0.0498536042869091
96.0,0.048584822565317154
104.0,0.046978313475847244
112.0,0.04563021659851074
120.0,0.04467308893799782
128.0,0.04340437799692154
144.0,0.04103560000658035
160.0,0.0387900210916996
176.0,0.03735966980457306
192.0,0.03660944849252701
208.0,0.03694356605410576
224.0,0.03664179518818855
240.0,0.03482010215520859
256.0,0.03226263448596001
288.0,0.029149264097213745
320.0,0.02863401174545288
352.0,0.029047777876257896
384.0,0.028862157836556435
416.0,0.029304131865501404
448.0,0.03045380488038063
480.0,0.026050379499793053
512.0,0.02167537435889244
576.0,0.017686549574136734
640.0,0.013175703585147858
704.0,0.014237047173082829
768.0,0.012309550307691097
832.0,0.010396897792816162
896.0,0.007399081718176603
960.0,0.004422448109835386
1024.0,0.00047259742859750986
1152.0,-0.00339944614097476
1280.0,-0.0011430735467001796
1408.0,-0.003621147247031331
1536.0,-0.007791135925799608
1664.0,-0.005952020641416311
1792.0,-0.003903909120708704
1920.0,-0.004302071873098612
2048.0,-0.005188035313040018
2304.0,0.003543610218912363
2560.0,0.009936898946762085
2816.0,0.008557604625821114
3072.0,0.004800210706889629
3328.0,0.0019164342666044831
3584.0,-0.007139122113585472
3840.0,-0.010823903605341911
4096.0,-0.015206759795546532
4608.0,-0.016879083588719368
5120.0,-0.0056044599041342735
5632.0,0.006833222229033709
6144.0,0.012671942822635174
6656.0,-0.007190191652625799
7168.0,-0.021701762452721596
7680.0,-0.030111301690340042
8192.0,-0.02044445089995861
end
