version,3.0
numOfCh,1
type,point
parent_name,0cd20_0dot069-0dot1
ch_type,1_1
kcount,1
numberNandB,1
brightnessNandB,1
carpet pos,0
pc,0
Time (ms),CH1 Auto-Correlation
1.0,0.08353164792060852
2.0,0.08300448954105377
3.0,0.08250486105680466
4.0,0.0820220410823822
5.0,0.08153823763132095
6.0,0.08106105029582977
7.0,0.0805995762348175
8.0,0.08014095574617386
9.0,0.07970947027206421
10.0,0.07927240431308746
11.0,0.07885503768920898
12.0,0.07843736559152603
13.0,0.07804621756076813
14.0,0.0776328593492508
15.0,0.07723160833120346
16.0,0.07683026045560837
18.0,0.07604452967643738
20.0,0.07524047791957855
22.0,0.07447633892297745
24.0,0.0737486183643341
26.0,0.07306887954473495
28.0,0.0723714679479599
30.0,0.07168205827474594
32.0,0.0710148811340332
36.0,0.06972049921751022
40.0,0.0685473158955574
44.0,0.06743946671485901
48.0,0.06635531783103943
52.0,0.06529997289180756
56.0,0.0642487108707428
60.0,0.0632416307926178
64.0,0.06227066367864609
72.0,0.060484886169433594
80.0,0.058439940214157104
88.0,0.056336864829063416
96.0,0.05444246903061867
104.0,0.052919723093509674
112.0,0.05149785056710243
120.0,0.05004320666193962
128.0,0.048480406403541565
144.0,0.04554001986980438
160.0,0.043039366602897644
176.0,0.04108670726418495
192.0,0.03954986110329628
208.0,0.03793416917324066
224.0,0.036329593509435654
240.0,0.03484733775258064
256.0,0.033440809696912766
288.0,0.03163163363933563
320.0,0.028784796595573425
352.0,0.025812983512878418
384.0,0.02372044324874878
416.0,0.022968333214521408
448.0,0.022352339699864388
480.0,0.021908940747380257
512.0,0.021791057661175728
576.0,0.0210577342659235
640.0,0.017667550593614578
704.0,0.015178023837506771
768.0,0.013297864235937595
832.0,0.012688073329627514
896.0,0.00996415875852108
960.0,0.005501949228346348
1024.0,0.0051893191412091255
1152.0,0.009030806832015514
1280.0,0.009804660454392433
1408.0,0.007938015274703503
1536.0,0.00345920049585402
1664.0,-0.002212662249803543
1792.0,-0.005740303546190262
1920.0,-0.009315179660916328
2048.0,-0.011493682861328125
2304.0,-0.023598534986376762
2560.0,-0.021608037874102592
2816.0,-0.02050546556711197
3072.0,-0.024041958153247833
3328.0,-0.016406074166297913
3584.0,-0.007688882295042276
3840.0,0.001052775769494474
4096.0,0.009872890077531338
4608.0,0.010501566343009472
5120.0,0.01176792848855257
5632.0,0.004266155883669853
6144.0,-0.01003450807183981
6656.0,-0.02237272448837757
7168.0,-0.03625136986374855
7680.0,-0.03229460120201111
8192.0,-0.012759627774357796
end
