version,3.0
numOfCh,1
type,point
parent_name,0cd20_0dot069-0dot1
ch_type,1_1
kcount,1
numberNandB,1
brightnessNandB,1
carpet pos,0
pc,0
Time (ms),CH1 Auto-Correlation
1.0,0.05274055898189545
2.0,0.052310194820165634
3.0,0.05189884826540947
4.0,0.051509201526641846
5.0,0.05113322660326958
6.0,0.05075504630804062
7.0,0.05037818104028702
8.0,0.05000099167227745
9.0,0.04962606728076935
10.0,0.04924611747264862
11.0,0.04888240247964859
12.0,0.04852384328842163
13.0,0.04818147420883179
14.0,0.047850485891103745
15.0,0.0475158616900444
16.0,0.04718771204352379
18.0,0.04655363783240318
20.0,0.0459737703204155
22.0,0.04540267586708069
24.0,0.044823724776506424
26.0,0.0442558117210865
28.0,0.043693721294403076
30.0,0.043127138167619705
32.0,0.04258549213409424
36.0,0.041501641273498535
40.0,0.04048015549778938
44.0,0.03954512998461723
48.0,0.03866828978061676
52.0,0.037840746343135834
56.0,0.03712737560272217
60.0,0.03651556000113487
64.0,0.03593127802014351
72.0,0.03505566343665123
80.0,0.034284915775060654
88.0,0.03348860889673233
96.0,0.032793156802654266
104.0,0.032028693705797195
112.0,0.03121407888829708
120.0,0.030547255650162697
128.0,0.029889851808547974
144.0,0.028398433700203896
160.0,0.02661345899105072
176.0,0.024718301370739937
192.0,0.02322477288544178
208.0,0.022317038848996162
224.0,0.02155819721519947
240.0,0.020422540605068207
256.0,0.01925882324576378
288.0,0.017693739384412766
320.0,0.016652312129735947
352.0,0.016230782493948936
384.0,0.016520794481039047
416.0,0.016727019101381302
448.0,0.016514770686626434
480.0,0.01595868542790413
512.0,0.015284356661140919
576.0,0.014960801228880882
640.0,0.014817159622907639
704.0,0.015392178669571877
768.0,0.016159091144800186
832.0,0.015345352701842785
896.0,0.013715900480747223
960.0,0.01124744862318039
1024.0,0.007698754779994488
1152.0,0.007519268896430731
1280.0,0.008968557231128216
1408.0,0.004909513518214226
1536.0,-0.0007466379320248961
1664.0,-0.003726468188688159
1792.0,-0.0033728708513081074
1920.0,0.0002103751030517742
2048.0,0.001163932029157877
2304.0,-0.008747769519686699
2560.0,-0.010863721370697021
2816.0,-0.00696965679526329
3072.0,-0.009148365817964077
3328.0,-0.00517892325296998
3584.0,-0.00745195709168911
3840.0,-0.006131654139608145
4096.0,-0.00026677423738874495
4608.0,-0.0007056184695102274
5120.0,0.0023997128009796143
5632.0,-0.0009306963183917105
6144.0,-0.004112843424081802
6656.0,-0.007336278446018696
7168.0,0.0003035882255062461
7680.0,-0.005050026811659336
8192.0,-0.009287440218031406
end
