version,3.0
numOfCh,1
type,point
parent_name,0cd20_0dot069-0dot1
ch_type,1_1
kcount,1
numberNandB,1
brightnessNandB,1
carpet pos,0
pc,0
Time (ms),CH1 Auto-Correlation
1.0,0.08239077776670456
2.0,0.08185742050409317
3.0,0.08133218437433243
4.0,0.0808165967464447
5.0,0.08032185584306717
6.0,0.07983878999948502
7.0,0.0793616771697998
8.0,0.07891178131103516
9.0,0.07847040146589279
10.0,0.07803726196289062
11.0,0.07760412991046906
12.0,0.07718600332736969
13.0,0.07678287476301193
14.0,0.07640023529529572
15.0,0.07601874321699142
16.0,0.07565081119537354
18.0,0.07493259757757187
20.0,0.0742470994591713
22.0,0.07356134802103043
24.0,0.07290944457054138
26.0,0.0722666084766388
28.0,0.07160327583551407
30.0,0.0709538459777832
32.0,0.07029066979885101
36.0,0.06902799010276794
40.0,0.06788099557161331
44.0,0.06681415438652039
48.0,0.06575104594230652
52.0,0.064690962433815
56.0,0.06361933052539825
60.0,0.06256753206253052
64.0,0.0614970363676548
72.0,0.05971665307879448
80.0,0.058366965502500534
88.0,0.05723876878619194
96.0,0.05607559159398079
104.0,0.05467895418405533
112.0,0.05308210104703903
120.0,0.051476579159498215
128.0,0.04998239502310753
144.0,0.04747115820646286
160.0,0.04514496773481369
176.0,0.043553803116083145
192.0,0.04288676753640175
208.0,0.04292333498597145
224.0,0.04260406643152237
240.0,0.04208871349692345
256.0,0.041564539074897766
288.0,0.04058096557855606
320.0,0.03960872441530228
352.0,0.03764506056904793
384.0,0.035424042493104935
416.0,0.03361186012625694
448.0,0.03347116336226463
480.0,0.03273426741361618
512.0,0.03236221894621849
576.0,0.03314787521958351
640.0,0.03293446823954582
704.0,0.031890932470560074
768.0,0.03273181617259979
832.0,0.0318974070250988
896.0,0.0310052577406168
960.0,0.02934529259800911
1024.0,0.02644863910973072
1152.0,0.02323489636182785
1280.0,0.01743386685848236
1408.0,0.016055665910243988
1536.0,0.012606569565832615
1664.0,0.012184645049273968
1792.0,0.019549420103430748
1920.0,0.022905383259058
2048.0,0.020324906334280968
2304.0,0.01033108215779066
2560.0,0.009266338311135769
2816.0,0.013550441712141037
3072.0,0.006670678965747356
3328.0,-0.004796662833541632
3584.0,-0.00830660667270422
3840.0,-0.01077509205788374
4096.0,-0.009822986088693142
4608.0,-0.021365009248256683
5120.0,-0.03101859986782074
5632.0,-0.03486420214176178
6144.0,-0.032244909554719925
6656.0,-0.026082275435328484
7168.0,-0.021579857915639877
7680.0,-0.02910912036895752
8192.0,-0.026096761226654053
end
