version,3.0
numOfCh,1
type,point
parent_name,0cd20_0dot069-0dot1
ch_type,1_1
kcount,1
numberNandB,1
brightnessNandB,1
carpet pos,0
pc,0
Time (ms),CH1 Auto-Correlation
1.0,0.05982286483049393
2.0,0.05936756357550621
3.0,0.05891266092658043
4.0,0.058470580726861954
5.0,0.058017123490571976
6.0,0.05758173391222954
7.0,0.05715043842792511
8.0,0.05672510713338852
9.0,0.056293342262506485
10.0,0.055891167372465134
11.0,0.055492013692855835
12.0,0.055090468376874924
13.0,0.054700810462236404
14.0,0.05431562289595604
15.0,0.05394245311617851
16.0,0.05356575548648834
18.0,0.05284188687801361
20.0,0.05210857093334198
22.0,0.05139975622296333
24.0,0.05070183798670769
26.0,0.0500115267932415
28.0,0.04934031888842583
30.0,0.04870005324482918
32.0,0.04807474836707115
36.0,0.04678182303905487
40.0,0.045513689517974854
44.0,0.044308118522167206
48.0,0.04316776618361473
52.0,0.04205883666872978
56.0,0.04098505526781082
60.0,0.039939701557159424
64.0,0.038948941975831985
72.0,0.03701286017894745
80.0,0.03509238734841347
88.0,0.03319782391190529
96.0,0.031444571912288666
104.0,0.030006185173988342
112.0,0.028930820524692535
120.0,0.028169311583042145
128.0,0.02746724523603916
144.0,0.02624555677175522
160.0,0.025323767215013504
176.0,0.024321982637047768
192.0,0.023303277790546417
208.0,0.022414186969399452
224.0,0.02176331728696823
240.0,0.02063208445906639
256.0,0.019565096125006676
288.0,0.018400926142930984
320.0,0.01706247590482235
352.0,0.01581481099128723
384.0,0.014500451274216175
416.0,0.013283074833452702
448.0,0.013152933679521084
480.0,0.012310001999139786
512.0,0.011507708579301834
576.0,0.009750730358064175
640.0,0.009166287258267403
704.0,0.008587585762143135
768.0,0.010401497595012188
832.0,0.013024735264480114
896.0,0.012833336368203163
960.0,0.011984637938439846
1024.0,0.01022535003721714
1152.0,0.009823699481785297
1280.0,0.009611864574253559
1408.0,0.00675944471731782
1536.0,0.006150867789983749
1664.0,0.007688281126320362
1792.0,0.005542243830859661
1920.0,0.0029713883996009827
2048.0,-0.0009557086159475148
2304.0,-0.0006708999280817807
2560.0,-0.0024369049351662397
2816.0,-0.001484875101596117
3072.0,-0.0010583505500108004
3328.0,-0.0005984659655950963
3584.0,-0.003832577494904399
3840.0,-0.004639726597815752
4096.0,-0.004926716908812523
4608.0,-0.004217557143419981
5120.0,-0.003504339838400483
5632.0,-0.005493547301739454
6144.0,0.0020626115147024393
6656.0,0.0017702506156638265
7168.0,-0.005665324628353119
7680.0,-0.002790746744722128
8192.0,-0.005016281269490719
end
