version,3.0
numOfCh,1
type,point
parent_name,0cd20_0dot069-0dot1
ch_type,1_1
kcount,1
numberNandB,1
brightnessNandB,1
carpet pos,0
pc,0
Time (ms),CH1 Auto-Correlation
1.0,0.07427474111318588
2.0,0.07384297251701355
3.0,0.0733925849199295
4.0,0.07297070324420929
5.0,0.07254782319068909
6.0,0.07214561104774475
7.0,0.07173671573400497
8.0,0.07132770121097565
9.0,0.07093403488397598
10.0,0.07053162902593613
11.0,0.07014749199151993
12.0,0.06975321471691132
13.0,0.06934335827827454
14.0,0.06892397254705429
15.0,0.06851522624492645
16.0,0.06810475885868073
18.0,0.06730552762746811
20.0,0.0665394738316536
22.0,0.06580108404159546
24.0,0.06506524980068207
26.0,0.06428539007902145
28.0,0.06350517272949219
30.0,0.06276015937328339
32.0,0.062038030475378036
36.0,0.06061410903930664
40.0,0.05925153195858002
44.0,0.05788314715027809
48.0,0.05656559765338898
52.0,0.05530485510826111
56.0,0.05408453196287155
60.0,0.05291948467493057
64.0,0.05177057906985283
72.0,0.04933720454573631
80.0,0.04697256535291672
88.0,0.0449359305202961
96.0,0.043313685804605484
104.0,0.04177343100309372
112.0,0.040372613817453384
120.0,0.03928282484412193
128.0,0.03845584765076637
144.0,0.03724747896194458
160.0,0.03631805256009102
176.0,0.03567155450582504
192.0,0.03519381955265999
208.0,0.03466698154807091
224.0,0.03397838771343231
240.0,0.03315339237451553
256.0,0.03193765878677368
288.0,0.02883494459092617
320.0,0.025260720402002335
352.0,0.023199167102575302
384.0,0.022106388583779335
416.0,0.022765491157770157
448.0,0.022809332236647606
480.0,0.020831530913710594
512.0,0.01761903613805771
576.0,0.01252695731818676
640.0,0.012912933714687824
704.0,0.014937781728804111
768.0,0.014876512810587883
832.0,0.012855646200478077
896.0,0.011034645140171051
960.0,0.010373696684837341
1024.0,0.007297297473996878
1152.0,0.004120555240660906
1280.0,0.001240050420165062
1408.0,-0.0033970484510064125
1536.0,-0.002521066227927804
1664.0,-0.0025854932609945536
1792.0,-0.0015859941486269236
1920.0,0.0005365950637497008
2048.0,0.0015199027257040143
2304.0,-0.001978393644094467
2560.0,-0.0020564787555485964
2816.0,-0.0015741087263450027
3072.0,-0.004231379367411137
3328.0,-0.01657044142484665
3584.0,-0.021551895886659622
3840.0,-0.013514946214854717
4096.0,-0.011688006110489368
4608.0,-0.0010894850129261613
5120.0,0.011081980541348457
5632.0,0.005143037997186184
6144.0,0.0029797512106597424
6656.0,0.003800499951466918
7168.0,0.006379707716405392
7680.0,-0.003197197802364826
8192.0,-0.020776137709617615
end
