version,3.0
numOfCh,1
type,point
parent_name,0cd20_0dot069-0dot1
ch_type,1_1
kcount,1
numberNandB,1
brightnessNandB,1
carpet pos,0
pc,0
Time (ms),CH1 Auto-Correlation
1.0,0.09174768626689911
2.0,0.09060096740722656
3.0,0.08951935917139053
4.0,0.08864017575979233
5.0,0.08792559057474136
6.0,0.08718852698802948
7.0,0.08651681244373322
8.0,0.08581452071666718
9.0,0.08517440408468246
10.0,0.08459549397230148
11.0,0.0840180367231369
12.0,0.0834222286939621
13.0,0.08274467289447784
14.0,0.08216019719839096
15.0,0.08165356516838074
16.0,0.08115624636411667
18.0,0.08022299408912659
20.0,0.0796227902173996
22.0,0.07890311628580093
24.0,0.07784278690814972
26.0,0.07671795040369034
28.0,0.07577414065599442
30.0,0.07507938891649246
32.0,0.07437345385551453
36.0,0.07333283126354218
40.0,0.07190000265836716
44.0,0.07079686224460602
48.0,0.06947784125804901
52.0,0.06818199157714844
56.0,0.06688611954450607
60.0,0.06565742194652557
64.0,0.06426031142473221
72.0,0.061661168932914734
80.0,0.059528548270463943
88.0,0.05717529356479645
96.0,0.05567517131567001
104.0,0.05367220193147659
112.0,0.05134992301464081
120.0,0.049115683883428574
128.0,0.046467363834381104
144.0,0.04264578968286514
160.0,0.03971606120467186
176.0,0.03630872815847397
192.0,0.033447425812482834
208.0,0.03204367682337761
224.0,0.031065480783581734
240.0,0.03002685122191906
256.0,0.030052412301301956
288.0,0.030425408855080605
320.0,0.031914122402668
352.0,0.03283308446407318
384.0,0.033318839967250824
416.0,0.032283104956150055
448.0,0.031131839379668236
480.0,0.029385333880782127
512.0,0.027646472677588463
576.0,0.022398771718144417
640.0,0.01730390265583992
704.0,0.018417909741401672
768.0,0.021783286705613136
832.0,0.02443557232618332
896.0,0.027517642825841904
960.0,0.02707640267908573
1024.0,0.02313358522951603
1152.0,0.016146715730428696
1280.0,0.016253100708127022
1408.0,0.013402588665485382
1536.0,0.00445283530279994
1664.0,0.0010972402524203062
1792.0,0.005764254368841648
1920.0,0.0036725702229887247
2048.0,0.0016234727809205651
2304.0,-0.004624765831977129
2560.0,-0.012164873071014881
2816.0,-0.010677061975002289
3072.0,-0.016586916521191597
3328.0,-0.01927017793059349
3584.0,-0.022349867969751358
3840.0,-0.01929822564125061
4096.0,-0.008282291702926159
4608.0,-0.004458566661924124
5120.0,0.004907333292067051
5632.0,-0.0016623435076326132
6144.0,0.011164517141878605
6656.0,0.013406981714069843
7168.0,0.013709946535527706
7680.0,0.00958624854683876
8192.0,0.008948286063969135
end
