version,3.0
numOfCh,1
type,point
parent_name,0cd20_0dot069-0dot1
ch_type,1_1
kcount,1
numberNandB,1
brightnessNandB,1
carpet pos,0
pc,0
Time (ms),CH1 Auto-Correlation
1.0,0.0619451068341732
2.0,0.06144595518708229
3.0,0.060950759798288345
4.0,0.060468100011348724
5.0,0.060006070882081985
6.0,0.059565216302871704
7.0,0.05913100019097328
8.0,0.058705031871795654
9.0,0.058278605341911316
10.0,0.05787457898259163
11.0,0.057483065873384476
12.0,0.057102181017398834
13.0,0.05671863630414009
14.0,0.05633551627397537
15.0,0.05595384165644646
16.0,0.05558670684695244
18.0,0.05483486130833626
20.0,0.05413534492254257
22.0,0.05350795388221741
24.0,0.05288580805063248
26.0,0.0522853322327137
28.0,0.051729947328567505
30.0,0.05121495947241783
32.0,0.05071349814534187
36.0,0.04972938448190689
40.0,0.04880743846297264
44.0,0.047923024743795395
48.0,0.04706570506095886
52.0,0.04614444077014923
56.0,0.04522635042667389
60.0,0.044403981417417526
64.0,0.04357937350869179
72.0,0.04192722588777542
80.0,0.0404839850962162
88.0,0.03916507214307785
96.0,0.03789886459708214
104.0,0.036717697978019714
112.0,0.03531705588102341
120.0,0.0339927077293396
128.0,0.0327480286359787
144.0,0.030345499515533447
160.0,0.027850953862071037
176.0,0.02563958428800106
192.0,0.024006741121411324
208.0,0.023085707798600197
224.0,0.0223735049366951
240.0,0.0216799546033144
256.0,0.02094939537346363
288.0,0.02001751959323883
320.0,0.01908819191157818
352.0,0.017593467608094215
384.0,0.015058204531669617
416.0,0.012119623832404613
448.0,0.009796509519219398
480.0,0.007623500656336546
512.0,0.0063916402868926525
576.0,0.00700360769405961
640.0,0.007907570339739323
704.0,0.006609250325709581
768.0,0.002568379510194063
832.0,-0.0005986507167108357
896.0,0.0007148859440349042
960.0,0.0014907786389812827
1024.0,0.0014817403862252831
1152.0,-0.002213912783190608
1280.0,-0.004861467983573675
1408.0,-0.005176450125873089
1536.0,-0.007390271872282028
1664.0,-0.007661785464733839
1792.0,-0.005399626679718494
1920.0,-0.006824369076639414
2048.0,-0.007820358499884605
2304.0,-0.009996074251830578
2560.0,-0.0037010174710303545
2816.0,-0.00547138461843133
3072.0,0.0013643022393807769
3328.0,-0.0003158853214699775
3584.0,0.00338429631665349
3840.0,0.0037314670626074076
4096.0,0.003335238667204976
4608.0,0.0017583327135071158
5120.0,-0.006971300579607487
5632.0,-0.0018601142801344395
6144.0,-0.0019652782939374447
6656.0,-0.004898506682366133
7168.0,-0.01670771837234497
7680.0,-0.009943850338459015
8192.0,0.005971458740532398
end
