version,3.0
numOfCh,1
type,point
parent_name,0cd20_0dot069-0dot1
ch_type,1_1
kcount,1
numberNandB,1
brightnessNandB,1
carpet pos,0
pc,0
Time (ms),CH1 Auto-Correlation
1.0,0.05930447578430176
2.0,0.05889897421002388
3.0,0.058484748005867004
4.0,0.05806785076856613
5.0,0.057667069137096405
6.0,0.05727165564894676
7.0,0.05688737332820892
8.0,0.05652358755469322
9.0,0.0561603307723999
10.0,0.05581079050898552
11.0,0.05548067018389702
12.0,0.05515604093670845
13.0,0.054844930768013
14.0,0.0545390322804451
15.0,0.054229285567998886
16.0,0.05392935872077942
18.0,0.05335935577750206
20.0,0.05280725657939911
22.0,0.05225897207856178
24.0,0.05171022564172745
26.0,0.05116967111825943
28.0,0.05064835771918297
30.0,0.0501357764005661
32.0,0.049646202474832535
36.0,0.04867361858487129
40.0,0.047766681760549545
44.0,0.04691516235470772
48.0,0.04610100015997887
52.0,0.04532114416360855
56.0,0.04452734813094139
60.0,0.04374169185757637
64.0,0.043006643652915955
72.0,0.04161468893289566
80.0,0.04025914892554283
88.0,0.03904852643609047
96.0,0.03809451684355736
104.0,0.03742294758558273
112.0,0.03696658834815025
120.0,0.03649752214550972
128.0,0.03603234514594078
144.0,0.035400453954935074
160.0,0.03479238972067833
176.0,0.033776599913835526
192.0,0.03272225335240364
208.0,0.031766194850206375
224.0,0.030772071331739426
240.0,0.0300372913479805
256.0,0.02957988902926445
288.0,0.02867116406559944
320.0,0.027570649981498718
352.0,0.025615548714995384
384.0,0.024087542667984962
416.0,0.02346288040280342
448.0,0.023714963346719742
480.0,0.024237539619207382
512.0,0.024198956787586212
576.0,0.022580387070775032
640.0,0.020553112030029297
704.0,0.01850748620927334
768.0,0.01731327548623085
832.0,0.016683781519532204
896.0,0.014653719961643219
960.0,0.012518377974629402
1024.0,0.010415486060082912
1152.0,0.01033441536128521
1280.0,0.008322975598275661
1408.0,0.006633438635617495
1536.0,0.004242378752678633
1664.0,0.003986238501966
1792.0,0.003031559521332383
1920.0,0.002993911737576127
2048.0,0.001129821757785976
2304.0,-0.007027445826679468
2560.0,-0.013470711186528206
2816.0,-0.014672783203423023
3072.0,-0.017894204705953598
3328.0,-0.011777357198297977
3584.0,-0.008912851102650166
3840.0,-0.00848380196839571
4096.0,-0.004758242052048445
4608.0,0.0032693766988813877
5120.0,0.010964971967041492
5632.0,0.011508691124618053
6144.0,0.009237377904355526
6656.0,0.011906193569302559
7168.0,0.0042709470726549625
7680.0,-0.013886653818190098
8192.0,-0.025815065950155258
end
