version,3.0
numOfCh,1
type,point
parent_name,34a6d_0dot08-0dot1
ch_type,1_1
kcount,1
numberNandB,1
brightnessNandB,1
carpet pos,0
pc,0
Time (ms),CH1 Auto-Correlation
1.0,0.04953610524535179
2.0,0.04878843575716019
3.0,0.04807913675904274
4.0,0.04739801213145256
5.0,0.046725571155548096
6.0,0.0460628941655159
7.0,0.04542526602745056
8.0,0.04481980949640274
9.0,0.04424407333135605
10.0,0.04369023069739342
11.0,0.04315553605556488
12.0,0.04259662702679634
13.0,0.042051367461681366
14.0,0.04154614731669426
15.0,0.0410490408539772
16.0,0.04052801430225372
18.0,0.03946271166205406
20.0,0.03843068331480026
22.0,0.037413567304611206
24.0,0.03639673441648483
26.0,0.035401564091444016
28.0,0.03448474779725075
30.0,0.03358029946684837
32.0,0.032658014446496964
36.0,0.030835023149847984
40.0,0.029042938724160194
44.0,0.0273679681122303
48.0,0.025973139330744743
52.0,0.024756895378232002
56.0,0.023650364950299263
60.0,0.022571340203285217
64.0,0.021538447588682175
72.0,0.019356314092874527
80.0,0.01733626239001751
88.0,0.015499193221330643
96.0,0.013918067328631878
104.0,0.01216411404311657
112.0,0.010428459383547306
120.0,0.009162910282611847
128.0,0.008234859444200993
144.0,0.006000358145684004
160.0,0.0036841132678091526
176.0,0.001412884914316237
192.0,5.789190618088469e-05
208.0,-0.0005870989407412708
224.0,-0.0003100631874985993
240.0,0.00033647482632659376
256.0,0.0012090987293049693
288.0,0.002808638382703066
320.0,0.0014018971705809236
352.0,-0.0007098953938111663
384.0,-0.0020491047762334347
416.0,-0.002930623712018132
448.0,-0.003933242987841368
480.0,-0.005491022020578384
512.0,-0.005903936456888914
576.0,-0.001594080589711666
640.0,0.0009883047314360738
704.0,3.4322787541896105e-05
768.0,-0.002147065009921789
832.0,-0.0010239052353426814
896.0,0.002557949163019657
960.0,0.0026884893886744976
1024.0,0.0015591253759339452
1152.0,0.006487932987511158
1280.0,0.00440271245315671
1408.0,-0.003039428498595953
1536.0,-0.0026940270327031612
1664.0,-0.0030583422631025314
1792.0,-0.0013626101426780224
1920.0,-0.0013520464999601245
2048.0,-1.5974262623785762e-06
2304.0,-0.0011489244643598795
2560.0,-4.4426440581446514e-05
2816.0,-0.0022909718099981546
3072.0,-0.001166266156360507
3328.0,-0.0010636098450049758
3584.0,0.0005043707205913961
3840.0,0.0020350387785583735
4096.0,-0.0018038335256278515
4608.0,0.0004655651282519102
5120.0,0.0017904512351378798
5632.0,-0.002324348082765937
6144.0,-0.002417153911665082
6656.0,0.0006107160588726401
7168.0,-0.002859060885384679
7680.0,-0.002313883975148201
8192.0,-0.004090855363756418
end
