version,3.0
numOfCh,1
type,point
parent_name,34a6d_0dot08-0dot1
ch_type,1_1
kcount,1
numberNandB,1
brightnessNandB,1
carpet pos,0
pc,0
Time (ms),CH1 Auto-Correlation
1.0,0.07202722877264023
2.0,0.07092331349849701
3.0,0.06992344558238983
4.0,0.06904125213623047
5.0,0.06827009469270706
6.0,0.06752954423427582
7.0,0.06675960123538971
8.0,0.0659821480512619
9.0,0.0652405396103859
10.0,0.0644988939166069
11.0,0.06382736563682556
12.0,0.06323684006929398
13.0,0.06266321241855621
14.0,0.06209217384457588
15.0,0.06155511364340782
16.0,0.061045002192258835
18.0,0.06009570509195328
20.0,0.05909450724720955
22.0,0.05800977721810341
24.0,0.05693905055522919
26.0,0.055948592722415924
28.0,0.0549575537443161
30.0,0.053870756179094315
32.0,0.05286528915166855
36.0,0.05115723982453346
40.0,0.049542851746082306
44.0,0.04795367643237114
48.0,0.04637623205780983
52.0,0.04471595585346222
56.0,0.042980682104825974
60.0,0.04152744263410568
64.0,0.04024272784590721
72.0,0.03717523813247681
80.0,0.03458692878484726
88.0,0.03268558159470558
96.0,0.030854063108563423
104.0,0.02925560250878334
112.0,0.028018759563565254
120.0,0.02689508907496929
128.0,0.02602371573448181
144.0,0.024741174653172493
160.0,0.02304239757359028
176.0,0.02007090486586094
192.0,0.017555927857756615
208.0,0.015649527311325073
224.0,0.01381615735590458
240.0,0.011444030329585075
256.0,0.009479284286499023
288.0,0.006230073049664497
320.0,0.004254795145243406
352.0,0.0017861737869679928
384.0,-0.0002244131756015122
416.0,-0.001568599371239543
448.0,-0.0032104793936014175
480.0,-0.0032746391370892525
512.0,-0.0033803367987275124
576.0,-0.002034692792221904
640.0,0.0011441417736932635
704.0,0.006476988084614277
768.0,0.010642200708389282
832.0,0.012132524512708187
896.0,0.008868206292390823
960.0,0.0029988540336489677
1024.0,-0.0007974514155648649
1152.0,-0.006135895382612944
1280.0,-0.011133274994790554
1408.0,-0.010271739214658737
1536.0,-0.0070888265036046505
1664.0,-0.005266287364065647
1792.0,-0.0005407449789345264
1920.0,0.0034565681125968695
2048.0,0.0002484639990143478
2304.0,-0.0038935921620577574
2560.0,-0.0020715694408863783
2816.0,0.0013287535402923822
3072.0,-0.011508950963616371
3328.0,-0.016520719975233078
3584.0,-0.007513979449868202
3840.0,-0.005926160141825676
4096.0,-0.0034867464564740658
4608.0,-0.0017723182681947947
5120.0,0.005338681396096945
5632.0,0.0002985589380841702
6144.0,0.009625534527003765
6656.0,0.007830127142369747
7168.0,0.005821641534566879
7680.0,-0.0031235998030751944
8192.0,-0.018218280747532845
end
