version,3.0
numOfCh,1
type,point
parent_name,34a6d_0dot08-0dot1
ch_type,1_1
kcount,1
numberNandB,1
brightnessNandB,1
carpet pos,0
pc,0
Time (ms),CH1 Auto-Correlation
1.0,0.06985218077898026
2.0,0.0692286342382431
3.0,0.06861580163240433
4.0,0.06800784915685654
5.0,0.06744122505187988
6.0,0.06687092781066895
7.0,0.06632938981056213
8.0,0.06577207148075104
9.0,0.06522417068481445
10.0,0.06466596573591232
11.0,0.06408393383026123
12.0,0.06354404985904694
13.0,0.06301285326480865
14.0,0.06248995289206505
15.0,0.06199667230248451
16.0,0.06145670637488365
18.0,0.06040913984179497
20.0,0.05939556285738945
22.0,0.058413393795490265
24.0,0.05745996907353401
26.0,0.056486181914806366
28.0,0.05554138496518135
30.0,0.05463305115699768
32.0,0.0537954680621624
36.0,0.052248403429985046
40.0,0.050744637846946716
44.0,0.04924812167882919
48.0,0.04791276529431343
52.0,0.046587519347667694
56.0,0.04526904970407486
60.0,0.04394496977329254
64.0,0.04261181503534317
72.0,0.04020034894347191
80.0,0.038101959973573685
88.0,0.036496590822935104
96.0,0.035308245569467545
104.0,0.03427727520465851
112.0,0.03312894329428673
120.0,0.03186932951211929
128.0,0.030554259195923805
144.0,0.027392728254199028
160.0,0.02456836774945259
176.0,0.02141975611448288
192.0,0.018698707222938538
208.0,0.01601741835474968
224.0,0.0134018175303936
240.0,0.011510781943798065
256.0,0.009733925573527813
288.0,0.005371063016355038
320.0,0.0028740684501826763
352.0,0.003004040103405714
384.0,0.0031885486096143723
416.0,0.002850901335477829
448.0,0.002238089917227626
480.0,0.002661416307091713
512.0,0.0034091160632669926
576.0,0.003296883776783943
640.0,0.0006368138128891587
704.0,-0.005247844383120537
768.0,-0.006182211916893721
832.0,-0.0041396538726985455
896.0,-0.0028276972007006407
960.0,-0.0013109695864841342
1024.0,0.00042854418279603124
1152.0,-0.00044437969336286187
1280.0,-0.006080686580389738
1408.0,-0.008234997279942036
1536.0,-0.00737116951495409
1664.0,-0.008402617648243904
1792.0,-0.011274022981524467
1920.0,-0.0069227321073412895
2048.0,-0.007099488750100136
2304.0,-0.015489877201616764
2560.0,-0.0028735236264765263
2816.0,-0.00046485851635225117
3072.0,0.002351766685023904
3328.0,0.002853359328582883
3584.0,0.010798838920891285
3840.0,0.012368761003017426
4096.0,0.005965136457234621
4608.0,-0.005248155444860458
5120.0,-0.0027924294117838144
5632.0,-0.00885677244514227
6144.0,-0.004583164118230343
6656.0,0.0019194686319679022
7168.0,0.005380323622375727
7680.0,0.009653780609369278
8192.0,0.002096664858981967
end
