version,3.0
numOfCh,1
type,point
parent_name,34a6d_0dot08-0dot1
ch_type,1_1
kcount,1
numberNandB,1
brightnessNandB,1
carpet pos,0
pc,0
Time (ms),CH1 Auto-Correlation
1.0,0.06173981726169586
2.0,0.06120101734995842
3.0,0.06068331003189087
4.0,0.06018958240747452
5.0,0.059731632471084595
6.0,0.05926898121833801
7.0,0.0588102862238884
8.0,0.0583617202937603
9.0,0.05793151259422302
10.0,0.05750557407736778
11.0,0.05709394812583923
12.0,0.05668177828192711
13.0,0.05626951530575752
14.0,0.05586175620555878
15.0,0.05546702444553375
16.0,0.055071473121643066
18.0,0.05429955571889877
20.0,0.05354996770620346
22.0,0.05282176285982132
24.0,0.05210769549012184
26.0,0.051398180425167084
28.0,0.050738997757434845
30.0,0.05011605843901634
32.0,0.049495942890644073
36.0,0.048300813883543015
40.0,0.04706351086497307
44.0,0.045768704265356064
48.0,0.04451093077659607
52.0,0.043294232338666916
56.0,0.04212396219372749
60.0,0.04102310538291931
64.0,0.03995038568973541
72.0,0.03791007399559021
80.0,0.03590480610728264
88.0,0.03420208394527435
96.0,0.032804712653160095
104.0,0.03144746273756027
112.0,0.030339308083057404
120.0,0.029459457844495773
128.0,0.02861480787396431
144.0,0.027084795758128166
160.0,0.026211239397525787
176.0,0.02545352652668953
192.0,0.024740079417824745
208.0,0.024300994351506233
224.0,0.023891976103186607
240.0,0.023642346262931824
256.0,0.023481840267777443
288.0,0.023526135832071304
320.0,0.023786498233675957
352.0,0.022498777136206627
384.0,0.02041804790496826
416.0,0.019097642973065376
448.0,0.017458174377679825
480.0,0.015565892681479454
512.0,0.013000350445508957
576.0,0.010695939883589745
640.0,0.007901825942099094
704.0,0.006715831812471151
768.0,0.005641972180455923
832.0,0.0020824233070015907
896.0,-0.0003354666114319116
960.0,-0.000527029566001147
1024.0,0.0009893743554130197
1152.0,0.005801750347018242
1280.0,0.003279307624325156
1408.0,0.0017350222915410995
1536.0,0.0025294495280832052
1664.0,-0.002528265118598938
1792.0,-0.005251964554190636
1920.0,-0.001548512140288949
2048.0,-0.004784357268363237
2304.0,4.7447989345528185e-05
2560.0,0.003574646543711424
2816.0,0.0068721892312169075
3072.0,0.000599233026150614
3328.0,-0.003639813745394349
3584.0,-0.01094586867839098
3840.0,-0.013587712310254574
4096.0,-0.016684282571077347
4608.0,-0.025195451453328133
5120.0,-0.009085996076464653
5632.0,-0.003125122981145978
6144.0,-0.006900472566485405
6656.0,-0.005764346569776535
7168.0,-0.006951214279979467
7680.0,0.0055412426590919495
8192.0,0.016155676916241646
end
