version,3.0
numOfCh,1
type,point
parent_name,34a6d_0dot08-0dot1
ch_type,1_1
kcount,1
numberNandB,1
brightnessNandB,1
carpet pos,0
pc,0
Time (ms),CH1 Auto-Correlation
1.0,0.06165233999490738
2.0,0.06063317880034447
3.0,0.059607718139886856
4.0,0.05869990214705467
5.0,0.05779619142413139
6.0,0.057021573185920715
7.0,0.056248195469379425
8.0,0.05553664639592171
9.0,0.054755762219429016
10.0,0.05399571359157562
11.0,0.05329740419983864
12.0,0.05259096249938011
13.0,0.051931288093328476
14.0,0.051275160163640976
15.0,0.050594884902238846
16.0,0.049931906163692474
18.0,0.04860891401767731
20.0,0.04731595516204834
22.0,0.046206697821617126
24.0,0.04505789279937744
26.0,0.043915390968322754
28.0,0.04290534183382988
30.0,0.042049847543239594
32.0,0.04134267941117287
36.0,0.03990554064512253
40.0,0.038512006402015686
44.0,0.03720945864915848
48.0,0.03618260845541954
52.0,0.035111282020807266
56.0,0.03402309864759445
60.0,0.03284010663628578
64.0,0.03174859285354614
72.0,0.029871540144085884
80.0,0.028424561023712158
88.0,0.027005283161997795
96.0,0.02526857703924179
104.0,0.023483965545892715
112.0,0.022080380469560623
120.0,0.021072974428534508
128.0,0.02074444107711315
144.0,0.019625546410679817
160.0,0.018722519278526306
176.0,0.017322620376944542
192.0,0.016375159844756126
208.0,0.01595570147037506
224.0,0.015493246726691723
240.0,0.014927931129932404
256.0,0.01493531558662653
288.0,0.014075101353228092
320.0,0.014536854811012745
352.0,0.014111071825027466
384.0,0.014212832786142826
416.0,0.014851138927042484
448.0,0.014017141424119473
480.0,0.013391739688813686
512.0,0.01343211717903614
576.0,0.012309787794947624
640.0,0.010834739543497562
704.0,0.010691780596971512
768.0,0.007865541614592075
832.0,0.005403242539614439
896.0,0.0018953689141198993
960.0,0.0017066012369468808
1024.0,0.001735551399178803
1152.0,-0.0031268876045942307
1280.0,-0.00865370873361826
1408.0,-0.005697596352547407
1536.0,-0.004358330741524696
1664.0,-0.009419397450983524
1792.0,-0.007078946102410555
1920.0,-0.0018661459907889366
2048.0,-0.000635031727142632
2304.0,0.002939205849543214
2560.0,0.006396752782166004
2816.0,0.00662153959274292
3072.0,0.0073669953271746635
3328.0,0.002878093859180808
3584.0,-0.0019056207966059446
3840.0,-0.0035465182736516
4096.0,-0.0021908602211624384
4608.0,-0.0025393839459866285
5120.0,-0.002535575767979026
5632.0,-0.0032038490753620863
6144.0,-0.008547302335500717
6656.0,-0.015086241066455841
7168.0,-0.014261076226830482
7680.0,-0.010211866348981857
8192.0,0.00492135202512145
end
