version,3.0
numOfCh,1
type,point
parent_name,34a6d_0dot08-0dot1
ch_type,1_1
kcount,1
numberNandB,1
brightnessNandB,1
carpet pos,0
pc,0
Time (ms),CH1 Auto-Correlation
1.0,0.061849504709243774
2.0,0.061189766973257065
3.0,0.06053723767399788
4.0,0.059910308569669724
5.0,0.059306398034095764
6.0,0.05871174484491348
7.0,0.05812716856598854
8.0,0.05755441635847092
9.0,0.05702166259288788
10.0,0.05649372935295105
11.0,0.05596473440527916
12.0,0.0554814375936985
13.0,0.05497158318758011
14.0,0.054468218237161636
15.0,0.05397587642073631
16.0,0.05347985774278641
18.0,0.05247785151004791
20.0,0.05152050778269768
22.0,0.05061834305524826
24.0,0.049732811748981476
26.0,0.04888300970196724
28.0,0.04804898425936699
30.0,0.04721268638968468
32.0,0.046447303146123886
36.0,0.04505794495344162
40.0,0.043756239116191864
44.0,0.04253397136926651
48.0,0.04142431542277336
52.0,0.04047181084752083
56.0,0.03963417932391167
60.0,0.03884189948439598
64.0,0.03809197247028351
72.0,0.03688449785113335
80.0,0.0355033278465271
88.0,0.03443993255496025
96.0,0.033394914120435715
104.0,0.032114412635564804
112.0,0.031106559559702873
120.0,0.03022395633161068
128.0,0.029091939330101013
144.0,0.026966961100697517
160.0,0.024597758427262306
176.0,0.02215597778558731
192.0,0.02013695053756237
208.0,0.018212903290987015
224.0,0.01676148921251297
240.0,0.014931660145521164
256.0,0.013635072857141495
288.0,0.011386658065021038
320.0,0.008935325779020786
352.0,0.0075429813005030155
384.0,0.006369833834469318
416.0,0.0047037433832883835
448.0,0.0027697926852852106
480.0,0.0012924763141199946
512.0,0.0009459601133130491
576.0,0.001729920506477356
640.0,0.004739508498460054
704.0,0.007530822418630123
768.0,0.010982933454215527
832.0,0.010528034530580044
896.0,0.0076766666024923325
960.0,0.0022182553075253963
1024.0,-7.289601489901543e-05
1152.0,-0.0003150217526126653
1280.0,-0.002520773559808731
1408.0,-0.0032803567592054605
1536.0,-0.0023322799243032932
1664.0,-0.0017477457877248526
1792.0,-0.002630752744153142
1920.0,-0.0031998339109122753
2048.0,-0.0001670314377406612
2304.0,0.00022424772032536566
2560.0,-0.004120135214179754
2816.0,-0.010009879246354103
3072.0,-0.011009596288204193
3328.0,-0.010611447505652905
3584.0,-0.009748952463269234
3840.0,-0.0034929027315229177
4096.0,-0.003583515528589487
4608.0,0.006816407199949026
5120.0,0.0024323677644133568
5632.0,0.0006277412758208811
6144.0,0.007612346205860376
6656.0,0.0004176829825155437
7168.0,0.002145091537386179
7680.0,-0.01163578312844038
8192.0,-0.013991473242640495
end
