version,3.0
numOfCh,1
type,point
parent_name,34a6d_0dot08-0dot1
ch_type,1_1
kcount,1
numberNandB,1
brightnessNandB,1
carpet pos,0
pc,0
Time (ms),CH1 Auto-Correlation
1.0,0.06389707326889038
2.0,0.06323347240686417
3.0,0.06259004771709442
4.0,0.06197529286146164
5.0,0.06139180809259415
6.0,0.06082172319293022
7.0,0.06026678532361984
8.0,0.05973704159259796
9.0,0.05922393128275871
10.0,0.05874288082122803
11.0,0.05825718864798546
12.0,0.057791225612163544
13.0,0.05732986703515053
14.0,0.056880250573158264
15.0,0.056469518691301346
16.0,0.05608629062771797
18.0,0.05530023202300072
20.0,0.05456554517149925
22.0,0.05387120321393013
24.0,0.05323435366153717
26.0,0.05265402793884277
28.0,0.05206916108727455
30.0,0.051444120705127716
32.0,0.05082239583134651
36.0,0.049681857228279114
40.0,0.04857271909713745
44.0,0.04760231450200081
48.0,0.04658050462603569
52.0,0.04552839323878288
56.0,0.044491447508335114
60.0,0.04339681193232536
64.0,0.04237672686576843
72.0,0.04022422432899475
80.0,0.03816758096218109
88.0,0.036181267350912094
96.0,0.03431110456585884
104.0,0.03254076838493347
112.0,0.03094671294093132
120.0,0.029498402029275894
128.0,0.02789567969739437
144.0,0.02464808151125908
160.0,0.021929757669568062
176.0,0.01951058767735958
192.0,0.017038675025105476
208.0,0.014904246665537357
224.0,0.013577835634350777
240.0,0.012538922019302845
256.0,0.011650417931377888
288.0,0.009288936853408813
320.0,0.006653306540101767
352.0,0.003939222078770399
384.0,0.0008441516547463834
416.0,-0.0015139151364564896
448.0,-0.0038461489602923393
480.0,-0.005847706459462643
512.0,-0.006350154057145119
576.0,-0.005990919657051563
640.0,-0.00577605189755559
704.0,-0.002615058096125722
768.0,0.0012512545799836516
832.0,0.004282031673938036
896.0,0.001817433163523674
960.0,-0.002719745272770524
1024.0,-0.006156377028673887
1152.0,-0.00907936505973339
1280.0,-0.00808592140674591
1408.0,-0.0070924097672104836
1536.0,-0.004784889053553343
1664.0,-0.002003120258450508
1792.0,-0.004781560506671667
1920.0,-0.004675211850553751
2048.0,-0.0037542227655649185
2304.0,-0.006765104830265045
2560.0,-0.002338126301765442
2816.0,-0.0007741774315945804
3072.0,0.003040239680558443
3328.0,0.002677925629541278
3584.0,0.008470648899674416
3840.0,0.006408621557056904
4096.0,-0.0023393321316689253
4608.0,-0.0019375509582459927
5120.0,-0.008186404593288898
5632.0,-0.0053144656121730804
6144.0,-0.0028225078713148832
6656.0,0.007630917243659496
7168.0,0.0072950576432049274
7680.0,-0.006974969524890184
8192.0,-0.002578493906185031
end
