version,3.0
numOfCh,1
type,point
parent_name,34a6d_0dot08-0dot1
ch_type,1_1
kcount,1
numberNandB,1
brightnessNandB,1
carpet pos,0
pc,0
Time (ms),CH1 Auto-Correlation
1.0,0.11000201106071472
2.0,0.10761622339487076
3.0,0.10562147200107574
4.0,0.10374893248081207
5.0,0.10204824805259705
6.0,0.10067674517631531
7.0,0.09905281662940979
8.0,0.09763950109481812
9.0,0.09630842506885529
10.0,0.09532582759857178
11.0,0.09430943429470062
12.0,0.09335261583328247
13.0,0.09243376553058624
14.0,0.09142609685659409
15.0,0.09058672934770584
16.0,0.08984281867742538
18.0,0.08854716271162033
20.0,0.08720719814300537
22.0,0.08616611361503601
24.0,0.08546806871891022
26.0,0.08450377732515335
28.0,0.08369982987642288
30.0,0.08295963704586029
32.0,0.08201009035110474
36.0,0.08080311864614487
40.0,0.07936246693134308
44.0,0.07792259007692337
48.0,0.07607116550207138
52.0,0.0747014656662941
56.0,0.07285844534635544
60.0,0.07149665802717209
64.0,0.07005567848682404
72.0,0.06809064000844955
80.0,0.06673230975866318
88.0,0.06424617022275925
96.0,0.06167914718389511
104.0,0.059387270361185074
112.0,0.05803648754954338
120.0,0.056778501719236374
128.0,0.05544426664710045
144.0,0.051990117877721786
160.0,0.048542242497205734
176.0,0.04519977793097496
192.0,0.04230008274316788
208.0,0.039380159229040146
224.0,0.03674757108092308
240.0,0.034280646592378616
256.0,0.032694052904844284
288.0,0.029755525290966034
320.0,0.029334163293242455
352.0,0.02789178118109703
384.0,0.027088617905974388
416.0,0.026826152577996254
448.0,0.025645138695836067
480.0,0.025517964735627174
512.0,0.025174936279654503
576.0,0.023126276209950447
640.0,0.020866667851805687
704.0,0.015170242637395859
768.0,0.0064721014350652695
832.0,0.004018519073724747
896.0,0.0054266187362372875
960.0,0.012114792130887508
1024.0,0.013469469733536243
1152.0,0.011065040715038776
1280.0,0.011897195130586624
1408.0,0.01848043128848076
1536.0,0.01874101348221302
1664.0,0.011512764729559422
1792.0,0.00671778991818428
1920.0,0.006650703959167004
2048.0,0.004955561365932226
2304.0,-0.006256954278796911
2560.0,-0.011840589344501495
2816.0,-0.02320152521133423
3072.0,-0.029662730172276497
3328.0,-0.01687522791326046
3584.0,-0.017007604241371155
3840.0,-0.0022762829903513193
4096.0,-0.00634315051138401
4608.0,-0.02088831551373005
5120.0,-0.01762215606868267
5632.0,0.0008973468793556094
6144.0,0.00023033989418763667
6656.0,-0.0005392417078837752
7168.0,-0.020270997658371925
7680.0,-0.005265285726636648
8192.0,-0.019630396738648415
end
