version,3.0
numOfCh,1
type,point
parent_name,34a6d_0dot08-0dot1
ch_type,1_1
kcount,1
numberNandB,1
brightnessNandB,1
carpet pos,0
pc,0
Time (ms),CH1 Auto-Correlation
1.0,0.05236225947737694
2.0,0.05171007663011551
3.0,0.05109492689371109
4.0,0.05049413442611694
5.0,0.04989912360906601
6.0,0.04935552179813385
7.0,0.04884311556816101
8.0,0.04835643619298935
9.0,0.04787313938140869
10.0,0.04743918031454086
11.0,0.047039877623319626
12.0,0.04663072153925896
13.0,0.046238236129283905
14.0,0.0458315834403038
15.0,0.04544801637530327
16.0,0.045080360025167465
18.0,0.04434918984770775
20.0,0.04366264492273331
22.0,0.04301207885146141
24.0,0.042384665459394455
26.0,0.04174215719103813
28.0,0.04111414775252342
30.0,0.040520742535591125
32.0,0.039949141442775726
36.0,0.03881676495075226
40.0,0.03767112269997597
44.0,0.03658547252416611
48.0,0.03555171191692352
52.0,0.03461761027574539
56.0,0.033623106777668
60.0,0.032567624002695084
64.0,0.031517621129751205
72.0,0.02940530702471733
80.0,0.027639029547572136
88.0,0.02583794668316841
96.0,0.02399589493870735
104.0,0.02213502861559391
112.0,0.020488416776061058
120.0,0.019147232174873352
128.0,0.017951980233192444
144.0,0.0157941821962595
160.0,0.013915474526584148
176.0,0.01310834288597107
192.0,0.012713974341750145
208.0,0.012642581015825272
224.0,0.012616212479770184
240.0,0.012222502380609512
256.0,0.011817489750683308
288.0,0.010831561870872974
320.0,0.009654626250267029
352.0,0.008191476576030254
384.0,0.007485652808099985
416.0,0.006786063313484192
448.0,0.005276225972920656
480.0,0.0034120408818125725
512.0,0.0026074987836182117
576.0,-0.0007346395868808031
640.0,-0.0024946946650743484
704.0,-0.0020274415146559477
768.0,-0.0020068224985152483
832.0,-0.0021956332493573427
896.0,-0.002300088293850422
960.0,-0.005347231402993202
1024.0,-0.005212126299738884
1152.0,-0.003935195505619049
1280.0,-0.001907177153043449
1408.0,-0.0020027365535497665
1536.0,0.0009030589135363698
1664.0,0.001949441502802074
1792.0,0.00653302064165473
1920.0,0.00604188023135066
2048.0,0.0021295659244060516
2304.0,-0.0031882147304713726
2560.0,0.0034017160069197416
2816.0,0.0011704325443133712
3072.0,-0.002089549321681261
3328.0,0.001221730257384479
3584.0,-0.00233901827596128
3840.0,0.0020544116850942373
4096.0,-0.0034667006693780422
4608.0,-0.0030342715326696634
5120.0,0.0055651795119047165
5632.0,0.0055510373786091805
6144.0,-0.007038868498057127
6656.0,-0.0010580149246379733
7168.0,0.0001542703394079581
7680.0,-0.005516424775123596
8192.0,-0.011576361022889614
end
