version,3.0
numOfCh,1
type,point
parent_name,34a6d_0dot08-0dot1
ch_type,1_1
kcount,1
numberNandB,1
brightnessNandB,1
carpet pos,0
pc,0
Time (ms),CH1 Auto-Correlation
1.0,0.0811697319149971
2.0,0.08048529922962189
3.0,0.07984276860952377
4.0,0.07922492176294327
5.0,0.0786389410495758
6.0,0.07810648530721664
7.0,0.07757481932640076
8.0,0.0770326554775238
9.0,0.07648300379514694
10.0,0.07594306021928787
11.0,0.07538975775241852
12.0,0.07482878118753433
13.0,0.07430799305438995
14.0,0.07380777597427368
15.0,0.07331892102956772
16.0,0.07286270707845688
18.0,0.0720079094171524
20.0,0.0711304098367691
22.0,0.07027728855609894
24.0,0.06945613771677017
26.0,0.0686475932598114
28.0,0.06785464286804199
30.0,0.06706032156944275
32.0,0.06629056483507156
36.0,0.06488621979951859
40.0,0.06358148902654648
44.0,0.062355510890483856
48.0,0.06116510555148125
52.0,0.06008701026439667
56.0,0.05917110666632652
60.0,0.05826365575194359
64.0,0.05736757814884186
72.0,0.055708207190036774
80.0,0.05398143455386162
88.0,0.052353180944919586
96.0,0.05093114450573921
104.0,0.049477823078632355
112.0,0.047897472977638245
120.0,0.04647739976644516
128.0,0.04520465433597565
144.0,0.04287688806653023
160.0,0.04070783406496048
176.0,0.038955241441726685
192.0,0.03684855252504349
208.0,0.03455125540494919
224.0,0.0331122949719429
240.0,0.03188369795680046
256.0,0.03071141056716442
288.0,0.028966454789042473
320.0,0.0269925594329834
352.0,0.025204457342624664
384.0,0.02481444925069809
416.0,0.024181781336665154
448.0,0.02375861071050167
480.0,0.023496948182582855
512.0,0.02256566844880581
576.0,0.02055685967206955
640.0,0.01926356740295887
704.0,0.020047908648848534
768.0,0.021894188597798347
832.0,0.02251635305583477
896.0,0.025344757363200188
960.0,0.024163100868463516
1024.0,0.021723035722970963
1152.0,0.02022392675280571
1280.0,0.022448910400271416
1408.0,0.025702878832817078
1536.0,0.022700447589159012
1664.0,0.014787954278290272
1792.0,0.009968536905944347
1920.0,0.013695443980395794
2048.0,0.013600227423012257
2304.0,0.01967019774019718
2560.0,0.019184274598956108
2816.0,0.012453491799533367
3072.0,0.0038747433573007584
3328.0,0.0037264511920511723
3584.0,0.008566303178668022
3840.0,0.009911028668284416
4096.0,0.00011102366261184216
4608.0,-0.0019034825963899493
5120.0,-0.009576398879289627
5632.0,-0.024914449080824852
6144.0,-0.028208449482917786
6656.0,-0.028376854956150055
7168.0,-0.025889288634061813
7680.0,-0.01960793323814869
8192.0,-0.026211164891719818
end
