version,3.0
numOfCh,1
type,point
parent_name,34a6d_0dot08-0dot1
ch_type,1_1
kcount,1
numberNandB,1
brightnessNandB,1
carpet pos,0
pc,0
Time (ms),CH1 Auto-Correlation
1.0,0.054983627051115036
2.0,0.054348137229681015
3.0,0.05370099097490311
4.0,0.053134020417928696
5.0,0.052549149841070175
6.0,0.051998019218444824
7.0,0.0514686293900013
8.0,0.050953686237335205
9.0,0.050472959876060486
10.0,0.0499904602766037
11.0,0.04950520768761635
12.0,0.0490545928478241
13.0,0.048607081174850464
14.0,0.04817242547869682
15.0,0.047731637954711914
16.0,0.04730265960097313
18.0,0.0463901124894619
20.0,0.04551008716225624
22.0,0.04471768066287041
24.0,0.04396950826048851
26.0,0.043226052075624466
28.0,0.042501918971538544
30.0,0.04178202897310257
32.0,0.0410555824637413
36.0,0.03958834707736969
40.0,0.03808608278632164
44.0,0.03684317320585251
48.0,0.035737793892621994
52.0,0.034711454063653946
56.0,0.03371809422969818
60.0,0.03283388912677765
64.0,0.03193729743361473
72.0,0.03014514036476612
80.0,0.02855316363275051
88.0,0.027029672637581825
96.0,0.025446424260735512
104.0,0.024028055369853973
112.0,0.022684084251523018
120.0,0.021488262340426445
128.0,0.020599035546183586
144.0,0.01908128522336483
160.0,0.01735144667327404
176.0,0.015289912931621075
192.0,0.013427847996354103
208.0,0.011460806243121624
224.0,0.009820504114031792
240.0,0.008844759315252304
256.0,0.007875420153141022
288.0,0.00520553532987833
320.0,0.0039028835017234087
352.0,0.003933602478355169
384.0,0.0037106769159436226
416.0,0.0034300077240914106
448.0,0.0037227135617285967
480.0,0.002980440156534314
512.0,0.0021873153746128082
576.0,0.0010246349265798926
640.0,0.0012946691131219268
704.0,0.0019133809255436063
768.0,0.0044896891340613365
832.0,0.006029435899108648
896.0,0.006855777930468321
960.0,0.008660188876092434
1024.0,0.009873051196336746
1152.0,0.0059637450613081455
1280.0,-0.0008636207203380764
1408.0,-0.0026955606881529093
1536.0,0.0006797384121455252
1664.0,-0.0009216548060066998
1792.0,0.0008912400808185339
1920.0,0.005070342216640711
2048.0,0.007075248286128044
2304.0,0.003667724085971713
2560.0,-0.0023843601811677217
2816.0,0.0036034435033798218
3072.0,0.0076503329910337925
3328.0,0.005645387340337038
3584.0,-0.006968189496546984
3840.0,-0.009631210938096046
4096.0,-0.0066215540282428265
4608.0,-0.008546932600438595
5120.0,0.0009661591611802578
5632.0,-0.008163729682564735
6144.0,-0.0038260736037045717
6656.0,-0.010162414982914925
7168.0,-0.008644976653158665
7680.0,-0.00535156624391675
8192.0,-0.0017382404766976833
end
