version,3.0
numOfCh,1
type,point
parent_name,34a6d_0dot08-0dot1
ch_type,1_1
kcount,1
numberNandB,1
brightnessNandB,1
carpet pos,0
pc,0
Time (ms),CH1 Auto-Correlation
1.0,0.05324452370405197
2.0,0.05276742950081825
3.0,0.05230327323079109
4.0,0.05185161903500557
5.0,0.05141066759824753
6.0,0.050973400473594666
7.0,0.05055186524987221
8.0,0.05013309046626091
9.0,0.04970618709921837
10.0,0.0492824986577034
11.0,0.0488731674849987
12.0,0.048468317836523056
13.0,0.04809006676077843
14.0,0.04772939160466194
15.0,0.04737182334065437
16.0,0.047023650258779526
18.0,0.04631892591714859
20.0,0.04564514383673668
22.0,0.04501679167151451
24.0,0.04441564157605171
26.0,0.04384749010205269
28.0,0.04329652711749077
30.0,0.04276585206389427
32.0,0.04223492741584778
36.0,0.04125754162669182
40.0,0.0402785986661911
44.0,0.03935139998793602
48.0,0.03844045102596283
52.0,0.0376199372112751
56.0,0.03685430437326431
60.0,0.03608214855194092
64.0,0.03531939163804054
72.0,0.033935923129320145
80.0,0.03262128680944443
88.0,0.031330421566963196
96.0,0.030212005600333214
104.0,0.029185613617300987
112.0,0.02820795588195324
120.0,0.02731233648955822
128.0,0.02654675953090191
144.0,0.025230757892131805
160.0,0.024072088301181793
176.0,0.02273980714380741
192.0,0.0213462021201849
208.0,0.020363343879580498
224.0,0.01942559704184532
240.0,0.018290085718035698
256.0,0.017161618918180466
288.0,0.015496262349188328
320.0,0.013406624086201191
352.0,0.011007987894117832
384.0,0.008949960581958294
416.0,0.007924135774374008
448.0,0.007478098850697279
480.0,0.007318064570426941
512.0,0.00777269946411252
576.0,0.00845518708229065
640.0,0.01028391718864441
704.0,0.009473233483731747
768.0,0.010005194693803787
832.0,0.009474286809563637
896.0,0.006533339619636536
960.0,0.004274236503988504
1024.0,0.0001389096723869443
1152.0,-0.004256184678524733
1280.0,-0.0041643246077001095
1408.0,-0.0008849645964801311
1536.0,0.002100730547681451
1664.0,0.00489636929705739
1792.0,0.004061318002641201
1920.0,0.004361876752227545
2048.0,0.006437997799366713
2304.0,0.006885391194373369
2560.0,0.00967757310718298
2816.0,0.006629828829318285
3072.0,-0.0027357398066669703
3328.0,-0.0022001576144248247
3584.0,-0.0014006160199642181
3840.0,-0.006770176347345114
4096.0,-0.00033877050736919045
4608.0,0.00019256354426033795
5120.0,0.00598859041929245
5632.0,-0.002734348876401782
6144.0,-0.008153430186212063
6656.0,0.0032683874014765024
7168.0,0.0027501173317432404
7680.0,0.006674662232398987
8192.0,-0.0022384743206202984
end
