version,3.0
numOfCh,1
type,point
parent_name,34a6d_0dot08-0dot1
ch_type,1_1
kcount,1
numberNandB,1
brightnessNandB,1
carpet pos,0
pc,0
Time (ms),CH1 Auto-Correlation
1.0,0.059035833925008774
2.0,0.05847077816724777
3.0,0.05794018507003784
4.0,0.05744253098964691
5.0,0.056962840259075165
6.0,0.056497231125831604
7.0,0.05604150518774986
8.0,0.05560455471277237
9.0,0.055185046046972275
10.0,0.0547625869512558
11.0,0.054362379014492035
12.0,0.05396098643541336
13.0,0.05356953665614128
14.0,0.0531853586435318
15.0,0.052807558327913284
16.0,0.05243300274014473
18.0,0.05168488621711731
20.0,0.050972942262887955
22.0,0.05028626322746277
24.0,0.04960377886891365
26.0,0.048895709216594696
28.0,0.048186954110860825
30.0,0.047494083642959595
32.0,0.046782538294792175
36.0,0.04542534053325653
40.0,0.04416251927614212
44.0,0.04298350587487221
48.0,0.04182126745581627
52.0,0.04072720184922218
56.0,0.0397813580930233
60.0,0.03891165554523468
64.0,0.038134995847940445
72.0,0.03654683381319046
80.0,0.03477764129638672
88.0,0.03298204019665718
96.0,0.031092585995793343
104.0,0.029175162315368652
112.0,0.02737385965883732
120.0,0.025575077161192894
128.0,0.023897072300314903
144.0,0.02105993963778019
160.0,0.018525494262576103
176.0,0.016432378441095352
192.0,0.014938514679670334
208.0,0.013567738234996796
224.0,0.012118223123252392
240.0,0.010506720282137394
256.0,0.00890266615897417
288.0,0.005711664911359549
320.0,0.0027483985759317875
352.0,-0.0015522356843575835
384.0,-0.005596213974058628
416.0,-0.006471739616245031
448.0,-0.0069231814704835415
480.0,-0.007348410319536924
512.0,-0.006676703691482544
576.0,-0.005646885838359594
640.0,-0.0038310533855110407
704.0,0.0002411957539152354
768.0,0.004179711453616619
832.0,0.0060032084584236145
896.0,0.0043005794286727905
960.0,0.001737678307108581
1024.0,-0.0008119874401018023
1152.0,-0.004012784920632839
1280.0,-0.001825380721129477
1408.0,0.0020913551561534405
1536.0,0.009728433564305305
1664.0,0.013693422079086304
1792.0,0.006566825322806835
1920.0,0.001756215002387762
2048.0,-0.002159467665478587
2304.0,-0.007679250091314316
2560.0,-0.007132804021239281
2816.0,-0.001187495538033545
3072.0,0.006251164246350527
3328.0,0.009938569739460945
3584.0,0.00387443951331079
3840.0,-0.002871427685022354
4096.0,-7.459098560502753e-05
4608.0,-0.005583032499998808
5120.0,0.0011347202816978097
5632.0,-0.0024701335933059454
6144.0,-0.0031382422894239426
6656.0,0.005098321475088596
7168.0,0.0027991565875709057
7680.0,-0.009306749328970909
8192.0,0.007866966538131237
end
