version,3.0
numOfCh,1
type,point
parent_name,34a6d_0dot08-0dot1
ch_type,1_1
kcount,1
numberNandB,1
brightnessNandB,1
carpet pos,0
pc,0
Time (ms),CH1 Auto-Correlation
1.0,0.053331125527620316
2.0,0.05270221084356308
3.0,0.05212920159101486
4.0,0.05158408731222153
5.0,0.0510508231818676
6.0,0.05052460730075836
7.0,0.05001203715801239
8.0,0.049507927149534225
9.0,0.04901023954153061
10.0,0.04854130744934082
11.0,0.04809527471661568
12.0,0.04763687774538994
13.0,0.04720468446612358
14.0,0.04679017513990402
15.0,0.04637359827756882
16.0,0.04593193903565407
18.0,0.04507144168019295
20.0,0.04420381039381027
22.0,0.04334650933742523
24.0,0.042521268129348755
26.0,0.04176408424973488
28.0,0.0410580039024353
30.0,0.04040279984474182
32.0,0.03974063694477081
36.0,0.03841843083500862
40.0,0.0370660200715065
44.0,0.03568798303604126
48.0,0.034325968474149704
52.0,0.032972946763038635
56.0,0.031741272658109665
60.0,0.030586756765842438
64.0,0.02949853241443634
72.0,0.027735788375139236
80.0,0.02603069134056568
88.0,0.024448847398161888
96.0,0.0230985339730978
104.0,0.02185884304344654
112.0,0.0209947619587183
120.0,0.02029336243867874
128.0,0.019458290189504623
144.0,0.01721934601664543
160.0,0.01506202295422554
176.0,0.012889550998806953
192.0,0.010769379325211048
208.0,0.00907915085554123
224.0,0.007734399754554033
240.0,0.006568082142621279
256.0,0.005910162813961506
288.0,0.005274364724755287
320.0,0.0043678260408341885
352.0,0.002123354934155941
384.0,0.0018393535865470767
416.0,0.003337284317240119
448.0,0.004534905776381493
480.0,0.004330455791205168
512.0,0.004285620525479317
576.0,0.006245633587241173
640.0,0.006161816418170929
704.0,0.004059359896928072
768.0,0.005777228157967329
832.0,0.0036275493912398815
896.0,0.0035922331735491753
960.0,-0.00024283376114908606
1024.0,-0.0022856849245727062
1152.0,-0.0017127509927377105
1280.0,-0.00583345303311944
1408.0,-0.0030969874933362007
1536.0,-0.0009368660976178944
1664.0,-0.0012747634900733829
1792.0,-0.0014486470026895404
1920.0,-0.006322945933789015
2048.0,-0.0069148000329732895
2304.0,-0.0023719673044979572
2560.0,0.0027667235117405653
2816.0,-0.0006869757198728621
3072.0,-0.0014453157782554626
3328.0,0.0028458249289542437
3584.0,0.008043038658797741
3840.0,0.0011612566886469722
4096.0,-0.0005326740792952478
4608.0,-0.00024989500525407493
5120.0,-0.0002625850902404636
5632.0,-0.010152765549719334
6144.0,-0.005046982318162918
6656.0,-0.007426776457577944
7168.0,0.006793196778744459
7680.0,-5.762127329944633e-05
8192.0,-0.0021065922919660807
end
