version,3.0
numOfCh,1
type,point
parent_name,34a6d_0dot08-0dot1
ch_type,1_1
kcount,1
numberNandB,1
brightnessNandB,1
carpet pos,0
pc,0
Time (ms),CH1 Auto-Correlation
1.0,0.07996241748332977
2.0,0.0792899951338768
3.0,0.07862608879804611
4.0,0.07799077033996582
5.0,0.0773422122001648
6.0,0.07674932479858398
7.0,0.0761873871088028
8.0,0.07564953714609146
9.0,0.07510247826576233
10.0,0.07458870857954025
11.0,0.074095718562603
12.0,0.07357746362686157
13.0,0.07307568192481995
14.0,0.07259364426136017
15.0,0.07213811576366425
16.0,0.07169470936059952
18.0,0.07083885371685028
20.0,0.07005243003368378
22.0,0.06930214166641235
24.0,0.0685892179608345
26.0,0.06787461042404175
28.0,0.06713554263114929
30.0,0.06641222536563873
32.0,0.06568681448698044
36.0,0.06429831683635712
40.0,0.0630340576171875
44.0,0.06182572990655899
48.0,0.06071210652589798
52.0,0.05963965877890587
56.0,0.058675169944763184
60.0,0.0578121617436409
64.0,0.057045843452215195
72.0,0.055667344480752945
80.0,0.054267484694719315
88.0,0.05289152264595032
96.0,0.05154483765363693
104.0,0.05036941543221474
112.0,0.049346763640642166
120.0,0.04834796488285065
128.0,0.047303397208452225
144.0,0.04573392495512962
160.0,0.044173818081617355
176.0,0.04305841401219368
192.0,0.041747014969587326
208.0,0.04046433046460152
224.0,0.03960379213094711
240.0,0.03938001021742821
256.0,0.039005741477012634
288.0,0.03727168217301369
320.0,0.035260289907455444
352.0,0.03407277539372444
384.0,0.03392613306641579
416.0,0.03429516404867172
448.0,0.033578045666217804
480.0,0.03114875592291355
512.0,0.02770826779305935
576.0,0.02592737041413784
640.0,0.026001647114753723
704.0,0.02461155503988266
768.0,0.02161516807973385
832.0,0.020449038594961166
896.0,0.020411554723978043
960.0,0.019419623538851738
1024.0,0.014297939836978912
1152.0,0.009661479853093624
1280.0,0.005401273258030415
1408.0,0.0041431342251598835
1536.0,-0.001775303273461759
1664.0,-0.005913198925554752
1792.0,-0.005072988569736481
1920.0,-0.004527588374912739
2048.0,-0.0016217203810811043
2304.0,0.0019721153657883406
2560.0,0.0009791211923584342
2816.0,-0.0010570656741037965
3072.0,-0.003563516540452838
3328.0,-0.0034755715169012547
3584.0,-0.00439321668818593
3840.0,-0.01455263327807188
4096.0,-0.02124464511871338
4608.0,-0.02048536017537117
5120.0,-0.019195642322301865
5632.0,-0.014131917618215084
6144.0,-0.01561077032238245
6656.0,-0.029416007921099663
7168.0,-0.03430750221014023
7680.0,-0.028136244043707848
8192.0,0.007726720999926329
end
