version,3.0
numOfCh,1
type,point
parent_name,34a6d_0dot08-0dot1
ch_type,1_1
kcount,1
numberNandB,1
brightnessNandB,1
carpet pos,0
pc,0
Time (ms),CH1 Auto-Correlation
1.0,0.07950454950332642
2.0,0.0787232369184494
3.0,0.07798359543085098
4.0,0.07728821784257889
5.0,0.07663187384605408
6.0,0.0759873017668724
7.0,0.07537949085235596
8.0,0.07476042956113815
9.0,0.07414166629314423
10.0,0.07351026684045792
11.0,0.07290054112672806
12.0,0.07229780405759811
13.0,0.071727454662323
14.0,0.07114951312541962
15.0,0.07059293985366821
16.0,0.07008924335241318
18.0,0.06911111623048782
20.0,0.06811869144439697
22.0,0.06713522970676422
24.0,0.06622833013534546
26.0,0.06531362980604172
28.0,0.06448286026716232
30.0,0.06363411247730255
32.0,0.06280571222305298
36.0,0.061330050230026245
40.0,0.05991848558187485
44.0,0.05850910395383835
48.0,0.05721745640039444
52.0,0.05605021119117737
56.0,0.05495954677462578
60.0,0.053916703909635544
64.0,0.05284341424703598
72.0,0.05103721842169762
80.0,0.049505628645420074
88.0,0.04810277372598648
96.0,0.04668046906590462
104.0,0.04509514942765236
112.0,0.043713003396987915
120.0,0.042451806366443634
128.0,0.04133661091327667
144.0,0.03875969722867012
160.0,0.036769114434719086
176.0,0.03515051305294037
192.0,0.034354351460933685
208.0,0.03387992084026337
224.0,0.03295276314020157
240.0,0.031815752387046814
256.0,0.030445806682109833
288.0,0.028160683810710907
320.0,0.027949616312980652
352.0,0.02686600759625435
384.0,0.025449983775615692
416.0,0.024951569736003876
448.0,0.02445659227669239
480.0,0.023173976689577103
512.0,0.02235519327223301
576.0,0.020406262949109077
640.0,0.0179409421980381
704.0,0.01662364788353443
768.0,0.013930103741586208
832.0,0.011574283242225647
896.0,0.0108650429174304
960.0,0.011576230637729168
1024.0,0.008716055192053318
1152.0,0.0038521646056324244
1280.0,0.003933566622436047
1408.0,0.005365042481571436
1536.0,0.0036666064988821745
1664.0,0.004149907734245062
1792.0,0.006524279247969389
1920.0,0.009897722862660885
2048.0,0.011541246436536312
2304.0,0.006002527195960283
2560.0,0.003097117878496647
2816.0,0.0013559780782088637
3072.0,-0.005880238953977823
3328.0,-0.005554388742893934
3584.0,-0.002720690332353115
3840.0,-0.007118895649909973
4096.0,-0.012650630436837673
4608.0,-0.009948584251105785
5120.0,-0.013519230298697948
5632.0,-0.018541784957051277
6144.0,-0.01654144562780857
6656.0,-0.009262528270483017
7168.0,-0.022088589146733284
7680.0,-0.025008229538798332
8192.0,-0.023320794105529785
end
