version,3.0
numOfCh,1
type,point
parent_name,34a6d_0dot08-0dot1
ch_type,1_1
kcount,1
numberNandB,1
brightnessNandB,1
carpet pos,0
pc,0
Time (ms),CH1 Auto-Correlation
1.0,0.10421555489301682
2.0,0.10363718867301941
3.0,0.10306936502456665
4.0,0.10250997543334961
5.0,0.10196135193109512
6.0,0.10141593962907791
7.0,0.10088397562503815
8.0,0.10034800320863724
9.0,0.09982311725616455
10.0,0.09929264336824417
11.0,0.09878301620483398
12.0,0.09826258569955826
13.0,0.09776200354099274
14.0,0.0972704291343689
15.0,0.09677672386169434
16.0,0.0962943434715271
18.0,0.09538593143224716
20.0,0.09453526139259338
22.0,0.09370522946119308
24.0,0.0929013043642044
26.0,0.09209796041250229
28.0,0.09130865335464478
30.0,0.0905657634139061
32.0,0.08986401557922363
36.0,0.08851918578147888
40.0,0.08723655343055725
44.0,0.08597356826066971
48.0,0.08471743017435074
52.0,0.08345512300729752
56.0,0.08229263126850128
60.0,0.08122214674949646
64.0,0.08017538487911224
72.0,0.07830198854207993
80.0,0.07658055424690247
88.0,0.07507775723934174
96.0,0.07360881567001343
104.0,0.07212379574775696
112.0,0.07077963650226593
120.0,0.06965859979391098
128.0,0.068789042532444
144.0,0.0674683228135109
160.0,0.0664086863398552
176.0,0.06575801223516464
192.0,0.06508884578943253
208.0,0.06433805823326111
224.0,0.06313905119895935
240.0,0.06208627298474312
256.0,0.06084776669740677
288.0,0.05796658992767334
320.0,0.05534537509083748
352.0,0.052496448159217834
384.0,0.050012197345495224
416.0,0.04889698699116707
448.0,0.0478581041097641
480.0,0.04744578152894974
512.0,0.04588133841753006
576.0,0.04365600273013115
640.0,0.040889739990234375
704.0,0.03783009573817253
768.0,0.03444736823439598
832.0,0.029482902958989143
896.0,0.02741144225001335
960.0,0.025777988135814667
1024.0,0.0238480381667614
1152.0,0.020662453025579453
1280.0,0.019881954416632652
1408.0,0.01674792729318142
1536.0,0.011895596981048584
1664.0,0.010133955627679825
1792.0,0.007924574427306652
1920.0,0.00879344530403614
2048.0,0.004906569607555866
2304.0,0.00020720208704005927
2560.0,-0.010049478150904179
2816.0,-0.016287798061966896
3072.0,-0.013820003718137741
3328.0,-0.018051059916615486
3584.0,-0.020745452493429184
3840.0,-0.024098491296172142
4096.0,-0.029005786404013634
4608.0,-0.031603503972291946
5120.0,-0.04191778600215912
5632.0,-0.046008478850126266
6144.0,-0.03592764586210251
6656.0,-0.02685503475368023
7168.0,-0.013674040324985981
7680.0,0.0005520754493772984
8192.0,0.007396676577627659
end
