version,3.0
numOfCh,1
type,point
parent_name,34a6d_0dot08-0dot1
ch_type,1_1
kcount,1
numberNandB,1
brightnessNandB,1
carpet pos,0
pc,0
Time (ms),CH1 Auto-Correlation
1.0,0.06461990624666214
2.0,0.06393501162528992
3.0,0.06327927112579346
4.0,0.06263598799705505
5.0,0.06203056499361992
6.0,0.06142424792051315
7.0,0.06085781008005142
8.0,0.06031157821416855
9.0,0.05975613743066788
10.0,0.05921716243028641
11.0,0.05867648497223854
12.0,0.05816546082496643
13.0,0.05767026171088219
14.0,0.05719110369682312
15.0,0.05671469494700432
16.0,0.05624016001820564
18.0,0.05533652752637863
20.0,0.054433420300483704
22.0,0.05355101823806763
24.0,0.05267111584544182
26.0,0.05175952613353729
28.0,0.050851739943027496
30.0,0.049959078431129456
32.0,0.049077726900577545
36.0,0.04746772348880768
40.0,0.045934103429317474
44.0,0.04449349641799927
48.0,0.04314221069216728
52.0,0.041826795786619186
56.0,0.04060737043619156
60.0,0.039499279111623764
64.0,0.038468532264232635
72.0,0.03633946552872658
80.0,0.03411203250288963
88.0,0.032089825719594955
96.0,0.030109426006674767
104.0,0.02813182771205902
112.0,0.02625322714447975
120.0,0.024758871644735336
128.0,0.023755468428134918
144.0,0.02202567458152771
160.0,0.019947350025177002
176.0,0.017923956736922264
192.0,0.01609134115278721
208.0,0.01399063691496849
224.0,0.01244376040995121
240.0,0.011966783553361893
256.0,0.011720757000148296
288.0,0.010948162525892258
320.0,0.010868680663406849
352.0,0.01062417309731245
384.0,0.008967835456132889
416.0,0.007008454296737909
448.0,0.0038166779559105635
480.0,0.0001331198145635426
512.0,-0.0014868048019707203
576.0,-0.003672022605314851
640.0,-0.00300021399743855
704.0,-0.001471722382120788
768.0,0.000208745026611723
832.0,4.489035563892685e-05
896.0,-0.0004487327241804451
960.0,0.0009739196975715458
1024.0,0.00048240492469631135
1152.0,-0.0008026085561141372
1280.0,0.0005822747480124235
1408.0,-0.004171471577137709
1536.0,-0.007923438213765621
1664.0,-0.005065190140157938
1792.0,-0.0022876826114952564
1920.0,1.2573969797813334e-05
2048.0,0.0003666505217552185
2304.0,-0.008374074473977089
2560.0,-0.009838888421654701
2816.0,-0.005020012613385916
3072.0,0.005413340870290995
3328.0,0.004773666616529226
3584.0,0.0004934304743073881
3840.0,0.0012580702314153314
4096.0,0.00015460612485185266
4608.0,-0.004927929025143385
5120.0,0.004445250611752272
5632.0,0.0034303765278309584
6144.0,-0.0021370239555835724
6656.0,-0.007086068857461214
7168.0,-0.0019041354535147548
7680.0,-0.004142204765230417
8192.0,2.336280658710166e-06
end
