version,3.0
numOfCh,1
type,point
parent_name,34a6d_0dot08-0dot1
ch_type,1_1
kcount,1
numberNandB,1
brightnessNandB,1
carpet pos,0
pc,0
Time (ms),CH1 Auto-Correlation
1.0,0.06813303381204605
2.0,0.06750282645225525
3.0,0.06691448390483856
4.0,0.06637661159038544
5.0,0.06586580723524094
6.0,0.06535030156373978
7.0,0.06485040485858917
8.0,0.0643407553434372
9.0,0.06380688399076462
10.0,0.06325510144233704
11.0,0.06274136155843735
12.0,0.062246110290288925
13.0,0.06174809858202934
14.0,0.06124763563275337
15.0,0.06074756756424904
16.0,0.06025722995400429
18.0,0.05929548665881157
20.0,0.058331333100795746
22.0,0.05738162249326706
24.0,0.05640723183751106
26.0,0.05555271729826927
28.0,0.054713375866413116
30.0,0.05390463396906853
32.0,0.053138554096221924
36.0,0.051689863204956055
40.0,0.0502898208796978
44.0,0.04892045259475708
48.0,0.04765669256448746
52.0,0.046430401504039764
56.0,0.045228131115436554
60.0,0.04398171976208687
64.0,0.042757146060466766
72.0,0.04049843177199364
80.0,0.0383731983602047
88.0,0.03637160360813141
96.0,0.034491781145334244
104.0,0.03247760236263275
112.0,0.030509350821375847
120.0,0.02878052555024624
128.0,0.027279825881123543
144.0,0.024649783968925476
160.0,0.022174889221787453
176.0,0.019957005977630615
192.0,0.017801558598876
208.0,0.015584399923682213
224.0,0.013420025818049908
240.0,0.011667056940495968
256.0,0.01125316508114338
288.0,0.01108783669769764
320.0,0.011303950101137161
352.0,0.011000404134392738
384.0,0.009612202644348145
416.0,0.007808925583958626
448.0,0.005978022702038288
480.0,0.004120681434869766
512.0,0.003679882036522031
576.0,0.00609801709651947
640.0,0.0073251486755907536
704.0,0.006293749436736107
768.0,0.003703340422362089
832.0,0.0014383819652721286
896.0,-0.00018390010518487543
960.0,-0.001261735102161765
1024.0,-0.002121530007570982
1152.0,-0.004957910161465406
1280.0,-0.003549345303326845
1408.0,0.0025918602477759123
1536.0,0.00010302548616891727
1664.0,-0.0018471524817869067
1792.0,-0.003489104565232992
1920.0,-0.006034896709024906
2048.0,-0.00604925537481904
2304.0,0.0005282899364829063
2560.0,0.004705606494098902
2816.0,0.004215884022414684
3072.0,0.004909574519842863
3328.0,0.00936791580170393
3584.0,0.012871169485151768
3840.0,0.011055179871618748
4096.0,0.01105137076228857
4608.0,-0.0022134643513709307
5120.0,-0.007278193719685078
5632.0,-0.01710943877696991
6144.0,0.003535930998623371
6656.0,0.00895511731505394
7168.0,-0.002705730265006423
7680.0,-0.007066274993121624
8192.0,-0.013092550449073315
end
