version,3.0
numOfCh,1
type,point
parent_name,34a6d_0dot08-0dot1
ch_type,1_1
kcount,1
numberNandB,1
brightnessNandB,1
carpet pos,0
pc,0
Time (ms),CH1 Auto-Correlation
1.0,0.06628582626581192
2.0,0.06566806882619858
3.0,0.06507205963134766
4.0,0.06449592113494873
5.0,0.06392630934715271
6.0,0.06337056308984756
7.0,0.06281869113445282
8.0,0.06229448318481445
9.0,0.06178746372461319
10.0,0.06129446625709534
11.0,0.06083375960588455
12.0,0.06037608161568642
13.0,0.05991215631365776
14.0,0.05948285758495331
15.0,0.05904247984290123
16.0,0.058615755289793015
18.0,0.05781594291329384
20.0,0.05705840513110161
22.0,0.05630335956811905
24.0,0.05554072558879852
26.0,0.05477280914783478
28.0,0.054013390094041824
30.0,0.05323735624551773
32.0,0.052493561059236526
36.0,0.051035501062870026
40.0,0.04961565509438515
44.0,0.04820296913385391
48.0,0.046926289796829224
52.0,0.04570109024643898
56.0,0.044402215629816055
60.0,0.0430886372923851
64.0,0.04180778190493584
72.0,0.03931982442736626
80.0,0.03700682148337364
88.0,0.03500184044241905
96.0,0.03327527269721031
104.0,0.03165735304355621
112.0,0.030005954205989838
120.0,0.02829066291451454
128.0,0.026850396767258644
144.0,0.02460073120892048
160.0,0.022653067484498024
176.0,0.020959995687007904
192.0,0.01898571290075779
208.0,0.016957061365246773
224.0,0.01521656010299921
240.0,0.014304972253739834
256.0,0.013951869681477547
288.0,0.013159548863768578
320.0,0.01251873280853033
352.0,0.011292473413050175
384.0,0.009707148186862469
416.0,0.008390038274228573
448.0,0.008496425114572048
480.0,0.008562245406210423
512.0,0.008508702740073204
576.0,0.005594476591795683
640.0,0.003209330141544342
704.0,-0.0006058793514966965
768.0,-0.0047522797249257565
832.0,-0.006874107755720615
896.0,-0.011471682228147984
960.0,-0.01292478758841753
1024.0,-0.009809707291424274
1152.0,-0.008169019594788551
1280.0,-0.008411293849349022
1408.0,-0.01064345519989729
1536.0,-0.0063922046683728695
1664.0,-0.008966708555817604
1792.0,-0.0024742628447711468
1920.0,-0.0002800713700708002
2048.0,0.0036619333550333977
2304.0,0.0017025547567754984
2560.0,0.003953689709305763
2816.0,-0.0015571414260193706
3072.0,-0.002138656796887517
3328.0,-0.004201187752187252
3584.0,-0.004462434910237789
3840.0,-0.004317937418818474
4096.0,-0.006655736360698938
4608.0,0.0004449714033398777
5120.0,-0.0013597391080111265
5632.0,0.0024961992166936398
6144.0,0.00984562560915947
6656.0,0.0022363082971423864
7168.0,-0.005050858482718468
7680.0,0.00416237348690629
8192.0,0.009571418166160583
end
