version,3.0
numOfCh,1
type,point
parent_name,34a6d_0dot1-0dot01
ch_type,1_1
kcount,1
numberNandB,1
brightnessNandB,1
carpet pos,0
pc,0
Time (ms),CH1 Auto-Correlation
1.0,0.023054253309965134
2.0,0.02285531535744667
3.0,0.022658953443169594
4.0,0.022464903071522713
5.0,0.022276287898421288
6.0,0.022091394290328026
7.0,0.021903714165091515
8.0,0.02172461338341236
9.0,0.021539747714996338
10.0,0.021359292790293694
11.0,0.02117961086332798
12.0,0.0209999680519104
13.0,0.0208257045596838
14.0,0.020649921149015427
15.0,0.020477453246712685
16.0,0.02030371129512787
18.0,0.01996384747326374
20.0,0.01963602378964424
22.0,0.019314419478178024
24.0,0.018991272896528244
26.0,0.01866188459098339
28.0,0.01834229938685894
30.0,0.01803247071802616
32.0,0.01773720420897007
36.0,0.017173005267977715
40.0,0.01662195660173893
44.0,0.016111617907881737
48.0,0.015629967674613
52.0,0.015177730470895767
56.0,0.01472964696586132
60.0,0.014272837899625301
64.0,0.013835377991199493
72.0,0.01293827686458826
80.0,0.012101243250072002
88.0,0.011308138258755207
96.0,0.010526098310947418
104.0,0.009843110106885433
112.0,0.009203191846609116
120.0,0.008534458465874195
128.0,0.007926872000098228
144.0,0.006897974759340286
160.0,0.005878149066120386
176.0,0.004919782280921936
192.0,0.004265657626092434
208.0,0.0038762055337429047
224.0,0.0037046114448457956
240.0,0.003576673800125718
256.0,0.003667391836643219
288.0,0.00397863145917654
320.0,0.0040800259448587894
352.0,0.0035440418869256973
384.0,0.0030902225989848375
416.0,0.0024836051743477583
448.0,0.0017429169965907931
480.0,0.0012417512480169535
512.0,0.0005248006200417876
576.0,0.00010697920515667647
640.0,0.0008351955329999328
704.0,0.0005794197204522789
768.0,-6.232775922399014e-05
832.0,-0.0007673571817576885
896.0,-0.001040695351548493
960.0,-0.0009841695427894592
1024.0,-0.0008807902922853827
1152.0,-0.0023545087315142155
1280.0,-0.002670396352186799
1408.0,-0.0003822342259809375
1536.0,-0.0010401689214631915
1664.0,-0.00081351597327739
1792.0,0.0011806540424004197
1920.0,0.0019076240714639425
2048.0,0.0024359708186239004
2304.0,0.0022924309596419334
2560.0,0.00017315318109467626
2816.0,-0.0029549412429332733
3072.0,-0.0035620592534542084
3328.0,-0.0029532937332987785
3584.0,-0.0030449607875198126
3840.0,-0.002051973482593894
4096.0,0.0003695859631989151
4608.0,0.0020662928000092506
5120.0,-0.0005583845777437091
5632.0,-0.0021256001200526953
6144.0,-0.00276069319806993
6656.0,0.0011709018144756556
7168.0,0.0001425134250894189
7680.0,-0.004423909354954958
8192.0,-0.005571667104959488
end
