version,3.0
numOfCh,1
type,point
parent_name,34a6d_0dot1-0dot01
ch_type,1_1
kcount,1
numberNandB,1
brightnessNandB,1
carpet pos,0
pc,0
Time (ms),CH1 Auto-Correlation
1.0,0.024256037548184395
2.0,0.024053093045949936
3.0,0.023859983310103416
4.0,0.023664332926273346
5.0,0.02347222901880741
6.0,0.02328537590801716
7.0,0.02310747094452381
8.0,0.02292575314640999
9.0,0.02274649403989315
10.0,0.022567179054021835
11.0,0.02238505147397518
12.0,0.02220652811229229
13.0,0.0220306646078825
14.0,0.021860085427761078
15.0,0.021693818271160126
16.0,0.021532753482460976
18.0,0.021220652386546135
20.0,0.02092036046087742
22.0,0.020619545131921768
24.0,0.02032049000263214
26.0,0.02003437839448452
28.0,0.019764024764299393
30.0,0.019498169422149658
32.0,0.019237088039517403
36.0,0.01874464377760887
40.0,0.018284855410456657
44.0,0.017878754064440727
48.0,0.0174837876111269
52.0,0.017113741487264633
56.0,0.01676596887409687
60.0,0.016441600397229195
64.0,0.016140563413500786
72.0,0.015572991222143173
80.0,0.015046513639390469
88.0,0.014552523382008076
96.0,0.014012745581567287
104.0,0.013457495719194412
112.0,0.012833964079618454
120.0,0.012210981920361519
128.0,0.011705548502504826
144.0,0.010930404998362064
160.0,0.010248731821775436
176.0,0.009634241461753845
192.0,0.009142615832388401
208.0,0.008801218122243881
224.0,0.008501334115862846
240.0,0.00841980054974556
256.0,0.008095839992165565
288.0,0.006974874064326286
320.0,0.005784573964774609
352.0,0.004539339803159237
384.0,0.0035228440538048744
416.0,0.0033193749841302633
448.0,0.0035526438150554895
480.0,0.0038024780806154013
512.0,0.0038229862693697214
576.0,0.002675471594557166
640.0,0.002149556064978242
704.0,0.001916502951644361
768.0,0.0017485871212556958
832.0,0.0007256987155415118
896.0,0.00037985286326147616
960.0,-0.00043187933624722064
1024.0,0.00019543732923921198
1152.0,0.002330414718016982
1280.0,0.0021652933210134506
1408.0,0.002455791225656867
1536.0,0.002112092450261116
1664.0,0.0026210916694253683
1792.0,-0.0007138515939004719
1920.0,-0.0023050897289067507
2048.0,-0.002291315235197544
2304.0,-0.0022444112692028284
2560.0,-0.0018272523302584887
2816.0,0.0012195007875561714
3072.0,-0.00044576279469765723
3328.0,-0.0017540507251396775
3584.0,-0.002188949380069971
3840.0,-0.00020927967852912843
4096.0,0.0014566514873877168
4608.0,0.000641393824480474
5120.0,-0.0003298887168057263
5632.0,-0.002406660933047533
6144.0,0.00139257509727031
6656.0,0.002411131514236331
7168.0,-0.006351192481815815
7680.0,-0.004564128816127777
8192.0,-0.003570505417883396
end
