version,3.0
numOfCh,1
type,point
parent_name,34a6d_0dot1-0dot01
ch_type,1_1
kcount,1
numberNandB,1
brightnessNandB,1
carpet pos,0
pc,0
Time (ms),CH1 Auto-Correlation
1.0,0.02152932807803154
2.0,0.021335840225219727
3.0,0.021144088357686996
4.0,0.020961252972483635
5.0,0.02078501507639885
6.0,0.020614633336663246
7.0,0.020447662100195885
8.0,0.020282234996557236
9.0,0.020121702924370766
10.0,0.019965069368481636
11.0,0.019812075421214104
12.0,0.019660983234643936
13.0,0.01951747015118599
14.0,0.019378071650862694
15.0,0.019241588190197945
16.0,0.019104892387986183
18.0,0.018848633393645287
20.0,0.018606223165988922
22.0,0.018363596871495247
24.0,0.01813225820660591
26.0,0.01790882833302021
28.0,0.017697185277938843
30.0,0.017490411177277565
32.0,0.017283454537391663
36.0,0.016904443502426147
40.0,0.016528690233826637
44.0,0.01617845892906189
48.0,0.01585424691438675
52.0,0.015569647774100304
56.0,0.015301892533898354
60.0,0.015046454034745693
64.0,0.014829044230282307
72.0,0.014451214112341404
80.0,0.014075344428420067
88.0,0.013707141391932964
96.0,0.013309688307344913
104.0,0.012913740240037441
112.0,0.012574560940265656
120.0,0.012280776165425777
128.0,0.011935577727854252
144.0,0.011568902991712093
160.0,0.011410454288125038
176.0,0.011084978468716145
192.0,0.010689186863601208
208.0,0.010261728428304195
224.0,0.009874038398265839
240.0,0.009498382918536663
256.0,0.009148568846285343
288.0,0.008572125807404518
320.0,0.008235090412199497
352.0,0.007905487902462482
384.0,0.007339483592659235
416.0,0.006987931672483683
448.0,0.006768671330064535
480.0,0.006425101775676012
512.0,0.006115907337516546
576.0,0.005243357270956039
640.0,0.00414629839360714
704.0,0.00439757015556097
768.0,0.004327058792114258
832.0,0.004186477046459913
896.0,0.004118411801755428
960.0,0.0032360279001295567
1024.0,0.00346312765032053
1152.0,0.002834111452102661
1280.0,0.001769320690073073
1408.0,0.0017457448411732912
1536.0,0.0021055592224001884
1664.0,0.0012378271203488111
1792.0,0.0002960014098789543
1920.0,-0.00089098239550367
2048.0,-0.002286587143316865
2304.0,-0.0032995929941534996
2560.0,-0.0032186408061534166
2816.0,-0.0023190437350422144
3072.0,-0.0027984248008579016
3328.0,-0.0030428485479205847
3584.0,-0.004854861181229353
3840.0,-0.005444076377898455
4096.0,-0.0037940186448395252
4608.0,0.0017017637146636844
5120.0,0.005051671527326107
5632.0,0.005442564841359854
6144.0,0.005513059441000223
6656.0,0.0022606058046221733
7168.0,-0.0023735554423183203
7680.0,-0.0030005883891135454
8192.0,-0.004590267781168222
end
