version,3.0
numOfCh,1
type,point
parent_name,34a6d_0dot1-0dot01
ch_type,1_1
kcount,1
numberNandB,1
brightnessNandB,1
carpet pos,0
pc,0
Time (ms),CH1 Auto-Correlation
1.0,0.061554331332445145
2.0,0.06098167225718498
3.0,0.060429349541664124
4.0,0.05988963320851326
5.0,0.05936606228351593
6.0,0.05885887145996094
7.0,0.05835321545600891
8.0,0.05787590891122818
9.0,0.05741719901561737
10.0,0.05688553303480148
11.0,0.05636417120695114
12.0,0.05586138740181923
13.0,0.05536573380231857
14.0,0.05485067516565323
15.0,0.05431000515818596
16.0,0.05374154821038246
18.0,0.052744075655937195
20.0,0.05186469107866287
22.0,0.0510464683175087
24.0,0.05020836368203163
26.0,0.049417268484830856
28.0,0.04861649125814438
30.0,0.04780227690935135
32.0,0.047019265592098236
36.0,0.04571938142180443
40.0,0.044583629816770554
44.0,0.04363291710615158
48.0,0.0426611490547657
52.0,0.041727449744939804
56.0,0.040911391377449036
60.0,0.040297117084264755
64.0,0.03968047723174095
72.0,0.03837690129876137
80.0,0.03714986890554428
88.0,0.03567790985107422
96.0,0.0339759923517704
104.0,0.032406844198703766
112.0,0.031043998897075653
120.0,0.029542885720729828
128.0,0.02807912603020668
144.0,0.025114184245467186
160.0,0.021691178902983665
176.0,0.017687963321805
192.0,0.01629072241485119
208.0,0.015804164111614227
224.0,0.014539900235831738
240.0,0.01267252303659916
256.0,0.011379849165678024
288.0,0.008645489811897278
320.0,0.0071739573031663895
352.0,0.006440089549869299
384.0,0.005985262803733349
416.0,0.0047109657898545265
448.0,0.0031303241848945618
480.0,0.00276684551499784
512.0,-0.0024934669490903616
576.0,-0.0041544800624251366
640.0,-0.005777291022241116
704.0,-0.0025383182801306248
768.0,-0.00035272620152682066
832.0,0.005494627170264721
896.0,0.0010277933906763792
960.0,0.0027875774540007114
1024.0,0.003488270565867424
1152.0,0.002308815950527787
1280.0,0.0029494452755898237
1408.0,0.005657676607370377
1536.0,0.00400930643081665
1664.0,-0.0030304715037345886
1792.0,-0.00990977045148611
1920.0,-0.01304056029766798
2048.0,-0.015215732157230377
2304.0,-0.010019766166806221
2560.0,-0.001380963483825326
2816.0,-0.006299581844359636
3072.0,-0.01811811700463295
3328.0,-0.022580785676836967
3584.0,-0.016360623762011528
3840.0,-0.002470661187544465
4096.0,0.010505410842597485
end
