version,3.0
numOfCh,1
type,point
parent_name,34a6d_0dot1-0dot01
ch_type,1_1
kcount,1
numberNandB,1
brightnessNandB,1
carpet pos,0
pc,0
Time (ms),CH1 Auto-Correlation
1.0,0.02686411514878273
2.0,0.026554206386208534
3.0,0.02624235861003399
4.0,0.02595951408147812
5.0,0.025684084743261337
6.0,0.02542298659682274
7.0,0.025158528238534927
8.0,0.024873696267604828
9.0,0.02459726855158806
10.0,0.02431945875287056
11.0,0.024041343480348587
12.0,0.023773102089762688
13.0,0.02352115698158741
14.0,0.023270590230822563
15.0,0.023012664169073105
16.0,0.02275853604078293
18.0,0.022237202152609825
20.0,0.021732261404395103
22.0,0.021251853555440903
24.0,0.020758185535669327
26.0,0.020283963531255722
28.0,0.019852198660373688
30.0,0.019433293491601944
32.0,0.019023647531867027
36.0,0.018257346004247665
40.0,0.01754954271018505
44.0,0.016934705898165703
48.0,0.016348252072930336
52.0,0.015802646055817604
56.0,0.015291141346096992
60.0,0.014801203273236752
64.0,0.014335940591990948
72.0,0.013268805108964443
80.0,0.012276033870875835
88.0,0.01127435639500618
96.0,0.010274161584675312
104.0,0.00958263035863638
112.0,0.00915361288934946
120.0,0.008825743570923805
128.0,0.00844868365675211
144.0,0.00751859974116087
160.0,0.0066474368795752525
176.0,0.0059281340800225735
192.0,0.005239787045866251
208.0,0.00477664964273572
224.0,0.004542622249573469
240.0,0.004304117057472467
256.0,0.004003253765404224
288.0,0.0035665591713041067
320.0,0.004412809852510691
352.0,0.005025429651141167
384.0,0.005022579338401556
416.0,0.004865448456257582
448.0,0.004365261644124985
480.0,0.003689446020871401
512.0,0.002630861010402441
576.0,0.0010137658100575209
640.0,0.00010689617920434102
704.0,0.0002875447098631412
768.0,0.0006304755224846303
832.0,0.00014718377497047186
896.0,-0.0005665803328156471
960.0,-0.00199026707559824
1024.0,-0.002627895912155509
1152.0,-0.0010586193529888988
1280.0,-0.0004697658587247133
1408.0,-0.0005351021536625922
1536.0,0.0010512893786653876
1664.0,0.0022234695497900248
1792.0,0.001492790412157774
1920.0,-0.0015600614715367556
2048.0,-0.003256835276260972
2304.0,-0.001989198150113225
2560.0,-0.0022274672519415617
2816.0,-0.0005712310667149723
3072.0,-0.002205468714237213
3328.0,-0.0018800526158884168
3584.0,-0.0041222297586500645
3840.0,-0.005673727486282587
4096.0,-0.0030452606733888388
4608.0,-0.0021557805594056845
5120.0,-0.0007153205806389451
5632.0,0.0008281716145575047
6144.0,-8.359228559129406e-06
6656.0,-0.0015153840649873018
7168.0,0.0041104936972260475
7680.0,0.003465288318693638
8192.0,0.004343936685472727
end
