version,3.0
numOfCh,1
type,point
parent_name,34a6d_0dot1-0dot01
ch_type,1_1
kcount,1
numberNandB,1
brightnessNandB,1
carpet pos,0
pc,0
Time (ms),CH1 Auto-Correlation
1.0,0.02162041701376438
2.0,0.021206088364124298
3.0,0.020802082493901253
4.0,0.02038508653640747
5.0,0.019969739019870758
6.0,0.019566569477319717
7.0,0.019157683476805687
8.0,0.018742259591817856
9.0,0.018565019592642784
10.0,0.018391072750091553
11.0,0.018231447786092758
12.0,0.018084287643432617
13.0,0.01794452965259552
14.0,0.01779952645301819
15.0,0.017682727426290512
16.0,0.017570067197084427
18.0,0.017345929518342018
20.0,0.017122847959399223
22.0,0.016879107803106308
24.0,0.01659512333571911
26.0,0.016327351331710815
28.0,0.016069332137703896
30.0,0.015809008851647377
32.0,0.015564223751425743
36.0,0.015117860399186611
40.0,0.014736303128302097
44.0,0.014429164119064808
48.0,0.014075628481805325
52.0,0.01369436550885439
56.0,0.013364184647798538
60.0,0.01303448248654604
64.0,0.012701540254056454
72.0,0.012066046707332134
80.0,0.011500542983412743
88.0,0.010919239372015
96.0,0.01035362295806408
104.0,0.009851168841123581
112.0,0.009335569106042385
120.0,0.008802291005849838
128.0,0.00830722227692604
144.0,0.007399233989417553
160.0,0.00670997891575098
176.0,0.006254173349589109
192.0,0.006022749934345484
208.0,0.006090594921261072
224.0,0.006249453406780958
240.0,0.00624192226678133
256.0,0.0059714713133871555
288.0,0.005422530230134726
320.0,0.00511407433077693
352.0,0.00495496392250061
384.0,0.004430603701621294
416.0,0.0038798341993242502
448.0,0.0032561621628701687
480.0,0.002630456117913127
512.0,0.0024696625769138336
576.0,0.002597741549834609
640.0,0.002782250288873911
704.0,0.0025168617721647024
768.0,0.0017609702190384269
832.0,0.0010748672066256404
896.0,0.0016204634448513389
960.0,0.002501582494005561
1024.0,0.0024496593978255987
1152.0,-6.990093879721826e-06
1280.0,-3.585120430216193e-05
1408.0,-0.0004414832219481468
1536.0,-0.0017419063951820135
1664.0,-0.001728193718008697
1792.0,-0.0035609868355095387
1920.0,-0.002662750193849206
2048.0,-0.0013617309741675854
2304.0,-0.0016973838210105896
2560.0,-0.00296717113815248
2816.0,-0.003403758630156517
3072.0,-0.0016448157839477062
3328.0,0.0004566968709696084
3584.0,-0.0005766972317360342
3840.0,-0.0007139124791137874
4096.0,0.0001280757860513404
4608.0,-0.0005059216637164354
5120.0,-0.001547501771710813
5632.0,-0.004300661850720644
6144.0,-0.00024372481857426465
6656.0,0.0011035590432584286
7168.0,0.000656162213999778
7680.0,4.998615258955397e-05
8192.0,0.0021864932496100664
end
