version,3.0
numOfCh,1
type,point
parent_name,34a6d_0dot1-0dot01
ch_type,1_1
kcount,1
numberNandB,1
brightnessNandB,1
carpet pos,0
pc,0
Time (ms),CH1 Auto-Correlation
1.0,0.025044217705726624
2.0,0.024811800569295883
3.0,0.024581434205174446
4.0,0.024367010220885277
5.0,0.024161281064152718
6.0,0.023956825956702232
7.0,0.023764755576848984
8.0,0.02357078716158867
9.0,0.02338234707713127
10.0,0.023190893232822418
11.0,0.02300080470740795
12.0,0.02280731499195099
13.0,0.022618530318140984
14.0,0.0224368404597044
15.0,0.022268936038017273
16.0,0.02210349775850773
18.0,0.021787315607070923
20.0,0.021488260477781296
22.0,0.021193554624915123
24.0,0.020894808694720268
26.0,0.020609969273209572
28.0,0.020317252725362778
30.0,0.020037172362208366
32.0,0.019770251587033272
36.0,0.01926307938992977
40.0,0.018725410103797913
44.0,0.018185626715421677
48.0,0.01764575205743313
52.0,0.017185283824801445
56.0,0.016764545813202858
60.0,0.016341939568519592
64.0,0.015914153307676315
72.0,0.015042304061353207
80.0,0.014228206127882004
88.0,0.013460816815495491
96.0,0.012857338413596153
104.0,0.01218925230205059
112.0,0.011497176252305508
120.0,0.010884792543947697
128.0,0.010380597785115242
144.0,0.00949848722666502
160.0,0.008944038301706314
176.0,0.008419274352490902
192.0,0.008084421046078205
208.0,0.007640880066901445
224.0,0.007184797897934914
240.0,0.006517335306853056
256.0,0.005899480544030666
288.0,0.004982238169759512
320.0,0.0038889669813215733
352.0,0.0029972901102155447
384.0,0.002215223154053092
416.0,0.0012079261941835284
448.0,0.0003363406576681882
480.0,-0.0002897351805586368
512.0,-0.0004212695639580488
576.0,-0.0005483184941112995
640.0,-0.000826775620225817
704.0,-0.0008897615480236709
768.0,-0.0010613615158945322
832.0,-0.0004312197270337492
896.0,0.0005708113312721252
960.0,0.0018522761529311538
1024.0,0.003930388484150171
1152.0,0.005893345922231674
1280.0,0.005995662417262793
1408.0,0.0045409370213747025
1536.0,0.0014759659534320235
1664.0,0.0013646919978782535
1792.0,0.0023049681913107634
1920.0,0.0025804396718740463
2048.0,0.0024642180651426315
2304.0,0.0023147498723119497
2560.0,0.0005002529942430556
2816.0,-0.002258256310597062
3072.0,0.000352776434738189
3328.0,0.004571886733174324
3584.0,0.004007332492619753
3840.0,0.0009984428761526942
4096.0,-0.0038053987082093954
4608.0,-0.0003771428018808365
5120.0,0.002116530667990446
5632.0,-0.0017172786174342036
6144.0,-0.0029748198576271534
6656.0,0.002866296796128154
7168.0,-0.002279420383274555
7680.0,-0.002893748925998807
8192.0,-0.0002609549555927515
end
