version,3.0
numOfCh,1
type,point
parent_name,mod-filtering
ch_type,1_1
kcount,1
numberNandB,1
brightnessNandB,1
carpet pos,0
pc,0
Time (ms),CH1 Auto-Correlation
1.0,0.02445204189242256
2.0,0.019161882426699695
3.0,0.01565136594440064
4.0,0.013548492943836088
5.0,0.01150155751279014
6.0,0.009556319962801041
7.0,0.008130032519106933
8.0,0.006356826646047642
9.0,0.005267993129422832
10.0,0.004284275960490858
11.0,0.0035855621671303517
12.0,0.0027001516309441698
13.0,0.002141880710412325
14.0,0.0010964479036432717
15.0,0.00030756914455909445
16.0,-0.00037371986568113247
18.0,-0.0014365260054253204
20.0,-0.0024321814018812837
22.0,-0.0030768470502283707
24.0,-0.0031449616013736748
26.0,-0.0035599968984038055
28.0,-0.004043449299096835
30.0,-0.004358898388964305
32.0,-0.004450673316902187
36.0,-0.004687199024757449
40.0,-0.005429215366772433
44.0,-0.004891084344821661
48.0,-0.005598839826104318
52.0,-0.007075312062147732
56.0,-0.007799269845787826
60.0,-0.007959799139358958
64.0,-0.00833274001065798
72.0,-0.008745356770232582
80.0,-0.008459518933430221
88.0,-0.009492605371935858
96.0,-0.011638050319896953
104.0,-0.01183964750363653
112.0,-0.012536576613866757
120.0,-0.011634699496951284
128.0,-0.011684915854525024
144.0,-0.01393771499183194
160.0,-0.01656383317192267
176.0,-0.016948484585141088
192.0,-0.01806655226210574
208.0,-0.017696817066700676
224.0,-0.017400839902072085
240.0,-0.016491775320439994
256.0,-0.01707569276794696
288.0,-0.01694845299204184
320.0,-0.014330474399079418
352.0,-0.015200889212495627
384.0,-0.017896904913129563
416.0,-0.015332161013295154
448.0,-0.014384570304552535
480.0,-0.013043793962155492
512.0,-0.012668525573261702
576.0,-0.012798674598108684
640.0,-0.016870762945345286
704.0,-0.018705098328757885
768.0,-0.0214725677883556
832.0,-0.018976088701159077
896.0,-0.014258848779803324
960.0,-0.014528856159057413
1024.0,-0.01305516597445655
1152.0,-0.01588552164940993
1280.0,-0.0169129855808976
1408.0,-0.016072629668557603
1536.0,-0.01549781750897794
1664.0,-0.015543358919319461
1792.0,-0.015466300112682463
1920.0,-0.005980055689242092
2048.0,-0.0005013656601455807
2304.0,-0.007166410836657144
2560.0,0.012198561661964202
2816.0,0.015585116595063564
3072.0,0.0283610467996942
3328.0,0.030224001156411662
3584.0,0.06257364155281997
3840.0,0.0884547136912952
4096.0,0.10584019058469019
4608.0,0.09745789068656219
5120.0,0.11736927993425517
5632.0,0.11867514187390027
6144.0,0.04273324224414421
6656.0,0.0017999167073465827
7168.0,-0.002267560105866373
7680.0,-0.007251827977701519
8192.0,-0.026089515064119384
9216.0,-0.014605138957747732
10240.0,-0.00539764489434702
11264.0,-0.0017627419417532986
12288.0,-0.006657643197089946
13312.0,0.014548966436275013
14336.0,-0.3479354057461912
end
