version,3.0
numOfCh,1
type,point
parent_name,mod-filtering
ch_type,1_1
kcount,1
numberNandB,1
brightnessNandB,1
carpet pos,0
pc,0
Time (ms),CH1 Auto-Correlation
1.0,0.025394454460062832
2.0,0.019903730279976273
3.0,0.016406211854492314
4.0,0.013436015646639987
5.0,0.011431813558802295
6.0,0.009740102351972979
7.0,0.00822198381835837
8.0,0.007017297807840217
9.0,0.005817629368690236
10.0,0.0048654520719830785
11.0,0.0039945948486421745
12.0,0.0030004216621586366
13.0,0.002110502697637351
14.0,0.0015652749033410185
15.0,0.0009154210738302471
16.0,0.0004293077598713779
18.0,-0.0004034678372953904
20.0,-0.0006598450703511061
22.0,-0.0010100930398195818
24.0,-0.0013897282851774717
26.0,-0.0020782276290646218
28.0,-0.0025508354803558397
30.0,-0.003498564262738535
32.0,-0.0046331343637807665
36.0,-0.005587901142441676
40.0,-0.005770959414198362
44.0,-0.005617181272457028
48.0,-0.005520395797566691
52.0,-0.005717893919361283
56.0,-0.006050117294042923
60.0,-0.006806483005530439
64.0,-0.007103122854834831
72.0,-0.007246925419687744
80.0,-0.007835926460942111
88.0,-0.009022424501897164
96.0,-0.009466803086731423
104.0,-0.009414815713621683
112.0,-0.009571143858481679
120.0,-0.010149156683154636
128.0,-0.011074359537925127
144.0,-0.012286701093318975
160.0,-0.0115707620780241
176.0,-0.011543144306138231
192.0,-0.012606143454561347
208.0,-0.013593105827225727
224.0,-0.013659958655755644
240.0,-0.012421807108344729
256.0,-0.012083409755081598
288.0,-0.010798359908304245
320.0,-0.01156564183578812
352.0,-0.012575053484408238
384.0,-0.011903929232668475
416.0,-0.013690462162469053
448.0,-0.01348214529841818
480.0,-0.012275985347477092
512.0,-0.013192927902792806
576.0,-0.012545873261822105
640.0,-0.014349452216566694
704.0,-0.015791705499957787
768.0,-0.016742920946324014
832.0,-0.01613800824491818
896.0,-0.016522591615044657
960.0,-0.014493629401447161
1024.0,-0.01170740761630562
1152.0,-0.00716362587767827
1280.0,-0.00431056240970773
1408.0,-0.00399349676765226
1536.0,0.0009422247941364148
1664.0,0.004610448346116236
1792.0,0.006389777176037503
1920.0,0.0036656309821474498
2048.0,-0.0013300649168740408
2304.0,-0.0005054779070208237
2560.0,0.0034626770644818894
2816.0,0.006833718592915483
3072.0,0.009577712689514017
3328.0,0.006779726213656412
3584.0,0.008634472501043211
3840.0,0.014051654434710459
4096.0,0.015789726580943242
4608.0,0.012133771801104976
5120.0,0.010070196660850517
5632.0,0.011353832037237499
6144.0,0.007345127883469527
6656.0,-0.005232609892338536
7168.0,0.0010546986534272218
7680.0,-0.007359203672623216
8192.0,-0.02202265772326506
9216.0,-0.01673533531320537
10240.0,-0.007336751266891373
11264.0,0.002634871483548018
12288.0,0.005227713972100867
13312.0,0.024691784088559876
14336.0,0.009710679244688158
end
