version,3.0
numOfCh,1
type,point
parent_name,mod-filtering
ch_type,1_1
kcount,1
numberNandB,1
brightnessNandB,1
carpet pos,0
pc,0
Time (ms),CH1 Auto-Correlation
1.0,0.02562860164644931
2.0,0.020783732286876466
3.0,0.01745914898561307
4.0,0.014894986908374097
5.0,0.012948766875745976
6.0,0.01150886343119284
7.0,0.010490892891772852
8.0,0.009733323987644926
9.0,0.008815921174549768
10.0,0.0079521086926857
11.0,0.007196218904554463
12.0,0.006632636599540609
13.0,0.006085834677700408
14.0,0.005665793240374528
15.0,0.0050933824623335955
16.0,0.0047250847636817195
18.0,0.0041030452199646295
20.0,0.0037773784766543805
22.0,0.003703251281852449
24.0,0.003792482793669949
26.0,0.003421649738496013
28.0,0.002901157831838086
30.0,0.002555438073452043
32.0,0.002222355704618373
36.0,0.001659585096760896
40.0,0.001245549041970051
44.0,0.0014058515497703539
48.0,0.0012018302374774414
52.0,0.0009235245762979627
56.0,0.0008639930691840547
60.0,0.0003765205805292826
64.0,-0.00029978346970505054
72.0,0.0004212091120594508
80.0,0.0004833529794343594
88.0,0.00010580461993425772
96.0,-0.0002480726846054715
104.0,-0.00043872890043639146
112.0,-0.0005483270357066194
120.0,3.131833982750187e-05
128.0,0.00036276326015105553
144.0,0.0004895802594162557
160.0,-0.00026576973866010434
176.0,-0.0005812523103537748
192.0,-0.0007855806100787177
208.0,-0.0007227579713049437
224.0,-0.0006100329023569495
240.0,-0.0001551940778994343
256.0,0.0005140314874270135
288.0,0.0007661949301975834
320.0,0.000866390520867677
352.0,0.001160543553671456
384.0,0.0003107557474359979
416.0,-0.00028616657379321175
448.0,-0.00024113379613543984
480.0,-0.0006093323182942978
512.0,-0.000376224775397338
576.0,0.0002095715173899837
640.0,0.0002789595279983903
704.0,-0.00044900330306985037
768.0,2.433254396194684e-06
832.0,-0.0004585389269313733
896.0,-2.0239280094758172e-05
960.0,0.00030623327061629624
1024.0,-6.280640396150172e-05
1152.0,-0.000277338766515034
1280.0,9.49795705103007e-05
1408.0,-0.0003862468333369895
1536.0,-0.00013066470633982252
1664.0,-0.00014314586530805862
1792.0,-0.00040367009156305755
1920.0,-0.000643512578901051
2048.0,0.00018368518211242524
2304.0,-0.00014532482384599366
2560.0,9.904681594674614e-06
2816.0,6.768470031381923e-05
3072.0,0.00010176523660798686
3328.0,0.000219828025793678
3584.0,-3.299927110000933e-05
3840.0,0.0001617588919984314
4096.0,3.741272337931534e-05
4608.0,-6.540271025778921e-05
5120.0,-0.00016841589228400178
5632.0,-0.0003012775395496714
6144.0,-0.00010954115210581872
6656.0,0.0002322009874073938
7168.0,-0.00020184442997117635
7680.0,-0.00013668332321270515
8192.0,-0.00010329748726356502
9216.0,-4.32938885607248e-05
10240.0,0.00016958073194262013
11264.0,0.0001954114247837424
12288.0,-0.00023287003624294922
13312.0,9.325435637963508e-05
14336.0,0.0008060061874768376
end
