version,3.0
numOfCh,1
type,point
parent_name,mod-filtering
ch_type,1_1
kcount,1
numberNandB,1
brightnessNandB,1
carpet pos,0
pc,0
Time (ms),CH1 Auto-Correlation
1.0,0.026943095633390035
2.0,0.022121626818436768
3.0,0.018631472060498755
4.0,0.016081241123932166
5.0,0.014256150389300837
6.0,0.01266535195077556
7.0,0.0114842425777677
8.0,0.01041149947960407
9.0,0.009767098121509221
10.0,0.00913942270441237
11.0,0.008607813967800304
12.0,0.008185767375566533
13.0,0.007606960687589703
14.0,0.007176412972872859
15.0,0.0068646164618537675
16.0,0.006556504050615253
18.0,0.005615824872314157
20.0,0.004837716339689546
22.0,0.004260800222739336
24.0,0.004037429487030009
26.0,0.0035714492938814235
28.0,0.0032249586135650876
30.0,0.0030575970867776636
32.0,0.0028524109205478876
36.0,0.0026487786621858245
40.0,0.0027419175003871032
44.0,0.0027180200709597813
48.0,0.0022914946023524507
52.0,0.0019820019492824414
56.0,0.0014863322080378438
60.0,0.0011248793591627226
64.0,0.000901566899523587
72.0,0.00135334619915084
80.0,0.0024492704135232746
88.0,0.0020634777926527015
96.0,0.0015872202986362272
104.0,0.0009161671081128198
112.0,0.0009427803662649392
120.0,0.0011111935777183835
128.0,0.0017365494618843957
144.0,0.000704078818953624
160.0,0.0004884850064621471
176.0,2.761755371905039e-05
192.0,-0.0004297870347063082
208.0,-0.0006677574894813354
224.0,-0.00014213435787580053
240.0,-0.00015132361100844705
256.0,-0.0001955607742835097
288.0,-0.0003982454290391013
320.0,-0.00027269406373908733
352.0,0.00014873018573280383
384.0,-0.0008268052719073715
416.0,-0.0010683119299483845
448.0,-0.002122977693433392
480.0,-0.0006140200052096034
512.0,-0.0007796644297084487
576.0,-0.0015534224228349602
640.0,-0.0018501191006278228
704.0,-0.0005390174981082518
768.0,-0.0007927123320541352
832.0,-0.00047424232530257626
896.0,0.00020655396167534867
960.0,0.000435761575345861
1024.0,0.0006626113105303588
1152.0,6.932417521521295e-05
1280.0,-0.0008576208697402832
1408.0,-0.00011057162946270793
1536.0,-0.00046532457287973283
1664.0,0.00040160003937717015
1792.0,0.0005843572330410662
1920.0,-0.0004168902596315416
2048.0,8.929445108929457e-05
2304.0,0.0004953136997891683
2560.0,0.00014753456371274787
2816.0,-0.0002896938964480622
3072.0,-0.0007849625427418516
3328.0,0.000563911072791301
3584.0,0.0003593091593545594
3840.0,-0.00086473698383005
4096.0,-0.00013536614267828373
4608.0,0.00037139927852347654
5120.0,-0.00028051637304515875
5632.0,0.00034755453145729476
6144.0,-0.0009819210728005956
6656.0,0.0008649611774045329
7168.0,-0.0010572521311318361
7680.0,0.0005609133116453169
8192.0,8.986396140819863e-05
9216.0,-2.399640903039124e-05
10240.0,0.0002606820857595782
11264.0,-0.00013379607503183344
12288.0,0.0005852328560562725
13312.0,-0.00037187480513278803
14336.0,0.0009180007431617287
end
