version,3.0
numOfCh,1
type,point
parent_name,mod-filtering
ch_type,1_1
kcount,1
numberNandB,1
brightnessNandB,1
carpet pos,0
pc,0
Time (ms),CH1 Auto-Correlation
1.0,0.01588948811099211
2.0,0.012732022221028982
3.0,0.010533671596445693
4.0,0.008919094938320882
5.0,0.007665836744547461
6.0,0.006505317744312622
7.0,0.005746077977801578
8.0,0.0047908288668800925
9.0,0.004243408460943954
10.0,0.0038446893764187973
11.0,0.003469768132693396
12.0,0.002931294294894693
13.0,0.0026240415543639095
14.0,0.0023032162362917052
15.0,0.0020517525463101816
16.0,0.0018118040482539843
18.0,0.0012341671498645734
20.0,0.0008175594037391765
22.0,0.0006387208537232958
24.0,0.0005572622626548451
26.0,0.0005601095250620247
28.0,0.00046959975165905554
30.0,-0.0001326023797439957
32.0,-0.0006334560611553908
36.0,-0.0009676298632951275
40.0,-0.001125338317801594
44.0,-0.0017839116874956984
48.0,-0.0022702894304170718
52.0,-0.0026211183504606383
56.0,-0.0029339751220142096
60.0,-0.0031613701473055533
64.0,-0.0037007290887440814
72.0,-0.004327483167960167
80.0,-0.005038816279208103
88.0,-0.004633997960988956
96.0,-0.0037193353522869677
104.0,-0.0029692110706016628
112.0,-0.0023667182991931046
120.0,-0.0023360312362428193
128.0,-0.00224550420126024
144.0,-0.0027079474578654006
160.0,-0.0023514728859953538
176.0,-0.0028205870003086275
192.0,-0.004173195886923886
208.0,-0.004537363381423298
224.0,-0.004418771744727379
240.0,-0.004733546871109384
256.0,-0.004148058274173749
288.0,-0.002964968294050241
320.0,-0.00524020423293825
352.0,-0.006214816541036838
384.0,-0.005018645287677148
416.0,-0.002345883588683706
448.0,-0.002113062046746994
480.0,-0.0017811178487343593
512.0,-0.0004562754480590403
576.0,-0.002633907853438977
640.0,-0.0007570158122285342
704.0,-0.00013952538014061489
768.0,-0.00047490872250277594
832.0,0.00021863357692297747
896.0,-0.00011565339192820545
960.0,0.0011310393422709897
1024.0,-0.00047432361066002127
1152.0,3.146918545060551e-05
1280.0,0.0015371826905632435
1408.0,0.004315081168733581
1536.0,-0.000961331160948542
1664.0,-0.003456460061734723
1792.0,-0.0027769216529197616
1920.0,-0.0012782516441264269
2048.0,0.0013296009931602626
2304.0,-0.0010004740694907754
2560.0,-0.001339344610211901
2816.0,0.0012992983411832526
3072.0,0.0016507035740482845
3328.0,0.0015108461510968674
3584.0,0.001566339075677936
3840.0,0.0050235174122188475
4096.0,0.005670240022386475
4608.0,0.00016724018437597188
5120.0,-0.0019039734448921264
5632.0,0.001468886702981509
6144.0,0.002377236051337661
6656.0,-0.0008438278236508889
7168.0,-0.0012211877941071814
7680.0,-0.00483039225311388
8192.0,-0.0012457791798973217
9216.0,-0.0012311468569213835
10240.0,-0.001326133407618113
11264.0,-2.0870240895809467e-05
12288.0,0.0023850790895678653
13312.0,0.003170742907483426
14336.0,-3.757618485111802e-05
end
