version,3.0
numOfCh,1
type,point
parent_name,mod-filtering
ch_type,1_1
kcount,1
numberNandB,1
brightnessNandB,1
carpet pos,0
pc,0
Time (ms),CH1 Auto-Correlation
1.0,0.021317988407852928
2.0,0.016198621532601987
3.0,0.011989988172746324
4.0,0.009053862793091172
5.0,0.006580845427465398
6.0,0.00445916440228622
7.0,0.0023354998445381803
8.0,0.0013923412962904003
9.0,-0.0002157466472695324
10.0,-0.001274669770850001
11.0,-0.0021404024726640047
12.0,-0.0032149343085549065
13.0,-0.004106002597989988
14.0,-0.004907761617994999
15.0,-0.006096830525518793
16.0,-0.007637204000113251
18.0,-0.009255178673820308
20.0,-0.010249002131132001
22.0,-0.010811563418543946
24.0,-0.011148491119543524
26.0,-0.012007939604633644
28.0,-0.013059351753367476
30.0,-0.013373377259151664
32.0,-0.012825072277975358
36.0,-0.013801062956720123
40.0,-0.01474944044098736
44.0,-0.015296518629033584
48.0,-0.016210727437133365
52.0,-0.017012393381305446
56.0,-0.017542867800860118
60.0,-0.018804090874210866
64.0,-0.01979687573460931
72.0,-0.022156479347612446
80.0,-0.02386533330133045
88.0,-0.02572101734761556
96.0,-0.027562865016425908
104.0,-0.028082486264096373
112.0,-0.027640424613453174
120.0,-0.02878350223940218
128.0,-0.028827490706434644
144.0,-0.03056225579897498
160.0,-0.035190068623977555
176.0,-0.03686102506097255
192.0,-0.037796790644375466
208.0,-0.04032146424255589
224.0,-0.0417422659469755
240.0,-0.04353088929447135
256.0,-0.04483159910131862
288.0,-0.045361992454462596
320.0,-0.044791392137116914
352.0,-0.04276561750682695
384.0,-0.04225401702560805
416.0,-0.036492391536430246
448.0,-0.03540480871513352
480.0,-0.035154291999067167
512.0,-0.03626444772790616
576.0,-0.03827467236580995
640.0,-0.04093030673979914
704.0,-0.046085816023501924
768.0,-0.0485625588846208
832.0,-0.050452133579461655
896.0,-0.05044671783510801
960.0,-0.04786780786988354
1024.0,-0.0451898061451268
1152.0,-0.03859831328732033
1280.0,-0.031211593667548
1408.0,-0.02292472538628776
1536.0,-0.025570950123931957
1664.0,-0.02953666233188712
1792.0,-0.023304094241145767
1920.0,-0.02199180841339743
2048.0,-0.03195434113033302
2304.0,-0.04023331933598573
2560.0,-0.037198725921153475
2816.0,-0.03497004381063429
3072.0,-0.03366091922872305
3328.0,-0.029396086449761993
3584.0,-0.02246163750477903
3840.0,-0.008387039420763132
4096.0,-0.014342103031263709
4608.0,-0.01797911847608613
5120.0,-0.01189559880212232
5632.0,0.01685800202521537
6144.0,0.022369052705540238
6656.0,0.03964653117346395
7168.0,0.07024660879630984
7680.0,0.05754473311412256
8192.0,0.05436403370234766
9216.0,0.11492360080918851
10240.0,0.2633069336591505
11264.0,-0.4791320199080761
12288.0,-0.0983266937585009
13312.0,-0.04147613390990734
14336.0,0.005088263045933905
end
