version,3.0
numOfCh,1
type,point
parent_name,mod-filtering
ch_type,1_1
kcount,1
numberNandB,1
brightnessNandB,1
carpet pos,0
pc,0
Time (ms),CH1 Auto-Correlation
1.0,0.013397554340844886
2.0,0.010025851042537726
3.0,0.007779607529783572
4.0,0.006362859377586405
5.0,0.005159494504755502
6.0,0.0036637037898430425
7.0,0.0028799460712998215
8.0,0.001998597097697896
9.0,0.0015352774967511973
10.0,0.0009472212311474326
11.0,0.00021242301015189646
12.0,-9.273705914525365e-06
13.0,-0.00036947194979619624
14.0,-0.0008181289168019967
15.0,-0.0009306816479821567
16.0,-0.0011102139117507015
18.0,-0.0012668783546024853
20.0,-0.0018429925521324941
22.0,-0.0018346926547861964
24.0,-0.0018620210199570275
26.0,-0.0020340275586973044
28.0,-0.002394631718868556
30.0,-0.0028714307801834815
32.0,-0.003163018938229567
36.0,-0.0030733616978133593
40.0,-0.003157280218953784
44.0,-0.0036713507385629507
48.0,-0.003977100507465581
52.0,-0.004547560081489044
56.0,-0.004952418069334552
60.0,-0.004989364301383081
64.0,-0.0053080901050909235
72.0,-0.005225450005440058
80.0,-0.0037005084970185287
88.0,-0.0027812563973191873
96.0,-0.0034929073573858327
104.0,-0.00407163324412807
112.0,-0.0042100159059696995
120.0,-0.005054380081722765
128.0,-0.0054631667825848496
144.0,-0.00667907374736354
160.0,-0.007917000495917037
176.0,-0.007848786827165721
192.0,-0.006964346251027265
208.0,-0.005959065144749309
224.0,-0.005138740091474747
240.0,-0.006584057707031299
256.0,-0.0068834567928306445
288.0,-0.00669751205412239
320.0,-0.006259924551224927
352.0,-0.004984102102042587
384.0,-0.0035210590591173707
416.0,-0.0031965081555740404
448.0,-0.0017306570527161336
480.0,-0.0016574863350377056
512.0,-0.0018031234330673218
576.0,-0.0008028868598644046
640.0,-0.0030422707697908002
704.0,-2.4683456091967315e-05
768.0,0.0014901807640774756
832.0,0.0007835038427099761
896.0,-0.0017162985158165611
960.0,-0.002046581360491073
1024.0,-0.0008134807646755782
1152.0,-0.000686302255721194
1280.0,9.497647788059282e-05
1408.0,-0.00473126675669111
1536.0,-0.0046545427707097575
1664.0,-0.005955651869132272
1792.0,-0.0045786230868648525
1920.0,-0.0043536705241531415
2048.0,-0.0024757185161452533
2304.0,0.0016310306131583907
2560.0,0.0023828124435407716
2816.0,0.0002772693476256194
3072.0,-0.005355882791918898
3328.0,-0.0007035236739201256
3584.0,0.005741146921586671
3840.0,0.006363096732205031
4096.0,0.008721456021783647
4608.0,-0.004530928641870657
5120.0,-0.00397137405856518
5632.0,0.0030711696851917214
6144.0,0.004452755939371222
6656.0,0.000746396078846745
7168.0,-0.00031393886407660165
7680.0,-0.004814041644580325
8192.0,-0.005382613730743113
9216.0,-0.004777671756157731
10240.0,0.001615924405346636
11264.0,0.009388445317635385
12288.0,0.012890190635881593
13312.0,0.020276793076795085
14336.0,-0.013636963206494546
end
