version,3.0
numOfCh,1
type,point
parent_name,mod-filtering
ch_type,1_1
kcount,1
numberNandB,1
brightnessNandB,1
carpet pos,0
pc,0
Time (ms),CH1 Auto-Correlation
1.0,0.015202163436601968
2.0,0.012050968488547253
3.0,0.009891721564331935
4.0,0.008063007276279288
5.0,0.006965652960528201
6.0,0.006112120039727831
7.0,0.005173593006533306
8.0,0.004484771924906816
9.0,0.004007935913043825
10.0,0.0035363273866135803
11.0,0.0029586243026475945
12.0,0.0025000786851872014
13.0,0.002202854591308423
14.0,0.0017607384536175719
15.0,0.0012750919287833895
16.0,0.0008677390959284104
18.0,0.00038938133734056635
20.0,0.00019230305916417834
22.0,-7.305023952564049e-05
24.0,-0.00015226092691644766
26.0,-0.00031691336834371864
28.0,-0.00042800004561871496
30.0,-0.0006296777664174247
32.0,-0.0005633565039953048
36.0,-0.0007870117640164098
40.0,-0.0011136600405912134
44.0,-0.0013192787212027435
48.0,-0.0017710375832323821
52.0,-0.0022831196253729757
56.0,-0.0024017987830322607
60.0,-0.0022566176830671747
64.0,-0.002418949153009997
72.0,-0.002287895473715218
80.0,-0.0024419774965833696
88.0,-0.0024429369992776673
96.0,-0.0029642909533529327
104.0,-0.00299290864327062
112.0,-0.0023078570441522617
120.0,-0.002240830749061895
128.0,-0.001616471137429465
144.0,-0.0017964373894284735
160.0,-0.00137551010771364
176.0,-0.0013312168421517612
192.0,-0.0017722605766259392
208.0,-0.0029267599313751447
224.0,-0.0031348001557683913
240.0,-0.002374745273491352
256.0,-0.0010736811585504435
288.0,-0.001178885310485711
320.0,-0.0015482119767130653
352.0,-0.0007358307809914866
384.0,0.001000227597083514
416.0,0.0017418590599795891
448.0,0.0021710530523839644
480.0,0.0041202859361613164
512.0,0.0044400477451309595
576.0,0.0009906922106577287
640.0,0.0003612906940806404
704.0,-0.0006183243163403462
768.0,-0.001174072214939148
832.0,-0.001546880118814098
896.0,-0.0011712223902360375
960.0,0.0010119702373727613
1024.0,0.0011239872167418952
1152.0,0.0003331297224056229
1280.0,0.000414377655873599
1408.0,0.0009066137690696419
1536.0,0.0023205239441852488
1664.0,0.001863020649027547
1792.0,-0.00013270520089936344
1920.0,6.990246758409313e-05
2048.0,0.00014843788783225342
2304.0,0.00018138458491789855
2560.0,0.00037705542128430025
2816.0,0.001796467491561815
3072.0,-0.0012478568765073028
3328.0,0.0012294412534217258
3584.0,0.0008842665294737095
3840.0,0.0002068692396228755
4096.0,-0.0027300593440254817
4608.0,-0.0012641010755689575
5120.0,0.0034650283418615757
5632.0,-0.0006910888464064513
6144.0,-0.001095531592542942
6656.0,-0.0022558830733521162
7168.0,0.0045885068537405704
7680.0,0.0007205453110028515
8192.0,-0.004454668903000392
9216.0,0.0014136618327389439
10240.0,-0.0021405937860841107
11264.0,0.0004221632804157771
12288.0,-0.0013263274247397039
13312.0,0.0027872380568310096
14336.0,-0.001677445442075709
end
