version,3.0
numOfCh,1
type,point
parent_name,mod-filtering
ch_type,1_1
kcount,1
numberNandB,1
brightnessNandB,1
carpet pos,0
pc,0
Time (ms),CH1 Auto-Correlation
1.0,0.015482825133331657
2.0,0.012107151919766412
3.0,0.01000033359278163
4.0,0.008103349868370024
5.0,0.0067205927227589335
6.0,0.005684689148472977
7.0,0.005013335952130937
8.0,0.00424087107219262
9.0,0.0035464981236932314
10.0,0.002806377147275052
11.0,0.002236694672969275
12.0,0.0015206673383296732
13.0,0.0011457920999740079
14.0,0.0005875316608818792
15.0,0.0002728463996208852
16.0,5.985402821573338e-05
18.0,-5.9440373327834806e-05
20.0,-0.0006078133680990083
22.0,-0.000587894668299227
24.0,-0.0006942290746067004
26.0,-0.00029522403282511434
28.0,0.0001433714345040471
30.0,-6.922147985488625e-05
32.0,-0.00032268410452640506
36.0,-0.00043036571328147755
40.0,-0.0010285746734444157
44.0,-0.0011047996327745446
48.0,-0.0013487504693810992
52.0,-0.0019312770931717571
56.0,-0.002426297361890817
60.0,-0.002766983669342693
64.0,-0.0032471199879119395
72.0,-0.002741082735379874
80.0,-0.0022949368516016477
88.0,-0.0022578322831390274
96.0,-0.002469399893102464
104.0,-0.0020384393592507433
112.0,-0.002695463506584561
120.0,-0.0032731261066779593
128.0,-0.003774144998158757
144.0,-0.0016109288102552632
160.0,-3.6984149152097245e-05
176.0,-0.0005750664766736024
192.0,-0.000683944128829328
208.0,-0.0008524661204264428
224.0,-0.0008402030310964426
240.0,-0.0021884980846940127
256.0,-0.003101158793962
288.0,0.00022934978116673221
320.0,-0.0008412285788736984
352.0,-0.0003105920298084319
384.0,-0.0006839197950517795
416.0,0.00021270857147315247
448.0,-0.00021503018396595852
480.0,0.00013417624806999484
512.0,0.001758111015981667
576.0,-0.00025886225160809406
640.0,-0.0005253057648950676
704.0,0.002494322631281465
768.0,0.0012427916432391495
832.0,-0.00043183989899631126
896.0,-0.0003498468744544958
960.0,0.0006333351530662945
1024.0,0.0009325098997343684
1152.0,0.000292341222071002
1280.0,0.0004342823770162596
1408.0,0.0010638559967990346
1536.0,-8.50834647532217e-05
1664.0,-0.0010726250480559418
1792.0,-0.00046564625666034587
1920.0,0.0010121184843627784
2048.0,-0.000834453119506473
2304.0,0.0003058627015044557
2560.0,-1.059923889956682e-05
2816.0,-0.0005816210773471608
3072.0,-8.83419604340574e-05
3328.0,0.00013503704019246499
3584.0,-0.0001634293928336472
3840.0,-0.0005460740840088629
4096.0,-0.0006783880037601886
4608.0,-0.000470658394903678
5120.0,-0.0003427641182673913
5632.0,-0.0013922180498013859
6144.0,0.0007796532650887755
6656.0,0.0016756556730463945
7168.0,0.0009959950737092882
7680.0,4.6024011608469806e-05
8192.0,-0.0006422243385956206
9216.0,-0.0001847845492751743
10240.0,0.0012762335590335017
11264.0,-0.0008758362069037906
12288.0,-0.00033847047988810885
13312.0,-0.00011276953882621843
14336.0,-0.00011272698335296205
end
