version,3.0
numOfCh,1
type,point
parent_name,mod-filtering
ch_type,1_1
kcount,1
numberNandB,1
brightnessNandB,1
carpet pos,0
pc,0
Time (ms),CH1 Auto-Correlation
1.0,0.01544915957227877
2.0,0.012455728697265744
3.0,0.010321071347663135
4.0,0.008602040963008095
5.0,0.007368830990603037
6.0,0.006561858237885021
7.0,0.005718694846704286
8.0,0.0051486662327331345
9.0,0.0046237654249949856
10.0,0.004229366005815471
11.0,0.0036739052953123075
12.0,0.003361086373499189
13.0,0.0029876245442628235
14.0,0.002688229785082097
15.0,0.0025874899749807057
16.0,0.002252772295733063
18.0,0.001987168713700971
20.0,0.0017997172854180565
22.0,0.0016230297290942275
24.0,0.0013080704712242763
26.0,0.0009275892742934833
28.0,0.0005926804267735175
30.0,0.0006201964338878874
32.0,0.0009353627410588761
36.0,0.0011280685813270797
40.0,0.0012185211919299999
44.0,0.0005164219925863911
48.0,0.0005609369095327388
52.0,0.0006631475632565831
56.0,0.0005833510822648158
60.0,0.0006121552895401727
64.0,0.0007166956741917474
72.0,0.0003388234603540763
80.0,-0.00043943958434800034
88.0,-0.000461728677088713
96.0,1.62468202768995e-05
104.0,0.0002528432914796763
112.0,-0.00017499989140945527
120.0,-0.0003861384062611162
128.0,-0.00026732270286633497
144.0,-0.0016671129945778906
160.0,-0.002603571608736366
176.0,-0.001786801324672127
192.0,-0.0010447079146721494
208.0,-0.0013651407041035402
224.0,-0.001532257489361033
240.0,-0.0017805082495498947
256.0,-0.0015896303227852515
288.0,-0.0019001280740046367
320.0,-0.0019570892721357813
352.0,-0.00236898693501042
384.0,-0.003072864221562277
416.0,-0.0026414228842265297
448.0,-0.0026666257141043648
480.0,-0.0015565112355201416
512.0,-0.0001289012311458393
576.0,0.0022215424719316257
640.0,0.0018082652081006234
704.0,0.0009798835558347818
768.0,0.0006944768614189911
832.0,-0.0022849361078115527
896.0,-0.001982884086129233
960.0,-0.0022687443050594114
1024.0,-0.0021850054807498465
1152.0,-0.004067857577609524
1280.0,0.00016586549216701663
1408.0,0.0012535611204578245
1536.0,0.001600139254215982
1664.0,-0.0009011832409719922
1792.0,0.0009610823150640879
1920.0,-0.00122238915506101
2048.0,-0.0015334415801147028
2304.0,0.0018670026299238973
2560.0,0.0025064639738385797
2816.0,0.007343280840036215
3072.0,0.002066152247918396
3328.0,-0.0029244251909523733
3584.0,-0.001114726804958055
3840.0,-0.00105750113057701
4096.0,3.0439450513952693e-05
4608.0,7.635880453094046e-05
5120.0,0.0035926418594081078
5632.0,0.001479677844556937
6144.0,0.0032697893379842746
6656.0,-0.004330337900683157
7168.0,1.246063300075484e-05
7680.0,-9.46704332627224e-06
8192.0,0.0012213261509590456
9216.0,-0.0018064752203158507
10240.0,-0.001519481132130518
11264.0,0.002912208805783134
12288.0,-0.005155104345391237
13312.0,0.0020903381452073155
14336.0,0.007547310330857648
end
