version,3.0
numOfCh,1
type,point
parent_name,mod-filtering
ch_type,1_1
kcount,1
numberNandB,1
brightnessNandB,1
carpet pos,0
pc,0
Time (ms),CH1 Auto-Correlation
1.0,0.014728875824181697
2.0,0.011548122287691198
3.0,0.009649340038013987
4.0,0.0080787762787764
5.0,0.006938550432243007
6.0,0.006065746467146749
7.0,0.0053755299441780036
8.0,0.004484515278922574
9.0,0.0037661470313579137
10.0,0.003348544221709604
11.0,0.0030327485643220076
12.0,0.002669036121894175
13.0,0.002407347697695572
14.0,0.0023121920088799985
15.0,0.002189743767685659
16.0,0.0019253638623781821
18.0,0.0016610645161831972
20.0,0.0014690822287581895
22.0,0.0011928319554852518
24.0,0.0007393523450118789
26.0,0.0004289632339238292
28.0,0.0004275703603833225
30.0,0.0001449561670920918
32.0,-2.959881499009498e-06
36.0,-0.0007541749487791627
40.0,-0.0010116609532201393
44.0,-0.000498339707533102
48.0,-0.000289023103322128
52.0,2.1903987884597242e-05
56.0,-0.00023938606957907282
60.0,-0.00028880610720549704
64.0,-0.0005365029015103051
72.0,-0.00049497122008757
80.0,-6.876513117115568e-05
88.0,0.00010355989319554837
96.0,0.0004476680831675406
104.0,0.0006345378671239743
112.0,0.00021262817957223845
120.0,0.0003557679055530283
128.0,0.0003406416627882436
144.0,0.0006437883168575187
160.0,-0.00023075727769694687
176.0,-0.00021397539610001903
192.0,0.00038526629089430386
208.0,0.00019114797186370325
224.0,0.0004896921925297004
240.0,-0.0002511385396600785
256.0,-0.0004777355083716017
288.0,7.935756605670363e-05
320.0,-0.00041559238155741696
352.0,0.00027398622768015635
384.0,-0.0003715143029907608
416.0,-1.68238358302375e-05
448.0,-0.0003738937926773822
480.0,0.0007503370525558939
512.0,0.00025139567499299353
576.0,0.0008203883854942529
640.0,0.0014251914125826826
704.0,0.0018777399312115417
768.0,9.507571029621076e-05
832.0,-0.0004959384388448784
896.0,-0.0018438446376044526
960.0,-0.002333793636285053
1024.0,-0.00013173470244609575
1152.0,-0.0008087258240651041
1280.0,-0.0001589494880214204
1408.0,0.002834608091306867
1536.0,0.001398737670237793
1664.0,-0.001526382943939586
1792.0,-0.0005980801626068732
1920.0,-0.0025912534162448875
2048.0,-0.0030564257486060953
2304.0,0.0011150892654483435
2560.0,0.0006738698363428774
2816.0,-0.0003572698892785331
3072.0,-0.0001276551322154651
3328.0,0.002129899651523104
3584.0,-0.0026366662567802734
3840.0,-0.00252605393030636
4096.0,-0.0002678706682925913
4608.0,-0.00043547520462416944
5120.0,0.0017906975088226584
5632.0,2.6347703583340376e-06
6144.0,-0.0018021829432575132
6656.0,-9.305774011481027e-06
7168.0,0.000878088597158877
7680.0,-0.0005890649928492753
8192.0,0.0012720081517307857
9216.0,-8.445388916444863e-05
10240.0,0.0003750784319174194
11264.0,0.0009439725011406441
12288.0,-0.0013465610702796393
13312.0,0.00028653280384882684
14336.0,-0.00018118855983972892
end
