version,3.0
numOfCh,1
type,point
parent_name,mod-filtering
ch_type,1_1
kcount,1
numberNandB,1
brightnessNandB,1
carpet pos,0
pc,0
Time (ms),CH1 Auto-Correlation
1.0,0.015577295862212237
2.0,0.012386320352740787
3.0,0.010144441289952066
4.0,0.008581467405735399
5.0,0.007515274917102799
6.0,0.006684283104686051
7.0,0.005989706280619789
8.0,0.005321899681393072
9.0,0.004935397964004995
10.0,0.004410428253164511
11.0,0.003900444674980852
12.0,0.0033016202445588227
13.0,0.002744635013180341
14.0,0.0023365546619911193
15.0,0.0019566337813141654
16.0,0.0014906997878552097
18.0,0.0011045918187309045
20.0,0.001183488048613457
22.0,0.0008954159959861929
24.0,0.0005240281448344319
26.0,-1.2795419762845484e-05
28.0,-3.783631073772664e-05
30.0,-1.1778946238716337e-05
32.0,2.955307399465923e-05
36.0,0.0007994718425987646
40.0,0.001298028157282305
44.0,0.0015949875967218308
48.0,0.001698843711039233
52.0,0.001763545345786266
56.0,0.001346953560863673
60.0,0.0006989492546811693
64.0,0.00037292835200264385
72.0,-6.897798253391318e-05
80.0,-0.0008957378455685117
88.0,-0.0003747964550583349
96.0,0.0002954248648114888
104.0,-0.00021150381654244654
112.0,-0.0003817706868917137
120.0,-0.0014310196880131798
128.0,-0.0016117972208035125
144.0,-0.0008822488739911316
160.0,-0.0002448412277560319
176.0,0.00025004017806362633
192.0,-0.0002377763180773096
208.0,0.0007215644871587656
224.0,0.0009177781075291325
240.0,0.000913335368746715
256.0,0.0012257391137198148
288.0,0.0011790694635711585
320.0,0.0018814436209368957
352.0,0.00011559620427936679
384.0,0.0002234529121682982
416.0,0.0001335333917962256
448.0,0.0005681623996229845
480.0,9.896614455007224e-05
512.0,0.0008801258702335613
576.0,-0.000593541981103507
640.0,-0.0007673892251922609
704.0,0.0005212374091450034
768.0,0.0012950031974461318
832.0,0.0013045824929931449
896.0,0.00014073826509708454
960.0,-0.001735098130250523
1024.0,-0.0003107081135614864
1152.0,-0.0006141543400671745
1280.0,-0.00019142100373814586
1408.0,8.77396778333761e-05
1536.0,0.0006759873232835556
1664.0,0.0011179238329248609
1792.0,0.0010712746675405338
1920.0,0.002728152168259168
2048.0,0.0006990363438024172
2304.0,0.0008133532903333851
2560.0,0.00028054506795727185
2816.0,-0.00017127568267338855
3072.0,-0.0016833342112660965
3328.0,-0.00048142357380842604
3584.0,-0.0009675256476773253
3840.0,0.00042827295445202473
4096.0,0.0008500174178198705
4608.0,-0.0010864764028984952
5120.0,0.00021677247566120883
5632.0,-0.0014240711870868727
6144.0,1.8490178722796458e-05
6656.0,-0.0005917717822820912
7168.0,-0.0009929041719622944
7680.0,-0.00047989998215614005
8192.0,-0.0014500417346717809
9216.0,-0.0006378855650804871
10240.0,0.0019437411739609
11264.0,-0.0005583344312628524
12288.0,-0.0002668058089189129
13312.0,0.0006128405119785185
14336.0,0.00014959786282608967
end
