version,3.0
numOfCh,1
type,point
parent_name,mod-filtering
ch_type,1_1
kcount,1
numberNandB,1
brightnessNandB,1
carpet pos,0
pc,0
Time (ms),CH1 Auto-Correlation
1.0,0.025480471217980805
2.0,0.019495449686836697
3.0,0.0158176942438355
4.0,0.012977834879650318
5.0,0.010703903550819183
6.0,0.008700690641628483
7.0,0.00710918239573699
8.0,0.005487404538028429
9.0,0.0043757831693425064
10.0,0.003337466748955631
11.0,0.0024667324707290383
12.0,0.0019167368499388715
13.0,0.0012738375853982298
14.0,0.0004512240886640484
15.0,4.118233148919792e-05
16.0,-0.0004273485914906283
18.0,-0.0016275746790922474
20.0,-0.002434600458265934
22.0,-0.002805960669543972
24.0,-0.0035643784942097634
26.0,-0.003706420243202335
28.0,-0.004396301119456325
30.0,-0.0044896998418823
32.0,-0.004634965745148989
36.0,-0.0058440113381631464
40.0,-0.007277667890485007
44.0,-0.007741571639212408
48.0,-0.007848471241045707
52.0,-0.007834346276763604
56.0,-0.0085619963383059
60.0,-0.00950822943990115
64.0,-0.00988251531234452
72.0,-0.009295858981983263
80.0,-0.008472620777785322
88.0,-0.008953153233788425
96.0,-0.010139763691332737
104.0,-0.009214334242855338
112.0,-0.007946947084108924
120.0,-0.006669339228473459
128.0,-0.006090541751054057
144.0,-0.007309952126264285
160.0,-0.007945512029237323
176.0,-0.009087021294750919
192.0,-0.010301725271349427
208.0,-0.010855240956247902
224.0,-0.008653605309189571
240.0,-0.009058054436207885
256.0,-0.008932261635856253
288.0,-0.00863343550701845
320.0,-0.007885046039140975
352.0,-0.006259707197692421
384.0,-0.004532310301409104
416.0,-0.005038924165962855
448.0,-0.0059063349472641136
480.0,-0.007982724936910546
512.0,-0.007048963247481499
576.0,-0.005843060383715848
640.0,-0.007181729823840133
704.0,-0.009280828349741088
768.0,-0.008411558268557329
832.0,-0.010926760184834072
896.0,-0.010898923146480999
960.0,-0.0077303474845746845
1024.0,-0.010546711576747136
1152.0,-0.011738160211347881
1280.0,-0.01381737686876372
1408.0,-0.01767702264008042
1536.0,-0.016596445791833503
1664.0,-0.014779766863922239
1792.0,-0.01378730073208756
1920.0,-0.017312653809479994
2048.0,-0.020361679542920896
2304.0,-0.014709132971850947
2560.0,-0.007645995601435307
2816.0,-0.00983743729819797
3072.0,-0.011322288004584458
3328.0,-0.007622721381223441
3584.0,0.0039640836036105576
3840.0,0.0044392954939065365
4096.0,-0.0010745544657146944
4608.0,0.0087542430142864
5120.0,0.002361704362827899
5632.0,0.007123836047472798
6144.0,0.00738528189522869
6656.0,0.011291888065741329
7168.0,0.02508830143258267
7680.0,0.029621879381666272
8192.0,0.03274106061628013
9216.0,0.012550933014466858
10240.0,0.012227690059607665
11264.0,0.01151308782568572
12288.0,-0.011327430217391021
13312.0,-0.026763188943246363
14336.0,-0.012694610337633305
end
