version,3.0
numOfCh,1
type,point
parent_name,mod-filtering
ch_type,1_1
kcount,1
numberNandB,1
brightnessNandB,1
carpet pos,0
pc,0
Time (ms),CH1 Auto-Correlation
1.0,0.025720884686223355
2.0,0.020350131629120582
3.0,0.016647402652423482
4.0,0.01380002878866704
5.0,0.011677759184284042
6.0,0.009891416819431509
7.0,0.008448741135713922
8.0,0.007428806170724611
9.0,0.006767843877173663
10.0,0.005756045843315238
11.0,0.005112539445748743
12.0,0.004727721510342953
13.0,0.004224422886481838
14.0,0.003797057870459808
15.0,0.0032422110135728044
16.0,0.002891242046747733
18.0,0.0022037843489597364
20.0,0.0013782607626533494
22.0,0.000487328382468899
24.0,0.00012004958517963793
26.0,-0.0003386116335527545
28.0,-0.000560069817656994
30.0,-0.0008676416973604217
32.0,-0.0011571338582515578
36.0,-0.0010059243268774054
40.0,-0.0014338161388985915
44.0,-0.0021688463894724563
48.0,-0.0024276353851802046
52.0,-0.0024416172478172182
56.0,-0.003012729083504584
60.0,-0.003614914985153983
64.0,-0.003718979799021138
72.0,-0.004300233302066081
80.0,-0.004645386505766069
88.0,-0.005140885605451784
96.0,-0.005755086241704066
104.0,-0.005747135081309418
112.0,-0.0053372190433328415
120.0,-0.00513489889652019
128.0,-0.004504182938978807
144.0,-0.00396087048131899
160.0,-0.0037419930247495348
176.0,-0.0035751850858313228
192.0,-0.0024460877842547024
208.0,-0.0013054950696791412
224.0,-0.002007323754859569
240.0,-0.0016469658356691452
256.0,-0.002006016653336773
288.0,0.0003248349198154976
320.0,-0.0004957074723126453
352.0,-0.0005818474666086093
384.0,-0.00018381021349200832
416.0,-0.0011530228124928543
448.0,-0.0013035214222911762
480.0,-0.002000171487082647
512.0,-0.0008305263839142318
576.0,-0.0017456167751055407
640.0,-0.0011169217538266052
704.0,-0.0019764630712727493
768.0,-0.001197052529590903
832.0,3.4751616102557392e-06
896.0,-0.0007029436267647071
960.0,-0.0003023775132158235
1024.0,-6.671974231153843e-05
1152.0,-0.0003482267180103804
1280.0,-0.0015561558155267052
1408.0,-0.0020462260058624615
1536.0,-0.00016167500084673936
1664.0,-0.00024744998567594045
1792.0,0.0013835823145396109
1920.0,0.0022086852795206724
2048.0,0.0021047427964977494
2304.0,0.0027442196987268463
2560.0,0.0034149680480111133
2816.0,0.005982966099677078
3072.0,0.003933981190711755
3328.0,0.003116300253432236
3584.0,0.0038408565880116985
3840.0,0.0017854792801266228
4096.0,3.571299909799208e-06
4608.0,-0.0011177903176584625
5120.0,-0.0026723647743280843
5632.0,-0.0011860150421402205
6144.0,-0.002732556966308697
6656.0,-0.0013738130411798943
7168.0,-0.0018096204119921744
7680.0,0.0008808333181211658
8192.0,-0.0018054195778637316
9216.0,-0.006551637344231476
10240.0,-0.006704452122964555
11264.0,0.0011016101753815732
12288.0,0.007681875516707626
13312.0,0.008819960170788566
14336.0,0.015757999187326677
end
