version,3.0
numOfCh,1
type,point
parent_name,mod-filtering
ch_type,1_1
kcount,1
numberNandB,1
brightnessNandB,1
carpet pos,0
pc,0
Time (ms),CH1 Auto-Correlation
1.0,0.0138727593305088
2.0,0.010337583449807397
3.0,0.008192330898803446
4.0,0.006361123464792673
5.0,0.0053433883294260465
6.0,0.004059137055564932
7.0,0.0030702472599268837
8.0,0.002044000248500266
9.0,0.0010633118553706744
10.0,0.0007006563153699741
11.0,0.00038536479925843636
12.0,2.4086203781914506e-05
13.0,-0.00031261013607042365
14.0,-0.0004979975351770971
15.0,-0.0008322061903917044
16.0,-0.001160706984276616
18.0,-0.0015868802525558223
20.0,-0.0018713865573491972
22.0,-0.0021017082205683213
24.0,-0.0022334733559564723
26.0,-0.0021974897049996667
28.0,-0.002011112185889785
30.0,-0.0018721212259145137
32.0,-0.0019287923285586928
36.0,-0.0017813001152117147
40.0,-0.002303888957312261
44.0,-0.0017951000883608126
48.0,-0.0017367376176788962
52.0,-0.0016319498743385674
56.0,-0.0018736081351184986
60.0,-0.0014067929536273338
64.0,-0.0011403873779897156
72.0,-0.0011826730683403008
80.0,-0.0008357012899565808
88.0,-0.0014499212302860887
96.0,-0.0015611693953644368
104.0,-0.001790337044323409
112.0,-0.0012971102485804797
120.0,-0.0017066940020714627
128.0,-0.0017884946314898897
144.0,-0.0009715484621394266
160.0,-3.651910418345228e-05
176.0,-0.0001126493067511447
192.0,-0.0011758630322510344
208.0,-0.0009900741975351623
224.0,-0.0017948396114003673
240.0,-0.0011860968669274996
256.0,-0.0012391128020052822
288.0,-0.0020608540582900403
320.0,-0.0028375270045235546
352.0,-0.0035242077414237016
384.0,-0.003702341489305927
416.0,-0.0029056756379908233
448.0,-0.0017344507953555022
480.0,-9.750453051160513e-05
512.0,-0.0001779753464808964
576.0,-0.0019528394925898418
640.0,-0.002453398830994713
704.0,-0.0027356976811288014
768.0,-0.003463100708506417
832.0,-0.004048053243837946
896.0,-0.0015194992345425318
960.0,0.0001893769664496059
1024.0,-0.0007469423776993445
1152.0,-0.0032217647841293884
1280.0,-0.004652432034538356
1408.0,-0.00342004232823645
1536.0,-0.0012354333572415221
1664.0,4.857491551324422e-05
1792.0,0.00011053615747358414
1920.0,-0.0007510809419111197
2048.0,-0.0018468296776010806
2304.0,-0.00024174336846516375
2560.0,0.0030176577635339097
2816.0,0.0022121424150329805
3072.0,0.0015917144663937233
3328.0,0.0015744121236871411
3584.0,-0.0034450831520592695
3840.0,-0.001307517692855642
4096.0,-0.004894834645661317
4608.0,-0.006268485873451302
5120.0,-0.0052269104836975
5632.0,-0.0026131547509629094
6144.0,-0.006811748013777819
6656.0,-0.006883092161805715
7168.0,-0.0005050170387069786
7680.0,0.0029561919552267835
8192.0,0.004416569386267444
9216.0,0.008734282097503376
10240.0,0.0018830234500661902
11264.0,0.010642256019437468
12288.0,-0.001130988882084183
13312.0,0.024318601229845305
14336.0,-0.007158740440719624
end
