version,3.0
numOfCh,1
type,point
parent_name,mod-filtering
ch_type,1_1
kcount,1
numberNandB,1
brightnessNandB,1
carpet pos,0
pc,0
Time (ms),CH1 Auto-Correlation
1.0,0.016639031092523515
2.0,0.013603016087386344
3.0,0.011292466860703287
4.0,0.009648122595639075
5.0,0.008287461352372683
6.0,0.007209280953999642
7.0,0.006502204088702834
8.0,0.005815332390910921
9.0,0.004984473097844777
10.0,0.004372380760722772
11.0,0.003611774839634485
12.0,0.0030879008235751293
13.0,0.0028871671108046115
14.0,0.0025988329200743454
15.0,0.0026174481957641493
16.0,0.002545515491748418
18.0,0.002504610236399696
20.0,0.0023626346622536154
22.0,0.00233244199575644
24.0,0.002264829691981385
26.0,0.0022915521061666055
28.0,0.002063243010419491
30.0,0.0016127727115191615
32.0,0.001532441578895316
36.0,0.0008445122833300456
40.0,0.0007383277106489672
44.0,0.0010308104638272475
48.0,0.0009378452276980198
52.0,0.0015926435145523499
56.0,0.0021731104993225614
60.0,0.002577389027234478
64.0,0.0020972872110098795
72.0,0.0010950516327199455
80.0,0.00038885484623008004
88.0,1.1696439829345096e-05
96.0,0.00023413605416466865
104.0,-0.0009000669832927022
112.0,-0.0015103537146293755
120.0,-0.0012955703990465972
128.0,-0.00047286477757801926
144.0,0.0005949836316743173
160.0,-3.489862984484837e-05
176.0,-0.0011017177300690628
192.0,-0.0008371793021462182
208.0,0.0006434317672558976
224.0,0.001378175938313797
240.0,0.0017000387616987744
256.0,-0.00017245570593416026
288.0,0.00023109920075037316
320.0,-0.0007679394466409972
352.0,-0.0001926170694851459
384.0,-0.0009697184759005495
416.0,-0.00044133988111960676
448.0,-0.00042720533577844666
480.0,-0.0006648013296041144
512.0,-0.00018665150017593835
576.0,-0.0009252954335862151
640.0,0.0007420924346299707
704.0,-0.0005214566056280789
768.0,-0.0008068136934507031
832.0,0.0007921747911698862
896.0,0.0015906449050326898
960.0,0.000988523025828636
1024.0,-0.0006996345869551002
1152.0,0.0008387234976032776
1280.0,0.0013633760651134974
1408.0,0.00019299790403870531
1536.0,0.0015795748034008739
1664.0,-0.0001964303336061679
1792.0,-0.0010254903309068197
1920.0,-0.0011402504932224167
2048.0,-0.00011015165735162036
2304.0,-0.0006352416215028578
2560.0,0.0004640452936628403
2816.0,0.0003442085051055255
3072.0,3.221933988295511e-05
3328.0,-0.0007120615121983809
3584.0,-0.0003068618489813213
3840.0,0.0015664291043016032
4096.0,0.00024131110164993252
4608.0,0.0003654913878259336
5120.0,-2.5571369316912396e-05
5632.0,-0.0015574775959543707
6144.0,0.0015258501923745005
6656.0,-0.00108879779359361
7168.0,-0.0005066605688658354
7680.0,-0.0004383889480228387
8192.0,-2.384909329611329e-05
9216.0,0.000292572931230195
10240.0,-0.0010250300088630038
11264.0,0.00023689197554532804
12288.0,-0.000998366819795482
13312.0,0.000597564421719321
14336.0,0.0007168215766935049
end
