version,3.0
numOfCh,1
type,point
parent_name,mod-filtering
ch_type,1_1
kcount,1
numberNandB,1
brightnessNandB,1
carpet pos,0
pc,0
Time (ms),CH1 Auto-Correlation
1.0,0.027119448674145286
2.0,0.022119137765470587
3.0,0.018571969562378277
4.0,0.015889181314027168
5.0,0.013863776681374729
6.0,0.012255150280132465
7.0,0.011018567609587526
8.0,0.009947734673088071
9.0,0.009087790194165946
10.0,0.008356378004038323
11.0,0.007702004362003301
12.0,0.007170599212626083
13.0,0.0065464122175129535
14.0,0.006052815807560119
15.0,0.005725735720695235
16.0,0.005460234472275394
18.0,0.005228574744949421
20.0,0.00502922037765785
22.0,0.004948072303646578
24.0,0.004927990987387387
26.0,0.004736533416731525
28.0,0.0047080186555619186
30.0,0.004351194899547162
32.0,0.003849384803657818
36.0,0.0028012369808516624
40.0,0.0021202381101366186
44.0,0.001956109492134539
48.0,0.0016849603426272175
52.0,0.0018355736610171647
56.0,0.001798429420280856
60.0,0.001477913716421364
64.0,0.0010102250155124004
72.0,0.001141186647276582
80.0,0.0011126178540923348
88.0,0.0009445647228500942
96.0,0.000643644844083191
104.0,0.00043324367789132623
112.0,0.0010895915168882553
120.0,0.0006528221673065548
128.0,9.712775731451906e-05
144.0,-8.14281173674436e-05
160.0,6.874583010740842e-05
176.0,-0.0007927230392296147
192.0,-0.0005167947447790588
208.0,-0.000440739570921167
224.0,-0.00022406604795444096
240.0,-0.0007386353531031453
256.0,-0.0007530861877947936
288.0,-0.0005428598704261267
320.0,-0.000817875219506381
352.0,-0.00012823621531465879
384.0,9.965110836795965e-05
416.0,-0.0005447755323021441
448.0,-0.0008353738918887021
480.0,-0.0002600342992866711
512.0,0.0005853046113466487
576.0,-7.5430570891654725e-06
640.0,-0.0005541388957487348
704.0,0.00022312192788431773
768.0,0.0010765125788259056
832.0,0.0010806749854448405
896.0,-0.00037870334676759487
960.0,-0.00022026799757934867
1024.0,-0.0009467913281542284
1152.0,-0.0007114546568927071
1280.0,-0.00025979486065130786
1408.0,0.0006071098421143173
1536.0,0.000521842704161779
1664.0,6.697487704454552e-05
1792.0,-0.0001399582740709837
1920.0,-0.0004146980055708127
2048.0,-0.00047870467235888725
2304.0,0.0004048622391632506
2560.0,-0.0005133878516456747
2816.0,-0.00047464323959767185
3072.0,0.00023448483528287767
3328.0,-0.0005120863833300016
3584.0,0.00012165306335254478
3840.0,3.851300879165187e-05
4096.0,-0.00011170478076505397
4608.0,0.0003383724434105062
5120.0,0.00012551958186124423
5632.0,6.231603773154681e-05
6144.0,0.00025886735975655384
6656.0,-5.235769406919388e-08
7168.0,-0.00024880417451178527
7680.0,-0.0004400504525842175
8192.0,0.0002028475181765632
9216.0,-8.182371778342468e-05
10240.0,-0.0003645037898742931
11264.0,0.0004356381975927359
12288.0,0.0003046233097740991
13312.0,-0.0004560933225644659
14336.0,0.00037836638833455005
end
