version,3.0
numOfCh,1
type,point
parent_name,mod-filtering
ch_type,1_1
kcount,1
numberNandB,1
brightnessNandB,1
carpet pos,0
pc,0
Time (ms),CH1 Auto-Correlation
1.0,0.016404407853544356
2.0,0.013441548244911283
3.0,0.011255119158848359
4.0,0.009921704083052818
5.0,0.00886379643136359
6.0,0.007868468141051466
7.0,0.007025863444989122
8.0,0.006375025427130865
9.0,0.005993796481849056
10.0,0.005701159258949096
11.0,0.0053965323503837315
12.0,0.00502625695640968
13.0,0.004682528736981828
14.0,0.0044147891612256185
15.0,0.004179978460717937
16.0,0.0038283474069122914
18.0,0.003648115844619104
20.0,0.0034805489080325103
22.0,0.0033000224649777365
24.0,0.003368543399358215
26.0,0.003302515879001211
28.0,0.0032216529532040905
30.0,0.0032848489845549445
32.0,0.003414420519002981
36.0,0.003674994785047847
40.0,0.0038321820930364847
44.0,0.00377916502864184
48.0,0.003331807590225555
52.0,0.002756839808232492
56.0,0.002532669495245443
60.0,0.002070089624136573
64.0,0.0012644902771270505
72.0,0.0006375655142039083
80.0,0.0011177215623578984
88.0,0.0011556118657432002
96.0,0.001274293012990979
104.0,0.0013909085286469836
112.0,0.0015573146176552921
120.0,0.0020862202435016908
128.0,0.00222410094916059
144.0,0.0014458356506763526
160.0,0.0014050220853230044
176.0,0.0005911173866719466
192.0,0.0005003008019608401
208.0,0.0013822924240691759
224.0,0.001349639216707832
240.0,0.001066777082218584
256.0,0.0015467156205539734
288.0,0.00022751344692828468
320.0,-0.001282851801849172
352.0,-0.0012399329815406812
384.0,-0.0009074510242190748
416.0,-0.0015704245382922588
448.0,-0.0006340659048483799
480.0,9.670337379685812e-05
512.0,-0.0003010604883594281
576.0,-0.0002608493288374092
640.0,-0.0008017424085350333
704.0,-0.0008364778990986865
768.0,-0.000804941960774741
832.0,-0.0004652736912804656
896.0,-0.000849104732094097
960.0,0.0007329716058521729
1024.0,0.0005126198235627655
1152.0,0.0021096222210876814
1280.0,0.0010471263343851955
1408.0,0.0012301996422219297
1536.0,0.0017483282345747142
1664.0,0.001625440619107188
1792.0,-0.000488139436316648
1920.0,-0.00066959612698414
2048.0,-0.00022687162627832436
2304.0,0.0005698862131264804
2560.0,0.0001379155552052591
2816.0,-0.0006907098863886407
3072.0,-0.0016494373235903526
3328.0,-0.0021522120221141305
3584.0,-0.0007447635958182097
3840.0,0.0005259776788091308
4096.0,0.0004905271250259524
4608.0,-0.0018095979382880545
5120.0,-0.00036751009621105446
5632.0,0.0006070480777216058
6144.0,2.7931307331696686e-05
6656.0,0.000969316207716675
7168.0,0.0007161827242960772
7680.0,-0.0005139499984461171
8192.0,0.0009293774494614215
9216.0,5.202291461170461e-06
10240.0,0.00041035151505108836
11264.0,-0.0003636091319154655
12288.0,5.748290354823382e-07
13312.0,-0.00013519564856279143
14336.0,-0.0009506002261940871
end
