version,3.0
numOfCh,1
type,point
parent_name,mod-filtering
ch_type,1_1
kcount,1
numberNandB,1
brightnessNandB,1
carpet pos,0
pc,0
Time (ms),CH1 Auto-Correlation
1.0,0.027259078125876135
2.0,0.02247653664855287
3.0,0.019203169025697076
4.0,0.016709382940867767
5.0,0.014692188967948772
6.0,0.013088217108813804
7.0,0.01186257220528475
8.0,0.010794584161925691
9.0,0.010009101283912525
10.0,0.00922303083692766
11.0,0.008584184662101979
12.0,0.008028556351217686
13.0,0.007607606962227287
14.0,0.007281084501579382
15.0,0.006898463070667882
16.0,0.006600865878394924
18.0,0.005896168749126129
20.0,0.00521679400714925
22.0,0.004750832837185914
24.0,0.004185205522988289
26.0,0.003727661137018723
28.0,0.0035924939611930995
30.0,0.0034374950001487825
32.0,0.002944358241027789
36.0,0.0024144372149819127
40.0,0.0023569759971686643
44.0,0.0025233670324464885
48.0,0.002485633891418537
52.0,0.0024770189058480607
56.0,0.002170403296496648
60.0,0.0020820130430492245
64.0,0.0018400563532205982
72.0,0.0017621423213087795
80.0,0.0007357545618700279
88.0,9.549894946503379e-05
96.0,-0.00041731037613323974
104.0,-0.00112464925056599
112.0,-0.0009487145532336427
120.0,-0.0006289235421750305
128.0,-0.0009135508296816974
144.0,-0.0019354888931593095
160.0,-0.0021368125306375774
176.0,-0.0014797843835241409
192.0,-0.0019330788827732759
208.0,-0.0034265723132305137
224.0,-0.0040127729259593625
240.0,-0.0032792288820586712
256.0,-0.0034991908265312732
288.0,-0.0033766119424828434
320.0,-0.002842233476522016
352.0,-0.002912983974577066
384.0,-0.0023348557177947926
416.0,-0.001372739652705679
448.0,-0.0009885585878492975
480.0,-0.001366856366493363
512.0,-0.0008531129717557207
576.0,-0.0003073791776125878
640.0,0.0006392220613238297
704.0,0.0007782465270733674
768.0,0.0010256914931181527
832.0,0.0018056622614901485
896.0,0.0014561239702328699
960.0,0.0020449189081670482
1024.0,-5.554357496417861e-05
1152.0,-0.002915073043251337
1280.0,-0.0028370005100389895
1408.0,-0.0014352070916121562
1536.0,0.0011077943323116735
1664.0,0.0011759856130229007
1792.0,-0.0004398771581397565
1920.0,-0.0019190890582531095
2048.0,-0.0019804542987269524
2304.0,0.0007932907945709111
2560.0,0.0022966691307322318
2816.0,0.0005199883060442723
3072.0,-0.0004180020360293746
3328.0,0.0008224046364260218
3584.0,0.00030453528578999745
3840.0,-0.0009086692490249959
4096.0,0.000524293943694687
4608.0,-0.00047275254162626457
5120.0,0.0004149686679357778
5632.0,0.0005849949967131618
6144.0,-0.00016590999636123538
6656.0,-9.24297512872041e-06
7168.0,-1.0660006117713117e-05
7680.0,0.0005833002655184494
8192.0,-0.0005364432058093671
9216.0,-0.0001980466502586875
10240.0,0.0004612831588857169
11264.0,-0.0005231186168574986
12288.0,0.001037497166532786
13312.0,0.0007870012432349416
14336.0,0.0003119901310697504
end
