version,3.0
numOfCh,1
type,point
parent_name,mod-filtering
ch_type,1_1
kcount,1
numberNandB,1
brightnessNandB,1
carpet pos,0
pc,0
Time (ms),CH1 Auto-Correlation
1.0,0.027241951200318137
2.0,0.02228355339171917
3.0,0.01865045490034478
4.0,0.01597962598641889
5.0,0.013907631405043253
6.0,0.012680159797853419
7.0,0.011460127778448959
8.0,0.01072868473659061
9.0,0.009482423874394907
10.0,0.008742093206326462
11.0,0.007987730195404996
12.0,0.0072589894448764625
13.0,0.006563137857771073
14.0,0.006114578658826808
15.0,0.0054873166314435284
16.0,0.005024256012886141
18.0,0.0036119669861389703
20.0,0.0027364709422634803
22.0,0.0022280617855123808
24.0,0.0016527830743620076
26.0,0.0010478557035020764
28.0,0.0004527333564874336
30.0,-8.747351259974501e-05
32.0,-0.00044191253501513206
36.0,-0.0008119752722651752
40.0,-0.0017404170118119344
44.0,-0.002109235123855746
48.0,-0.003015269237946594
52.0,-0.0033168312572472436
56.0,-0.0034737142357663675
60.0,-0.0036983337260221294
64.0,-0.0038520701160990045
72.0,-0.004323175690392644
80.0,-0.004385789501437087
88.0,-0.0051067106109622395
96.0,-0.005802288074246098
104.0,-0.006242303763493884
112.0,-0.0064235045834655224
120.0,-0.007615137999258392
128.0,-0.007858688557253357
144.0,-0.007753270002851087
160.0,-0.007546453156995869
176.0,-0.007464323183706045
192.0,-0.008560444670769884
208.0,-0.009389755422674395
224.0,-0.010702300809707244
240.0,-0.011311492385958632
256.0,-0.01111122911885054
288.0,-0.01081209129867522
320.0,-0.010512446802559805
352.0,-0.010725075720341204
384.0,-0.01106303365786665
416.0,-0.01255189816407809
448.0,-0.014332486722366977
480.0,-0.014909383820872146
512.0,-0.016089360700194955
576.0,-0.018000526719464838
640.0,-0.017711174905249982
704.0,-0.019271297046596136
768.0,-0.02240697128337854
832.0,-0.022434217979463433
896.0,-0.021293057854047115
960.0,-0.019255467451205988
1024.0,-0.016516612713205703
1152.0,-0.011698394168175641
1280.0,-0.011262617145623155
1408.0,-0.009812632196136484
1536.0,-0.012260967295021685
1664.0,-0.013094626213133731
1792.0,-0.01711684902943078
1920.0,-0.01884115510958073
2048.0,-0.014855741195526906
2304.0,-0.009889953181362432
2560.0,-0.013266962196822774
2816.0,-0.011088914681337436
3072.0,-0.007669435912147193
3328.0,-0.0020853864098043795
3584.0,0.0005289839651496653
3840.0,-0.004883177292338781
4096.0,-0.004570813959930531
4608.0,0.006088340646550838
5120.0,0.013250397166324923
5632.0,0.0049494167591057625
6144.0,0.0030720631776410823
6656.0,-0.006308066365134368
7168.0,-0.0039032723457632645
7680.0,-0.006047747662851211
8192.0,-0.00502413965633286
9216.0,0.004692473251245
10240.0,0.017106296689140876
11264.0,0.037510952338478454
12288.0,0.035992330015899965
13312.0,0.041427257720780375
14336.0,0.03291805602963627
end
