version,3.0
numOfCh,1
type,point
parent_name,mod-filtering
ch_type,1_1
kcount,1
numberNandB,1
brightnessNandB,1
carpet pos,0
pc,0
Time (ms),CH1 Auto-Correlation
1.0,0.014879879964553089
2.0,0.012029973266376892
3.0,0.010230898558969415
4.0,0.00876345289950864
5.0,0.007295320007177919
6.0,0.006404898922726554
7.0,0.00547728430835881
8.0,0.004691770206502799
9.0,0.004113261641273791
10.0,0.0036807091537154335
11.0,0.0032077643059738037
12.0,0.002562854772149903
13.0,0.0020943756501183852
14.0,0.0016646561026318896
15.0,0.001159948523010268
16.0,0.0010316928664801939
18.0,0.000688145508720428
20.0,0.00036970055892826537
22.0,9.610841484386512e-05
24.0,-0.00021485598406401074
26.0,-0.00040748781785160393
28.0,-0.0006393188144822037
30.0,-0.00039592746358763087
32.0,-0.00038128250693536536
36.0,-0.0005733225385381457
40.0,-0.0008999701083667322
44.0,-0.0010355249992348714
48.0,-0.0015471610208384057
52.0,-0.0016559456588759458
56.0,-0.0014858138911094665
60.0,-0.0011731820222263822
64.0,-0.000681674224835005
72.0,-0.00025137437792410733
80.0,6.910088332801045e-05
88.0,0.00035092061133012997
96.0,0.0003914524235348882
104.0,0.00017362925432906628
112.0,-8.779218957422064e-05
120.0,-0.0007998750581045266
128.0,-0.0006604947682045115
144.0,-0.0009702335422238084
160.0,-0.0012294622936624977
176.0,7.279290951878181e-05
192.0,-0.0001327912338365822
208.0,-0.00024607915265217883
224.0,-0.001309473604626854
240.0,-0.0023852918021610714
256.0,-0.0014243545201277907
288.0,0.00022340268513687533
320.0,-0.0013029004360605168
352.0,-0.0032808894512907916
384.0,-0.0006172618117734618
416.0,0.0017027104914759672
448.0,0.0023023855586781217
480.0,0.0008872077825239355
512.0,0.0008648774359074629
576.0,0.0010772655961039934
640.0,-0.0013217116223838143
704.0,-0.00042757810821358877
768.0,-0.0001800572411125856
832.0,4.597328830735492e-05
896.0,-0.0019448067183618356
960.0,0.0006453550394387442
1024.0,-0.0026077834854506543
1152.0,0.00048544653689308603
1280.0,-0.0007442823976835378
1408.0,0.00014394180718135807
1536.0,-0.0005893013973357064
1664.0,-0.00142337679312865
1792.0,-0.0011670661139860927
1920.0,-0.0030832888274575643
2048.0,-0.002976366441238665
2304.0,0.0019136109677444502
2560.0,-0.0012436771658250745
2816.0,0.00030451464777980775
3072.0,-0.0021152528159230632
3328.0,0.0007794216414855892
3584.0,0.0008287366559351916
3840.0,0.0006993236791599244
4096.0,-0.0018842838493715597
4608.0,-2.6040471242883e-05
5120.0,4.164879294266122e-05
5632.0,0.00025549170927985365
6144.0,0.0002913723878688046
6656.0,-0.0003131877501746372
7168.0,0.0003282166565128364
7680.0,-0.0001903276231211004
8192.0,0.0010955647876338404
9216.0,0.0004196561850029479
10240.0,-0.0003551184259160678
11264.0,0.0011613726242063471
12288.0,0.00046023291863206417
13312.0,0.0007929270856663617
14336.0,0.00021286590650304582
end
