version,3.0
numOfCh,1
type,point
parent_name,mod-filtering
ch_type,1_1
kcount,1
numberNandB,1
brightnessNandB,1
carpet pos,0
pc,0
Time (ms),CH1 Auto-Correlation
1.0,0.016124242870634964
2.0,0.013050246131342869
3.0,0.010436151355420531
4.0,0.008635653865962878
5.0,0.007296209867634573
6.0,0.006332211652464226
7.0,0.005677393418116461
8.0,0.0051851592656038115
9.0,0.004748137910719485
10.0,0.004429082065623202
11.0,0.0039012904700368445
12.0,0.0034128193527978024
13.0,0.003202275217668138
14.0,0.003159849261310743
15.0,0.002902211467880722
16.0,0.002978937934016379
18.0,0.002802389330283095
20.0,0.0027609903509162592
22.0,0.0026770097085151434
24.0,0.002686605463026126
26.0,0.0026433351078698486
28.0,0.0024586280880805056
30.0,0.0027384865322781504
32.0,0.0026292694131173633
36.0,0.002980131996112023
40.0,0.003153016195512226
44.0,0.003041113009327079
48.0,0.0030204267388327377
52.0,0.002321562698316848
56.0,0.0017909089307190929
60.0,0.0012094648634828342
64.0,0.0009995019321926701
72.0,0.0002449910318587101
80.0,2.943783237752129e-05
88.0,0.00027036303882632673
96.0,-0.00033925899711273466
104.0,0.0002102185204029272
112.0,0.0005080726068538155
120.0,0.0010484402923998104
128.0,0.002303948034412473
144.0,0.0025202591838737742
160.0,0.000874586733455196
176.0,-0.0003446384982344064
192.0,-0.0002465329117742332
208.0,-4.149846713374927e-06
224.0,0.00030497389341421766
240.0,0.0002798769870044904
256.0,-0.0006634417147097782
288.0,-0.0012796937311123635
320.0,-0.000546598552386035
352.0,-0.001187537036739017
384.0,-0.0007578788360013133
416.0,-0.00023797435132100198
448.0,-0.0006013018767742073
480.0,-0.0007561490473584342
512.0,0.0015106551369281629
576.0,-0.0011685839781899743
640.0,-0.0009205356055498326
704.0,-0.0016836660918571056
768.0,-0.0010889294026975582
832.0,0.0014553307613476285
896.0,0.000644740075608885
960.0,-0.000900262545355579
1024.0,0.0003422802793449087
1152.0,-0.0014307142976800469
1280.0,-0.00016948268565020186
1408.0,-0.0021829787983380644
1536.0,-0.000388798320159478
1664.0,0.00042670588879256677
1792.0,-0.0009030994183553132
1920.0,0.0007770181153246014
2048.0,-0.0002101947854066255
2304.0,0.0014130267252947526
2560.0,-0.00029999696813232113
2816.0,-0.001079584770281361
3072.0,0.0006131197960939083
3328.0,0.0005955923097491489
3584.0,-0.0006954959206174616
3840.0,6.982326487081636e-05
4096.0,-0.0016304552599084587
4608.0,0.0009866015072765855
5120.0,-4.855857350094528e-05
5632.0,0.00099006454289019
6144.0,-0.0004982052408223359
6656.0,0.0002768575913065785
7168.0,0.00037497628418026174
7680.0,-0.0006960585785678042
8192.0,-0.00032587591383803627
9216.0,0.0001754363993260455
10240.0,0.002270095676588646
11264.0,-0.0006982466464969805
12288.0,-0.0001376302063293977
13312.0,0.00035216847001207086
14336.0,-0.00099869108461903
end
