version,3.0
numOfCh,1
type,point
parent_name,mod-filtering
ch_type,1_1
kcount,1
numberNandB,1
brightnessNandB,1
carpet pos,0
pc,0
Time (ms),CH1 Auto-Correlation
1.0,0.015311669184366439
2.0,0.01223855008012742
3.0,0.010050210128901726
4.0,0.008404273165848908
5.0,0.007187748795146165
6.0,0.006366766160681658
7.0,0.005564382786104272
8.0,0.004869734603761833
9.0,0.004483566947790507
10.0,0.003962396767538623
11.0,0.0033825143044443617
12.0,0.003002893318337252
13.0,0.0027111244333459794
14.0,0.0025531936971650016
15.0,0.0023468473922958477
16.0,0.001974971660324343
18.0,0.001711442813604247
20.0,0.0013926933749257575
22.0,0.0012044482806388146
24.0,0.0012261160535458338
26.0,0.0011094954272556912
28.0,0.0008041912661675976
30.0,0.0008647159911656654
32.0,0.0005092187232882406
36.0,0.0003308437831834876
40.0,0.0002548666721189363
44.0,-0.00015164050743443624
48.0,0.0001392945471216933
52.0,0.00045599218931635654
56.0,0.000308801940311465
60.0,7.831860797447021e-05
64.0,-0.00019560254334360927
72.0,-0.0002037204651479385
80.0,-0.0005382514191973886
88.0,-0.0009106657301685139
96.0,-0.0008152409545536532
104.0,-0.00041335816380982937
112.0,0.00017561522964815168
120.0,0.00012913979651663077
128.0,0.00014069485192225173
144.0,-0.0004038442224270078
160.0,-0.0003391970768215069
176.0,-0.0004872184086969211
192.0,-0.0009858552943260435
208.0,-0.0008082154990480817
224.0,-0.0005402832026306648
240.0,-0.0012561097561475387
256.0,-0.0024199925649689424
288.0,-0.0028665802301582888
320.0,-0.003999299397901779
352.0,-0.0029871303685553574
384.0,-0.002408503801643258
416.0,-0.0017143289294330177
448.0,-0.0021359284386774924
480.0,-0.000385528255378742
512.0,-0.0011781956116403425
576.0,-0.0008335303821350726
640.0,-0.00013279659686749046
704.0,0.0009148207898266314
768.0,0.0007209597206856433
832.0,0.0006430859181913995
896.0,-0.0005280785235013408
960.0,-0.0015825291181561507
1024.0,-0.0015153718110856307
1152.0,-0.0013961853767604504
1280.0,-0.0027905608443443697
1408.0,-0.003113186504741905
1536.0,-0.0009276202029520064
1664.0,-0.00022454990810161224
1792.0,0.0001960040938997487
1920.0,-0.002476357018417863
2048.0,-0.0028203355697122845
2304.0,0.004554511519357929
2560.0,1.8549965365544097e-05
2816.0,0.002023630624912176
3072.0,0.0029330816054848885
3328.0,0.0034301132638325793
3584.0,0.0007864386501357234
3840.0,0.0015705498906146698
4096.0,-0.0002640625609040548
4608.0,0.0028477854387167767
5120.0,0.0041222304282197975
5632.0,-0.0005603041216158955
6144.0,0.0014675010956055612
6656.0,0.0011322275863028253
7168.0,-0.0027639807604712407
7680.0,-0.0022421931254050786
8192.0,-0.003272984184985339
9216.0,-0.0013991835014574017
10240.0,-0.001380493062142163
11264.0,0.0007473036420897472
12288.0,0.0001387312586735856
13312.0,-0.0005889819217980152
14336.0,-0.0017995397126757684
end
