version,3.0
numOfCh,1
type,point
parent_name,mod-filtering
ch_type,1_1
kcount,1
numberNandB,1
brightnessNandB,1
carpet pos,0
pc,0
Time (ms),CH1 Auto-Correlation
1.0,0.015632616408940647
2.0,0.012220250002476618
3.0,0.009933167129845044
4.0,0.008275860139218105
5.0,0.0071687891197924625
6.0,0.006219470329602572
7.0,0.005354344521910415
8.0,0.0048712236605708
9.0,0.0042879269528521835
10.0,0.00390906198577512
11.0,0.0034517198083861
12.0,0.0029453519350226554
13.0,0.002592073613787216
14.0,0.002435928298604617
15.0,0.002067071934991116
16.0,0.0018512691383827384
18.0,0.0013254253433170327
20.0,0.0010704546710016416
22.0,0.0010694857182622641
24.0,0.000818066276468965
26.0,0.0006565095880195493
28.0,0.0004952318509778841
30.0,0.000451605941409694
32.0,0.0007061210547751884
36.0,0.001311910903215363
40.0,0.0016328928539568466
44.0,0.001674532101241022
48.0,0.0015408509222369915
52.0,0.0011139830124760053
56.0,0.0011961734866012819
60.0,0.0016146217603882906
64.0,0.0017124579298100073
72.0,0.0019825849356776004
80.0,0.001897328634355322
88.0,0.0017278100274003005
96.0,0.0015308557146118673
104.0,0.0007941270066116335
112.0,0.0006051610341468727
120.0,0.0005114806229937763
128.0,2.126142823355437e-06
144.0,0.00012171999517218701
160.0,2.9281480817378025e-05
176.0,-3.9410466155631596e-05
192.0,0.0009146066778025208
208.0,0.0021319721297328176
224.0,0.001004159019319717
240.0,0.00037390282440341593
256.0,-0.00024131197619259304
288.0,0.00041515033442540705
320.0,0.0004116640827569462
352.0,-0.00011084588461707234
384.0,-0.0004234783798153785
416.0,0.000312462997182017
448.0,-0.0007991970986248598
480.0,-0.0006219233929131152
512.0,-0.0015648961207439527
576.0,-2.4955018350536484e-05
640.0,-0.00022059478482039374
704.0,-6.31011037259821e-05
768.0,-0.0014761535209847354
832.0,0.0009675005686087257
896.0,0.003233974064593692
960.0,0.0017700137637626234
1024.0,0.0011078696241326735
1152.0,0.004523154929580109
1280.0,0.0017765718131865782
1408.0,0.0014109530461503539
1536.0,0.0018677222214285027
1664.0,-0.00042736043759405984
1792.0,-0.0012767515755353065
1920.0,-5.056915743140156e-05
2048.0,0.00018767322859591928
2304.0,0.0006279743202197707
2560.0,-0.001078047676109306
2816.0,-0.0018057774766077062
3072.0,-0.0005967215886667487
3328.0,-0.001842941329742942
3584.0,-0.0013110124197158735
3840.0,-0.0009538009015334081
4096.0,-0.0026429696329342
4608.0,-0.0014798356644731836
5120.0,-0.001461196448562574
5632.0,-0.0003109926328388468
6144.0,0.00017793812358068983
6656.0,0.0017395183789448154
7168.0,0.0020600645666912776
7680.0,0.0013627769701793913
8192.0,0.001198676123894904
9216.0,0.0010242208596782376
10240.0,0.0007925761767804129
11264.0,-0.0003604322665557991
12288.0,-0.0006764489604712542
13312.0,-0.0017892141403418327
14336.0,0.0003258770149507928
end
