version,3.0
numOfCh,1
type,point
parent_name,mod-filtering
ch_type,1_1
kcount,1
numberNandB,1
brightnessNandB,1
carpet pos,0
pc,0
Time (ms),CH1 Auto-Correlation
1.0,0.01527938786186156
2.0,0.01226856564035761
3.0,0.010178537379302854
4.0,0.008662397648013132
5.0,0.0072642970087433145
6.0,0.006384430825514098
7.0,0.005482159990367608
8.0,0.0049730442026576505
9.0,0.004471431299591044
10.0,0.004022477717244177
11.0,0.0034451201155465405
12.0,0.0030089463647451353
13.0,0.0026443207498965116
14.0,0.002298991458757893
15.0,0.0020225237593556322
16.0,0.0017492786154125195
18.0,0.001521131849409496
20.0,0.001279716237002848
22.0,0.0010440645375104918
24.0,0.0008023541659052391
26.0,0.0005058371452180133
28.0,0.00024179194504747592
30.0,-2.4442554544812367e-06
32.0,-0.00028772714472147243
36.0,-0.0007027599937379225
40.0,-0.00105568549041557
44.0,-0.0012753822279547578
48.0,-0.0015715196038654788
52.0,-0.0017952219864589836
56.0,-0.002217671404712074
60.0,-0.0023309287961537084
64.0,-0.0022868320345541537
72.0,-0.002355320929913418
80.0,-0.001920081775500515
88.0,-0.0019614180518646718
96.0,-0.0022350072837307167
104.0,-0.0018965467209803855
112.0,-0.0015894527160253968
120.0,-0.0008633368658894636
128.0,-0.0005263953445361347
144.0,-0.00013751904853964714
160.0,-0.0005312284653296029
176.0,-0.0007745140936790129
192.0,-0.00029779153104336764
208.0,-0.0005401030188033618
224.0,-0.0011441950968619219
240.0,-0.001879622704598627
256.0,-0.0028851327738718124
288.0,-0.0018007520699890867
320.0,0.0008156464116340079
352.0,0.0017898605468145146
384.0,0.002126726052221972
416.0,0.0019376351419153615
448.0,0.0021573512047949883
480.0,0.0019397696664127384
512.0,0.0017200923589510975
576.0,-0.00031021425088229027
640.0,-0.0039465175529384
704.0,-0.002778618288972079
768.0,-0.003715488740540951
832.0,-0.0039552215291235315
896.0,-0.0014652978996606558
960.0,-0.0011416551820688792
1024.0,-0.00043472802357591434
1152.0,-0.0020326428433835586
1280.0,-0.0030334573295126566
1408.0,-0.0035140614731984376
1536.0,-0.0036556732459480656
1664.0,-0.003137261144023462
1792.0,-0.0026279775323861942
1920.0,-0.0027003887232531776
2048.0,-0.0039292296753314915
2304.0,8.095873636282391e-05
2560.0,-0.0002426414439730129
2816.0,-0.0005896355123441444
3072.0,-0.002747187062492995
3328.0,0.0006482843950728068
3584.0,-0.0014968489555425846
3840.0,-0.0006893543971399074
4096.0,-0.002383923667499399
4608.0,-0.0009130892760482734
5120.0,-0.0012215742806650498
5632.0,-0.002058941576344675
6144.0,0.0010364983829391772
6656.0,0.006810534367578391
7168.0,-0.00018481927289315525
7680.0,0.0011512330889393851
8192.0,0.005758462124661579
9216.0,0.0005463265109146853
10240.0,0.0010454856710180316
11264.0,0.004476692517096481
12288.0,-0.0005769464198364105
13312.0,0.003317700528322698
14336.0,0.005894649721374323
end
