version,3.0
numOfCh,1
type,point
parent_name,mod-filtering
ch_type,1_1
kcount,1
numberNandB,1
brightnessNandB,1
carpet pos,0
pc,0
Time (ms),CH1 Auto-Correlation
1.0,0.015737036019800144
2.0,0.012856464884718699
3.0,0.010426781247732109
4.0,0.0088048037901578
5.0,0.0074301399402809665
6.0,0.0066626396451689995
7.0,0.00577375432584204
8.0,0.005273807513000994
9.0,0.004716192817914022
10.0,0.004407781330622251
11.0,0.004150544333928252
12.0,0.0035484365367772774
13.0,0.0030854907762314365
14.0,0.002827494148814891
15.0,0.002680948217481216
16.0,0.002440767101911323
18.0,0.002377535590544877
20.0,0.0022974399374027232
22.0,0.0020440111538886363
24.0,0.0018399993051154695
26.0,0.001759060953946845
28.0,0.001631556069411122
30.0,0.001492779383010845
32.0,0.0009658156162410947
36.0,0.0003224403988162372
40.0,-0.0002039000669584734
44.0,0.0003697927838730575
48.0,0.0003249708344141844
52.0,0.00030510865351307537
56.0,0.0006625258594268324
60.0,0.00012473152353442707
64.0,-4.3334180911625e-05
72.0,0.00014887951925035559
80.0,0.0012031754147443507
88.0,0.0004916688916691836
96.0,0.0007410062066008916
104.0,0.0008778790577503859
112.0,0.000300329606223837
120.0,-0.0001745886728684587
128.0,-0.0006060721881724351
144.0,-0.0014681997202975472
160.0,0.001163047428308861
176.0,0.0018260615256944224
192.0,0.0007050204228489232
208.0,0.0003081385066601161
224.0,0.0009476882325207825
240.0,0.0002972404754060243
256.0,-0.0013914105518444408
288.0,-0.0008564911329603797
320.0,-0.0004501280750691672
352.0,0.00023135285668307581
384.0,-0.0007284817152505285
416.0,0.0012656157631902865
448.0,0.0015194611373814393
480.0,-0.0007838911871859144
512.0,0.0016120682193254687
576.0,0.0019202358448726642
640.0,0.0009777203054821548
704.0,-0.001069410247710012
768.0,-0.0017862602485934076
832.0,-2.836402874895061e-05
896.0,-0.0015532405915588132
960.0,0.00015740572132938446
1024.0,-0.0010316635680321928
1152.0,-0.00014302164113588756
1280.0,0.00046531413948391886
1408.0,-0.0017182524592362913
1536.0,0.0003772149217697862
1664.0,-5.0537335812728124e-05
1792.0,0.0008914900191807629
1920.0,0.0007991584215578662
2048.0,0.0013601665341742564
2304.0,-0.0009781273835821613
2560.0,-0.0006281203159208548
2816.0,0.0004487176670624482
3072.0,0.0010935951688757495
3328.0,0.0013928373904166236
3584.0,0.0006304954846381161
3840.0,-0.0002773026265089351
4096.0,-0.0006007169805788415
4608.0,-0.00031594906907517206
5120.0,0.00016956610122842442
5632.0,7.881447648938611e-05
6144.0,-0.00024501267002841054
6656.0,0.0003973745930927475
7168.0,0.0008235931777744732
7680.0,2.4096260811123926e-05
8192.0,-0.0002406753099026826
9216.0,0.0003058697262086074
10240.0,-8.468933507010945e-05
11264.0,-0.00022073965529256778
12288.0,-0.00026475924413282836
13312.0,-0.00032848975549837345
14336.0,-0.0007340603591927675
end
