version,3.0
numOfCh,1
type,point
parent_name,mod-filtering
ch_type,1_1
kcount,1
numberNandB,1
brightnessNandB,1
carpet pos,0
pc,0
Time (ms),CH1 Auto-Correlation
1.0,0.015473247891438113
2.0,0.012205923701336996
3.0,0.0102879065681043
4.0,0.008847273902670594
5.0,0.00780206355007218
6.0,0.006683742859979969
7.0,0.0059509276562821345
8.0,0.00509573863743773
9.0,0.004353450755277599
10.0,0.003984756692179792
11.0,0.0037048791450597918
12.0,0.0033937473439145105
13.0,0.0031558923518633097
14.0,0.0029422107994332425
15.0,0.002421566103516737
16.0,0.0020856520670551326
18.0,0.0017139887129613562
20.0,0.001226576337663099
22.0,0.0009113001610796534
24.0,0.0005462655714050246
26.0,0.0001771550585316639
28.0,-0.00024307238410115062
30.0,-0.0007638108844607583
32.0,-0.0010083845232593536
36.0,-0.0012968360003320356
40.0,-0.0018012017624576826
44.0,-0.00215125051369347
48.0,-0.0019296726185443758
52.0,-0.001687508273997551
56.0,-0.000838830174658578
60.0,-0.0004424487947591871
64.0,-0.00024867247893967104
72.0,-0.0005905674051296383
80.0,-0.0005898932324018835
88.0,0.00014268790827531852
96.0,-0.000785262950772303
104.0,-0.00215908472974502
112.0,-0.0021429774776419164
120.0,-0.0018878597392143481
128.0,-0.0007560114941702611
144.0,-7.45329829395791e-05
160.0,0.0010902870693867417
176.0,0.0012860469678230846
192.0,0.0005019929097185294
208.0,0.0005201152165301703
224.0,0.00042017166826213703
240.0,-0.00033234826187977795
256.0,-0.001257587091897161
288.0,-0.0012018768524356682
320.0,-0.000840253601694152
352.0,0.0005300091634852233
384.0,0.0006090304719679196
416.0,0.0018835311475029481
448.0,0.001491896722662922
480.0,0.002866518267528484
512.0,0.0028982934446899478
576.0,0.0009074930559971328
640.0,-0.0020601560525775886
704.0,-0.0005181773914109122
768.0,0.002099458142836408
832.0,0.0025778978711630263
896.0,0.002990483163992863
960.0,0.0026559748181982368
1024.0,0.0010051809212723306
1152.0,0.000410477637711848
1280.0,-0.0009958884984473393
1408.0,0.0006305329187215047
1536.0,-0.0003057705234655872
1664.0,-0.002115569487413649
1792.0,-0.0006220059299538727
1920.0,0.0007703485062180437
2048.0,-0.003026495424355069
2304.0,-0.0038465859806481317
2560.0,-0.0010059757970879435
2816.0,0.0009166700830030017
3072.0,0.001335304951479932
3328.0,0.0016721740919793948
3584.0,0.0015930998819182474
3840.0,0.0011288016467365658
4096.0,-0.0006448301939687706
4608.0,-0.0017415566859984022
5120.0,0.0012963924042319608
5632.0,-0.00013694634985184084
6144.0,0.0008434496493163746
6656.0,-0.0034023235075789637
7168.0,-0.0005776895060923826
7680.0,0.004216638584218835
8192.0,0.0009304061272155106
9216.0,0.0006306443622050573
10240.0,-0.0015766424017751302
11264.0,-0.00211214518623537
12288.0,0.0026389934166983764
13312.0,0.0031403311898730024
14336.0,0.0026371077680338306
end
