version,3.0
numOfCh,1
type,point
parent_name,mod-filtering
ch_type,1_1
kcount,1
numberNandB,1
brightnessNandB,1
carpet pos,0
pc,0
Time (ms),CH1 Auto-Correlation
1.0,0.025541330699026643
2.0,0.020518138267113573
3.0,0.017127650994886112
4.0,0.014499240161413018
5.0,0.012619391451814677
6.0,0.011063903841250777
7.0,0.009803082353270876
8.0,0.008758244585879371
9.0,0.007863564036379334
10.0,0.007168321052352544
11.0,0.006699664393085447
12.0,0.0065152403799046965
13.0,0.006382730566652839
14.0,0.006140218234747863
15.0,0.005714841686697669
16.0,0.005281393554754654
18.0,0.004508996966326562
20.0,0.0036040134596584394
22.0,0.0029931679897978736
24.0,0.0027245888419598074
26.0,0.002534602819532328
28.0,0.0024375992571288307
30.0,0.0023406012796831632
32.0,0.0018098863170010748
36.0,0.0011553098154200026
40.0,0.0009610276252458583
44.0,0.0009447633566492808
48.0,0.0006103840010913686
52.0,0.00037720769893034856
56.0,4.2496634692801294e-05
60.0,-1.259009167109415e-05
64.0,-6.237640180173365e-05
72.0,-0.0002790555577272258
80.0,-0.0003337630713244888
88.0,-0.0004004922165603553
96.0,-0.0005181964542433359
104.0,-0.00023871871539671297
112.0,-0.0004017055361907884
120.0,-0.0007722824706709597
128.0,-0.0012782389424550455
144.0,-0.002394659735358684
160.0,-0.0033790810782249325
176.0,-0.004044770226937611
192.0,-0.004655243764912997
208.0,-0.0047657661474336255
224.0,-0.0041237473780867395
240.0,-0.0037929721757321566
256.0,-0.0035818771170007535
288.0,-0.003270458273709975
320.0,-0.002001547013134042
352.0,-0.0017787067239813936
384.0,-0.0008770339759273105
416.0,-0.0007575511483540742
448.0,-0.0018121115798338527
480.0,-0.0027928090020584717
512.0,-0.002359890213655791
576.0,-0.004153830004452019
640.0,-0.0036259655716512906
704.0,-0.002426068113761337
768.0,-0.0012561265902187868
832.0,-0.00031015956268609646
896.0,-0.0011446998709330192
960.0,-0.00023983016318585015
1024.0,-5.3628922880744057e-05
1152.0,0.0007406957934679159
1280.0,-1.3249132170045641e-05
1408.0,0.00020648147021029573
1536.0,0.0017298622204575675
1664.0,0.0013546954772478692
1792.0,0.00041793137704160266
1920.0,0.0014534795921727905
2048.0,0.0012551677697800745
2304.0,0.0010853517319544537
2560.0,0.0016549162990961985
2816.0,0.0014035732448340887
3072.0,0.00029094627786174776
3328.0,0.00039887993752119044
3584.0,-0.0019500132756314903
3840.0,-0.0014532705472373175
4096.0,-0.000980191121144891
4608.0,0.00010226871600682585
5120.0,0.0005191807752813471
5632.0,0.0015887431858028211
6144.0,-0.0018253207363277957
6656.0,0.0041121638828856
7168.0,-0.0013003476701082262
7680.0,-0.001011587345893128
8192.0,-0.00011975558344923254
9216.0,0.0008396753069443985
10240.0,-0.002147278739943581
11264.0,0.0024081277626188946
12288.0,-0.00017368891697366884
13312.0,-0.0031835975428059493
14336.0,0.0006994260391819385
end
