version,3.0
numOfCh,1
type,point
parent_name,mod-filtering
ch_type,1_1
kcount,1
numberNandB,1
brightnessNandB,1
carpet pos,0
pc,0
Time (ms),CH1 Auto-Correlation
1.0,0.015538468415440931
2.0,0.0122307651797402
3.0,0.01008513219556706
4.0,0.008352777378196619
5.0,0.007315355280341995
6.0,0.006412712950169208
7.0,0.005701835044396031
8.0,0.0050123322424786565
9.0,0.004430787911832157
10.0,0.004006750602473019
11.0,0.0036143767072802646
12.0,0.003169686941962624
13.0,0.002728143549035389
14.0,0.0024689982936563215
15.0,0.0022325491891668214
16.0,0.0020105196125035363
18.0,0.0015914959903144954
20.0,0.0011610068666609852
22.0,0.0007432110601095498
24.0,0.0002425884546541912
26.0,6.856148685008279e-06
28.0,3.875261508179406e-05
30.0,0.00011391373214109102
32.0,-0.00011243695630425155
36.0,-4.8465899081584496e-05
40.0,-8.09626443464273e-05
44.0,-0.00034576080718196067
48.0,-0.0007908851166860131
52.0,-0.0005676758609821642
56.0,-0.0003783918374457018
60.0,-0.0010271443144344028
64.0,-0.001057505296391259
72.0,-0.00091916030528294
80.0,-0.0008686236285981863
88.0,-0.0008996361397636266
96.0,-0.0009430624852965197
104.0,-0.0008156182820266977
112.0,-0.0005516013641181372
120.0,-0.0004298965231227525
128.0,-0.0008460705921903289
144.0,-0.00284246817101641
160.0,-0.0017591325683923298
176.0,-0.0009333429964120121
192.0,-0.001310674128476963
208.0,-0.0005366519445245688
224.0,-0.00022256484177163305
240.0,-0.0012364564045074244
256.0,-0.0004546339877918859
288.0,0.00022693005115259623
320.0,0.0007958104739218541
352.0,-0.0003887047597204152
384.0,0.0001914743234325833
416.0,-0.0006238792316239916
448.0,-0.0014381086607323512
480.0,-0.0005985501936284221
512.0,-0.0005100599827101426
576.0,0.0028515774123940574
640.0,0.0008523227025727387
704.0,-0.0020722928381426975
768.0,-0.00131692605613154
832.0,0.0011475721706009079
896.0,-0.000514139473215991
960.0,-0.0006197678715172961
1024.0,-2.1027095659875705e-05
1152.0,-0.002109247531841718
1280.0,1.4425210032253943e-05
1408.0,-0.0015262167639780166
1536.0,-0.000943973623342309
1664.0,-0.001483574545678712
1792.0,-0.0003529554678104452
1920.0,-0.0006078179361245217
2048.0,0.0007564060364251279
2304.0,0.002453844361154589
2560.0,0.0012799523091122644
2816.0,0.0003074751827525368
3072.0,0.0002921842741414604
3328.0,0.0015349321480200295
3584.0,0.0006171134553738522
3840.0,-0.0013696858725983363
4096.0,-0.0004785417162203043
4608.0,0.0011737248634691166
5120.0,-0.0002521981530595463
5632.0,0.002660736717003287
6144.0,-0.0008863564526999657
6656.0,-0.0004319843146040059
7168.0,-0.0022290381393481606
7680.0,-0.0022796902558519516
8192.0,0.0004833019425058982
9216.0,0.0021891712578221423
10240.0,-0.001264657243145173
11264.0,-0.0023136695566862153
12288.0,0.0009902977462914464
13312.0,-0.0003731031832020504
14336.0,-0.00023802630742886244
end
