version,3.0
numOfCh,1
type,point
parent_name,mod-filtering
ch_type,1_1
kcount,1
numberNandB,1
brightnessNandB,1
carpet pos,0
pc,0
Time (ms),CH1 Auto-Correlation
1.0,0.02815894975697031
2.0,0.023284091320399325
3.0,0.019564084278060223
4.0,0.016755406718103938
5.0,0.014639124327554986
6.0,0.013166205841459444
7.0,0.01189436955805534
8.0,0.010779054884267225
9.0,0.009914639628254118
10.0,0.009280706967890628
11.0,0.008697732020964688
12.0,0.008090950566902011
13.0,0.007225063958010036
14.0,0.006116810276374451
15.0,0.005510757289714618
16.0,0.0050788114386119965
18.0,0.004476741907216697
20.0,0.0038953725986314858
22.0,0.003027174038236158
24.0,0.002999766143217286
26.0,0.0028217771396834568
28.0,0.0025653967618046725
30.0,0.00238761528890441
32.0,0.002045213122108258
36.0,0.0019325095444249207
40.0,0.0018842221869865838
44.0,0.0013868632704259198
48.0,0.0005096755874369752
52.0,-0.0003355944426781665
56.0,-0.0010699535532308069
60.0,-0.0018854383821668153
64.0,-0.0021096469194378242
72.0,-0.002997441499891673
80.0,-0.0037225330487232755
88.0,-0.0037875144576173803
96.0,-0.00450461041650152
104.0,-0.005632020983496244
112.0,-0.006138817711453526
120.0,-0.007131864556462975
128.0,-0.00833770153590041
144.0,-0.010767572906993372
160.0,-0.010983074775639867
176.0,-0.011409469684675932
192.0,-0.011078130107562312
208.0,-0.011168991020626629
224.0,-0.009958845050122234
240.0,-0.010824723604456743
256.0,-0.011583431999636407
288.0,-0.010161337501683354
320.0,-0.009431323518851897
352.0,-0.010955738148291427
384.0,-0.011736656164113457
416.0,-0.011527885760639012
448.0,-0.01165489977876455
480.0,-0.01241155144143924
512.0,-0.012198927980360486
576.0,-0.012120876168441264
640.0,-0.010579633809183475
704.0,-0.008714378584936178
768.0,-0.00966893730163687
832.0,-0.01227639836896377
896.0,-0.01436683689228846
960.0,-0.015517820600770782
1024.0,-0.015980825680267707
1152.0,-0.020243874216511415
1280.0,-0.02285534057804084
1408.0,-0.02204895331708434
1536.0,-0.015494141868372946
1664.0,-0.013059887474239251
1792.0,-0.011235798475940473
1920.0,-0.010753634120338695
2048.0,-0.012303196847263997
2304.0,0.00014816225625713386
2560.0,0.007172881264496667
2816.0,0.0029845218546307173
3072.0,0.007512631366039635
3328.0,0.007121525653267513
3584.0,0.0019209910933968288
3840.0,0.00036042360124111106
4096.0,-0.000112154852813795
4608.0,0.011498984705419213
5120.0,0.023340897419713347
5632.0,0.02873881727069394
6144.0,0.03931173835841539
6656.0,0.027679754675434154
7168.0,0.020807495550597466
7680.0,0.020058450655779936
8192.0,0.025051632516144506
9216.0,0.011191389546908237
10240.0,-0.011692736755166355
11264.0,-0.02176642840777554
12288.0,-0.03279827459962714
13312.0,-0.025977984146501765
14336.0,-0.06635245410564983
end
