version,3.0
numOfCh,1
type,point
parent_name,mod-filtering
ch_type,1_1
kcount,1
numberNandB,1
brightnessNandB,1
carpet pos,0
pc,0
Time (ms),CH1 Auto-Correlation
1.0,0.012696484568096356
2.0,0.008868153144481417
3.0,0.006396136380707462
4.0,0.004707409040805244
5.0,0.0032688797652318247
6.0,0.002010365353915855
7.0,0.0008107429731434301
8.0,-0.00019628111139979865
9.0,-0.0009839920139884661
10.0,-0.001436352782059891
11.0,-0.0018679035509213682
12.0,-0.0024741988225085443
13.0,-0.0032482318166053847
14.0,-0.0034210806528094384
15.0,-0.00416202776581609
16.0,-0.004558515433051746
18.0,-0.004760660617521895
20.0,-0.004974103395308571
22.0,-0.005266464129392245
24.0,-0.0061065599085754485
26.0,-0.006895130880485323
28.0,-0.006894451378298028
30.0,-0.006956916448400907
32.0,-0.006630764879287709
36.0,-0.006805154127299762
40.0,-0.007554858939171183
44.0,-0.008034928157723109
48.0,-0.008792167137632645
52.0,-0.008778552605458345
56.0,-0.008723686533540609
60.0,-0.008507186014053647
64.0,-0.007654738744355183
72.0,-0.00786523602428546
80.0,-0.00892742026584259
88.0,-0.009081989002842739
96.0,-0.008581456044132518
104.0,-0.006874343040417674
112.0,-0.006064717095834116
120.0,-0.005906022106902942
128.0,-0.005958914069804311
144.0,-0.005575932893532198
160.0,-0.005420086492757714
176.0,-0.006312348178501459
192.0,-0.00655093695563258
208.0,-0.0063555725224188064
224.0,-0.006356554583661689
240.0,-0.005374027959657246
256.0,-0.00820756471034989
288.0,-0.007766178378815769
320.0,-0.0032816108954069056
352.0,-0.00332800409269296
384.0,-0.007282885563615449
416.0,-0.011376624797979629
448.0,-0.011129526716829097
480.0,-0.010089321532179008
512.0,-0.012497221416383097
576.0,-0.009510694320519542
640.0,-0.007304946169158777
704.0,-0.009326428862339475
768.0,-0.01145714439444101
832.0,-0.00503460361089314
896.0,-0.005145753458399516
960.0,-0.003609494069588326
1024.0,-0.006971055028562212
1152.0,-0.007067510534790489
1280.0,-0.005925921236324072
1408.0,-0.007481781873630466
1536.0,-0.005177285356298134
1664.0,-0.003736765809052134
1792.0,-0.004022358183116359
1920.0,-0.0030776896845612356
2048.0,0.0010031879601624105
2304.0,0.0003628822240526741
2560.0,-0.006287998414528317
2816.0,-0.003994518296682625
3072.0,0.0037353888382993805
3328.0,0.007081731072952069
3584.0,0.002240518837401284
3840.0,-0.00010890876147195971
4096.0,0.005527497113069879
4608.0,-0.0007755329436404113
5120.0,0.004996946055785267
5632.0,0.0023466516139065696
6144.0,-0.003039924213578793
6656.0,-0.004063710768120843
7168.0,-0.006611332137375747
7680.0,-0.009229881451879307
8192.0,-0.004583812055476977
9216.0,0.00660123950962932
10240.0,0.01213342736503753
11264.0,0.015566111955005235
12288.0,0.01992794044771018
13312.0,0.014415934981865774
14336.0,-0.008608329992551345
end
