version,3.0
numOfCh,1
type,point
parent_name,mod-filtering
ch_type,1_1
kcount,1
numberNandB,1
brightnessNandB,1
carpet pos,0
pc,0
Time (ms),CH1 Auto-Correlation
1.0,0.025973746992589142
2.0,0.019980484577660995
3.0,0.016109236516265835
4.0,0.012431404852764283
5.0,0.009512420049766268
6.0,0.007416991946553209
7.0,0.0058896540165673805
8.0,0.004279291483139325
9.0,0.003116486235493099
10.0,0.001863383527320961
11.0,0.0010252826315926278
12.0,0.0003781503548268006
13.0,0.0002534311697843794
14.0,-1.608338983083435e-05
15.0,-0.00011803225123296901
16.0,-2.281840868778584e-05
18.0,-0.00010274190784342885
20.0,-0.0011438533901170223
22.0,-0.002005683398931035
24.0,-0.0030896916972084076
26.0,-0.0035701714441019883
28.0,-0.0037860334990902356
30.0,-0.004389017503237169
32.0,-0.004382899194719125
36.0,-0.0062915076118195135
40.0,-0.008235260968236457
44.0,-0.00894785804125875
48.0,-0.009495905662479154
52.0,-0.01091515289990419
56.0,-0.012551718789642119
60.0,-0.014133386641326795
64.0,-0.014521775705296225
72.0,-0.015370664126163724
80.0,-0.01643455743428479
88.0,-0.017125803902823256
96.0,-0.0170357115659876
104.0,-0.017107409522106543
112.0,-0.017209860134776322
120.0,-0.01674988498970409
128.0,-0.01634843670426911
144.0,-0.016254018932716163
160.0,-0.018120728853436407
176.0,-0.019212342607274335
192.0,-0.01931284065708261
208.0,-0.01803268977578676
224.0,-0.017209789596570046
240.0,-0.01532102244918665
256.0,-0.01688357395242923
288.0,-0.019886612059079045
320.0,-0.02112966898262636
352.0,-0.023176809293630307
384.0,-0.024424341516808723
416.0,-0.024536006783511644
448.0,-0.026604866700491447
480.0,-0.026583817250393493
512.0,-0.026031390729521764
576.0,-0.02303636655722352
640.0,-0.02684281132603128
704.0,-0.023617642534284666
768.0,-0.025386776536436173
832.0,-0.02841622923368836
896.0,-0.03271803457715605
960.0,-0.030724055443875353
1024.0,-0.02774020407791644
1152.0,-0.021666787195345205
1280.0,-0.007431425003100012
1408.0,-0.00020086912720540528
1536.0,0.0003976336238753486
1664.0,-0.011493259301225578
1792.0,-0.011996792365650544
1920.0,-0.014492658564576155
2048.0,-0.016086823709152265
2304.0,-0.010830009622870729
2560.0,0.02256701323044319
2816.0,0.047212806822931386
3072.0,0.059528786665559386
3328.0,0.0490160782951492
3584.0,0.051373755694009926
3840.0,0.0640160908507863
4096.0,0.051209140847405354
4608.0,0.021502414434374728
5120.0,-0.0003566089114681592
5632.0,-0.010025542376503882
6144.0,-0.014750846045528898
6656.0,-0.019199595979678685
7168.0,-0.006710050674620827
7680.0,0.02125361591534425
8192.0,0.04533527210766253
9216.0,-0.0015215662313342593
10240.0,-0.028443427880983196
11264.0,-0.005620866202610597
12288.0,-0.021897554481241643
13312.0,-0.0022407997541279423
14336.0,0.06284553532030657
end
