version,3.0
numOfCh,1
type,point
parent_name,mod-filtering
ch_type,1_1
kcount,1
numberNandB,1
brightnessNandB,1
carpet pos,0
pc,0
Time (ms),CH1 Auto-Correlation
1.0,0.014531321862125912
2.0,0.011201794761857231
3.0,0.009132716328858814
4.0,0.0074643498217614734
5.0,0.006155201815963629
6.0,0.005416290661383272
7.0,0.0048004841590714165
8.0,0.0039942525655445316
9.0,0.003438159517022754
10.0,0.003192255868804894
11.0,0.0025666302764055793
12.0,0.002243160951466816
13.0,0.001989256493069691
14.0,0.0015970050748126408
15.0,0.0011781026721882082
16.0,0.0008918731185929563
18.0,8.335581371254897e-05
20.0,-0.00037016915764909175
22.0,-0.0004964148921658973
24.0,-0.0004335721918428126
26.0,-0.0004334212794481207
28.0,-0.0005270771125071017
30.0,-0.0005517189214274687
32.0,-0.0006205791782605274
36.0,-0.00036447138236339605
40.0,8.57831638372275e-05
44.0,0.00013435845455056494
48.0,0.0001659556861963729
52.0,0.00014993757525894047
56.0,-0.00013071388456353805
60.0,-0.0003623240635174385
64.0,-0.000618217350879191
72.0,-0.0015259102456789408
80.0,-0.0016700077423905668
88.0,-0.00254511527722856
96.0,-0.00251489987203668
104.0,-0.0014729583818324787
112.0,-0.0005051004356341204
120.0,0.0002011150577643228
128.0,9.990457808672915e-05
144.0,0.0003821932762355651
160.0,0.0003189526204536719
176.0,0.00020259517185183817
192.0,-0.0001793678995365422
208.0,-0.00017228065186103425
224.0,-0.0002970170007121631
240.0,-0.00011268914078899073
256.0,0.0012612526522952638
288.0,0.0019319706185265684
320.0,0.0017675051299597122
352.0,0.0008330219534238292
384.0,-0.0010647548537828788
416.0,-8.285618352199542e-05
448.0,0.0002720322405391773
480.0,0.0003538463870695896
512.0,-0.0004773510661519875
576.0,0.00094062135796813
640.0,-0.00020005808075274079
704.0,0.001491693798029825
768.0,0.0005742899066165652
832.0,0.00038558175054070887
896.0,-0.000715237014651926
960.0,0.00032743911196742026
1024.0,-0.002504481055525587
1152.0,-0.0006260117211811522
1280.0,-0.0014017663143005565
1408.0,-0.004266895588564301
1536.0,-0.004128549870624831
1664.0,-0.0017882182345226871
1792.0,-0.0007091143036952463
1920.0,0.00048727484131205756
2048.0,-0.0016244861618555095
2304.0,0.0011923619585172407
2560.0,-0.0008079384414273472
2816.0,-0.0013894741553126533
3072.0,0.00025430202726428597
3328.0,-0.00010789293325896843
3584.0,0.0034743819987750335
3840.0,0.0006565115795937881
4096.0,0.002586245737671744
4608.0,0.0014665238185056495
5120.0,0.0028212768940609756
5632.0,0.0008129550573350297
6144.0,-0.0031347381176181077
6656.0,0.0004938264374312329
7168.0,-0.0017765972775185546
7680.0,-0.001245131344541961
8192.0,-0.0009018694600063659
9216.0,-0.0006272063734790168
10240.0,0.0012003507803390878
11264.0,-0.0011450049367387471
12288.0,-0.002778577973070351
13312.0,-0.0010993172078015423
14336.0,0.005233434839485573
end
