version,3.0
numOfCh,1
type,point
parent_name,mod-filtering
ch_type,1_1
kcount,1
numberNandB,1
brightnessNandB,1
carpet pos,0
pc,0
Time (ms),CH1 Auto-Correlation
1.0,0.015134940055752555
2.0,0.012296994546972195
3.0,0.01043966636084348
4.0,0.0089903233263402
5.0,0.007927727483400426
6.0,0.007027704254741307
7.0,0.00643102791117478
8.0,0.006260721788728496
9.0,0.005994454812432215
10.0,0.005453983840715271
11.0,0.00497995958480546
12.0,0.004743656252280459
13.0,0.004457599491490161
14.0,0.004068469118561069
15.0,0.00399880977115652
16.0,0.0038088483376348403
18.0,0.003720877901614017
20.0,0.003564427084837396
22.0,0.0031540740593472005
24.0,0.0025281136297110596
26.0,0.0023033020635834234
28.0,0.0019517189824043157
30.0,0.0015966479620141971
32.0,0.0013718411572105627
36.0,0.0014318601472200765
40.0,0.0015295649136644052
44.0,0.0016983237965830789
48.0,0.0018367772103975444
52.0,0.0017202016066049097
56.0,0.0015593282184174218
60.0,0.0007832460193504254
64.0,0.0005827770734878612
72.0,-3.923651667447903e-05
80.0,0.0003579694719644255
88.0,0.0006907984354993513
96.0,0.001407645323632467
104.0,0.0015329165297495173
112.0,0.001189459650126956
120.0,0.00047625533406381315
128.0,-0.0007804641585552607
144.0,-0.00027761454699792854
160.0,0.0007737143697592597
176.0,0.0006295035691037398
192.0,0.00019651390718888884
208.0,-0.0007600810556672721
224.0,-0.0010965691323713278
240.0,-0.0008957889820048193
256.0,-0.0016550626834219706
288.0,-0.0023765279714800247
320.0,-0.0015084931274107483
352.0,-0.001397490051222916
384.0,0.0001271290536934977
416.0,-0.0007577958812875485
448.0,-0.0007366293211942265
480.0,0.0007794699661964888
512.0,0.0003770488955714413
576.0,5.211566345608709e-05
640.0,-0.0017274134917790729
704.0,-0.0012581117720482649
768.0,0.00014646840248344617
832.0,7.374663425552264e-05
896.0,0.00029612364323927665
960.0,-0.0016263784048654584
1024.0,-0.003092386261336899
1152.0,0.00022589870739375684
1280.0,-0.00023165958765303252
1408.0,-0.0015394607865667487
1536.0,-0.0016020910756431306
1664.0,0.0009843292172886375
1792.0,0.0016096374498359989
1920.0,-0.0005876065190690838
2048.0,0.0015517629744423722
2304.0,0.0005497171621060559
2560.0,0.0003977359108220391
2816.0,-0.0002589179791790963
3072.0,0.0002866289923557641
3328.0,0.00040364370529855087
3584.0,0.0010008832106085386
3840.0,0.0011523980184515725
4096.0,-0.002240584004075563
4608.0,-0.0010247343085810767
5120.0,2.606606395794131e-05
5632.0,-0.001198306324618592
6144.0,-0.00094982715967451
6656.0,0.001216451684955988
7168.0,0.00015538940099957266
7680.0,-0.0010377275789421603
8192.0,0.0028839588352500556
9216.0,0.0004251933845318412
10240.0,-0.0005711568218128571
11264.0,0.0005016827084587394
12288.0,-0.00033727778207204295
13312.0,0.0009374961417050187
14336.0,0.0014279376777368569
end
