version,3.0
numOfCh,1
type,point
parent_name,mod-filtering
ch_type,1_1
kcount,1
numberNandB,1
brightnessNandB,1
carpet pos,0
pc,0
Time (ms),CH1 Auto-Correlation
1.0,0.014849040908316402
2.0,0.011982793454709872
3.0,0.009770689262567744
4.0,0.008152301558857378
5.0,0.006922633455934024
6.0,0.0062269279815614365
7.0,0.0054902665785869775
8.0,0.004922398880665035
9.0,0.004525017940624432
10.0,0.0040760746026322625
11.0,0.003800430741000893
12.0,0.003558039562520765
13.0,0.003280830199611673
14.0,0.0028560369856587275
15.0,0.00245776995306235
16.0,0.0021901754530744277
18.0,0.001751177818367422
20.0,0.0012400329626280904
22.0,0.0011261073359494223
24.0,0.001164645174376533
26.0,0.0010114461855192936
28.0,0.0011011318914060375
30.0,0.0011151783327634224
32.0,0.0009204349040603521
36.0,0.0005348095548045606
40.0,0.0004699351847121669
44.0,0.00045153432834355023
48.0,0.00023894767655896487
52.0,-0.0002350771892191128
56.0,-0.0002498596901648886
60.0,1.5248942927925668e-05
64.0,6.697680142164764e-05
72.0,-0.0007704066798696063
80.0,-0.0017254755972606617
88.0,-0.0021501839061643935
96.0,-0.002046423756046911
104.0,-0.0015032490721162972
112.0,-0.0008390699851927863
120.0,-0.0005819771017485653
128.0,-0.0012350420445671473
144.0,-0.0016431124284855825
160.0,-0.0012659589679063776
176.0,-0.00022997987849748824
192.0,-0.0007010097594232212
208.0,0.0003649140072596868
224.0,0.0012073751779206887
240.0,0.0014660011511713478
256.0,0.0015550046884575952
288.0,0.002570689678461191
320.0,0.002296026833777498
352.0,0.0016260846414424268
384.0,0.00043565392348088317
416.0,-0.00036261619845101567
448.0,-0.0001800000880330943
480.0,0.0006240937789860901
512.0,0.0009975288262613624
576.0,0.0002914386982242334
640.0,-0.000664060550433776
704.0,-0.0006164455648636213
768.0,0.0005604558897431833
832.0,0.001354447256668001
896.0,0.0016188667694625458
960.0,0.0007996910305807514
1024.0,0.0012010273580331798
1152.0,0.001448242828821611
1280.0,0.003065774249670916
1408.0,0.0018245690339306897
1536.0,5.994090125360785e-06
1664.0,0.0018387994830637577
1792.0,0.0002484868607002255
1920.0,-0.001325196617731228
2048.0,-0.0020554296107601067
2304.0,-0.0019501569243207673
2560.0,0.001994439562114758
2816.0,0.0010835634327608368
3072.0,0.0022530153701756372
3328.0,-0.0004789181845223922
3584.0,-0.0014477902018027455
3840.0,-0.002702964904882199
4096.0,-0.0007872541298424851
4608.0,-0.0029082502015744804
5120.0,-0.001373953056006294
5632.0,-0.0008648525589879386
6144.0,-0.000701600967933369
6656.0,0.0009764777572331962
7168.0,-0.0005523606510149381
7680.0,-0.002839097003863089
8192.0,0.0016937610163534345
9216.0,-0.0010827123494183688
10240.0,0.00258793211547359
11264.0,-0.0014334981667359914
12288.0,0.00440144518563601
13312.0,-0.0032572378522301992
14336.0,0.007266694954948916
end
