version,3.0
numOfCh,1
type,point
parent_name,mod-filtering
ch_type,1_1
kcount,1
numberNandB,1
brightnessNandB,1
carpet pos,0
pc,0
Time (ms),CH1 Auto-Correlation
1.0,0.026999034854728654
2.0,0.021931666688498552
3.0,0.01836012036132595
4.0,0.0156537125032159
5.0,0.013686379802536397
6.0,0.01226750989897396
7.0,0.01088922237269152
8.0,0.009820889630905105
9.0,0.008840273520693165
10.0,0.008002530592903012
11.0,0.007287540227334688
12.0,0.006885122212962003
13.0,0.006213742744243023
14.0,0.005691986360841561
15.0,0.005292505950075466
16.0,0.00483254503990449
18.0,0.0039332225475559035
20.0,0.0032983790553478
22.0,0.002892638656913471
24.0,0.002398509403845228
26.0,0.002122954741324623
28.0,0.0011949658839665034
30.0,0.0005281409757331712
32.0,0.00014847254050232017
36.0,-0.0005501548651398736
40.0,-0.0009868332628804044
44.0,-0.0021854699262608968
48.0,-0.0029646251185146966
52.0,-0.0034145010513825236
56.0,-0.0036020726549450544
60.0,-0.00440215088339635
64.0,-0.0049718298022132235
72.0,-0.004990158624145868
80.0,-0.00490078320205567
88.0,-0.005307191164306557
96.0,-0.005442484765301292
104.0,-0.005163844507309223
112.0,-0.005211272761311725
120.0,-0.005103885503335737
128.0,-0.005219758889871473
144.0,-0.004593648282420926
160.0,-0.005149640158596536
176.0,-0.006588651965775738
192.0,-0.006932366691975611
208.0,-0.0064526841867269535
224.0,-0.005303403480721669
240.0,-0.005652877008052282
256.0,-0.004883619928222838
288.0,-0.006322606588110236
320.0,-0.006721851763514808
352.0,-0.0068977880016882764
384.0,-0.006259865598038594
416.0,-0.006915354464986256
448.0,-0.0074491161934044925
480.0,-0.006155926770188946
512.0,-0.004754052728204949
576.0,-0.004790644220693974
640.0,-0.004991161327837834
704.0,-0.005575120261891553
768.0,-0.0051327378086489794
832.0,-0.006463719221173059
896.0,-0.006475632554228339
960.0,-0.00784940798057987
1024.0,-0.0059449672838484124
1152.0,-0.006467660836505962
1280.0,-0.004524922893246797
1408.0,-0.002830708930066983
1536.0,-0.005157197024093008
1664.0,-0.00568129561478814
1792.0,-0.007588321756826444
1920.0,-0.004679237173660145
2048.0,-0.0025602592020386172
2304.0,-0.002740906515208863
2560.0,-0.001246535568364071
2816.0,0.004182399480376686
3072.0,0.0037536745042006103
3328.0,0.0010860821350096028
3584.0,0.0037252149799065215
3840.0,0.0022289414240568295
4096.0,0.002999043820707037
4608.0,0.0016941998874535624
5120.0,-0.0012101082799851337
5632.0,-0.004944110189582629
6144.0,-0.004281678569649894
6656.0,0.0011081564845689673
7168.0,0.002931270624217497
7680.0,0.0029331234979914633
8192.0,0.00453652735336596
9216.0,0.007967581723731243
10240.0,0.006622292158976473
11264.0,0.015034561122173606
12288.0,0.0032311685116326316
13312.0,-0.01289533892713668
14336.0,-0.02150803968814874
end
