version,3.0
numOfCh,1
type,point
parent_name,mod-filtering
ch_type,1_1
kcount,1
numberNandB,1
brightnessNandB,1
carpet pos,0
pc,0
Time (ms),CH1 Auto-Correlation
1.0,0.02481423149654094
2.0,0.01829563139629098
3.0,0.013477856556221024
4.0,0.010117620403021776
5.0,0.007929066848843203
6.0,0.0058011908975432736
7.0,0.00421603288320771
8.0,0.0028641283004386953
9.0,0.001906399748964338
10.0,0.00024051012222003898
11.0,-0.0010862495580251652
12.0,-0.002060228267511177
13.0,-0.002488050508650641
14.0,-0.0034040576128141486
15.0,-0.004609993155642811
16.0,-0.005251436670442922
18.0,-0.006107774429912505
20.0,-0.007123045910567671
22.0,-0.007632028649512734
24.0,-0.008863460601669981
26.0,-0.009992988622798293
28.0,-0.011014155713924723
30.0,-0.012618552364619617
32.0,-0.012819854201885916
36.0,-0.012741282975430757
40.0,-0.012862160199111461
44.0,-0.013316780106211068
48.0,-0.014331101845993621
52.0,-0.015145510539496754
56.0,-0.01434237248689485
60.0,-0.015044057160839786
64.0,-0.014652819628899416
72.0,-0.015586263668303402
80.0,-0.016471414901501724
88.0,-0.017279318310879144
96.0,-0.01809350551868083
104.0,-0.018152875549391934
112.0,-0.017800683684708773
120.0,-0.018202729920948957
128.0,-0.02051774131420181
144.0,-0.023727289666172213
160.0,-0.025097355549037026
176.0,-0.02413402478444615
192.0,-0.02440925508001357
208.0,-0.024748197181023834
224.0,-0.026651804920462707
240.0,-0.024064040406908016
256.0,-0.023353482340107257
288.0,-0.027039641979634932
320.0,-0.03137454287782082
352.0,-0.035020562759877305
384.0,-0.03428237719460092
416.0,-0.03482585172585184
448.0,-0.03578477252232548
480.0,-0.03704357617622722
512.0,-0.037189833854539556
576.0,-0.0399183367063618
640.0,-0.0450175699965677
704.0,-0.047232641314953416
768.0,-0.049424701253475756
832.0,-0.05203248845035269
896.0,-0.05114620042393092
960.0,-0.04974296633119335
1024.0,-0.04992393249400595
1152.0,-0.05025153309674024
1280.0,-0.05152521097531093
1408.0,-0.057769364753674335
1536.0,-0.060298082125966435
1664.0,-0.0538305881236959
1792.0,-0.048433439016745794
1920.0,-0.04247417696554012
2048.0,-0.040764602136858175
2304.0,-0.040357115507380414
2560.0,-0.03079882667209788
2816.0,-0.021360524259884772
3072.0,-0.0027058728966576906
3328.0,0.01428283194001323
3584.0,0.013531689878598652
3840.0,0.02328788115460867
4096.0,0.022660012266374485
4608.0,0.05586841394540398
5120.0,0.04959327149954351
5632.0,0.07238896025902464
6144.0,0.11654703121014509
6656.0,0.1366102953799584
7168.0,0.09672078392450634
7680.0,0.07825390298942358
8192.0,0.07743758393181954
9216.0,0.036359032774899935
10240.0,0.015263041385882525
11264.0,-0.013966768112742889
12288.0,-0.008228472801024012
13312.0,-0.013106748165024773
14336.0,-0.05966104328647048
end
