version,3.0
numOfCh,1
type,point
parent_name,mod-filtering
ch_type,1_1
kcount,1
numberNandB,1
brightnessNandB,1
carpet pos,0
pc,0
Time (ms),CH1 Auto-Correlation
1.0,0.014568296775240963
2.0,0.011524508371289821
3.0,0.009243922749283318
4.0,0.0075882717156523505
5.0,0.0061418491417339904
6.0,0.0046872136764721795
7.0,0.0038373861956020328
8.0,0.003239718499397748
9.0,0.002802380219152578
10.0,0.002518127418352556
11.0,0.0021809320331604987
12.0,0.0021559071136478813
13.0,0.0020446839129664163
14.0,0.0019164247961813707
15.0,0.0018286795321458271
16.0,0.0014619106564310869
18.0,0.0012572043246745768
20.0,0.0009285367065894334
22.0,0.0006174580084126191
24.0,0.00029627779957008826
26.0,0.00026804819660286583
28.0,-0.00011432937355815298
30.0,-0.0005258667758818447
32.0,-0.0007255850343665937
36.0,-0.0008687409199785723
40.0,-0.0005019390690323977
44.0,-0.0010451419629597947
48.0,-0.0010701070455735318
52.0,-0.0011606171544886745
56.0,-0.0005550532461634505
60.0,-0.0006576401322354597
64.0,-0.0006041453358153204
72.0,-0.0011315685250186114
80.0,-0.001573218648620367
88.0,-0.0017904824131875774
96.0,-0.001634106146637504
104.0,-0.0013269849690531466
112.0,-0.0014009316282123097
120.0,-0.002371314172313732
128.0,-0.0029866217979263032
144.0,-0.004070321286779532
160.0,-0.0033542020680653595
176.0,-0.001619507938562026
192.0,-0.0021121297682271667
208.0,-0.0020225466908274647
224.0,-0.0013459863551779083
240.0,-0.001442071247478971
256.0,-0.0009691149220963924
288.0,4.905925801379496e-06
320.0,0.0007622547740862018
352.0,0.0008805589638005706
384.0,-0.00043832561186130103
416.0,-3.100650848697484e-05
448.0,-0.0012303861362714663
480.0,-0.0007812192651327488
512.0,0.00047550489194625456
576.0,-1.3586926264408383e-05
640.0,0.0005383235568479083
704.0,-0.0003282710756490337
768.0,-0.0004554562018981301
832.0,-0.001009119201975217
896.0,-0.002327868049461612
960.0,-0.0016872620232074587
1024.0,-0.0008266526265339191
1152.0,0.002015960982380438
1280.0,5.333529566220463e-06
1408.0,0.0018694416840485673
1536.0,0.0012577280280878789
1664.0,0.00020887816821879568
1792.0,0.00017209963417719187
1920.0,-0.00020629439937136507
2048.0,0.0008654787400881325
2304.0,-0.0007994068137849863
2560.0,0.0016634223378839685
2816.0,0.0014353916089653307
3072.0,-0.0012044382361472428
3328.0,0.0006415571410771648
3584.0,0.0003513974503566164
3840.0,-0.0015079031497982065
4096.0,0.0006521568399471267
4608.0,-0.0007633696768919451
5120.0,0.0003604254460052303
5632.0,-0.0010404078975853048
6144.0,2.8439996580642557e-05
6656.0,-0.0004308550966333202
7168.0,0.0008164779409260969
7680.0,-0.0007634453807567887
8192.0,0.0007309417160448195
9216.0,0.0003539234810012726
10240.0,0.00017071069432939012
11264.0,-0.0006140583052768323
12288.0,-0.000599302697472992
13312.0,0.0003049072474250458
14336.0,0.0002256765042356612
end
