version,3.0
numOfCh,1
type,point
parent_name,mod-filtering
ch_type,1_1
kcount,1
numberNandB,1
brightnessNandB,1
carpet pos,0
pc,0
Time (ms),CH1 Auto-Correlation
1.0,0.015091739233236812
2.0,0.011980264609293023
3.0,0.009785135233275843
4.0,0.00828908595635336
5.0,0.00710470450304812
6.0,0.0061307550386358045
7.0,0.0053112412303899514
8.0,0.004586586570311635
9.0,0.004112784298339944
10.0,0.0036703715194306152
11.0,0.0033880852750334256
12.0,0.003138272616040272
13.0,0.0028945436098644084
14.0,0.0025344640340128066
15.0,0.002131891811399056
16.0,0.0017662152876516402
18.0,0.001312787672743898
20.0,0.0008558245441740997
22.0,0.000333964161778999
24.0,0.00021294378619240995
26.0,0.00011437863634999879
28.0,-0.0001777642188681705
30.0,-0.00029223352564777816
32.0,-0.00029823944712104034
36.0,-0.0006337763718803346
40.0,-0.0008142643884069267
44.0,-0.0004226816784210774
48.0,-0.0003686409243066624
52.0,-1.3447250846176928e-07
56.0,-1.555570295397324e-05
60.0,0.0002612829666579497
64.0,0.0004297116093183728
72.0,0.00010538719410879693
80.0,-0.0002668291719966076
88.0,-0.00032516407596738794
96.0,9.897149254811666e-05
104.0,-0.00019777800051956618
112.0,-0.0008899273467224411
120.0,-0.001052390133609693
128.0,-0.0011341359258395523
144.0,-0.00027814435358963774
160.0,-0.00023854793515987183
176.0,-0.0010357131824745291
192.0,-0.0005049449394953776
208.0,-0.0009488077810611006
224.0,-0.0019254420098133718
240.0,-0.0018230128331000461
256.0,-0.002178064950751346
288.0,-0.002952175290163006
320.0,-0.0032145627520582254
352.0,-0.0028457095443521485
384.0,-0.002456951350697012
416.0,-0.002023274995210045
448.0,-0.0018251645318232423
480.0,-0.0009356297129888835
512.0,-0.0008228918363593074
576.0,-0.0010072227481610074
640.0,-0.001861673081412385
704.0,-0.0023481024094772485
768.0,-0.0031608620899725715
832.0,-0.002310866737315509
896.0,-0.0011919432206213276
960.0,-0.00032113993727345136
1024.0,-0.0028774853536082112
1152.0,-0.002627642245597528
1280.0,-0.0021997462237143273
1408.0,-0.00160319057339664
1536.0,-0.001190219971124895
1664.0,0.0011468803218497303
1792.0,0.0001461432431275611
1920.0,0.0008634494174739604
2048.0,0.00030416148145140376
2304.0,0.0027667894487455325
2560.0,0.001975550284159855
2816.0,0.002251893965207419
3072.0,0.002761270019862483
3328.0,0.0018413058199204801
3584.0,0.0030121151557711556
3840.0,0.003348404170981256
4096.0,0.0011018126530284444
4608.0,0.0015439782939417057
5120.0,-0.00020468048403476935
5632.0,2.049364171652357e-05
6144.0,-0.002592698717832631
6656.0,-0.0031478704687663006
7168.0,-0.0037595971110475634
7680.0,-0.002006981880805281
8192.0,-0.001103072335448485
9216.0,-0.0011893064780175155
10240.0,0.0021133098790326876
11264.0,0.0037231745361077095
12288.0,0.0033858968529920652
13312.0,-0.0018398128493057886
14336.0,-0.0028472117136041364
end
