version,3.0
numOfCh,1
type,point
parent_name,mod-filtering
ch_type,1_1
kcount,1
numberNandB,1
brightnessNandB,1
carpet pos,0
pc,0
Time (ms),CH1 Auto-Correlation
1.0,0.0274001991107653
2.0,0.022574478985979862
3.0,0.01912418616514322
4.0,0.016513150033124147
5.0,0.014370250638298776
6.0,0.012596398046001323
7.0,0.011200053543414246
8.0,0.010143582240483395
9.0,0.009338211390841344
10.0,0.00860562288400879
11.0,0.00785780631250188
12.0,0.007434540404273715
13.0,0.007167235616487799
14.0,0.006728509896192003
15.0,0.006295421586787642
16.0,0.005856286550184997
18.0,0.005183959693434659
20.0,0.004523384031323907
22.0,0.00424008809594989
24.0,0.003783070511877984
26.0,0.003495367303229635
28.0,0.003090883363947139
30.0,0.002908092923675998
32.0,0.0027600750778540295
36.0,0.0026927420403051183
40.0,0.002728137332169922
44.0,0.0025996066395357342
48.0,0.0032018594251064236
52.0,0.003647025650379554
56.0,0.003292305199214418
60.0,0.0028383827337052914
64.0,0.002804154407286763
72.0,0.0024586110217779122
80.0,0.0015205136456770685
88.0,0.001946289996972661
96.0,0.0017482789348546302
104.0,0.0019758754125260847
112.0,0.0016858826792400805
120.0,0.0007848882849663674
128.0,0.0006616701189341434
144.0,0.00026576227460406443
160.0,0.0007793348380795706
176.0,0.0011547465275913993
192.0,0.0011757657630671048
208.0,0.000646789189830077
224.0,-0.00014349027204663134
240.0,1.0001154429728487e-05
256.0,-0.00031320461799844157
288.0,-0.00040015912121860175
320.0,0.00037925634978241973
352.0,0.00029022104317411035
384.0,0.00039517133873978594
416.0,-0.00040881231875311563
448.0,3.1045113501937394e-05
480.0,-0.0002555459525863668
512.0,-4.028462180105663e-05
576.0,-0.00018305802424956052
640.0,-0.0005893627445088256
704.0,-0.0007557354765601598
768.0,-0.0005522202792404007
832.0,-0.0004153163772832036
896.0,-0.00020199722629354877
960.0,-0.0005780381176234695
1024.0,3.189206253395582e-05
1152.0,0.0002987123844424566
1280.0,-0.0005035312192394059
1408.0,0.0001714467324744895
1536.0,-8.11234089298507e-05
1664.0,0.0003692384533378057
1792.0,-0.0002717593503565041
1920.0,-0.0005344573139064446
2048.0,0.0006059811741012666
2304.0,0.0009676507263722822
2560.0,-0.00042400293518474186
2816.0,-0.0003682357985966833
3072.0,-0.000189630524626061
3328.0,0.000623872449937668
3584.0,0.0001343819502885868
3840.0,-0.00027472752340396145
4096.0,-0.00014153298115660018
4608.0,-0.00019126290735627105
5120.0,-0.00045029847438082804
5632.0,-0.0001673443737787439
6144.0,-7.916905503835281e-05
6656.0,9.56878542155426e-05
7168.0,-0.0005689839381312067
7680.0,-0.00028842149074093104
8192.0,0.0004188136017990729
9216.0,-0.00010377685286466765
10240.0,-0.0003354919715466975
11264.0,0.00028024861052045047
12288.0,-6.476758223084023e-05
13312.0,-0.0005287331662198191
14336.0,8.52563511903881e-05
end
