version,3.0
numOfCh,1
type,point
parent_name,mod-filtering
ch_type,1_1
kcount,1
numberNandB,1
brightnessNandB,1
carpet pos,0
pc,0
Time (ms),CH1 Auto-Correlation
1.0,0.015217840038255215
2.0,0.012257034160836566
3.0,0.010291994929918946
4.0,0.008590007777921072
5.0,0.006998953433728916
6.0,0.0060536271509517015
7.0,0.005475226337721573
8.0,0.0049337105060434094
9.0,0.0043274817754255235
10.0,0.004068149921106379
11.0,0.003878809264112215
12.0,0.0034738054787395445
13.0,0.0033849035392969906
14.0,0.003027537522062307
15.0,0.002771103536727937
16.0,0.0027187844353619983
18.0,0.0023669113869229097
20.0,0.0022156611387520453
22.0,0.002021363699262757
24.0,0.0018133307814274247
26.0,0.0013051892889883732
28.0,0.0005813896296089638
30.0,0.00015359224331934485
32.0,-0.0001973723651649273
36.0,-0.0005254631682617417
40.0,-0.0007058741758454445
44.0,-0.0010123387026236275
48.0,-0.0011507992367891795
52.0,-0.0010594146635366508
56.0,-0.0011858984980381848
60.0,-0.0014283980587248557
64.0,-0.001618686224012733
72.0,-0.001400464193104689
80.0,-0.0009290406876926172
88.0,-0.0012063049936559267
96.0,-0.0010871867380245481
104.0,-0.00042043889134746326
112.0,-0.0006078585120032898
120.0,-0.00017184161726679914
128.0,0.0002648128463886845
144.0,0.0008490509366492205
160.0,0.0019107531884192674
176.0,0.0024408748539677116
192.0,0.0028078351771345655
208.0,0.0017506940852136665
224.0,0.0009626263191675477
240.0,0.0007788477138415129
256.0,0.0002792749939191097
288.0,0.001464702340512325
320.0,0.0015765888104533055
352.0,0.0013124176622647532
384.0,-6.297806315447296e-06
416.0,-0.0002703453386709853
448.0,-6.086746611488891e-05
480.0,-0.0005257820743264086
512.0,-0.0011909324239709473
576.0,-0.000775362588292583
640.0,-0.00014384801553790627
704.0,0.00018615237524199912
768.0,-0.0010766314700734192
832.0,-0.0009955620871867632
896.0,0.00042875400363828753
960.0,-8.911865304284117e-05
1024.0,-1.8264011793833745e-05
1152.0,0.0009666797700145224
1280.0,-0.0005279926096743992
1408.0,0.0015743510332175692
1536.0,0.0004923958061335831
1664.0,0.00026100561083208795
1792.0,0.000740608716079949
1920.0,0.0003185273567047897
2048.0,-0.0001612332393103877
2304.0,-0.000344947433415288
2560.0,-0.0009407931298790473
2816.0,-0.0010891489540225674
3072.0,-0.0006568704477251108
3328.0,0.0009615337400357138
3584.0,0.0004908264763339165
3840.0,-0.0004051851102445658
4096.0,0.00014769080273135948
4608.0,-0.00016595693108245602
5120.0,0.00022267765417915975
5632.0,-0.0005081435353392338
6144.0,-0.0009366041998410957
6656.0,0.0009185938955131867
7168.0,0.0010755466893972443
7680.0,-0.0005166871270279039
8192.0,-0.0010212551826572769
9216.0,0.0006036813528158547
10240.0,-0.0006166362021452487
11264.0,-0.0008448004531762532
12288.0,0.00030129933347233795
13312.0,0.002163484850271402
14336.0,0.00022150938975240564
end
