version,3.0
numOfCh,1
type,point
parent_name,mod-filtering
ch_type,1_1
kcount,1
numberNandB,1
brightnessNandB,1
carpet pos,0
pc,0
Time (ms),CH1 Auto-Correlation
1.0,0.012401049091731009
2.0,0.008725293327961348
3.0,0.006145357292436371
4.0,0.004667166248457644
5.0,0.003123350402730596
6.0,0.0018157885550771358
7.0,0.0005320416131240346
8.0,-0.0007847571928480956
9.0,-0.002384823503043809
10.0,-0.00274687913170113
11.0,-0.0034218849381164596
12.0,-0.004086144868872266
13.0,-0.00429760943146007
14.0,-0.004622799799657851
15.0,-0.004227145258898446
16.0,-0.005132462326018383
18.0,-0.005827249769943532
20.0,-0.006363722614780132
22.0,-0.006846661496838435
24.0,-0.007473873069073211
26.0,-0.0076113516614806365
28.0,-0.007570700601077007
30.0,-0.007269416868710077
32.0,-0.007764487010130994
36.0,-0.008647656551519112
40.0,-0.00917961224709507
44.0,-0.009902667296113221
48.0,-0.009678629814616979
52.0,-0.0095276424577726
56.0,-0.009803947525006573
60.0,-0.009977851155061002
64.0,-0.010306264017116096
72.0,-0.010263860447181083
80.0,-0.01055157474289159
88.0,-0.009973759071466692
96.0,-0.008985504570859448
104.0,-0.009043216584884162
112.0,-0.00973561927886546
120.0,-0.008354538792970878
128.0,-0.008404328601393063
144.0,-0.005400281251505379
160.0,-0.00681607473257928
176.0,-0.009195223437631461
192.0,-0.008025683474592649
208.0,-0.008201403524814799
224.0,-0.009892433436542336
240.0,-0.009975950743571937
256.0,-0.01093650449181216
288.0,-0.008163565486373536
320.0,-0.009820111490106753
352.0,-0.010954322093287727
384.0,-0.01112672518617075
416.0,-0.009856704206553824
448.0,-0.01310233461820609
480.0,-0.010659526200030522
512.0,-0.006413401165753285
576.0,-0.0061093845894957255
640.0,-0.005236334416092614
704.0,-0.00306264562505032
768.0,-0.0035952138164245806
832.0,0.0030945705484379804
896.0,-0.0017478220107283171
960.0,-0.004377992803207831
1024.0,-0.004810218407879208
1152.0,0.006946342046473708
1280.0,0.013034160148768903
1408.0,-0.0002655412677015079
1536.0,0.0005838958386596982
1664.0,0.0009079911037317423
1792.0,-0.00729966030674456
1920.0,-0.004737169849270306
2048.0,-0.004524290566393252
2304.0,-0.004110950454012219
2560.0,0.00837415877487313
2816.0,0.018254613689463683
3072.0,0.0014431969108328335
3328.0,-0.0014889498404958568
3584.0,-0.004991114551146425
3840.0,-0.007687243324506099
4096.0,0.001765066599980658
4608.0,0.0037746303653889424
5120.0,0.0017651883727787254
5632.0,-0.004738957823806955
6144.0,-0.0033778189505102585
6656.0,0.0028991525332004997
7168.0,-0.0014227917134710388
7680.0,-0.0008700096963260018
8192.0,0.0030147954923702702
9216.0,0.005558391006562191
10240.0,0.00675053532642389
11264.0,-0.012129178498805682
12288.0,0.012927210988575188
13312.0,0.00395177876303876
14336.0,0.0011028698957462613
end
