version,3.0
numOfCh,1
type,point
parent_name,mod-filtering
ch_type,1_1
kcount,1
numberNandB,1
brightnessNandB,1
carpet pos,0
pc,0
Time (ms),CH1 Auto-Correlation
1.0,0.01492526908317604
2.0,0.011768477601619587
3.0,0.009210393280832507
4.0,0.007216085680355144
5.0,0.005916134103894022
6.0,0.004513438915325407
7.0,0.0035832440968641688
8.0,0.002647226496013566
9.0,0.0017518818101747158
10.0,0.0011165032262341335
11.0,0.0003967833985700775
12.0,0.00018008246181544507
13.0,-0.0002163783584676615
14.0,-0.00032908865570413504
15.0,-0.0002326771677513273
16.0,-0.00023689672654836347
18.0,-0.0010327569979959872
20.0,-0.0012286104507525097
22.0,-0.0015369398410650659
24.0,-0.0017710058080980806
26.0,-0.0017240460302025973
28.0,-0.002075072257877175
30.0,-0.002514169254438703
32.0,-0.003020531546891414
36.0,-0.003286815739596216
40.0,-0.0032996742514181943
44.0,-0.0023998196794897675
48.0,-0.0019000542343503568
52.0,-0.002954354446272678
56.0,-0.00362907145243907
60.0,-0.004190058402141261
64.0,-0.003861687199885333
72.0,-0.003288758186560603
80.0,-0.0024915679351724673
88.0,-0.0030970216329795353
96.0,-0.0019270288160505578
104.0,-0.001902283050238096
112.0,-0.0019420888224026545
120.0,-0.00276943082325809
128.0,-0.002937768628854087
144.0,-0.003567898725951979
160.0,-0.0043134188412358165
176.0,-0.0028784795744484226
192.0,-0.0022215625590934485
208.0,-0.0012937367492332763
224.0,-0.0017775378863236213
240.0,-0.0037516019437627834
256.0,-0.003526790969227811
288.0,-0.001586392535789627
320.0,-0.002829638324094219
352.0,-0.00453190514549251
384.0,-0.005762775428892142
416.0,-0.003911471594075677
448.0,-0.00352580346283915
480.0,0.000588975700719585
512.0,-0.0006569120924930782
576.0,-0.0008545321391520977
640.0,-0.0015110164324491082
704.0,0.0012883029638719456
768.0,0.005706372590699393
832.0,0.001454480623096055
896.0,0.0044870249312962684
960.0,0.0075083689839472445
1024.0,0.008756521333047607
1152.0,0.006092058830553526
1280.0,0.0022457194522882418
1408.0,0.0016982720230889203
1536.0,0.0020937386708625993
1664.0,0.004403470206883142
1792.0,0.004332588511840374
1920.0,0.0009246360105954476
2048.0,-0.0012007295327475243
2304.0,0.003537383986478959
2560.0,-0.003593379523749385
2816.0,-0.004154671917946051
3072.0,0.0020746707269680975
3328.0,0.0005083385431685628
3584.0,0.008970622654088434
3840.0,0.007123179842320804
4096.0,0.0022526579589139395
4608.0,0.012403120275872759
5120.0,0.002689365601018734
5632.0,-0.004575767900775074
6144.0,-0.005830674912859823
6656.0,-0.007863294855791514
7168.0,-0.002412143773246167
7680.0,0.0020495658111248094
8192.0,-0.004727993722423052
9216.0,-0.003232916265827779
10240.0,0.006261524851471245
11264.0,0.00940975821116563
12288.0,-0.003194113926465514
13312.0,-0.012356704365151683
14336.0,-0.010565839440957459
end
