version,3.0
numOfCh,1
type,point
parent_name,mod-filtering
ch_type,1_1
kcount,1
numberNandB,1
brightnessNandB,1
carpet pos,0
pc,0
Time (ms),CH1 Auto-Correlation
1.0,0.015607061842557446
2.0,0.012297113268324944
3.0,0.010050043819904486
4.0,0.008447468370376132
5.0,0.006974556245366914
6.0,0.0061007969196118506
7.0,0.00524475795678514
8.0,0.004486967855994672
9.0,0.0038888479576681956
10.0,0.0034094891173273023
11.0,0.0028757453279044665
12.0,0.0025160331300817518
13.0,0.0024578332075848586
14.0,0.00201841079435483
15.0,0.0017099237686220015
16.0,0.0012490212556757196
18.0,0.0008687285896613606
20.0,0.0003460385506464103
22.0,0.00010777148005391979
24.0,-0.0001952399144126149
26.0,-0.0005248131084140129
28.0,-0.0007163008824634387
30.0,-0.0007420761387944008
32.0,-0.001005826122850717
36.0,-0.0011486167160200678
40.0,-0.0011171199999154835
44.0,-0.0009839248030196757
48.0,-0.0007993978371738653
52.0,-0.0009420183130247617
56.0,-0.0016828779703931263
60.0,-0.0019341547345363974
64.0,-0.0013253994679841563
72.0,-0.0005700974323162855
80.0,0.00012341078834077202
88.0,-3.652155371247634e-05
96.0,-8.593539423507046e-06
104.0,-0.0001947847518019019
112.0,-0.0007548925119648109
120.0,0.00010811693054613158
128.0,-9.701062564482221e-06
144.0,-0.0002881333987718726
160.0,-0.0003877424137019858
176.0,0.0015653266871178406
192.0,0.001314189807809063
208.0,0.0009017662516457303
224.0,0.001032191829662299
240.0,0.000475801842243051
256.0,0.0006380867417297154
288.0,0.0015427644514007799
320.0,0.0012672939613085354
352.0,0.0014318571857503404
384.0,-0.001210988986170114
416.0,-0.002331583357124578
448.0,-0.0019635088974926385
480.0,-0.0011476055253917261
512.0,-0.00023669766930589642
576.0,-0.001827327197723383
640.0,-0.0009612722980600896
704.0,0.0006423074418528962
768.0,-0.00042672490423167897
832.0,-0.0020410515715121313
896.0,0.0007251797276468519
960.0,-4.725472470135106e-05
1024.0,0.00017177183290528752
1152.0,-3.35610489988758e-05
1280.0,0.001453019418734991
1408.0,0.0013452776592983717
1536.0,0.00037746472907373985
1664.0,0.002172808141288174
1792.0,0.0005048329793140294
1920.0,0.0007662822940492919
2048.0,0.00040407605993553197
2304.0,-0.001039003868913757
2560.0,1.3176429001227064e-06
2816.0,-0.0003467535909434938
3072.0,-0.0005167093746578644
3328.0,-8.057415250006805e-05
3584.0,0.000684843108122335
3840.0,0.0006988453723948407
4096.0,-0.0008455468042167791
4608.0,0.0015713654771853935
5120.0,-0.0003897489378597019
5632.0,-4.122779823312328e-06
6144.0,-0.0004924859113581981
6656.0,-6.785162050437776e-06
7168.0,-0.000990912343168282
7680.0,0.0006256952361971546
8192.0,-0.0011201169047559967
9216.0,-0.00044181467695914023
10240.0,0.0003774735968560261
11264.0,-0.000889929700692127
12288.0,-0.00023544041509016012
13312.0,0.0005631378039177015
14336.0,-0.00031527199542202844
end
