version,3.0
numOfCh,1
type,point
parent_name,mod-filtering
ch_type,1_1
kcount,1
numberNandB,1
brightnessNandB,1
carpet pos,0
pc,0
Time (ms),CH1 Auto-Correlation
1.0,0.027850256609020407
2.0,0.022472682276319045
3.0,0.018414990437414458
4.0,0.015667839579618148
5.0,0.013428113933836361
6.0,0.011844076408801696
7.0,0.010553135578945883
8.0,0.009764151445036395
9.0,0.008567862773223078
10.0,0.0077506685965840205
11.0,0.0068384484830508185
12.0,0.005946179837269527
13.0,0.0050093806494153625
14.0,0.004210004863612671
15.0,0.0035117364356060943
16.0,0.003257935212187091
18.0,0.002797134947331248
20.0,0.002165164902307559
22.0,0.001694862034825162
24.0,0.0010078824707961953
26.0,2.320232461827665e-05
28.0,-0.0009229059358621949
30.0,-0.0015085255443004764
32.0,-0.0015184583225262838
36.0,-0.001925234720873914
40.0,-0.002494654530754259
44.0,-0.003971516333769909
48.0,-0.004938541923943607
52.0,-0.006592503271110273
56.0,-0.0067678807331545965
60.0,-0.00693237013698611
64.0,-0.0070277191229106695
72.0,-0.0068604246305242755
80.0,-0.0066891768497999715
88.0,-0.0059512574084318315
96.0,-0.007208342120108457
104.0,-0.008181117522700121
112.0,-0.008642830765737353
120.0,-0.008996566455422128
128.0,-0.010315225353345059
144.0,-0.01046131307021636
160.0,-0.011240039993743345
176.0,-0.012127753694437748
192.0,-0.012909711327762974
208.0,-0.01488202806691341
224.0,-0.01622638370614926
240.0,-0.015914031202832635
256.0,-0.015952467714289265
288.0,-0.014385068047085725
320.0,-0.015118659654747457
352.0,-0.015710172155214197
384.0,-0.015962359503450707
416.0,-0.01576968945443824
448.0,-0.01473407685872774
480.0,-0.014112772859969147
512.0,-0.013134121128737464
576.0,-0.010975098810825035
640.0,-0.009573272416176004
704.0,-0.010981045676987322
768.0,-0.013435012270990643
832.0,-0.013160045119430586
896.0,-0.012503617332335293
960.0,-0.014584495870318959
1024.0,-0.01667316939627017
1152.0,-0.01431569049034176
1280.0,-0.011808669644893577
1408.0,-0.015110756016380122
1536.0,-0.01727686019943042
1664.0,-0.017196308196148702
1792.0,-0.010160191341779812
1920.0,-0.011545461782405675
2048.0,-0.014143673524999678
2304.0,-0.014505820636271372
2560.0,-0.01466206169598594
2816.0,-0.011254872511369363
3072.0,-0.012515416058969664
3328.0,-0.01025060776287956
3584.0,-0.008540071662399007
3840.0,-0.011978568516051724
4096.0,-0.005406773413566879
4608.0,-0.008086885454297477
5120.0,-0.009182642036337008
5632.0,-0.00574204601950401
6144.0,0.0025420568522869225
6656.0,0.008365397706175948
7168.0,0.011897772565282239
7680.0,0.019540751746463192
8192.0,0.02216677906240916
9216.0,0.02141650113981619
10240.0,0.03948584574648484
11264.0,0.04579577164379289
12288.0,0.04908040528930413
13312.0,0.0469366059434102
14336.0,0.049163093039870986
end
