version,3.0
numOfCh,1
type,point
parent_name,34a6d_0dot2-0dot1
ch_type,1_1
kcount,1
numberNandB,1
brightnessNandB,1
carpet pos,0
pc,0
Time (ms),CH1 Auto-Correlation
1.0,0.06207588315010071
2.0,0.060684192925691605
3.0,0.059407707303762436
4.0,0.05822846293449402
5.0,0.057121213525533676
6.0,0.05606309324502945
7.0,0.05503330007195473
8.0,0.05398028343915939
9.0,0.053027257323265076
10.0,0.05207918584346771
11.0,0.05115799605846405
12.0,0.05024850368499756
13.0,0.049332257360219955
14.0,0.04847123101353645
15.0,0.04761989042162895
16.0,0.04676918312907219
18.0,0.045154839754104614
20.0,0.04366709291934967
22.0,0.04229350388050079
24.0,0.04104313999414444
26.0,0.03985494747757912
28.0,0.03873590752482414
30.0,0.03772377222776413
32.0,0.03674488514661789
36.0,0.03482254594564438
40.0,0.033040694892406464
44.0,0.031532563269138336
48.0,0.03034239262342453
52.0,0.02936057187616825
56.0,0.028353165835142136
60.0,0.02728281542658806
64.0,0.026124365627765656
72.0,0.02415657415986061
80.0,0.02296140044927597
88.0,0.022333065047860146
96.0,0.02143630012869835
104.0,0.020189223811030388
112.0,0.018821891397237778
120.0,0.0180351659655571
128.0,0.01737195998430252
144.0,0.015917975455522537
160.0,0.014280847273766994
176.0,0.013041829690337181
192.0,0.012847628444433212
208.0,0.01317274384200573
224.0,0.013920946046710014
240.0,0.013948380947113037
256.0,0.014282116666436195
288.0,0.011454585939645767
320.0,0.008768074214458466
352.0,0.007813986390829086
384.0,0.004409723915159702
416.0,0.005423133261501789
448.0,0.006504773627966642
480.0,0.005893658380955458
512.0,0.004847471136599779
576.0,0.005549228750169277
640.0,0.0034007132053375244
704.0,0.003118164138868451
768.0,0.004192267078906298
832.0,0.006393187213689089
896.0,0.005192428827285767
960.0,0.005535532720386982
1024.0,0.0050170025788247585
1152.0,0.010434693656861782
1280.0,0.011236838065087795
1408.0,0.012424849905073643
1536.0,0.008121349848806858
1664.0,0.004352874588221312
1792.0,0.005179030355066061
1920.0,0.0017740946495905519
2048.0,-0.002071971772238612
2304.0,-0.0003882997843902558
2560.0,0.002838097745552659
2816.0,0.0010723985033109784
3072.0,-0.0026174928061664104
3328.0,-0.007084107957780361
3584.0,-0.011139805428683758
3840.0,-0.009167860262095928
4096.0,-0.008276508189737797
4608.0,-0.010694644413888454
5120.0,-0.008919456973671913
5632.0,-0.005053969100117683
6144.0,-0.0070036365650594234
6656.0,-0.0072963647544384
7168.0,0.0006018545827828348
7680.0,0.001960125518962741
8192.0,0.003210174385458231
end
