version,3.0
numOfCh,1
type,point
parent_name,34a6d_0dot2-0dot1
ch_type,1_1
kcount,1
numberNandB,1
brightnessNandB,1
carpet pos,0
pc,0
Time (ms),CH1 Auto-Correlation
1.0,0.06304994225502014
2.0,0.06170758977532387
3.0,0.06050058826804161
4.0,0.05939812585711479
5.0,0.058337364345788956
6.0,0.05728880316019058
7.0,0.056267764419317245
8.0,0.05526947230100632
9.0,0.05433648079633713
10.0,0.05346771702170372
11.0,0.05262254551053047
12.0,0.05180639028549194
13.0,0.05100744962692261
14.0,0.05021017789840698
15.0,0.04946427792310715
16.0,0.048713959753513336
18.0,0.047271646559238434
20.0,0.04601411893963814
22.0,0.04478831589221954
24.0,0.04359481483697891
26.0,0.04248102009296417
28.0,0.041390348225831985
30.0,0.040342941880226135
32.0,0.03939535841345787
36.0,0.037539150565862656
40.0,0.03575916588306427
44.0,0.03407770022749901
48.0,0.0325130932033062
52.0,0.030971378087997437
56.0,0.029573561623692513
60.0,0.028280822560191154
64.0,0.02716994471848011
72.0,0.025584010407328606
80.0,0.024485517293214798
88.0,0.02342117950320244
96.0,0.02198147214949131
104.0,0.020514583215117455
112.0,0.01935642771422863
120.0,0.018245920538902283
128.0,0.017311057075858116
144.0,0.015825418755412102
160.0,0.013621552847325802
176.0,0.011301279067993164
192.0,0.008779412135481834
208.0,0.006841795984655619
224.0,0.005739971995353699
240.0,0.005044423975050449
256.0,0.003997461870312691
288.0,0.003202411811798811
320.0,0.0021119422744959593
352.0,0.002391949063166976
384.0,0.0041546691209077835
416.0,0.005067719146609306
448.0,0.005589889362454414
480.0,0.005301063414663076
512.0,0.005062198732048273
576.0,0.0025148489512503147
640.0,0.0010739598656073213
704.0,0.003034872468560934
768.0,0.002966891508549452
832.0,0.0003425827599130571
896.0,-0.004267133306711912
960.0,-0.007877914234995842
1024.0,-0.008761132135987282
1152.0,-0.0060789501294493675
1280.0,-3.178968108841218e-05
1408.0,-0.0022199947852641344
1536.0,-0.0005903004785068333
1664.0,0.0018873121589422226
1792.0,-0.002053545555099845
1920.0,-0.0023704844061285257
2048.0,-0.0022567834239453077
2304.0,-0.010768684558570385
2560.0,-0.011312694288790226
2816.0,-0.010207552462816238
3072.0,-0.001675747917033732
3328.0,0.002052001189440489
3584.0,0.004111562389880419
3840.0,0.0040992205031216145
4096.0,-0.00400521419942379
4608.0,0.00897083431482315
5120.0,0.008134866133332253
5632.0,0.0010683032451197505
6144.0,-0.003827871987596154
6656.0,-0.0027478202246129513
7168.0,-0.004631838761270046
7680.0,-0.00941118597984314
8192.0,-0.005561347119510174
end
