version,3.0
numOfCh,1
type,point
parent_name,34a6d_0dot2-0dot1
ch_type,1_1
kcount,1
numberNandB,1
brightnessNandB,1
carpet pos,0
pc,0
Time (ms),CH1 Auto-Correlation
1.0,0.062347956001758575
2.0,0.0611688531935215
3.0,0.06000662222504616
4.0,0.05887430161237717
5.0,0.05779607221484184
6.0,0.056739240884780884
7.0,0.055705975741147995
8.0,0.054698456078767776
9.0,0.05371762067079544
10.0,0.05277126282453537
11.0,0.05185961350798607
12.0,0.05099809542298317
13.0,0.050213925540447235
14.0,0.04945939779281616
15.0,0.04870092123746872
16.0,0.04795151203870773
18.0,0.04646218568086624
20.0,0.04500420391559601
22.0,0.04365362226963043
24.0,0.042370282113552094
26.0,0.04108704254031181
28.0,0.039793889969587326
30.0,0.03852901980280876
32.0,0.03726242110133171
36.0,0.034732308238744736
40.0,0.03237180784344673
44.0,0.030335618183016777
48.0,0.028478702530264854
52.0,0.026671795174479485
56.0,0.024907026439905167
60.0,0.023156583309173584
64.0,0.02141893282532692
72.0,0.018819298595190048
80.0,0.01716379076242447
88.0,0.015741907060146332
96.0,0.014750630594789982
104.0,0.014333860017359257
112.0,0.013619445264339447
120.0,0.01288284920156002
128.0,0.012445768341422081
144.0,0.011584814637899399
160.0,0.010037044994533062
176.0,0.008520114235579967
192.0,0.006860935129225254
208.0,0.005893130786716938
224.0,0.005343482829630375
240.0,0.004978451877832413
256.0,0.004803089890629053
288.0,0.0021715532056987286
320.0,-0.0016687829047441483
352.0,-0.0046709454618394375
384.0,-0.0038693167734891176
416.0,-0.0009437222615815699
448.0,0.0012575282016769052
480.0,0.0004895070451311767
512.0,-0.0018704229732975364
576.0,-0.0007959704962559044
640.0,-0.00018942244059871882
704.0,-0.0008553538355045021
768.0,-0.0021994791459292173
832.0,-0.0023571569472551346
896.0,-0.0001639348774915561
960.0,-0.001300209667533636
1024.0,-0.00018560020544100553
1152.0,-0.002025271998718381
1280.0,-0.003935463260859251
1408.0,-0.006175784394145012
1536.0,-0.005664648022502661
1664.0,0.00019559173961170018
1792.0,0.001893152599222958
1920.0,-0.002420505043119192
2048.0,-0.0051298425532877445
2304.0,-0.0012310590827837586
2560.0,0.0007417061715386808
2816.0,0.003840769175440073
3072.0,-0.0016328651690855622
3328.0,-0.004893503617495298
3584.0,0.001920375507324934
3840.0,0.0023154590744525194
4096.0,-2.6976199478667695e-06
4608.0,-0.00011158462439198047
5120.0,0.001036306144669652
5632.0,0.0024634338915348053
6144.0,4.057783735333942e-05
6656.0,0.0029096114449203014
7168.0,-0.009374121204018593
7680.0,-0.005260428413748741
8192.0,0.002858818043023348
end
