version,3.0
numOfCh,1
type,point
parent_name,34a6d_0dot2-0dot1
ch_type,1_1
kcount,1
numberNandB,1
brightnessNandB,1
carpet pos,0
pc,0
Time (ms),CH1 Auto-Correlation
1.0,0.07414209842681885
2.0,0.07266700267791748
3.0,0.07130391895771027
4.0,0.06997144222259521
5.0,0.06868097186088562
6.0,0.06752098351716995
7.0,0.06644027680158615
8.0,0.06537629663944244
9.0,0.06436310708522797
10.0,0.06338763982057571
11.0,0.062400445342063904
12.0,0.061449792236089706
13.0,0.06054673343896866
14.0,0.0597410723567009
15.0,0.05893099308013916
16.0,0.05813925713300705
18.0,0.05678489804267883
20.0,0.05539761856198311
22.0,0.05401264876127243
24.0,0.05269227549433708
26.0,0.051474619656801224
28.0,0.05036826431751251
30.0,0.04929482936859131
32.0,0.048252686858177185
36.0,0.046347565948963165
40.0,0.04473056644201279
44.0,0.04312232509255409
48.0,0.041339799761772156
52.0,0.03953128680586815
56.0,0.03766423463821411
60.0,0.035752106457948685
64.0,0.033952899277210236
72.0,0.03098229132592678
80.0,0.02793782204389572
88.0,0.0252524483948946
96.0,0.023172453045845032
104.0,0.021301334723830223
112.0,0.01970200054347515
120.0,0.01851058192551136
128.0,0.017732206732034683
144.0,0.017002053558826447
160.0,0.017013777047395706
176.0,0.016914863139390945
192.0,0.016455013304948807
208.0,0.015916818752884865
224.0,0.013944730162620544
240.0,0.011871886439621449
256.0,0.008881032466888428
288.0,0.0035548151936382055
320.0,0.003070686710998416
352.0,0.0036560518201440573
384.0,0.004330651368945837
416.0,0.0032205646857619286
448.0,0.000670198758598417
480.0,-0.004174877889454365
512.0,-0.008634637109935284
576.0,-0.00873314868658781
640.0,-0.011224528774619102
704.0,-0.016435109078884125
768.0,-0.01250564493238926
832.0,-0.010831378400325775
896.0,-0.015492863953113556
960.0,-0.012256485410034657
1024.0,-0.0071854316629469395
1152.0,-0.01071595773100853
1280.0,-0.004279738757759333
1408.0,0.004303515888750553
1536.0,0.007597646676003933
1664.0,0.0099822161719203
1792.0,0.007563580293208361
1920.0,0.0035308401565998793
2048.0,-0.0007203425047919154
2304.0,-0.004885985981673002
2560.0,-0.006592607591301203
2816.0,-0.004362928215414286
3072.0,0.004396005533635616
3328.0,-0.0005688235396519303
3584.0,-0.0015561074251309037
3840.0,-0.0037798918783664703
4096.0,-0.0017723642522469163
4608.0,0.011133451946079731
5120.0,0.001911625498905778
5632.0,-0.010510526597499847
6144.0,-0.0023835585452616215
6656.0,0.004216894973069429
7168.0,-0.003899399423971772
7680.0,-0.0045483955182135105
8192.0,0.011408573016524315
end
