version,3.0
numOfCh,1
type,point
parent_name,34a6d_0dot2-0dot1
ch_type,1_1
kcount,1
numberNandB,1
brightnessNandB,1
carpet pos,0
pc,0
Time (ms),CH1 Auto-Correlation
1.0,0.058783698827028275
2.0,0.05763730779290199
3.0,0.05656139925122261
4.0,0.0555298738181591
5.0,0.054506514221429825
6.0,0.053535036742687225
7.0,0.05260859802365303
8.0,0.05168168991804123
9.0,0.05077972263097763
10.0,0.049916304647922516
11.0,0.049065183848142624
12.0,0.048250000923871994
13.0,0.04745446518063545
14.0,0.04665625840425491
15.0,0.045910920947790146
16.0,0.0451488196849823
18.0,0.043619584292173386
20.0,0.04217943549156189
22.0,0.040872495621442795
24.0,0.03973837569355965
26.0,0.038680851459503174
28.0,0.037674833089113235
30.0,0.03666316345334053
32.0,0.03565356507897377
36.0,0.03370872884988785
40.0,0.03184153884649277
44.0,0.030098769813776016
48.0,0.028244968503713608
52.0,0.026295924559235573
56.0,0.024561405181884766
60.0,0.023043015971779823
64.0,0.021725371479988098
72.0,0.019817424938082695
80.0,0.018542813137173653
88.0,0.01736515760421753
96.0,0.016091862693428993
104.0,0.014889998361468315
112.0,0.013579114340245724
120.0,0.012575755827128887
128.0,0.011821319349110126
144.0,0.0098303547129035
160.0,0.00803524162620306
176.0,0.006584796588867903
192.0,0.005525082349777222
208.0,0.005005373153835535
224.0,0.004879973828792572
240.0,0.005458879750221968
256.0,0.005523886997252703
288.0,0.0060829282738268375
320.0,0.005332932807505131
352.0,0.00611610384657979
384.0,0.008376175537705421
416.0,0.0067535159178078175
448.0,0.004101286176592112
480.0,0.0016173828626051545
512.0,-0.0008231241372413933
576.0,-0.001602078671567142
640.0,-0.001189892878755927
704.0,-0.0007197994855232537
768.0,-0.0010171141475439072
832.0,0.00010959111386910081
896.0,-0.000251189834671095
960.0,0.0004984763800166547
1024.0,-0.0008954965742304921
1152.0,0.004957929253578186
1280.0,0.003196794306859374
1408.0,-0.004510106053203344
1536.0,0.0008352422155439854
1664.0,-0.0002927861060015857
1792.0,-0.007175036706030369
1920.0,-0.00756161380559206
2048.0,-0.007615012116730213
2304.0,0.00011392337182769552
2560.0,-0.004403937608003616
2816.0,-0.008836722932755947
3072.0,-0.00384937459602952
3328.0,-0.0017261545872315764
3584.0,-0.004858558531850576
3840.0,-0.003982297610491514
4096.0,-0.005156327039003372
4608.0,0.0026316975709050894
5120.0,-0.001163911889307201
5632.0,0.003902461612597108
6144.0,0.0025417902506887913
6656.0,0.004776727873831987
7168.0,-0.0010374985868111253
7680.0,0.0016157968202605844
8192.0,-0.0025528050027787685
end
