version,3.0
numOfCh,1
type,point
parent_name,34a6d_0dot2-0dot1
ch_type,1_1
kcount,1
numberNandB,1
brightnessNandB,1
carpet pos,0
pc,0
Time (ms),CH1 Auto-Correlation
1.0,0.06694292277097702
2.0,0.06563157588243484
3.0,0.06437427550554276
4.0,0.06317305564880371
5.0,0.062020327895879745
6.0,0.06086079403758049
7.0,0.05976524204015732
8.0,0.05871526524424553
9.0,0.05772443488240242
10.0,0.05674724280834198
11.0,0.055814776569604874
12.0,0.054884303361177444
13.0,0.05400406941771507
14.0,0.053121209144592285
15.0,0.052249521017074585
16.0,0.051415808498859406
18.0,0.0498620867729187
20.0,0.04829428717494011
22.0,0.0468364879488945
24.0,0.045509643852710724
26.0,0.04423999786376953
28.0,0.042960334569215775
30.0,0.04166610538959503
32.0,0.04036758840084076
36.0,0.03797989711165428
40.0,0.0357968844473362
44.0,0.033859435468912125
48.0,0.03208010271191597
52.0,0.030442260205745697
56.0,0.02890913374722004
60.0,0.02733331359922886
64.0,0.02586577832698822
72.0,0.023388227447867393
80.0,0.021441785618662834
88.0,0.019984770566225052
96.0,0.018726693466305733
104.0,0.017292359843850136
112.0,0.01587032526731491
120.0,0.014824151061475277
128.0,0.013857748359441757
144.0,0.011213602498173714
160.0,0.009665935300290585
176.0,0.009185776114463806
192.0,0.008812077343463898
208.0,0.007635037414729595
224.0,0.0058449492789804935
240.0,0.004689683672040701
256.0,0.003291480941697955
288.0,0.0025562455412000418
320.0,0.001987345051020384
352.0,0.00042054548976011574
384.0,-0.001006686594337225
416.0,-0.0013473700964823365
448.0,-0.0014016483910381794
480.0,-0.0007218524115160108
512.0,0.000379219331080094
576.0,-0.0019084197701886296
640.0,-0.0004404704668559134
704.0,-0.0026344629004597664
768.0,-0.00022617107606492937
832.0,0.0035671384539455175
896.0,0.002547168405726552
960.0,-0.0037814162205904722
1024.0,-0.0037621580995619297
1152.0,-0.003783863503485918
1280.0,-0.0009796636877581477
1408.0,0.0011754947481676936
1536.0,0.003332090098410845
1664.0,0.002670950023457408
1792.0,0.007324919570237398
1920.0,0.0038147252053022385
2048.0,0.002299852203577757
2304.0,-0.0013714688830077648
2560.0,-0.0010931757278740406
2816.0,-0.0024180347099900246
3072.0,-0.004158517345786095
3328.0,4.767470818478614e-05
3584.0,-0.003227371722459793
3840.0,-0.006529232952743769
4096.0,0.0016612918116152287
4608.0,-0.008475133217871189
5120.0,-0.0016266934107989073
5632.0,0.0035459790378808975
6144.0,7.820241444278508e-05
6656.0,-0.003692260244861245
7168.0,0.0015230876160785556
7680.0,-0.0016594281187281013
8192.0,0.00494853500276804
end
