version,3.0
numOfCh,1
type,point
parent_name,34a6d_0dot2-0dot1
ch_type,1_1
kcount,1
numberNandB,1
brightnessNandB,1
carpet pos,0
pc,0
Time (ms),CH1 Auto-Correlation
1.0,0.06261694431304932
2.0,0.06089404225349426
3.0,0.05916720628738403
4.0,0.057658061385154724
5.0,0.05613633990287781
6.0,0.05476206913590431
7.0,0.053545307368040085
8.0,0.0524691604077816
9.0,0.0514250211417675
10.0,0.05042286589741707
11.0,0.049520011991262436
12.0,0.04858805984258652
13.0,0.047670479863882065
14.0,0.04672392085194588
15.0,0.04588230326771736
16.0,0.04497654363512993
18.0,0.043068643659353256
20.0,0.04134044796228409
22.0,0.03979099169373512
24.0,0.038402218371629715
26.0,0.03708367422223091
28.0,0.03597457334399223
30.0,0.034980375319719315
32.0,0.034134116023778915
36.0,0.03276066482067108
40.0,0.031184643507003784
44.0,0.02983887307345867
48.0,0.028766058385372162
52.0,0.027636969462037086
56.0,0.026442421600222588
60.0,0.02541896514594555
64.0,0.02425982989370823
72.0,0.02176619879901409
80.0,0.01916474662721157
88.0,0.017115911468863487
96.0,0.015521927736699581
104.0,0.015065822750329971
112.0,0.015017886646091938
120.0,0.014467881061136723
128.0,0.01361046452075243
144.0,0.012450369074940681
160.0,0.010218732059001923
176.0,0.008792164735496044
192.0,0.008908340707421303
208.0,0.009861821308732033
224.0,0.011083865538239479
240.0,0.010555245913565159
256.0,0.009565665386617184
288.0,0.007470408454537392
320.0,0.004996847826987505
352.0,0.0057852622121572495
384.0,0.0045877862721681595
416.0,0.004572567064315081
448.0,0.008449357002973557
480.0,0.00999337900429964
512.0,0.009838839061558247
576.0,0.007379643619060516
640.0,0.0057497392408549786
704.0,0.006467515602707863
768.0,0.006873941980302334
832.0,0.007628777530044317
896.0,0.007237246725708246
960.0,0.006101616658270359
1024.0,0.00559920584782958
1152.0,0.0008863782277330756
1280.0,-0.00279270950704813
1408.0,-0.0018504904583096504
1536.0,0.0024798293597996235
1664.0,0.002506786026060581
1792.0,-0.0039754300378263
1920.0,-0.003333370666950941
2048.0,-0.005138929467648268
2304.0,-0.002068457193672657
2560.0,-0.0024915586691349745
2816.0,-0.008785920217633247
3072.0,-0.0031748900655657053
3328.0,-0.0002425002894597128
3584.0,-0.0019098713528364897
3840.0,-0.007470440119504929
4096.0,-0.004403723403811455
4608.0,-0.004368927795439959
5120.0,-0.003993847873061895
5632.0,-0.007314004935324192
6144.0,-0.004274254199117422
6656.0,0.0002869798627216369
7168.0,-0.0011427708668634295
7680.0,0.001428869552910328
8192.0,0.0009646456455811858
end
