version,3.0
numOfCh,1
type,point
parent_name,34a6d_0dot2-0dot1
ch_type,1_1
kcount,1
numberNandB,1
brightnessNandB,1
carpet pos,0
pc,0
Time (ms),CH1 Auto-Correlation
1.0,0.06602006405591965
2.0,0.064676433801651
3.0,0.06341874599456787
4.0,0.06218763813376427
5.0,0.0610027015209198
6.0,0.05983088165521622
7.0,0.058688294142484665
8.0,0.05757377669215202
9.0,0.056550562381744385
10.0,0.0555298812687397
11.0,0.05450056865811348
12.0,0.05356033518910408
13.0,0.052618127316236496
14.0,0.05174661800265312
15.0,0.05090072378516197
16.0,0.05012069270014763
18.0,0.04859397932887077
20.0,0.047109782695770264
22.0,0.04566388577222824
24.0,0.044363416731357574
26.0,0.04312121868133545
28.0,0.04193882271647453
30.0,0.040761154145002365
32.0,0.03958132117986679
36.0,0.037308573722839355
40.0,0.0352243036031723
44.0,0.033135559409856796
48.0,0.031034665182232857
52.0,0.02920355834066868
56.0,0.0277175921946764
60.0,0.02627919800579548
64.0,0.02495020627975464
72.0,0.022807879373431206
80.0,0.021298209205269814
88.0,0.020209942013025284
96.0,0.01917763613164425
104.0,0.018275907263159752
112.0,0.01705930195748806
120.0,0.016044341027736664
128.0,0.01546509750187397
144.0,0.014740734361112118
160.0,0.013738180510699749
176.0,0.013350289314985275
192.0,0.012255201116204262
208.0,0.010733956471085548
224.0,0.00903543084859848
240.0,0.007255411706864834
256.0,0.005846056621521711
288.0,0.002227786462754011
320.0,-0.0016030679689720273
352.0,-0.002883253386244178
384.0,-0.004028748720884323
416.0,-0.004979885183274746
448.0,-0.004831989761441946
480.0,-0.0040897345170378685
512.0,-0.004118986427783966
576.0,-0.004272227641195059
640.0,-0.0021972316317260265
704.0,-0.0003622510121203959
768.0,9.874221723293886e-05
832.0,0.0019958799239248037
896.0,0.005075556226074696
960.0,0.005409818608313799
1024.0,0.00367529084905982
1152.0,-0.0012469758512452245
1280.0,-0.00461546378210187
1408.0,-0.0036866560112684965
1536.0,-0.0024773553013801575
1664.0,-0.0008411525632254779
1792.0,-0.0019277089741081
1920.0,-0.003658924950286746
2048.0,-0.0025442379992455244
2304.0,0.005082658492028713
2560.0,-0.004334412049502134
2816.0,-0.00873645767569542
3072.0,-0.000683403224684298
3328.0,-0.0006849273922853172
3584.0,-0.010807197540998459
3840.0,-0.005566630978137255
4096.0,0.004728912375867367
4608.0,0.001469299546442926
5120.0,-0.0036917824763804674
5632.0,-0.00367331993766129
6144.0,0.0001490519498474896
6656.0,0.004171712789684534
7168.0,0.005485846661031246
7680.0,-0.0017379693454131484
8192.0,0.004940957762300968
end
