version,3.0
numOfCh,1
type,point
parent_name,34a6d_0dot2-0dot1
ch_type,1_1
kcount,1
numberNandB,1
brightnessNandB,1
carpet pos,0
pc,0
Time (ms),CH1 Auto-Correlation
1.0,0.06935320049524307
2.0,0.06809376180171967
3.0,0.06686002761125565
4.0,0.06571146100759506
5.0,0.0646069198846817
6.0,0.06355026364326477
7.0,0.06253403425216675
8.0,0.06150154024362564
9.0,0.060565732419490814
10.0,0.05966385081410408
11.0,0.05880917236208916
12.0,0.058005690574645996
13.0,0.05721794068813324
14.0,0.0564560666680336
15.0,0.0556897409260273
16.0,0.054946109652519226
18.0,0.053582776337862015
20.0,0.05237375572323799
22.0,0.051286447793245316
24.0,0.050215333700180054
26.0,0.049174714833498
28.0,0.048199497163295746
30.0,0.04724739491939545
32.0,0.04630659520626068
36.0,0.044626086950302124
40.0,0.04316942021250725
44.0,0.041948575526475906
48.0,0.04077168554067612
52.0,0.039440181106328964
56.0,0.03799190744757652
60.0,0.036605749279260635
64.0,0.03538396954536438
72.0,0.03304986655712128
80.0,0.030546249821782112
88.0,0.0278029665350914
96.0,0.02589333988726139
104.0,0.024576852098107338
112.0,0.023637322708964348
120.0,0.02282096818089485
128.0,0.022153768688440323
144.0,0.02067420817911625
160.0,0.018695330247282982
176.0,0.016571613028645515
192.0,0.014150391332805157
208.0,0.01186304073780775
224.0,0.010295726358890533
240.0,0.00911026168614626
256.0,0.008323285728693008
288.0,0.006675878539681435
320.0,0.00645482586696744
352.0,0.005191960837692022
384.0,0.005645642522722483
416.0,0.005611906293779612
448.0,0.005757943261414766
480.0,0.005283818580210209
512.0,0.0032359135802835226
576.0,-0.0013629726599901915
640.0,-0.004091826267540455
704.0,-0.006147250533103943
768.0,-0.00718938373029232
832.0,-0.008745484054088593
896.0,-0.006163955666124821
960.0,-0.0020495897624641657
1024.0,-0.004231872968375683
1152.0,-0.008449473418295383
1280.0,-0.0007117737550288439
1408.0,0.004274907987564802
1536.0,0.007218633778393269
1664.0,0.007875549606978893
1792.0,0.0017108463216573
1920.0,-0.0004236337845213711
2048.0,0.00482811126857996
2304.0,0.0036826112773269415
2560.0,0.001128600793890655
2816.0,-0.0022610004525631666
3072.0,-0.004804318770766258
3328.0,-0.004649488255381584
3584.0,-0.0016941280337050557
3840.0,0.006005650851875544
4096.0,0.0054015181958675385
4608.0,-0.0032767783850431442
5120.0,-0.007346616126596928
5632.0,0.0001704104506643489
6144.0,7.565980922663584e-05
6656.0,-0.0045921108685433865
7168.0,-0.00556751387193799
7680.0,0.0026280577294528484
8192.0,-0.0008767821709625423
end
