version,3.0
numOfCh,1
type,point
parent_name,34a6d_0dot2-0dot1
ch_type,1_1
kcount,1
numberNandB,1
brightnessNandB,1
carpet pos,0
pc,0
Time (ms),CH1 Auto-Correlation
1.0,0.06440191715955734
2.0,0.06306584924459457
3.0,0.06180322542786598
4.0,0.060594186186790466
5.0,0.05950326845049858
6.0,0.05844062939286232
7.0,0.0573730431497097
8.0,0.05633792281150818
9.0,0.05539193004369736
10.0,0.054489102214574814
11.0,0.05357736349105835
12.0,0.05271820351481438
13.0,0.05186806991696358
14.0,0.051019299775362015
15.0,0.050177160650491714
16.0,0.049348026514053345
18.0,0.04773654043674469
20.0,0.0462585873901844
22.0,0.044843193143606186
24.0,0.04349696636199951
26.0,0.042266201227903366
28.0,0.04103763774037361
30.0,0.03980972617864609
32.0,0.03866413235664368
36.0,0.03666132688522339
40.0,0.034893833100795746
44.0,0.03343454748392105
48.0,0.032369233667850494
52.0,0.03134480118751526
56.0,0.030446495860815048
60.0,0.02953191101551056
64.0,0.028555603697896004
72.0,0.02656305953860283
80.0,0.024782560765743256
88.0,0.023029357194900513
96.0,0.02163749374449253
104.0,0.02066108025610447
112.0,0.01934388279914856
120.0,0.017704714089632034
128.0,0.016652699559926987
144.0,0.015546679496765137
160.0,0.014802305959165096
176.0,0.012900603003799915
192.0,0.011232462711632252
208.0,0.010624981485307217
224.0,0.010213715024292469
240.0,0.009891034103929996
256.0,0.00957837887108326
288.0,0.007580920122563839
320.0,0.005316545255482197
352.0,0.0024256997276097536
384.0,0.0007900246419012547
416.0,-0.0019125804537907243
448.0,-0.004788484424352646
480.0,-0.006973664276301861
512.0,-0.004866907373070717
576.0,0.0002914845244958997
640.0,0.005336962640285492
704.0,0.006472355220466852
768.0,0.00481704855337739
832.0,0.006122665945440531
896.0,0.003791934112086892
960.0,0.002488659927621484
1024.0,0.0010250526247546077
1152.0,-0.007083270698785782
1280.0,-0.007315852679312229
1408.0,-0.0005931078339926898
1536.0,0.0013743492309004068
1664.0,0.00021628844842780381
1792.0,-0.00804049801081419
1920.0,-0.010437493212521076
2048.0,-0.009661582298576832
2304.0,-0.0026140394620597363
2560.0,0.0022741020657122135
2816.0,0.004644968081265688
3072.0,0.0038266361225396395
3328.0,-0.001599506358616054
3584.0,0.0006195031455717981
3840.0,-0.004902425222098827
4096.0,-0.0063674491830170155
4608.0,-0.007741461507976055
5120.0,-0.0022770974319428205
5632.0,0.00033475065720267594
6144.0,0.00436344463378191
6656.0,0.007762887515127659
7168.0,-0.0014436750207096338
7680.0,0.003647909266874194
8192.0,-0.001683561597019434
end
