version,3.0
numOfCh,1
type,point
parent_name,34a6d_0dot2-0dot1
ch_type,1_1
kcount,1
numberNandB,1
brightnessNandB,1
carpet pos,0
pc,0
Time (ms),CH1 Auto-Correlation
1.0,0.06588268280029297
2.0,0.0646212100982666
3.0,0.06338698416948318
4.0,0.06218703091144562
5.0,0.061043303459882736
6.0,0.059931136667728424
7.0,0.05883750319480896
8.0,0.05778355151414871
9.0,0.05678886920213699
10.0,0.05585133656859398
11.0,0.05494523048400879
12.0,0.05405416339635849
13.0,0.05320461094379425
14.0,0.052374985069036484
15.0,0.05155712366104126
16.0,0.0507979653775692
18.0,0.04934055358171463
20.0,0.04792265594005585
22.0,0.046595241874456406
24.0,0.04545741155743599
26.0,0.04432886466383934
28.0,0.043286774307489395
30.0,0.0422574058175087
32.0,0.04122904688119888
36.0,0.0391317754983902
40.0,0.03717595711350441
44.0,0.03538511320948601
48.0,0.03373080864548683
52.0,0.03212929889559746
56.0,0.030590007081627846
60.0,0.029104668647050858
64.0,0.027757275849580765
72.0,0.02548244409263134
80.0,0.023497672751545906
88.0,0.02154003642499447
96.0,0.019839074462652206
104.0,0.0183853916823864
112.0,0.017091382294893265
120.0,0.015689082443714142
128.0,0.014318940229713917
144.0,0.012627141550183296
160.0,0.012396423146128654
176.0,0.014094311743974686
192.0,0.014452068135142326
208.0,0.014673836529254913
224.0,0.01461546216160059
240.0,0.014064121060073376
256.0,0.012848401442170143
288.0,0.010798363015055656
320.0,0.009216397069394588
352.0,0.006069433409720659
384.0,0.0023197547998279333
416.0,0.0010778360301628709
448.0,0.0010446617379784584
480.0,0.0009288947330787778
512.0,0.001512002432718873
576.0,0.0023735177237540483
640.0,-0.00038502339157275856
704.0,-0.003489767899736762
768.0,-0.0026385777164250612
832.0,0.0003464037727098912
896.0,-0.0018518335418775678
960.0,-0.005092198494821787
1024.0,-0.003308901097625494
1152.0,-0.004941168706864119
1280.0,0.00020197106641717255
1408.0,-0.0037131633143872023
1536.0,0.000145980273373425
1664.0,-0.0005882825353182852
1792.0,0.00013782501628156751
1920.0,0.005682215094566345
2048.0,0.0007688035257160664
2304.0,0.0011949945474043489
2560.0,-0.0037594640161842108
2816.0,-0.008464803919196129
3072.0,-0.015585549175739288
3328.0,-0.0065743462182581425
3584.0,0.00037315202644094825
3840.0,-0.003919114358723164
4096.0,-0.0012677161721512675
4608.0,-0.0017906586872413754
5120.0,-0.0036474307999014854
5632.0,0.0018888585036620498
6144.0,0.003650379367172718
6656.0,0.0008020926616154611
7168.0,-0.0010335053084418178
7680.0,0.004385124426335096
8192.0,0.006377656012773514
end
