version,3.0
numOfCh,1
type,point
parent_name,34a6d_0dot2-0dot1
ch_type,1_1
kcount,1
numberNandB,1
brightnessNandB,1
carpet pos,0
pc,0
Time (ms),CH1 Auto-Correlation
1.0,0.0600663460791111
2.0,0.058660838752985
3.0,0.05732838809490204
4.0,0.05603763088583946
5.0,0.054848507046699524
6.0,0.05373015254735947
7.0,0.052690546959638596
8.0,0.051707345992326736
9.0,0.05071469396352768
10.0,0.04979034140706062
11.0,0.048920780420303345
12.0,0.048051800578832626
13.0,0.04720722511410713
14.0,0.04638795927166939
15.0,0.0456441268324852
16.0,0.044958315789699554
18.0,0.04366739094257355
20.0,0.04242022708058357
22.0,0.04119047522544861
24.0,0.039949625730514526
26.0,0.03880816698074341
28.0,0.03773263469338417
30.0,0.036700256168842316
32.0,0.03560623526573181
36.0,0.033439915627241135
40.0,0.03171554207801819
44.0,0.030318371951580048
48.0,0.029269730672240257
52.0,0.028322478756308556
56.0,0.02737622708082199
60.0,0.02631298638880253
64.0,0.025275330990552902
72.0,0.023575179278850555
80.0,0.021921871230006218
88.0,0.02029581367969513
96.0,0.01885158009827137
104.0,0.0174296572804451
112.0,0.015888085588812828
120.0,0.01430001761764288
128.0,0.013142828829586506
144.0,0.011672073975205421
160.0,0.010226360522210598
176.0,0.00855850800871849
192.0,0.006656743586063385
208.0,0.005750127602368593
224.0,0.0064284950494766235
240.0,0.006970945280045271
256.0,0.008091052062809467
288.0,0.00954768992960453
320.0,0.010169441811740398
352.0,0.008572305552661419
384.0,0.008109813556075096
416.0,0.008589982986450195
448.0,0.008267119526863098
480.0,0.00847444124519825
512.0,0.006476915907114744
576.0,0.0045270659029483795
640.0,0.005045090336352587
704.0,0.008867726661264896
768.0,0.013307423330843449
832.0,0.011012877337634563
896.0,0.0067834737710654736
960.0,-0.003003398422151804
1024.0,-0.003820675890892744
1152.0,-0.0005609132349491119
1280.0,-0.00015017825353424996
1408.0,-0.0019322325242683291
1536.0,0.0007994087063707411
1664.0,-0.0007119469810277224
1792.0,-0.003897310234606266
1920.0,-0.00032942387042567134
2048.0,0.0025044623762369156
2304.0,-0.001391264726407826
2560.0,0.0040918332524597645
2816.0,8.164859173120931e-05
3072.0,-0.0034434183035045862
3328.0,0.0008969500195235014
3584.0,-0.0016949991695582867
3840.0,-0.0018286416307091713
4096.0,-0.005379083566367626
4608.0,-0.005576266907155514
5120.0,-0.00583407049998641
5632.0,-0.00652649300172925
6144.0,0.00030763569520786405
6656.0,-0.0007115299813449383
7168.0,-0.0018322736723348498
7680.0,0.0004208588507026434
8192.0,0.0014188254717737436
end
