version,3.0
numOfCh,1
type,point
parent_name,34a6d_0dot2-0dot1
ch_type,1_1
kcount,1
numberNandB,1
brightnessNandB,1
carpet pos,0
pc,0
Time (ms),CH1 Auto-Correlation
1.0,0.09134775400161743
2.0,0.09006144106388092
3.0,0.0889093279838562
4.0,0.0877850130200386
5.0,0.08674750477075577
6.0,0.08572760969400406
7.0,0.08469238132238388
8.0,0.08372671902179718
9.0,0.08280635625123978
10.0,0.08192570507526398
11.0,0.08104323595762253
12.0,0.08018644154071808
13.0,0.07932046800851822
14.0,0.07850693166255951
15.0,0.07772824913263321
16.0,0.07694356143474579
18.0,0.07545696943998337
20.0,0.07401639223098755
22.0,0.07265205681324005
24.0,0.07137278467416763
26.0,0.07017713040113449
28.0,0.06903931498527527
30.0,0.06802181899547577
32.0,0.06707220524549484
36.0,0.06497061997652054
40.0,0.06299743801355362
44.0,0.06090322136878967
48.0,0.058844707906246185
52.0,0.056918803602457047
56.0,0.055359840393066406
60.0,0.054245371371507645
64.0,0.05357398837804794
72.0,0.05255642905831337
80.0,0.051209304481744766
88.0,0.049586374312639236
96.0,0.04815082624554634
104.0,0.04703949764370918
112.0,0.04596925154328346
120.0,0.044474631547927856
128.0,0.04254765436053276
144.0,0.04007004573941231
160.0,0.037888456135988235
176.0,0.035810939967632294
192.0,0.03463011607527733
208.0,0.032562006264925
224.0,0.030320994555950165
240.0,0.028294183313846588
256.0,0.02725815773010254
288.0,0.02767440304160118
320.0,0.02968108095228672
352.0,0.029039883986115456
384.0,0.02617996372282505
416.0,0.026948247104883194
448.0,0.028458302840590477
480.0,0.029746029525995255
512.0,0.0299511905759573
576.0,0.03380924090743065
640.0,0.030782267451286316
704.0,0.024091621860861778
768.0,0.021391671150922775
832.0,0.01910451054573059
896.0,0.018988188356161118
960.0,0.024083364754915237
1024.0,0.02605310082435608
1152.0,0.02721315063536167
1280.0,0.024506952613592148
1408.0,0.0248629879206419
1536.0,0.0250370092689991
1664.0,0.022163353860378265
1792.0,0.0197860486805439
1920.0,0.015788914635777473
2048.0,0.017656151205301285
2304.0,0.01168020535260439
2560.0,0.01416122354567051
2816.0,0.005745037458837032
3072.0,0.008153669536113739
3328.0,-0.001129046082496643
3584.0,-0.004698276985436678
3840.0,-0.013579806312918663
4096.0,-0.010629413649439812
4608.0,-0.012884670868515968
5120.0,-0.023334788158535957
5632.0,-0.020722227171063423
6144.0,-0.019762996584177017
6656.0,-0.02089189738035202
7168.0,-0.015590704046189785
7680.0,-0.011023464612662792
8192.0,-0.022960787639021873
end
