version,3.0
numOfCh,1
type,point
parent_name,34a6d_0dot2-0dot1
ch_type,1_1
kcount,1
numberNandB,1
brightnessNandB,1
carpet pos,0
pc,0
Time (ms),CH1 Auto-Correlation
1.0,0.07501921057701111
2.0,0.07361244410276413
3.0,0.0722808986902237
4.0,0.07100658118724823
5.0,0.06983933597803116
6.0,0.06873338669538498
7.0,0.06770683825016022
8.0,0.06672705709934235
9.0,0.0657823458313942
10.0,0.06487052142620087
11.0,0.06399626284837723
12.0,0.06318241357803345
13.0,0.062382813543081284
14.0,0.06161000579595566
15.0,0.06085453927516937
16.0,0.060094527900218964
18.0,0.05858359485864639
20.0,0.057188380509614944
22.0,0.05584884062409401
24.0,0.05460542440414429
26.0,0.053382985293865204
28.0,0.05229552462697029
30.0,0.05128664895892143
32.0,0.05036720260977745
36.0,0.04854617640376091
40.0,0.046717822551727295
44.0,0.04501016065478325
48.0,0.04353528097271919
52.0,0.04215637221932411
56.0,0.04074612632393837
60.0,0.03954164683818817
64.0,0.038476478308439255
72.0,0.03637634217739105
80.0,0.03452398627996445
88.0,0.0326535664498806
96.0,0.031301651149988174
104.0,0.029824160039424896
112.0,0.028369730338454247
120.0,0.026756970211863518
128.0,0.02515437826514244
144.0,0.021262766793370247
160.0,0.017566295340657234
176.0,0.014895711094141006
192.0,0.012930936180055141
208.0,0.011230877600610256
224.0,0.010278350673615932
240.0,0.010630647651851177
256.0,0.009929141029715538
288.0,0.008751258254051208
320.0,0.0068709771148860455
352.0,0.005697593558579683
384.0,0.003626506542786956
416.0,0.002997597912326455
448.0,0.003280866192653775
480.0,0.0037298817187547684
512.0,0.003570187371224165
576.0,0.00551690673455596
640.0,0.008364900946617126
704.0,0.010217915289103985
768.0,0.009573940187692642
832.0,0.011308149434626102
896.0,0.008191288448870182
960.0,0.00736603606492281
1024.0,0.008144131861627102
1152.0,0.011081560514867306
1280.0,0.009911087341606617
1408.0,0.010919798165559769
1536.0,0.00826345942914486
1664.0,0.0074336049146950245
1792.0,0.005769850220531225
1920.0,0.0035007332917302847
2048.0,0.001427783165127039
2304.0,0.008371861651539803
2560.0,0.0072301821783185005
2816.0,0.0027549047954380512
3072.0,0.0033989264629781246
3328.0,0.005141249857842922
3584.0,0.0025815917178988457
3840.0,0.004629237111657858
4096.0,-0.0024926934856921434
4608.0,0.0014018095098435879
5120.0,-0.00695797149091959
5632.0,-0.007117151282727718
6144.0,-0.012967916205525398
6656.0,-0.00917639210820198
7168.0,-0.01409038808196783
7680.0,-0.00907621905207634
8192.0,-0.01397885475307703
end
