version,3.0
numOfCh,1
type,point
parent_name,34a6d_0dot2-0dot1
ch_type,1_1
kcount,1
numberNandB,1
brightnessNandB,1
carpet pos,0
pc,0
Time (ms),CH1 Auto-Correlation
1.0,0.06685469299554825
2.0,0.06558385491371155
3.0,0.06434322893619537
4.0,0.06318370997905731
5.0,0.06211579591035843
6.0,0.061085134744644165
7.0,0.060091182589530945
8.0,0.059073396027088165
9.0,0.058083295822143555
10.0,0.057184867560863495
11.0,0.05635080486536026
12.0,0.05557040125131607
13.0,0.054798323661088943
14.0,0.05404867231845856
15.0,0.05330246686935425
16.0,0.05253678187727928
18.0,0.051116738468408585
20.0,0.04981423541903496
22.0,0.04850630462169647
24.0,0.04727862402796745
26.0,0.046108048409223557
28.0,0.044993434101343155
30.0,0.043906327337026596
32.0,0.042831987142562866
36.0,0.0409574918448925
40.0,0.03909248113632202
44.0,0.03754126653075218
48.0,0.03631867840886116
52.0,0.03521575778722763
56.0,0.03398198261857033
60.0,0.032639991492033005
64.0,0.03129098191857338
72.0,0.029031293466687202
80.0,0.02725343406200409
88.0,0.02627980336546898
96.0,0.025461804121732712
104.0,0.024743879213929176
112.0,0.02384115569293499
120.0,0.023060455918312073
128.0,0.022409355267882347
144.0,0.02151365764439106
160.0,0.019472070038318634
176.0,0.016545113176107407
192.0,0.014530416578054428
208.0,0.013292776420712471
224.0,0.012038073502480984
240.0,0.010640186257660389
256.0,0.010497386567294598
288.0,0.010076811537146568
320.0,0.00609873840585351
352.0,0.005032621789723635
384.0,0.00541264284402132
416.0,0.004748229868710041
448.0,0.002086068969219923
480.0,0.0009018380660563707
512.0,-0.0011877507204189897
576.0,-0.002488092053681612
640.0,-0.0016527381958439946
704.0,-0.0038339586462825537
768.0,-0.0021523400209844112
832.0,-0.0007227964233607054
896.0,0.001056108740158379
960.0,0.003573833266273141
1024.0,0.0021893675439059734
1152.0,-0.002382964361459017
1280.0,0.00024118091096170247
1408.0,-0.0007982047973200679
1536.0,-0.0005939473630860448
1664.0,-0.004098269157111645
1792.0,-0.003319669049233198
1920.0,-0.001836268580518663
2048.0,-0.0039265393279492855
2304.0,0.006675259210169315
2560.0,0.009023422375321388
2816.0,0.002984874416142702
3072.0,-0.010504365898668766
3328.0,-0.002175364177674055
3584.0,0.003828955115750432
3840.0,0.006691352464258671
4096.0,0.0013614612398669124
4608.0,-0.009351188316941261
5120.0,-0.00745651638135314
5632.0,-0.012202621437609196
6144.0,0.0001539906661491841
6656.0,0.0013955507893115282
7168.0,-0.0061714225448668
7680.0,-0.001502014696598053
8192.0,-0.005433472339063883
end
