version,3.0
numOfCh,1
type,point
parent_name,34a6d_0dot2-0dot1
ch_type,1_1
kcount,1
numberNandB,1
brightnessNandB,1
carpet pos,0
pc,0
Time (ms),CH1 Auto-Correlation
1.0,0.07042679935693741
2.0,0.06910762190818787
3.0,0.06789588183164597
4.0,0.06676556915044785
5.0,0.06571608781814575
6.0,0.0646885335445404
7.0,0.06369473040103912
8.0,0.06273756176233292
9.0,0.06176922470331192
10.0,0.060837600380182266
11.0,0.05992482602596283
12.0,0.05905773118138313
13.0,0.058255136013031006
14.0,0.05749543011188507
15.0,0.05673259124159813
16.0,0.05596311762928963
18.0,0.05442935973405838
20.0,0.0529610738158226
22.0,0.051606882363557816
24.0,0.05033175274729729
26.0,0.04912080243229866
28.0,0.047968048602342606
30.0,0.04687929525971413
32.0,0.04572034999728203
36.0,0.043761856853961945
40.0,0.04172073304653168
44.0,0.03987247124314308
48.0,0.0382813960313797
52.0,0.03682946413755417
56.0,0.03534182906150818
60.0,0.03402383252978325
64.0,0.032768670469522476
72.0,0.030661970376968384
80.0,0.029081033542752266
88.0,0.027985718101263046
96.0,0.027173876762390137
104.0,0.026695534586906433
112.0,0.02616645209491253
120.0,0.02571243792772293
128.0,0.025298520922660828
144.0,0.02378617785871029
160.0,0.022224480286240578
176.0,0.020211489871144295
192.0,0.01833435148000717
208.0,0.016726508736610413
224.0,0.01498605776578188
240.0,0.013276186771690845
256.0,0.01071656309068203
288.0,0.008840559050440788
320.0,0.009594341740012169
352.0,0.009876924566924572
384.0,0.008333823643624783
416.0,0.008239265531301498
448.0,0.009006990119814873
480.0,0.011273632757365704
512.0,0.01088380254805088
576.0,0.008928198367357254
640.0,0.012963858433067799
704.0,0.013118916191160679
768.0,0.010487271472811699
832.0,0.007176576182246208
896.0,0.003702157875522971
960.0,0.00032116504735313356
1024.0,0.0035879018250852823
1152.0,0.00607689144089818
1280.0,0.0038840000052005053
1408.0,-0.0038801608607172966
1536.0,-0.008832558058202267
1664.0,-0.011529341340065002
1792.0,-0.007272697985172272
1920.0,-0.004720508120954037
2048.0,-0.004622506443411112
2304.0,-0.003719339845702052
2560.0,-0.007716785185039043
2816.0,0.0006580953486263752
3072.0,0.009838423691689968
3328.0,0.0091945705935359
3584.0,0.009820203296840191
3840.0,0.00750656658783555
4096.0,0.00810655765235424
4608.0,0.0013842688640579581
5120.0,-0.004758997354656458
5632.0,-0.010805884376168251
6144.0,-0.008603104390203953
6656.0,-0.008778728544712067
7168.0,-0.00969295296818018
7680.0,-0.005488669965416193
8192.0,-0.004339317791163921
end
