version,3.0
numOfCh,1
type,point
parent_name,34a6d_0dot2-0dot1
ch_type,1_1
kcount,1
numberNandB,1
brightnessNandB,1
carpet pos,0
pc,0
Time (ms),CH1 Auto-Correlation
1.0,0.0733330249786377
2.0,0.07195013016462326
3.0,0.07060311734676361
4.0,0.06933161616325378
5.0,0.06811577081680298
6.0,0.06696261465549469
7.0,0.06581461429595947
8.0,0.06466962397098541
9.0,0.06356465816497803
10.0,0.0625297948718071
11.0,0.06155671924352646
12.0,0.060656145215034485
13.0,0.059795282781124115
14.0,0.05896351858973503
15.0,0.05809008702635765
16.0,0.057248640805482864
18.0,0.05560174211859703
20.0,0.054031942039728165
22.0,0.05252131074666977
24.0,0.051060859113931656
26.0,0.04961046203970909
28.0,0.048295505344867706
30.0,0.04708467796444893
32.0,0.045948125422000885
36.0,0.043830230832099915
40.0,0.04188961908221245
44.0,0.04025707766413689
48.0,0.0384826622903347
52.0,0.03660420700907707
56.0,0.03516094386577606
60.0,0.034001659601926804
64.0,0.033076103776693344
72.0,0.03148963674902916
80.0,0.029795143753290176
88.0,0.027910033240914345
96.0,0.026537317782640457
104.0,0.02533680386841297
112.0,0.023990260437130928
120.0,0.022960126399993896
128.0,0.02198578417301178
144.0,0.02071479894220829
160.0,0.01965251751244068
176.0,0.01931898109614849
192.0,0.017940446734428406
208.0,0.014980371110141277
224.0,0.012512252666056156
240.0,0.010743265971541405
256.0,0.008825523778796196
288.0,0.0063317338936030865
320.0,0.004468644969165325
352.0,0.000530039775185287
384.0,-0.002873420249670744
416.0,-0.0041856467723846436
448.0,-0.005600083619356155
480.0,-0.007396787870675325
512.0,-0.009889557026326656
576.0,-0.01320462953299284
640.0,-0.011205689050257206
704.0,-0.012232156470417976
768.0,-0.010513567365705967
832.0,-0.005827737040817738
896.0,-0.0018597048474475741
960.0,-0.0029972076881676912
1024.0,0.002237201202660799
1152.0,0.005009336397051811
1280.0,0.0016520170029252768
1408.0,-0.0019189337035641074
1536.0,-0.005855093710124493
1664.0,-0.005867278203368187
1792.0,0.00024023767036851496
1920.0,0.004187918268144131
2048.0,0.001142800087109208
2304.0,-0.00627489248290658
2560.0,-0.00336015154607594
2816.0,0.0005015015485696495
3072.0,5.850334855495021e-05
3328.0,-0.007030492182821035
3584.0,-0.00622373865917325
3840.0,0.0046192132867872715
4096.0,0.0041874167509377
4608.0,-0.004717891104519367
5120.0,0.0023832987062633038
5632.0,0.00946740247309208
6144.0,0.003392623970285058
6656.0,0.0006935056881047785
7168.0,-0.005706720519810915
7680.0,-0.008454357273876667
8192.0,0.00798707827925682
end
