version,3.0
numOfCh,1
type,point
parent_name,34a6d_0dot2-0dot1
ch_type,1_1
kcount,1
numberNandB,1
brightnessNandB,1
carpet pos,0
pc,0
Time (ms),CH1 Auto-Correlation
1.0,0.06910749524831772
2.0,0.06784128397703171
3.0,0.06665929406881332
4.0,0.06551731377840042
5.0,0.06443849205970764
6.0,0.0633959025144577
7.0,0.06230755150318146
8.0,0.061278991401195526
9.0,0.06027291715145111
10.0,0.05927310511469841
11.0,0.058326661586761475
12.0,0.05747082084417343
13.0,0.05660846829414368
14.0,0.055809978395700455
15.0,0.05505162477493286
16.0,0.05434481427073479
18.0,0.05299728363752365
20.0,0.05171671509742737
22.0,0.05047967657446861
24.0,0.04928594082593918
26.0,0.04800378158688545
28.0,0.0467180535197258
30.0,0.04548636078834534
32.0,0.04430467262864113
36.0,0.042143210768699646
40.0,0.040257956832647324
44.0,0.03856498375535011
48.0,0.03698377683758736
52.0,0.0356491357088089
56.0,0.03465418517589569
60.0,0.03368259221315384
64.0,0.032729245722293854
72.0,0.030178911983966827
80.0,0.027167908847332
88.0,0.024618618190288544
96.0,0.023099930956959724
104.0,0.021654486656188965
112.0,0.019705820828676224
120.0,0.017932947725057602
128.0,0.01668129675090313
144.0,0.015366856008768082
160.0,0.013475233688950539
176.0,0.01298756804317236
192.0,0.012128395959734917
208.0,0.012558369897305965
224.0,0.012403570115566254
240.0,0.012158134952187538
256.0,0.010934310965240002
288.0,0.010020534507930279
320.0,0.007862990722060204
352.0,0.004887987859547138
384.0,0.005830551963299513
416.0,0.00784758199006319
448.0,0.00957526359707117
480.0,0.010741508565843105
512.0,0.009777246974408627
576.0,0.005792370531708002
640.0,0.004785181488841772
704.0,0.005508894100785255
768.0,0.005319958087056875
832.0,-0.0007023107609711587
896.0,-0.004441798198968172
960.0,-0.002709615044295788
1024.0,-0.0008620041189715266
1152.0,-0.0013062533689662814
1280.0,0.0002655036514624953
1408.0,-0.00039281247882172465
1536.0,7.197663217084482e-05
1664.0,0.0009079260053113103
1792.0,0.0002307917457073927
1920.0,0.0015919996658340096
2048.0,0.001788908033631742
2304.0,-0.0015085265040397644
2560.0,-0.0005102492868900299
2816.0,-0.0004125290724914521
3072.0,-0.00386435235850513
3328.0,-0.00446979608386755
3584.0,-0.00539025105535984
3840.0,-0.007787913084030151
4096.0,-0.007941975258290768
4608.0,-0.0016110062133520842
5120.0,-0.005709415301680565
5632.0,-0.01210447121411562
6144.0,-0.0072674877010285854
6656.0,-0.0042272754944860935
7168.0,0.0004174558853264898
7680.0,0.007514419034123421
8192.0,0.010011001490056515
end
