version,3.0
numOfCh,1
type,point
parent_name,34a6d_0dot2-0dot1
ch_type,1_1
kcount,1
numberNandB,1
brightnessNandB,1
carpet pos,0
pc,0
Time (ms),CH1 Auto-Correlation
1.0,0.05848725140094757
2.0,0.05690255016088486
3.0,0.05536988750100136
4.0,0.0540134534239769
5.0,0.05270788446068764
6.0,0.051433805376291275
7.0,0.05030228942632675
8.0,0.049294568598270416
9.0,0.04830356687307358
10.0,0.047298651188611984
11.0,0.04630407691001892
12.0,0.0453914999961853
13.0,0.04443134367465973
14.0,0.043497443199157715
15.0,0.042523086071014404
16.0,0.04156940430402756
18.0,0.039738915860652924
20.0,0.0380832701921463
22.0,0.0366179384291172
24.0,0.03527936711907387
26.0,0.03393830358982086
28.0,0.03269314765930176
30.0,0.031492311507463455
32.0,0.030286112800240517
36.0,0.027690239250659943
40.0,0.025392988696694374
44.0,0.023367466405034065
48.0,0.021578757092356682
52.0,0.0198994018137455
56.0,0.018561435863375664
60.0,0.01744396984577179
64.0,0.016436783596873283
72.0,0.014436899684369564
80.0,0.012354249134659767
88.0,0.010705131106078625
96.0,0.009464146569371223
104.0,0.008255762048065662
112.0,0.007727777119725943
120.0,0.0076341768726706505
128.0,0.006926463916897774
144.0,0.005167857278138399
160.0,0.0025998589117079973
176.0,-1.1080603144364432e-05
192.0,-0.002803380135446787
208.0,-0.0034960780758410692
224.0,-0.003945700824260712
240.0,-0.0035111880861222744
256.0,-0.003007033374160528
288.0,-0.00204099016264081
320.0,-0.003532314207404852
352.0,-0.0030567075591534376
384.0,-0.0004967612330801785
416.0,0.0020912718027830124
448.0,0.004424385726451874
480.0,0.005417582578957081
512.0,0.004542892798781395
576.0,-0.0022340216673910618
640.0,-0.0032268359791487455
704.0,-0.0030578162986785173
768.0,-0.002028471091762185
832.0,-0.0033245787490159273
896.0,-0.004062465857714415
960.0,-0.002055936958640814
1024.0,-0.0038728348445147276
1152.0,0.0034808998461812735
1280.0,0.0021485649049282074
1408.0,-0.0024943985044956207
1536.0,-0.004706839565187693
1664.0,0.0018057863926514983
1792.0,-0.005593614652752876
1920.0,-0.0030120110604912043
2048.0,-0.0009330762550234795
2304.0,0.0037220416124910116
2560.0,-0.00171571911778301
2816.0,0.0022785700857639313
3072.0,-0.002282970119267702
3328.0,0.003018776187673211
3584.0,0.0008368056733161211
3840.0,-0.004150990396738052
4096.0,-0.006009209901094437
4608.0,0.000210481186513789
5120.0,-0.0011100700357928872
5632.0,-0.0012846101308241487
6144.0,-0.0021106423810124397
6656.0,-0.00014074149657972157
7168.0,0.0033455153461545706
7680.0,-0.00040652151801623404
8192.0,0.005791936069726944
end
