version,3.0
numOfCh,1
type,point
parent_name,34a6d_0dot2-0dot1
ch_type,1_1
kcount,1
numberNandB,1
brightnessNandB,1
carpet pos,0
pc,0
Time (ms),CH1 Auto-Correlation
1.0,0.0642780289053917
2.0,0.06278613209724426
3.0,0.06148197501897812
4.0,0.06022951379418373
5.0,0.05904731899499893
6.0,0.057945143431425095
7.0,0.056887079030275345
8.0,0.05588891729712486
9.0,0.05498360097408295
10.0,0.05407831072807312
11.0,0.0532236285507679
12.0,0.05242210999131203
13.0,0.05169428512454033
14.0,0.050960928201675415
15.0,0.050241366028785706
16.0,0.04956376925110817
18.0,0.04834236949682236
20.0,0.047074154019355774
22.0,0.045819733291864395
24.0,0.04459410905838013
26.0,0.04341256245970726
28.0,0.04227495193481445
30.0,0.04117202386260033
32.0,0.04003484919667244
36.0,0.038020964711904526
40.0,0.03619164600968361
44.0,0.03469441458582878
48.0,0.03355889394879341
52.0,0.032399438321590424
56.0,0.03134767711162567
60.0,0.030338384211063385
64.0,0.029527436941862106
72.0,0.028290096670389175
80.0,0.027423731982707977
88.0,0.026750339195132256
96.0,0.025792518630623817
104.0,0.024576492607593536
112.0,0.023240087553858757
120.0,0.022159393876791
128.0,0.021293552592396736
144.0,0.02058362029492855
160.0,0.01947510987520218
176.0,0.01936413161456585
192.0,0.01974586583673954
208.0,0.01961805671453476
224.0,0.018179211765527725
240.0,0.016176609322428703
256.0,0.014380011707544327
288.0,0.010650473646819592
320.0,0.008046909235417843
352.0,0.010224472731351852
384.0,0.00897468812763691
416.0,0.006028017494827509
448.0,0.004363684449344873
480.0,0.0023959013633430004
512.0,0.00014679062587674707
576.0,-0.0017980905249714851
640.0,-0.003797851037234068
704.0,-0.004663959611207247
768.0,-0.0029697970021516085
832.0,0.00038378333556465805
896.0,-0.0011452544713392854
960.0,-0.004691016394644976
1024.0,-0.006783367600291967
1152.0,-0.008285300806164742
1280.0,-0.004207228310406208
1408.0,-0.0011429813457652926
1536.0,0.00016854862042237073
1664.0,0.007587301544845104
1792.0,0.004185190424323082
1920.0,0.0005537110846489668
2048.0,-0.0040379115380346775
2304.0,-0.008794257417321205
2560.0,-0.005829310975968838
2816.0,-0.00456709461286664
3072.0,-0.005645978730171919
3328.0,-0.0006711805472150445
3584.0,0.00109164381865412
3840.0,0.0014426226262003183
4096.0,0.003875420428812504
4608.0,0.0008326892275363207
5120.0,-0.0027712390292435884
5632.0,0.00289692310616374
6144.0,-0.005163497757166624
6656.0,-0.011867423541843891
7168.0,-0.002873554127290845
7680.0,-0.006320939399302006
8192.0,0.00242793932557106
end
