version,3.0
numOfCh,1
type,point
parent_name,34a6d_0dot2-0dot1
ch_type,1_1
kcount,1
numberNandB,1
brightnessNandB,1
carpet pos,0
pc,0
Time (ms),CH1 Auto-Correlation
1.0,0.05278944969177246
2.0,0.05162603035569191
3.0,0.050499387085437775
4.0,0.049407150596380234
5.0,0.04836157336831093
6.0,0.047346413135528564
7.0,0.0463772676885128
8.0,0.045416634529829025
9.0,0.04451904445886612
10.0,0.043650396168231964
11.0,0.04276610538363457
12.0,0.04192431643605232
13.0,0.04109683260321617
14.0,0.040307022631168365
15.0,0.03954806551337242
16.0,0.038836315274238586
18.0,0.037551503628492355
20.0,0.03632750362157822
22.0,0.03517092019319534
24.0,0.034008365124464035
26.0,0.032932937145233154
28.0,0.031863272190093994
30.0,0.03087107092142105
32.0,0.02988569810986519
36.0,0.028110245242714882
40.0,0.02639761008322239
44.0,0.02491791546344757
48.0,0.02354557067155838
52.0,0.022149313241243362
56.0,0.020799824967980385
60.0,0.01954914629459381
64.0,0.01841539889574051
72.0,0.016594933345913887
80.0,0.014700165018439293
88.0,0.012703490443527699
96.0,0.011278328485786915
104.0,0.010409146547317505
112.0,0.009509183466434479
120.0,0.008807466365396976
128.0,0.008372367359697819
144.0,0.007746354676783085
160.0,0.006981572136282921
176.0,0.006168052088469267
192.0,0.005781957879662514
208.0,0.0056195748038589954
224.0,0.0062155695632100105
240.0,0.0060700178146362305
256.0,0.00621021818369627
288.0,0.005244068335741758
320.0,0.003931086510419846
352.0,0.0025163383688777685
384.0,0.0021444072481244802
416.0,0.0009831569623202085
448.0,0.00030936559778638184
480.0,-9.471451630815864e-05
512.0,-0.0007025448721833527
576.0,-7.095763430697843e-05
640.0,-0.0011540200794115663
704.0,-0.0025797835551202297
768.0,-0.003879175055772066
832.0,-0.0022520211059600115
896.0,0.0009297810611315072
960.0,3.3891865314217284e-05
1024.0,-0.0015034154057502747
1152.0,-0.002712596906349063
1280.0,-0.0033466520253568888
1408.0,-0.003551834961399436
1536.0,-0.0003618981863837689
1664.0,-0.0015303284162655473
1792.0,-0.0033783360850065947
1920.0,-0.0006429051863960922
2048.0,0.0008234557462856174
2304.0,0.0012822229182347655
2560.0,-0.0010806180071085691
2816.0,-0.005503674503415823
3072.0,-0.005005461163818836
3328.0,-0.0018461773870512843
3584.0,-0.0006288373842835426
3840.0,-0.0006061660242266953
4096.0,-0.001862829551100731
4608.0,0.0017058160156011581
5120.0,0.00015715480549260974
5632.0,0.0034501259215176105
6144.0,-0.0015758943045511842
6656.0,0.004437390714883804
7168.0,0.0028411997482180595
7680.0,-0.002752946922555566
8192.0,-0.0020253087859600782
end
