version,3.0
numOfCh,1
type,point
parent_name,34a6d_0dot2-0dot1
ch_type,1_1
kcount,1
numberNandB,1
brightnessNandB,1
carpet pos,0
pc,0
Time (ms),CH1 Auto-Correlation
1.0,0.0757761299610138
2.0,0.07448382675647736
3.0,0.07326513528823853
4.0,0.0721016600728035
5.0,0.07095824927091599
6.0,0.06986431777477264
7.0,0.06878887116909027
8.0,0.06777933239936829
9.0,0.06681841611862183
10.0,0.06587662547826767
11.0,0.06498974561691284
12.0,0.0641297996044159
13.0,0.06330002844333649
14.0,0.06244085356593132
15.0,0.06158268824219704
16.0,0.06074516102671623
18.0,0.05916890501976013
20.0,0.057717353105545044
22.0,0.05637010559439659
24.0,0.055002130568027496
26.0,0.053704772144556046
28.0,0.05247699096798897
30.0,0.05136094614863396
32.0,0.05035461112856865
36.0,0.04828749969601631
40.0,0.04625959321856499
44.0,0.04440508037805557
48.0,0.042626652866601944
52.0,0.041093841195106506
56.0,0.039649538695812225
60.0,0.03807007893919945
64.0,0.03668580204248428
72.0,0.034834641963243484
80.0,0.0331871472299099
88.0,0.031016897410154343
96.0,0.029002588242292404
104.0,0.027571024373173714
112.0,0.026130808517336845
120.0,0.02482297457754612
128.0,0.023336786776781082
144.0,0.020607544109225273
160.0,0.01820633001625538
176.0,0.015508325770497322
192.0,0.014531424269080162
208.0,0.014521478675305843
224.0,0.014542657881975174
240.0,0.012674600817263126
256.0,0.011289944872260094
288.0,0.010102913714945316
320.0,0.011111321859061718
352.0,0.009988604113459587
384.0,0.009838257916271687
416.0,0.011336145922541618
448.0,0.014104547910392284
480.0,0.014323084615170956
512.0,0.01281666662544012
576.0,0.00782530102878809
640.0,0.004507844336330891
704.0,0.005763348191976547
768.0,0.005750516429543495
832.0,0.0036320933140814304
896.0,0.002457406371831894
960.0,0.0006978412857279181
1024.0,-0.00229744054377079
1152.0,0.003372538136318326
1280.0,0.004915454424917698
1408.0,0.006490936037153006
1536.0,0.0021295491605997086
1664.0,0.003756194608286023
1792.0,0.0002137746341759339
1920.0,-0.006657266989350319
2048.0,-0.006865911651402712
2304.0,-0.010034127160906792
2560.0,-0.009455864317715168
2816.0,-0.007417834829539061
3072.0,-0.010235144756734371
3328.0,-0.003648332552984357
3584.0,0.0004996333736926317
3840.0,-0.002603730419650674
4096.0,0.0013871043920516968
4608.0,0.006847393233329058
5120.0,0.015569327399134636
5632.0,0.0005467236042022705
6144.0,0.002821004018187523
6656.0,0.0022261501289904118
7168.0,-0.016180410981178284
7680.0,-0.008333222940564156
8192.0,-0.011703523807227612
end
