version,3.0
numOfCh,1
type,point
parent_name,34a6d_0dot2-0dot1
ch_type,1_1
kcount,1
numberNandB,1
brightnessNandB,1
carpet pos,0
pc,0
Time (ms),CH1 Auto-Correlation
1.0,0.07984346896409988
2.0,0.07851045578718185
3.0,0.07725593447685242
4.0,0.07600164413452148
5.0,0.07477317005395889
6.0,0.07359088957309723
7.0,0.07248780876398087
8.0,0.07141396403312683
9.0,0.07035981863737106
10.0,0.06933459639549255
11.0,0.06830230355262756
12.0,0.06732472032308578
13.0,0.06634839624166489
14.0,0.06539760529994965
15.0,0.06448371708393097
16.0,0.06357820332050323
18.0,0.06185609847307205
20.0,0.06028894707560539
22.0,0.05872227996587753
24.0,0.05730554088950157
26.0,0.055951785296201706
28.0,0.054600391536951065
30.0,0.05322946235537529
32.0,0.05189334228634834
36.0,0.049463722854852676
40.0,0.04722202941775322
44.0,0.04507539048790932
48.0,0.04319391027092934
52.0,0.041451577097177505
56.0,0.039848435670137405
60.0,0.03826601430773735
64.0,0.03670812025666237
72.0,0.034476540982723236
80.0,0.03306892514228821
88.0,0.03166300058364868
96.0,0.030314911156892776
104.0,0.028777731582522392
112.0,0.027398856356739998
120.0,0.026417070999741554
128.0,0.024895083159208298
144.0,0.021427752450108528
160.0,0.01793888583779335
176.0,0.01565147005021572
192.0,0.014046703465282917
208.0,0.012311290949583054
224.0,0.011067242361605167
240.0,0.009957348927855492
256.0,0.008892489597201347
288.0,0.007857117801904678
320.0,0.007013452704995871
352.0,0.004833240993320942
384.0,0.0034518686588853598
416.0,0.00389882642775774
448.0,0.0064308433793485165
480.0,0.00506342388689518
512.0,0.0026340815238654613
576.0,-0.0009996385779231787
640.0,-0.00459630973637104
704.0,-0.006157404277473688
768.0,-0.00629744678735733
832.0,-0.004449702333658934
896.0,-0.005036501679569483
960.0,-0.005946552846580744
1024.0,-0.005951063707470894
1152.0,-0.0027372657787054777
1280.0,-0.005584916099905968
1408.0,-0.006630454678088427
1536.0,-0.003944580443203449
1664.0,0.00017853874305728823
1792.0,0.0021621580235660076
1920.0,0.001701822504401207
2048.0,0.00149050063919276
2304.0,-0.008819344453513622
2560.0,-0.007082048337906599
2816.0,0.007222367450594902
3072.0,0.009487173520028591
3328.0,0.008744439110159874
3584.0,0.009567867033183575
3840.0,0.005712286103516817
4096.0,-0.0027227778919041157
4608.0,-0.0025004895869642496
5120.0,-0.009757823310792446
5632.0,0.0030837461818009615
6144.0,0.000562974251806736
6656.0,-0.00015022134175524116
7168.0,-0.008165493607521057
7680.0,-0.0027902331203222275
8192.0,-0.007270696107298136
end
