version,3.0
numOfCh,1
type,point
parent_name,40-cuts
ch_type,1_1
kcount,1
numberNandB,1
brightnessNandB,1
carpet pos,0
pc,0
Time (ms),CH1 Auto-Correlation
1.0,0.0735931545495987
2.0,0.07290245592594147
3.0,0.07221903651952744
4.0,0.07154498249292374
5.0,0.07087672501802444
6.0,0.07023351639509201
7.0,0.06959857046604156
8.0,0.06896773725748062
9.0,0.06835571676492691
10.0,0.0677492544054985
11.0,0.06717272847890854
12.0,0.0665959045290947
13.0,0.06600547581911087
14.0,0.06541523337364197
15.0,0.06482415646314621
16.0,0.06424636393785477
18.0,0.06312301754951477
20.0,0.062053382396698
22.0,0.06101122125983238
24.0,0.05997662618756294
26.0,0.05889138579368591
28.0,0.0578262098133564
30.0,0.056800853461027145
32.0,0.05580758675932884
36.0,0.05392451211810112
40.0,0.052090998739004135
44.0,0.050207775086164474
48.0,0.04831257835030556
52.0,0.04652281478047371
56.0,0.04478079080581665
60.0,0.04307061433792114
64.0,0.04143669456243515
72.0,0.03820544108748436
80.0,0.03503900021314621
88.0,0.03216801956295967
96.0,0.029724735766649246
104.0,0.0275406576693058
112.0,0.025684989988803864
120.0,0.024060482159256935
128.0,0.022685889154672623
144.0,0.020196059718728065
160.0,0.018765028566122055
176.0,0.018067073076963425
192.0,0.018171533942222595
208.0,0.018477000296115875
224.0,0.018366893753409386
240.0,0.018229767680168152
256.0,0.017537392675876617
288.0,0.015615490265190601
320.0,0.014484270475804806
352.0,0.012334215454757214
384.0,0.009521342813968658
416.0,0.007867870852351189
448.0,0.008076798170804977
480.0,0.00864039920270443
512.0,0.008824437856674194
576.0,0.008900302462279797
640.0,0.00795857235789299
704.0,0.009872558526694775
768.0,0.010938936844468117
832.0,0.010338080115616322
896.0,0.007388758007436991
960.0,0.005908249877393246
1024.0,0.0056555247865617275
1152.0,-0.001438424689695239
1280.0,-0.0014568769838660955
1408.0,0.0026179756969213486
1536.0,0.001157129998318851
1664.0,-0.003889838932082057
1792.0,-0.00630810484290123
1920.0,-0.011797710321843624
2048.0,-0.015130185522139072
2304.0,-0.014474121853709221
2560.0,-0.018687328323721886
2816.0,-0.017140798270702362
3072.0,-0.009719988331198692
3328.0,-0.009709437377750874
3584.0,0.004938024096190929
3840.0,0.006561250425875187
4096.0,0.008781618438661098
4608.0,0.006354776676744223
5120.0,0.01154695451259613
5632.0,0.009416035376489162
6144.0,-0.006242473144084215
6656.0,-0.012160032987594604
7168.0,-0.011102274991571903
7680.0,-0.014234671369194984
8192.0,-0.013990608975291252
9216.0,0.00720951845869422
10240.0,0.0064961048774421215
11264.0,-0.0013955157482996583
12288.0,0.0006878765998408198
13312.0,0.0028441764879971743
14336.0,-0.0006187077378854156
end
