version,3.0
numOfCh,1
type,point
parent_name,40-cuts
ch_type,1_1
kcount,1
numberNandB,1
brightnessNandB,1
carpet pos,0
pc,0
Time (ms),CH1 Auto-Correlation
1.0,0.08556658029556274
2.0,0.08474066853523254
3.0,0.08392684906721115
4.0,0.08313390612602234
5.0,0.08233776688575745
6.0,0.0815596953034401
7.0,0.08077751845121384
8.0,0.08001523464918137
9.0,0.07924572378396988
10.0,0.0784982293844223
11.0,0.07775074988603592
12.0,0.07705013453960419
13.0,0.07637893408536911
14.0,0.07571553438901901
15.0,0.07505478709936142
16.0,0.07440599799156189
18.0,0.07312150299549103
20.0,0.07190967351198196
22.0,0.070792555809021
24.0,0.06973907351493835
26.0,0.06870272010564804
28.0,0.06767097115516663
30.0,0.06663841009140015
32.0,0.06559569388628006
36.0,0.06356220692396164
40.0,0.06162091717123985
44.0,0.05982690304517746
48.0,0.05820293352007866
52.0,0.05673991143703461
56.0,0.0552961602807045
60.0,0.053900282829999924
64.0,0.05258724093437195
72.0,0.0501290000975132
80.0,0.04793284460902214
88.0,0.045710597187280655
96.0,0.04313607141375542
104.0,0.0406746044754982
112.0,0.03838026896119118
120.0,0.036171622574329376
128.0,0.033986300230026245
144.0,0.030684346333146095
160.0,0.028653135523200035
176.0,0.02666403353214264
192.0,0.025475481525063515
208.0,0.023677298799157143
224.0,0.02130313403904438
240.0,0.018461905419826508
256.0,0.015022816136479378
288.0,0.008351833559572697
320.0,0.0035616839304566383
352.0,-3.623867996793706e-06
384.0,-0.0029709406662732363
416.0,-0.005042944103479385
448.0,-0.006270634010434151
480.0,-0.007195740472525358
512.0,-0.007645666133612394
576.0,-0.010020359419286251
640.0,-0.012750736437737942
704.0,-0.012982984073460102
768.0,-0.011161270551383495
832.0,-0.012827380560338497
896.0,-0.010766643099486828
960.0,-0.010114233009517193
1024.0,-0.00554994260892272
1152.0,0.0037582796066999435
1280.0,0.010362858884036541
1408.0,0.011024875566363335
1536.0,0.007793998345732689
1664.0,0.0027632643468677998
1792.0,0.007143571972846985
1920.0,0.00724048214033246
2048.0,0.006909613497555256
2304.0,0.005002427846193314
2560.0,0.0005210686358623207
2816.0,-0.0066695488058030605
3072.0,0.0011046529980376363
3328.0,0.0005451641627587378
3584.0,0.0060331085696816444
3840.0,0.0011752262944355607
4096.0,-0.002376370597630739
4608.0,0.0046936036087572575
5120.0,0.002607485046610236
5632.0,0.003894317662343383
6144.0,0.0009216642938554287
6656.0,-0.005952402949333191
7168.0,-0.0010683274595066905
7680.0,-0.011982104741036892
8192.0,0.0013179043307900429
9216.0,-0.0069429222494363785
10240.0,-0.00041066596168093383
11264.0,-0.011123287491500378
12288.0,-0.00043122051283717155
13312.0,-0.01986105740070343
14336.0,0.004035417456179857
end
