version,3.0
numOfCh,1
type,point
parent_name,40-cuts
ch_type,1_1
kcount,1
numberNandB,1
brightnessNandB,1
carpet pos,0
pc,0
Time (ms),CH1 Auto-Correlation
1.0,0.029658043757081032
2.0,0.029421323910355568
3.0,0.029190734028816223
4.0,0.02896089293062687
5.0,0.02873309887945652
6.0,0.028509704396128654
7.0,0.028289513662457466
8.0,0.028072120621800423
9.0,0.027857450768351555
10.0,0.027640987187623978
11.0,0.027424465864896774
12.0,0.027212565764784813
13.0,0.027003338560461998
14.0,0.026792777702212334
15.0,0.02657715603709221
16.0,0.026358220726251602
18.0,0.025922108441591263
20.0,0.025495752692222595
22.0,0.025076700374484062
24.0,0.024672377854585648
26.0,0.024273065850138664
28.0,0.023883666843175888
30.0,0.02350458689033985
32.0,0.02314048819243908
36.0,0.022440994158387184
40.0,0.021775417029857635
44.0,0.021151317283511162
48.0,0.020572079345583916
52.0,0.02002580091357231
56.0,0.01948091760277748
60.0,0.0189068466424942
64.0,0.018327845260500908
72.0,0.017294034361839294
80.0,0.01638239622116089
88.0,0.015601933933794498
96.0,0.014979141764342785
104.0,0.014470040798187256
112.0,0.01394816767424345
120.0,0.013448621146380901
128.0,0.013001722283661366
144.0,0.012084717862308025
160.0,0.011166324838995934
176.0,0.010347004979848862
192.0,0.009775304235517979
208.0,0.009478036314249039
224.0,0.009120721369981766
240.0,0.008593879640102386
256.0,0.00784637313336134
288.0,0.0071286363527178764
320.0,0.0066430955193936825
352.0,0.005870744585990906
384.0,0.005058446899056435
416.0,0.003934715408831835
448.0,0.0027556531131267548
480.0,0.0016627345466986299
512.0,0.0005830792360939085
576.0,-0.0012972152326256037
640.0,-0.0021073592361062765
704.0,-0.0022973495069891214
768.0,-0.0023713503032922745
832.0,-0.002783257281407714
896.0,-0.004101069178432226
960.0,-0.004568008240312338
1024.0,-0.004043098539113998
1152.0,-0.003927784040570259
1280.0,-0.004379429388791323
1408.0,-0.0036730184219777584
1536.0,-0.00172453245613724
1664.0,0.0023838295601308346
1792.0,0.005424711853265762
1920.0,0.0057704634964466095
2048.0,0.004839807748794556
2304.0,0.0010396904544904828
2560.0,-0.002189431805163622
2816.0,-0.002677374752238393
3072.0,-0.003176247701048851
3328.0,-0.003223696956411004
3584.0,-0.0009985236683860421
3840.0,-0.002059126505628228
4096.0,0.0006967674707993865
4608.0,-0.0030411826446652412
5120.0,-0.0027115345001220703
5632.0,-0.0032043971586972475
6144.0,0.0010576496133580804
6656.0,0.0021233512088656425
7168.0,0.0021639682818204165
7680.0,0.004781289957463741
8192.0,0.0019060727208852768
9216.0,-0.0005699657485820353
10240.0,-8.179411088349298e-05
11264.0,-0.0011517989914864302
12288.0,-0.0035592494532465935
13312.0,-0.001912674168124795
14336.0,0.0009071562672033906
end
