version,3.0
numOfCh,1
type,point
parent_name,40-cuts
ch_type,1_1
kcount,1
numberNandB,1
brightnessNandB,1
carpet pos,0
pc,0
Time (ms),CH1 Auto-Correlation
1.0,0.08157821744680405
2.0,0.08083995431661606
3.0,0.08009663969278336
4.0,0.07936116307973862
5.0,0.07864013314247131
6.0,0.07792654633522034
7.0,0.07721411436796188
8.0,0.07652555406093597
9.0,0.07583598792552948
10.0,0.07514440268278122
11.0,0.07446759194135666
12.0,0.07379768043756485
13.0,0.07314662635326385
14.0,0.07251587510108948
15.0,0.07191021740436554
16.0,0.07130398601293564
18.0,0.07010462135076523
20.0,0.06892131268978119
22.0,0.06776261329650879
24.0,0.06663919985294342
26.0,0.06557109206914902
28.0,0.0645473301410675
30.0,0.06351947784423828
32.0,0.062529556453228
36.0,0.06058993190526962
40.0,0.05875830724835396
44.0,0.05697556212544441
48.0,0.05526137351989746
52.0,0.053494151681661606
56.0,0.051752083003520966
60.0,0.0499335378408432
64.0,0.04817035794258118
72.0,0.04479116573929787
80.0,0.041708022356033325
88.0,0.03887130320072174
96.0,0.03625668212771416
104.0,0.03353924676775932
112.0,0.030766595155000687
120.0,0.02799564227461815
128.0,0.025585055351257324
144.0,0.02142699435353279
160.0,0.017298409715294838
176.0,0.012589868158102036
192.0,0.007975413464009762
208.0,0.003019272116944194
224.0,-0.0015484170289710164
240.0,-0.0053344666957855225
256.0,-0.00835360772907734
288.0,-0.011347414925694466
320.0,-0.010886223055422306
352.0,-0.008713747374713421
384.0,-0.006826275493949652
416.0,-0.004835790954530239
448.0,-0.002927385503426194
480.0,-0.0008363939705304801
512.0,0.00045346806291490793
576.0,-0.0025746698956936598
640.0,-0.004383357707411051
704.0,-0.0065147788263857365
768.0,-0.006305560003966093
832.0,-0.0025602267123758793
896.0,-0.0026235904078930616
960.0,-0.002288081916049123
1024.0,-0.00041529053123667836
1152.0,-0.003830571426078677
1280.0,-0.006916487589478493
1408.0,-0.0032946194987744093
1536.0,0.0014816020848229527
1664.0,0.002529681893065572
1792.0,-0.0005242885090410709
1920.0,0.0002459106908645481
2048.0,0.0013828740920871496
2304.0,-0.0025762682780623436
2560.0,0.0018417065730318427
2816.0,-0.0035122146364301443
3072.0,-0.0027220207266509533
3328.0,-0.006716950796544552
3584.0,0.00910139735788107
3840.0,-0.0022184778936207294
4096.0,0.010115977376699448
4608.0,-0.00894759502261877
5120.0,0.004228041972965002
5632.0,0.007154857739806175
6144.0,-0.008514472283422947
6656.0,-0.008503999561071396
7168.0,0.010677521117031574
7680.0,-0.0001390549587085843
8192.0,0.0045918794348835945
9216.0,0.007440132554620504
10240.0,-0.010140725411474705
11264.0,-0.006160943303257227
12288.0,0.008894269354641438
13312.0,-0.002241073176264763
14336.0,0.007395959924906492
end
