version,3.0
numOfCh,1
type,point
parent_name,40-cuts
ch_type,1_1
kcount,1
numberNandB,1
brightnessNandB,1
carpet pos,0
pc,0
Time (ms),CH1 Auto-Correlation
1.0,0.07562125474214554
2.0,0.07487698644399643
3.0,0.07412716001272202
4.0,0.0733967199921608
5.0,0.07266231626272202
6.0,0.07194022834300995
7.0,0.07122153788805008
8.0,0.07049845159053802
9.0,0.06979785114526749
10.0,0.0690905749797821
11.0,0.06838194280862808
12.0,0.0676840990781784
13.0,0.06698664277791977
14.0,0.06631722301244736
15.0,0.06566840410232544
16.0,0.06500913947820663
18.0,0.06371425092220306
20.0,0.06244799494743347
22.0,0.061228301376104355
24.0,0.06004814803600311
26.0,0.058885764330625534
28.0,0.057725805789232254
30.0,0.0565839558839798
32.0,0.055437151342630386
36.0,0.05318114161491394
40.0,0.05097233131527901
44.0,0.04894343391060829
48.0,0.04709368571639061
52.0,0.0453629270195961
56.0,0.04369762912392616
60.0,0.04212130233645439
64.0,0.04066701605916023
72.0,0.03823016956448555
80.0,0.03625313565135002
88.0,0.034530408680438995
96.0,0.03263954818248749
104.0,0.03048226796090603
112.0,0.028103377670049667
120.0,0.025854958221316338
128.0,0.023920055478811264
144.0,0.02020871266722679
160.0,0.01670171320438385
176.0,0.013041052035987377
192.0,0.0096134589985013
208.0,0.006654142402112484
224.0,0.004016586113721132
240.0,0.0017832062439993024
256.0,0.000371234433259815
288.0,-0.0007435402949340641
320.0,-0.00162590597756207
352.0,-0.0025763462763279676
384.0,-0.004095773212611675
416.0,-0.0047232648357748985
448.0,-0.0046214028261601925
480.0,-0.00536288833245635
512.0,-0.005904010031372309
576.0,-0.0064287977293133736
640.0,-0.009756657294929028
704.0,-0.010967730544507504
768.0,-0.009887169115245342
832.0,-0.00520654022693634
896.0,0.0011855928460136056
960.0,0.004564978647977114
1024.0,0.004074527882039547
1152.0,0.003454679623246193
1280.0,0.004968435037881136
1408.0,0.00652655865997076
1536.0,0.0021214208099991083
1664.0,0.0006813564687035978
1792.0,-0.002006795722991228
1920.0,-0.007829760201275349
2048.0,-0.00698084756731987
2304.0,-0.0024858866818249226
2560.0,-0.007274375297129154
2816.0,-0.0040420363657176495
3072.0,-0.00426859175786376
3328.0,-0.0016305168392136693
3584.0,-0.004415793810039759
3840.0,-0.0037693502381443977
4096.0,-0.0019206057768315077
4608.0,0.007525693159550428
5120.0,0.001461770967580378
5632.0,0.00031610351288691163
6144.0,0.004824742209166288
6656.0,-0.0061577558517456055
7168.0,-0.00149000424426049
7680.0,-0.0024373650085181
8192.0,-0.007481559179723263
9216.0,0.004243421833962202
10240.0,-0.0002657500735949725
11264.0,-0.004759378265589476
12288.0,0.0031613672617822886
13312.0,0.0032434898894280195
14336.0,-0.001790364389307797
end
