version,3.0
numOfCh,1
type,point
parent_name,40-cuts
ch_type,1_1
kcount,1
numberNandB,1
brightnessNandB,1
carpet pos,0
pc,0
Time (ms),CH1 Auto-Correlation
1.0,0.06124681234359741
2.0,0.060710884630680084
3.0,0.060185134410858154
4.0,0.05966592952609062
5.0,0.059158194810152054
6.0,0.05865432694554329
7.0,0.058150555938482285
8.0,0.05764477327466011
9.0,0.057140152901411057
10.0,0.0566314235329628
11.0,0.05614336207509041
12.0,0.055658336728811264
13.0,0.055186349898576736
14.0,0.05471671372652054
15.0,0.05424819514155388
16.0,0.05378853157162666
18.0,0.0529048852622509
20.0,0.05203477665781975
22.0,0.05119600147008896
24.0,0.05039257928729057
26.0,0.04960385710000992
28.0,0.04882311448454857
30.0,0.04807760939002037
32.0,0.047414373606443405
36.0,0.04610949382185936
40.0,0.04490577057003975
44.0,0.043740712106227875
48.0,0.04258032143115997
52.0,0.041418734937906265
56.0,0.04027581214904785
60.0,0.03924800083041191
64.0,0.038301751017570496
72.0,0.03653869777917862
80.0,0.03494441509246826
88.0,0.03324685990810394
96.0,0.0315164253115654
104.0,0.02999979816377163
112.0,0.028784342110157013
120.0,0.02771025523543358
128.0,0.026731953024864197
144.0,0.024504447355866432
160.0,0.022443318739533424
176.0,0.021152079105377197
192.0,0.02016080543398857
208.0,0.018951933830976486
224.0,0.018446950241923332
240.0,0.018444575369358063
256.0,0.018813153728842735
288.0,0.017422720789909363
320.0,0.014270776882767677
352.0,0.0114631662145257
384.0,0.007753085345029831
416.0,0.004775159060955048
448.0,0.0020298268646001816
480.0,0.0006142164347693324
512.0,0.0005649750237353146
576.0,0.001385386218316853
640.0,0.002751033753156662
704.0,0.0035065547563135624
768.0,0.002613731659948826
832.0,0.0005212469259276986
896.0,0.0010780298616737127
960.0,-0.0007511707954108715
1024.0,-0.004735220223665237
1152.0,-0.010410315357148647
1280.0,-0.008778275921940804
1408.0,-0.011755320243537426
1536.0,-0.011661626398563385
1664.0,-0.013035581447184086
1792.0,-0.013104594312608242
1920.0,-0.013703251257538795
2048.0,-0.00846494734287262
2304.0,-0.0024285761173814535
2560.0,0.0016268857289105654
2816.0,0.00903184525668621
3072.0,0.013214408420026302
3328.0,0.0035557053051888943
3584.0,4.916642137686722e-05
3840.0,-0.0003657268243841827
4096.0,-0.003594744484871626
4608.0,-0.006934113800525665
5120.0,0.0016063202638179064
5632.0,0.0009675016044639051
6144.0,0.0008508175960741937
6656.0,-0.0026691011153161526
7168.0,-0.00850637350231409
7680.0,-0.007786720525473356
8192.0,0.000995589536614716
9216.0,0.01214988436549902
10240.0,0.0029464703984558582
11264.0,-0.016798805445432663
12288.0,0.004922220949083567
13312.0,0.010924668051302433
14336.0,-0.009716527536511421
end
