version,3.0
numOfCh,1
type,point
parent_name,40-cuts
ch_type,1_1
kcount,1
numberNandB,1
brightnessNandB,1
carpet pos,0
pc,0
Time (ms),CH1 Auto-Correlation
1.0,0.027087118476629257
2.0,0.026834888383746147
3.0,0.026582857593894005
4.0,0.02632926031947136
5.0,0.02607996203005314
6.0,0.025835370644927025
7.0,0.025589369237422943
8.0,0.02535008266568184
9.0,0.025109514594078064
10.0,0.02487359382212162
11.0,0.02464812994003296
12.0,0.02442910708487034
13.0,0.024214904755353928
14.0,0.023994730785489082
15.0,0.023771928623318672
16.0,0.023554759100079536
18.0,0.02313927188515663
20.0,0.0227349903434515
22.0,0.02233719453215599
24.0,0.021959949284791946
26.0,0.021592093631625175
28.0,0.02124112658202648
30.0,0.020900150761008263
32.0,0.020561495795845985
36.0,0.019899217411875725
40.0,0.019271371886134148
44.0,0.01865847222507
48.0,0.01809311844408512
52.0,0.01754203625023365
56.0,0.01700510084629059
60.0,0.016483761370182037
64.0,0.01601644605398178
72.0,0.015147438272833824
80.0,0.014308006502687931
88.0,0.01343709696084261
96.0,0.012538614682853222
104.0,0.011620909906923771
112.0,0.01081756316125393
120.0,0.010051799938082695
128.0,0.009330274537205696
144.0,0.008106617256999016
160.0,0.0071020047180354595
176.0,0.006127583794295788
192.0,0.005148290190845728
208.0,0.004247503355145454
224.0,0.0037201924715191126
240.0,0.0036073126830160618
256.0,0.003574319649487734
288.0,0.0033913650549948215
320.0,0.002881589811295271
352.0,0.0025243712589144707
384.0,0.0022691339254379272
416.0,0.001611594925634563
448.0,0.0009196264436468482
480.0,0.0005504240398295224
512.0,9.471100202063099e-05
576.0,-0.0008055812795646489
640.0,-0.0013130524894222617
704.0,-0.000701373559422791
768.0,0.0007597524672746658
832.0,0.0009803376160562038
896.0,0.0010568914003670216
960.0,0.00038601766573265195
1024.0,-0.0003236224583815783
1152.0,-0.001096525345928967
1280.0,-0.0003095287538599223
1408.0,-0.002036794787272811
1536.0,-0.003962755668908358
1664.0,-0.004246791824698448
1792.0,-0.0033934609964489937
1920.0,-0.0039036525413393974
2048.0,-0.0015387391904368997
2304.0,-0.00026290942332707345
2560.0,-0.00033064058516174555
2816.0,-0.0021950146183371544
3072.0,-0.000742374686524272
3328.0,-0.0004237260145600885
3584.0,0.0026354840956628323
3840.0,-0.002626442350447178
4096.0,-0.0036935159005224705
4608.0,0.0009650281863287091
5120.0,-0.0018161848420277238
5632.0,0.00047108082799240947
6144.0,0.0028348297346383333
6656.0,0.003667592303827405
7168.0,0.0020966771990060806
7680.0,-0.0012641992652788758
8192.0,-0.002624490763992071
9216.0,-0.0025950970593839884
10240.0,0.001476083300076425
11264.0,-0.0016940283821895719
12288.0,0.0016177510842680931
13312.0,0.002645455300807953
14336.0,-0.002675567055121064
end
