version,3.0
numOfCh,1
type,point
parent_name,40-cuts
ch_type,1_1
kcount,1
numberNandB,1
brightnessNandB,1
carpet pos,0
pc,0
Time (ms),CH1 Auto-Correlation
1.0,0.05919564887881279
2.0,0.05866279453039169
3.0,0.05812504142522812
4.0,0.05760132521390915
5.0,0.057099759578704834
6.0,0.05660624802112579
7.0,0.05611827224493027
8.0,0.05564184486865997
9.0,0.05516570806503296
10.0,0.05469481647014618
11.0,0.05422132462263107
12.0,0.053754303604364395
13.0,0.05330007150769234
14.0,0.0528552383184433
15.0,0.0524275004863739
16.0,0.05202048644423485
18.0,0.05121280625462532
20.0,0.05038464069366455
22.0,0.04955582320690155
24.0,0.04876771941781044
26.0,0.04801349714398384
28.0,0.04731259122490883
30.0,0.046634335070848465
32.0,0.04596763849258423
36.0,0.044733840972185135
40.0,0.04359392076730728
44.0,0.04245039075613022
48.0,0.041289664804935455
52.0,0.04014115035533905
56.0,0.03905349597334862
60.0,0.03802800923585892
64.0,0.03705877438187599
72.0,0.03546508029103279
80.0,0.03402126953005791
88.0,0.03259909525513649
96.0,0.031103815883398056
104.0,0.029457947239279747
112.0,0.028080226853489876
120.0,0.02702264115214348
128.0,0.02620280534029007
144.0,0.024455327540636063
160.0,0.02287684939801693
176.0,0.021544715389609337
192.0,0.020391803234815598
208.0,0.019171196967363358
224.0,0.018117351457476616
240.0,0.01698891632258892
256.0,0.015126273967325687
288.0,0.010673651471734047
320.0,0.0069777206517755985
352.0,0.004473689012229443
384.0,0.003001709468662739
416.0,0.0021548427175730467
448.0,0.0013725057942792773
480.0,0.0009075404377654195
512.0,-6.052564003766747e-06
576.0,-0.0017887165304273367
640.0,-0.0023124362342059612
704.0,-0.0023050184827297926
768.0,-0.0015158483292907476
832.0,0.00011131216888315976
896.0,-0.0008357950136996806
960.0,-0.00015100237214937806
1024.0,4.322556924307719e-05
1152.0,0.001075047766789794
1280.0,0.004260820336639881
1408.0,0.001952425460331142
1536.0,-0.0013503970112651587
1664.0,-0.003546264488250017
1792.0,-0.006513681728392839
1920.0,-0.005721301306039095
2048.0,-0.004232373554259539
2304.0,-0.0009946102509275079
2560.0,0.0034789617639034986
2816.0,5.1085145969409496e-05
3072.0,0.002712798770517111
3328.0,-0.0018346381839364767
3584.0,-0.007672837469726801
3840.0,-0.002964150393381715
4096.0,-0.007264214102178812
4608.0,-0.002026194706559181
5120.0,0.002459533978253603
5632.0,0.00034767939359880984
6144.0,0.002773796673864126
6656.0,0.003383397124707699
7168.0,0.001848870306275785
7680.0,-0.001319986185990274
8192.0,0.009223136119544506
9216.0,0.0014010759769007564
10240.0,-0.01038097869604826
11264.0,-0.010353394784033298
12288.0,0.00042136808042414486
13312.0,-9.931657405104488e-05
14336.0,-0.0055165416561067104
end
