version,3.0
numOfCh,1
type,point
parent_name,40-cuts
ch_type,1_1
kcount,1
numberNandB,1
brightnessNandB,1
carpet pos,0
pc,0
Time (ms),CH1 Auto-Correlation
1.0,0.04773765802383423
2.0,0.047256845980882645
3.0,0.04677669331431389
4.0,0.04629799723625183
5.0,0.04582050442695618
6.0,0.04535758122801781
7.0,0.04490978270769119
8.0,0.044469140470027924
9.0,0.044044531881809235
10.0,0.043634917587041855
11.0,0.04323231801390648
12.0,0.042840633541345596
13.0,0.04244453087449074
14.0,0.042048387229442596
15.0,0.041667256504297256
16.0,0.04130049794912338
18.0,0.04057104513049126
20.0,0.03983864188194275
22.0,0.03914807736873627
24.0,0.03848990797996521
26.0,0.03787703067064285
28.0,0.03728148341178894
30.0,0.036690499633550644
32.0,0.03609445318579674
36.0,0.03492876887321472
40.0,0.033776309341192245
44.0,0.03272728621959686
48.0,0.03175217658281326
52.0,0.030866537243127823
56.0,0.030017472803592682
60.0,0.029177406802773476
64.0,0.02834896929562092
72.0,0.026810886338353157
80.0,0.025529012084007263
88.0,0.0245011318475008
96.0,0.02352510765194893
104.0,0.022609416395425797
112.0,0.02186967059969902
120.0,0.021171776577830315
128.0,0.020358728244900703
144.0,0.018972381949424744
160.0,0.017324140295386314
176.0,0.015589658170938492
192.0,0.013535931706428528
208.0,0.011433285661041737
224.0,0.009831596165895462
240.0,0.008757495321333408
256.0,0.008057434111833572
288.0,0.0072273975238204
320.0,0.006241809576749802
352.0,0.0053008911199867725
384.0,0.004161851946264505
416.0,0.003156274324283004
448.0,0.002874294761568308
480.0,0.0027102436870336533
512.0,0.002197264926508069
576.0,0.0021170375403016806
640.0,0.003120956476777792
704.0,0.0026550311595201492
768.0,0.004462712444365025
832.0,0.007926510646939278
896.0,0.007883148267865181
960.0,0.006692233495414257
1024.0,0.0037436108104884624
1152.0,8.932958007790148e-05
1280.0,0.00010401168401585892
1408.0,-0.0019359946018084884
1536.0,-0.00031968121766112745
1664.0,0.0009052327950485051
1792.0,0.0029749381355941296
1920.0,3.780453198487521e-06
2048.0,-0.001519911689683795
2304.0,-0.0043230014853179455
2560.0,-0.005611560307443142
2816.0,-0.000930433627218008
3072.0,0.0001375585561618209
3328.0,0.00626035500317812
3584.0,0.00031588764977641404
3840.0,0.0005204417975619435
4096.0,0.0035572308115661144
4608.0,9.760465036379173e-05
5120.0,0.0019470179686322808
5632.0,-0.0034376701805740595
6144.0,-0.004890046082437038
6656.0,0.0008944235742092133
7168.0,0.0027478353586047888
7680.0,-0.0014212041860446334
8192.0,-0.0011674591805785894
9216.0,-0.0061360811814665794
10240.0,-0.007411959581077099
11264.0,-0.002232651226222515
12288.0,-0.0007166687282733619
13312.0,-0.0005930842598900199
14336.0,-0.00020795069576706737
end
