version,3.0
numOfCh,1
type,point
parent_name,40-cuts
ch_type,1_1
kcount,1
numberNandB,1
brightnessNandB,1
carpet pos,0
pc,0
Time (ms),CH1 Auto-Correlation
1.0,0.059991877526044846
2.0,0.05919346213340759
3.0,0.05842016637325287
4.0,0.05764632672071457
5.0,0.05689925327897072
6.0,0.056163761764764786
7.0,0.05546758323907852
8.0,0.05477894842624664
9.0,0.054103776812553406
10.0,0.053461845964193344
11.0,0.05280862748622894
12.0,0.0521581806242466
13.0,0.05151119455695152
14.0,0.050866931676864624
15.0,0.050218261778354645
16.0,0.049593523144721985
18.0,0.04835987836122513
20.0,0.04720190539956093
22.0,0.046101395040750504
24.0,0.045058976858854294
26.0,0.044014617800712585
28.0,0.0430234856903553
30.0,0.04208715632557869
32.0,0.04114045575261116
36.0,0.039329949766397476
40.0,0.0376550517976284
44.0,0.03594619408249855
48.0,0.03435656800866127
52.0,0.032939132302999496
56.0,0.03170522302389145
60.0,0.03068321757018566
64.0,0.029800869524478912
72.0,0.028348281979560852
80.0,0.027097005397081375
88.0,0.025813816115260124
96.0,0.02425297722220421
104.0,0.022763365879654884
112.0,0.021568262949585915
120.0,0.020598767325282097
128.0,0.019521746784448624
144.0,0.017548207193613052
160.0,0.016076533123850822
176.0,0.01450087409466505
192.0,0.012542720884084702
208.0,0.010243545286357403
224.0,0.008128203451633453
240.0,0.006467047613114119
256.0,0.005143308080732822
288.0,0.0034615625627338886
320.0,0.0029783889185637236
352.0,0.0018738564103841782
384.0,0.0014251618413254619
416.0,0.0021591067779809237
448.0,-0.0003955884894821793
480.0,-0.0027840291149914265
512.0,-0.003220199141651392
576.0,-0.0012920821318402886
640.0,-0.001205858658067882
704.0,-0.002274266444146633
768.0,0.0002639381855260581
832.0,0.0008577756816521287
896.0,-0.0006114192656241357
960.0,-0.0012069095391780138
1024.0,-0.0016519867349416018
1152.0,-0.0018552365945652127
1280.0,-0.0038076313212513924
1408.0,-0.001900144387036562
1536.0,0.0016043110517784953
1664.0,-0.0024248436093330383
1792.0,-0.005655984859913588
1920.0,-0.006503750570118427
2048.0,-0.005361068993806839
2304.0,-0.005581910256296396
2560.0,0.0015848755137994885
2816.0,-0.006020945962518454
3072.0,-0.008287431672215462
3328.0,-0.0049059768207371235
3584.0,0.006413712166249752
3840.0,0.0005681363400071859
4096.0,0.00941435806453228
4608.0,0.0066291578114032745
5120.0,-0.0011486643925309181
5632.0,0.0007651571067981422
6144.0,-0.0034789969213306904
6656.0,-0.004769394639879465
7168.0,-0.006301761604845524
7680.0,-0.004980981349945068
8192.0,0.007987186312675476
9216.0,0.006066484376788139
10240.0,-0.0009397269459441304
11264.0,-0.009458218701183796
12288.0,-0.0038886324036866426
13312.0,0.007384141907095909
14336.0,0.0038008259143680334
end
