version,3.0
numOfCh,1
type,point
parent_name,40-cuts
ch_type,1_1
kcount,1
numberNandB,1
brightnessNandB,1
carpet pos,0
pc,0
Time (ms),CH1 Auto-Correlation
1.0,0.06870348751544952
2.0,0.06805109977722168
3.0,0.06742136925458908
4.0,0.06678871065378189
5.0,0.06617076694965363
6.0,0.06555639952421188
7.0,0.06493905186653137
8.0,0.06434836238622665
9.0,0.06377939879894257
10.0,0.06321516633033752
11.0,0.06264961510896683
12.0,0.062088627368211746
13.0,0.061541445553302765
14.0,0.060993678867816925
15.0,0.06045815348625183
16.0,0.05991778150200844
18.0,0.058853376656770706
20.0,0.05778644606471062
22.0,0.05674989894032478
24.0,0.055748336017131805
26.0,0.05475270003080368
28.0,0.05380665510892868
30.0,0.05286912992596626
32.0,0.05195602774620056
36.0,0.05015723407268524
40.0,0.04833877459168434
44.0,0.04650929942727089
48.0,0.04469791427254677
52.0,0.04303688183426857
56.0,0.04152077063918114
60.0,0.04016433656215668
64.0,0.0388447605073452
72.0,0.03609491512179375
80.0,0.03365483507514
88.0,0.03138638660311699
96.0,0.029152652248740196
104.0,0.02712663821876049
112.0,0.025474540889263153
120.0,0.024243470281362534
128.0,0.023343436419963837
144.0,0.022432882338762283
160.0,0.021475190296769142
176.0,0.020017342641949654
192.0,0.01850036531686783
208.0,0.017419612035155296
224.0,0.016292525455355644
240.0,0.014868160709738731
256.0,0.013011900708079338
288.0,0.010392710566520691
320.0,0.007891179993748665
352.0,0.006246268283575773
384.0,0.005548430606722832
416.0,0.003603891236707568
448.0,0.0017565280431881547
480.0,0.0008201965247280896
512.0,0.000878891150932759
576.0,0.001751461299136281
640.0,0.0034341146238148212
704.0,0.006124317646026611
768.0,0.005228908732533455
832.0,0.005838609766215086
896.0,0.006085315719246864
960.0,0.0050391447730362415
1024.0,0.001317106536589563
1152.0,-0.00030927007901482284
1280.0,3.93828668165952e-05
1408.0,0.0013640192337334156
1536.0,-0.0025680437684059143
1664.0,0.005630408879369497
1792.0,0.008405917324125767
1920.0,0.010848261415958405
2048.0,0.007233088370412588
2304.0,0.005144600290805101
2560.0,0.007949349470436573
2816.0,0.0059644319117069244
3072.0,-0.005742785520851612
3328.0,-0.008760814554989338
3584.0,-0.0006167839746922255
3840.0,-0.0010615388164296746
4096.0,-0.001092854654416442
4608.0,0.004750534892082214
5120.0,-0.0067210071720182896
5632.0,-0.007547034882009029
6144.0,0.0011828183196485043
6656.0,0.0027153012342751026
7168.0,-0.001912762993015349
7680.0,-0.009204047732055187
8192.0,-0.005862587597221136
9216.0,0.0007720869034528732
10240.0,-0.0073548718355596066
11264.0,-0.017283745110034943
12288.0,-0.008379430510103703
13312.0,0.001949356752447784
14336.0,7.001896301517263e-05
end
