version,3.0
numOfCh,1
type,point
parent_name,40-cuts
ch_type,1_1
kcount,1
numberNandB,1
brightnessNandB,1
carpet pos,0
pc,0
Time (ms),CH1 Auto-Correlation
1.0,0.08913123607635498
2.0,0.0884508490562439
3.0,0.08778642863035202
4.0,0.08711085468530655
5.0,0.08645622432231903
6.0,0.08580412715673447
7.0,0.08515863865613937
8.0,0.08452414721250534
9.0,0.08388935029506683
10.0,0.08325134962797165
11.0,0.08261372148990631
12.0,0.08196694403886795
13.0,0.08130598813295364
14.0,0.08065873384475708
15.0,0.08002381771802902
16.0,0.07938838005065918
18.0,0.07813405245542526
20.0,0.07688998430967331
22.0,0.07571691274642944
24.0,0.07461082190275192
26.0,0.07354417443275452
28.0,0.07250342518091202
30.0,0.07150585949420929
32.0,0.07054118812084198
36.0,0.06873088330030441
40.0,0.06705864518880844
44.0,0.0655011311173439
48.0,0.06400471925735474
52.0,0.06259306520223618
56.0,0.061280641704797745
60.0,0.06004398688673973
64.0,0.05891774222254753
72.0,0.05688805133104324
80.0,0.05491338297724724
88.0,0.05291110649704933
96.0,0.05107298120856285
104.0,0.049091584980487823
112.0,0.047016628086566925
120.0,0.04475395381450653
128.0,0.04275259003043175
144.0,0.039489831775426865
160.0,0.036744337528944016
176.0,0.03405320271849632
192.0,0.03124121017754078
208.0,0.027569273486733437
224.0,0.024082692340016365
240.0,0.020787516608834267
256.0,0.01772148162126541
288.0,0.012304856441915035
320.0,0.00990508683025837
352.0,0.00879107229411602
384.0,0.006003113929182291
416.0,0.0047766645438969135
448.0,0.004567269701510668
480.0,0.006672494113445282
512.0,0.010048553347587585
576.0,0.011318150907754898
640.0,0.010783673264086246
704.0,0.00820362288504839
768.0,0.004693346098065376
832.0,0.0012650459539145231
896.0,-0.002401909325271845
960.0,-0.0046208808198571205
1024.0,-0.00714001664891839
1152.0,-0.013113358058035374
1280.0,-0.011868931353092194
1408.0,-0.0032236522529274225
1536.0,0.0002903165586758405
1664.0,-0.002015056787058711
1792.0,-0.006472012959420681
1920.0,-0.006045073736459017
2048.0,0.0009530679672025144
2304.0,-0.00036477879621088505
2560.0,-0.01008007675409317
2816.0,-0.017540203407406807
3072.0,-0.0075126104056835175
3328.0,-0.00981347169727087
3584.0,-0.006983181927353144
3840.0,-0.00353248231112957
4096.0,0.001916995970532298
4608.0,0.007884783670306206
5120.0,0.002185596851631999
5632.0,-0.0016487808898091316
6144.0,0.0037243959959596395
6656.0,0.01178189180791378
7168.0,0.004231470171362162
7680.0,-0.013731595128774643
8192.0,-0.009807326830923557
9216.0,-0.002005280926823616
10240.0,0.0023174635134637356
11264.0,0.01310406718403101
12288.0,0.0016533501911908388
13312.0,-0.004060506355017424
14336.0,-0.06108841300010681
end
