version,3.0
numOfCh,1
type,point
parent_name,40-cuts
ch_type,1_1
kcount,1
numberNandB,1
brightnessNandB,1
carpet pos,0
pc,0
Time (ms),CH1 Auto-Correlation
1.0,0.05545462667942047
2.0,0.0549277737736702
3.0,0.054406341165304184
4.0,0.053886644542217255
5.0,0.05338393896818161
6.0,0.052874207496643066
7.0,0.052373334765434265
8.0,0.051875993609428406
9.0,0.05139182135462761
10.0,0.05091291666030884
11.0,0.05043614283204079
12.0,0.049963586032390594
13.0,0.04948962479829788
14.0,0.04903498664498329
15.0,0.04860697314143181
16.0,0.04818113148212433
18.0,0.047349702566862106
20.0,0.046497881412506104
22.0,0.04562504217028618
24.0,0.044774964451789856
26.0,0.043953221291303635
28.0,0.043102189898490906
30.0,0.04223935306072235
32.0,0.04140850901603699
36.0,0.039812199771404266
40.0,0.03818619251251221
44.0,0.03654905781149864
48.0,0.034874480217695236
52.0,0.0333070233464241
56.0,0.03183295950293541
60.0,0.0304351095110178
64.0,0.029122021049261093
72.0,0.02658713608980179
80.0,0.02398740127682686
88.0,0.02153107523918152
96.0,0.0194432120770216
104.0,0.01767399162054062
112.0,0.016049889847636223
120.0,0.014435669407248497
128.0,0.012858494184911251
144.0,0.009833082556724548
160.0,0.006755531299859285
176.0,0.00404519634321332
192.0,0.001761539140716195
208.0,-0.0005574506940320134
224.0,-0.0022606411948800087
240.0,-0.003907397389411926
256.0,-0.005411113146692514
288.0,-0.0066523803398013115
320.0,-0.006894204765558243
352.0,-0.007437352556735277
384.0,-0.007789113093167543
416.0,-0.007911070249974728
448.0,-0.008206143043935299
480.0,-0.008672324940562248
512.0,-0.008670522831380367
576.0,-0.0065907021053135395
640.0,-0.0030877802055329084
704.0,-0.0027225520461797714
768.0,-0.0017541409470140934
832.0,-0.0011239509331062436
896.0,-0.000978600699454546
960.0,-0.00246878108009696
1024.0,-0.00021197402384132147
1152.0,0.005174241494387388
1280.0,0.006781470496207476
1408.0,-0.0007445603259839118
1536.0,-0.003954635001718998
1664.0,-0.001944696414284408
1792.0,-0.003942405339330435
1920.0,-0.00484134815633297
2048.0,0.0014230347005650401
2304.0,0.002900415565818548
2560.0,-0.003502350300550461
2816.0,-0.003316279733553529
3072.0,-0.0015934696421027184
3328.0,0.003207861678674817
3584.0,-0.0006918589351698756
3840.0,0.0005739329499192536
4096.0,-0.007123821415007114
4608.0,-0.0007334997062571347
5120.0,0.0017323476495221257
5632.0,0.0013477649772539735
6144.0,-0.0009540740284137428
6656.0,0.0009053663234226406
7168.0,-0.0004511394945438951
7680.0,-0.00031274440698325634
8192.0,-0.005644167307764292
9216.0,0.00026694455300457776
10240.0,0.0009249619324691594
11264.0,-0.00019102422811556607
12288.0,0.0010258181719109416
13312.0,-0.0007264568703249097
14336.0,0.0006680030492134392
end
