version,3.0
numOfCh,1
type,point
parent_name,40-cuts
ch_type,1_1
kcount,1
numberNandB,1
brightnessNandB,1
carpet pos,0
pc,0
Time (ms),CH1 Auto-Correlation
1.0,0.08583396673202515
2.0,0.08509722352027893
3.0,0.08437146246433258
4.0,0.08362364023923874
5.0,0.08288725465536118
6.0,0.08215861022472382
7.0,0.08143182098865509
8.0,0.08071257919073105
9.0,0.08003504574298859
10.0,0.07936202734708786
11.0,0.07870393246412277
12.0,0.07806305587291718
13.0,0.07741332054138184
14.0,0.07678069174289703
15.0,0.07614937424659729
16.0,0.07551532983779907
18.0,0.07424760609865189
20.0,0.07299445569515228
22.0,0.07177253812551498
24.0,0.07055878639221191
26.0,0.06936989724636078
28.0,0.06817986816167831
30.0,0.06702250987291336
32.0,0.06588917970657349
36.0,0.06380978226661682
40.0,0.061889879405498505
44.0,0.06014963611960411
48.0,0.0585261695086956
52.0,0.057076357305049896
56.0,0.05570334568619728
60.0,0.054272282868623734
64.0,0.052911385893821716
72.0,0.050402745604515076
80.0,0.048291757702827454
88.0,0.046890683472156525
96.0,0.045681800693273544
104.0,0.044309888035058975
112.0,0.04280322045087814
120.0,0.040994346141815186
128.0,0.03936949372291565
144.0,0.03670920804142952
160.0,0.034764762967824936
176.0,0.03321106731891632
192.0,0.03248319774866104
208.0,0.03221863880753517
224.0,0.03181447461247444
240.0,0.030946893617510796
256.0,0.02958662062883377
288.0,0.026198772713541985
320.0,0.02187211997807026
352.0,0.019062526524066925
384.0,0.015909336507320404
416.0,0.012787656858563423
448.0,0.009577473625540733
480.0,0.0071296994574368
512.0,0.00550348125398159
576.0,0.0023513513151556253
640.0,0.001476550824008882
704.0,0.0001525338739156723
768.0,-0.0009451016667298973
832.0,-0.0011409214930608869
896.0,-0.003969754558056593
960.0,-0.0067992787808179855
1024.0,-0.008709308691322803
1152.0,-0.0070753879845142365
1280.0,-0.0024257986806333065
1408.0,0.003222289029508829
1536.0,0.010147164575755596
1664.0,0.010890156030654907
1792.0,0.012535078451037407
1920.0,0.011116047389805317
2048.0,0.007400261703878641
2304.0,0.0025238068774342537
2560.0,-0.005913508124649525
2816.0,-0.007037769537419081
3072.0,-0.0018209941918030381
3328.0,-0.0025883859489113092
3584.0,0.0033309522550553083
3840.0,0.0029407404363155365
4096.0,-0.007829168811440468
4608.0,-0.007201443891972303
5120.0,-0.002596951788291335
5632.0,-0.003478018566966057
6144.0,-0.001593147637322545
6656.0,0.0067060524597764015
7168.0,-0.00010317470878362656
7680.0,-0.005191073752939701
8192.0,0.005015290342271328
9216.0,-0.005025940015912056
10240.0,0.003110002726316452
11264.0,-0.0175581444054842
12288.0,0.007203890010714531
13312.0,-0.011878260411322117
14336.0,-0.00013074126036372036
end
