version,3.0
numOfCh,1
type,point
parent_name,40-cuts
ch_type,1_1
kcount,1
numberNandB,1
brightnessNandB,1
carpet pos,0
pc,0
Time (ms),CH1 Auto-Correlation
1.0,0.08189766854047775
2.0,0.08120652288198471
3.0,0.08052828907966614
4.0,0.07986333966255188
5.0,0.07919652760028839
6.0,0.07853816449642181
7.0,0.07788543403148651
8.0,0.07723318040370941
9.0,0.07659462094306946
10.0,0.07596080005168915
11.0,0.07534204423427582
12.0,0.07472261786460876
13.0,0.07413337379693985
14.0,0.07353433966636658
15.0,0.07293849438428879
16.0,0.0723668783903122
18.0,0.07123992592096329
20.0,0.07014219462871552
22.0,0.06905239820480347
24.0,0.06796444207429886
26.0,0.06691483408212662
28.0,0.06586552411317825
30.0,0.06483161449432373
32.0,0.06381954997777939
36.0,0.061809320002794266
40.0,0.059919923543930054
44.0,0.05809761956334114
48.0,0.05628914386034012
52.0,0.054537855088710785
56.0,0.05286463722586632
60.0,0.051259178668260574
64.0,0.049691084772348404
72.0,0.046418797224760056
80.0,0.04312297701835632
88.0,0.039990123361349106
96.0,0.0370621420443058
104.0,0.03441544994711876
112.0,0.0317155197262764
120.0,0.02908051200211048
128.0,0.026663636788725853
144.0,0.022499430924654007
160.0,0.019108867272734642
176.0,0.01634453795850277
192.0,0.014038458466529846
208.0,0.01291434932500124
224.0,0.01220639143139124
240.0,0.011258872225880623
256.0,0.010563161224126816
288.0,0.00783522892743349
320.0,0.00434189522638917
352.0,0.0025981927756220102
384.0,0.0003146702947560698
416.0,-0.0021644779480993748
448.0,-0.0034671409521251917
480.0,-0.0037651227321475744
512.0,-0.004834393505007029
576.0,-0.006071929354220629
640.0,-0.008129283785820007
704.0,-0.0065122987143695354
768.0,-0.005900743883103132
832.0,-0.0028645023703575134
896.0,0.0015939812874421477
960.0,0.005144667346030474
1024.0,0.0022057711612433195
1152.0,0.002028091112151742
1280.0,0.0020894138142466545
1408.0,0.0027795603964477777
1536.0,0.0033274381421506405
1664.0,-0.000526648189406842
1792.0,-0.0032761346083134413
1920.0,0.0035790165420621634
2048.0,0.0027033849619328976
2304.0,0.002574159298092127
2560.0,0.01262877881526947
2816.0,0.0074102370999753475
3072.0,-0.002359900390729308
3328.0,-0.006233172956854105
3584.0,-0.004580651875585318
3840.0,-0.0012947823852300644
4096.0,0.004351831041276455
4608.0,0.006369492504745722
5120.0,0.007699756417423487
5632.0,-0.0070557016879320145
6144.0,-0.004450291395187378
6656.0,0.0035886908881366253
7168.0,0.008203848265111446
7680.0,-0.004335483070462942
8192.0,-0.004860529210418463
9216.0,-0.002217191969975829
10240.0,-0.005098297260701656
11264.0,-0.0030496125109493732
12288.0,-0.0007668547332286835
13312.0,-0.025816652923822403
14336.0,-0.026218406856060028
end
