version,3.0
numOfCh,1
type,point
parent_name,40-cuts
ch_type,1_1
kcount,1
numberNandB,1
brightnessNandB,1
carpet pos,0
pc,0
Time (ms),CH1 Auto-Correlation
1.0,0.059163667261600494
2.0,0.05859950929880142
3.0,0.05805504322052002
4.0,0.05752018839120865
5.0,0.056987933814525604
6.0,0.05645620822906494
7.0,0.05593286454677582
8.0,0.055410489439964294
9.0,0.0549006313085556
10.0,0.05439015105366707
11.0,0.05389271304011345
12.0,0.05339531973004341
13.0,0.05290710926055908
14.0,0.052427757531404495
15.0,0.051961399614810944
16.0,0.051506999880075455
18.0,0.050622716546058655
20.0,0.04973131790757179
22.0,0.04887162521481514
24.0,0.04802795127034187
26.0,0.04720459133386612
28.0,0.04635625705122948
30.0,0.04548916220664978
32.0,0.04463019594550133
36.0,0.04298390448093414
40.0,0.04137902706861496
44.0,0.039823662489652634
48.0,0.03838207572698593
52.0,0.03698161989450455
56.0,0.035529784858226776
60.0,0.03423795849084854
64.0,0.03309105709195137
72.0,0.03083842433989048
80.0,0.028691623359918594
88.0,0.02690226584672928
96.0,0.02552139386534691
104.0,0.02417290210723877
112.0,0.022972075268626213
120.0,0.02183443494141102
128.0,0.020817449316382408
144.0,0.018637431785464287
160.0,0.017215270549058914
176.0,0.015829920768737793
192.0,0.014457846991717815
208.0,0.013011682778596878
224.0,0.01165336649864912
240.0,0.010129386559128761
256.0,0.009333624504506588
288.0,0.008496173657476902
320.0,0.006731132045388222
352.0,0.003566921455785632
384.0,0.000959286408033222
416.0,2.286244125571102e-05
448.0,0.00027747557032853365
480.0,0.0013853595592081547
512.0,0.0011639466974884272
576.0,-0.0025988076813519
640.0,-0.006457334849983454
704.0,-0.007953486405313015
768.0,-0.006419884506613016
832.0,-0.0062997108325362206
896.0,-0.007447666954249144
960.0,-0.007738722953945398
1024.0,-0.005022924859076738
1152.0,-0.008451482281088829
1280.0,-0.009221051819622517
1408.0,-0.004798866808414459
1536.0,-0.0007123342948034406
1664.0,0.0032916544005274773
1792.0,0.006534138694405556
1920.0,0.009978704154491425
2048.0,0.00844881683588028
2304.0,0.006561070214956999
2560.0,-0.004348857328295708
2816.0,-0.0037180224899202585
3072.0,-0.004521321505308151
3328.0,-0.0040787928737699986
3584.0,-0.0029075087513774633
3840.0,0.002112884074449539
4096.0,-0.001324445242062211
4608.0,-0.0031995135359466076
5120.0,-0.00038530214806087315
5632.0,-0.0021058502607047558
6144.0,-0.006133457645773888
6656.0,-0.004075719974935055
7168.0,0.005823994986712933
7680.0,0.0066775730811059475
8192.0,-0.0005244226776994765
9216.0,0.004689381457865238
10240.0,-0.002704355865716934
11264.0,0.0035361566115170717
12288.0,-0.0036741311196237803
13312.0,0.0030026084277778864
14336.0,0.0026973651256412268
end
