version,3.0
numOfCh,1
type,point
parent_name,40-cuts
ch_type,1_1
kcount,1
numberNandB,1
brightnessNandB,1
carpet pos,0
pc,0
Time (ms),CH1 Auto-Correlation
1.0,0.018355535343289375
2.0,0.01813967153429985
3.0,0.017931131646037102
4.0,0.017717862501740456
5.0,0.017507409676909447
6.0,0.01729888841509819
7.0,0.017097022384405136
8.0,0.01690252311527729
9.0,0.016716577112674713
10.0,0.016533788293600082
11.0,0.016354087740182877
12.0,0.016179563477635384
13.0,0.01600477285683155
14.0,0.015827979892492294
15.0,0.015659093856811523
16.0,0.015489501878619194
18.0,0.015159863978624344
20.0,0.014831867069005966
22.0,0.014502843841910362
24.0,0.014179293997585773
26.0,0.013875981792807579
28.0,0.013598084449768066
30.0,0.013324064202606678
32.0,0.013048451393842697
36.0,0.012534774839878082
40.0,0.012050043791532516
44.0,0.011558467522263527
48.0,0.011074664071202278
52.0,0.010629963129758835
56.0,0.010210074484348297
60.0,0.00980965793132782
64.0,0.009412999264895916
72.0,0.008656002581119537
80.0,0.007891813293099403
88.0,0.007178932894021273
96.0,0.006506126374006271
104.0,0.005890237167477608
112.0,0.00522108469158411
120.0,0.004500368610024452
128.0,0.0037958656903356314
144.0,0.0026907578576356173
160.0,0.002095623640343547
176.0,0.0017922919942066073
192.0,0.00150109117385
208.0,0.0010829580714926124
224.0,0.0007377451402135193
240.0,0.0004917719052173197
256.0,5.839673031005077e-05
288.0,0.0002488780883140862
320.0,0.0008523368742316961
352.0,0.0016655514482408762
384.0,0.002256107982248068
416.0,0.001950488076545298
448.0,0.0009684300748631358
480.0,-8.627725037513301e-05
512.0,-0.0008109028567560017
576.0,-0.0006600195192731917
640.0,1.039500148181105e-05
704.0,0.00047530370648019016
768.0,0.0006984701612964272
832.0,-0.0006411843351088464
896.0,-0.0013607358559966087
960.0,-0.000755493703763932
1024.0,0.0005404081894084811
1152.0,0.0005861720419488847
1280.0,-0.0004479435447137803
1408.0,0.00022127215925138444
1536.0,-0.0005371557199396193
1664.0,0.00014589425700251013
1792.0,-2.9371407435974106e-05
1920.0,-0.0002459310635458678
2048.0,2.039390165009536e-05
2304.0,-0.0010668360628187656
2560.0,-0.0007292935624718666
2816.0,-0.0019297857070341706
3072.0,-0.00012131179391872138
3328.0,0.00022421102039515972
3584.0,0.00011870338494190946
3840.0,0.0015344290295615792
4096.0,0.0005108649493195117
4608.0,-0.001306497841142118
5120.0,0.0006985901854932308
5632.0,-0.0003144897345919162
6144.0,0.0005767154507339001
6656.0,0.001273136236704886
7168.0,0.0018099751323461533
7680.0,0.00010676067176973447
8192.0,-0.0025219214148819447
9216.0,-0.0019906600937247276
10240.0,-0.0011254785349592566
11264.0,0.0005743380170315504
12288.0,0.0014744603540748358
13312.0,-0.0011597087141126394
14336.0,-0.0018951398087665439
end
