version,3.0
numOfCh,1
type,point
parent_name,40-cuts
ch_type,1_1
kcount,1
numberNandB,1
brightnessNandB,1
carpet pos,0
pc,0
Time (ms),CH1 Auto-Correlation
1.0,0.06424789875745773
2.0,0.06365213543176651
3.0,0.06306292116641998
4.0,0.062484584748744965
5.0,0.06191989406943321
6.0,0.06137792393565178
7.0,0.060834385454654694
8.0,0.060306303203105927
9.0,0.05979117006063461
10.0,0.059269070625305176
11.0,0.058756548911333084
12.0,0.058249883353710175
13.0,0.05774741992354393
14.0,0.05725651979446411
15.0,0.05675692856311798
16.0,0.05627622827887535
18.0,0.05538905784487724
20.0,0.054540928453207016
22.0,0.05371684953570366
24.0,0.05292331799864769
26.0,0.05214022845029831
28.0,0.0513688363134861
30.0,0.05059416964650154
32.0,0.04982150346040726
36.0,0.04821646213531494
40.0,0.046605564653873444
44.0,0.04504638910293579
48.0,0.04354749992489815
52.0,0.04207741469144821
56.0,0.04063228890299797
60.0,0.0392816960811615
64.0,0.03797062486410141
72.0,0.03537965193390846
80.0,0.033192068338394165
88.0,0.03114520199596882
96.0,0.029240794479846954
104.0,0.027535399422049522
112.0,0.02610670030117035
120.0,0.024663053452968597
128.0,0.02309173159301281
144.0,0.02041713520884514
160.0,0.018165236338973045
176.0,0.01639416813850403
192.0,0.0153757743537426
208.0,0.014526944607496262
224.0,0.013354293070733547
240.0,0.01171098928898573
256.0,0.010328962467610836
288.0,0.007976179011166096
320.0,0.00479422090575099
352.0,0.0023094231728464365
384.0,0.00030846145818941295
416.0,-0.0005510328919626772
448.0,-0.0018095968989655375
480.0,-0.0018630841514095664
512.0,-0.002261818153783679
576.0,-0.002591968048363924
640.0,-0.0002974541566800326
704.0,-0.001140419626608491
768.0,-0.004480046685785055
832.0,-0.006079479586333036
896.0,-0.00803364161401987
960.0,-0.009692174382507801
1024.0,-0.013071822002530098
1152.0,-0.01400594599545002
1280.0,-0.007962467148900032
1408.0,-0.007400932256132364
1536.0,-0.004877383820712566
1664.0,-0.0027881991118192673
1792.0,-0.0038538225926458836
1920.0,-0.0023899092338979244
2048.0,-0.0019734902307391167
2304.0,0.0012409449554979801
2560.0,0.005360567942261696
2816.0,0.0042137084528803825
3072.0,-0.0023735661525279284
3328.0,0.003136815968900919
3584.0,-0.0018243936356157064
3840.0,-0.0012682621600106359
4096.0,0.004921060521155596
4608.0,-0.008097251877188683
5120.0,-0.003877430921420455
5632.0,-0.0011439481750130653
6144.0,0.009436952881515026
6656.0,0.003931352868676186
7168.0,-0.013169826939702034
7680.0,-0.0001182606429210864
8192.0,0.003342444309964776
9216.0,0.00183681002818048
10240.0,-0.002404062310233712
11264.0,-0.00022362530580721796
12288.0,0.015104284510016441
13312.0,-0.010151099413633347
14336.0,-0.0077527170069515705
end
