version,3.0
numOfCh,1
type,point
parent_name,40-cuts
ch_type,1_1
kcount,1
numberNandB,1
brightnessNandB,1
carpet pos,0
pc,0
Time (ms),CH1 Auto-Correlation
1.0,0.06755143404006958
2.0,0.0669252872467041
3.0,0.06630789488554001
4.0,0.06571825593709946
5.0,0.06512431800365448
6.0,0.06454556435346603
7.0,0.0639674961566925
8.0,0.06341297924518585
9.0,0.06288858503103256
10.0,0.062364354729652405
11.0,0.06184539198875427
12.0,0.06134430319070816
13.0,0.060861386358737946
14.0,0.06035425513982773
15.0,0.05987073853611946
16.0,0.059389784932136536
18.0,0.05846283212304115
20.0,0.05753618851304054
22.0,0.05661753937602043
24.0,0.05572110787034035
26.0,0.054871559143066406
28.0,0.05405360460281372
30.0,0.05325698107481003
32.0,0.05251419171690941
36.0,0.05100556090474129
40.0,0.04957972466945648
44.0,0.048304393887519836
48.0,0.04719459265470505
52.0,0.0460936538875103
56.0,0.0449468158185482
60.0,0.04387301579117775
64.0,0.04285673052072525
72.0,0.04104577377438545
80.0,0.03946300968527794
88.0,0.03805384784936905
96.0,0.03644728660583496
104.0,0.03469288349151611
112.0,0.03305836021900177
120.0,0.031383175402879715
128.0,0.029894191771745682
144.0,0.027676865458488464
160.0,0.02551371231675148
176.0,0.02313760109245777
192.0,0.020954959094524384
208.0,0.01874587871134281
224.0,0.01655411161482334
240.0,0.014293304644525051
256.0,0.012328827753663063
288.0,0.008177759125828743
320.0,0.004210778512060642
352.0,0.000661872501950711
384.0,-0.00010517158807488158
416.0,-0.0007425904041156173
448.0,-0.0004021629283670336
480.0,0.0012723773252218962
512.0,0.00512868445366621
576.0,0.008694956079125404
640.0,0.009374757297337055
704.0,0.010218680836260319
768.0,0.00888057891279459
832.0,0.007349648978561163
896.0,0.005369167774915695
960.0,0.0022663744166493416
1024.0,0.0004881769127678126
1152.0,7.7402000897564e-05
1280.0,-0.00376301072537899
1408.0,-0.005492248572409153
1536.0,-0.0037926342338323593
1664.0,-0.004340667277574539
1792.0,-0.0038439335767179728
1920.0,-0.003602697979658842
2048.0,-0.0029643955640494823
2304.0,0.006952065508812666
2560.0,0.0008982646395452321
2816.0,-0.0019533203449100256
3072.0,0.0023246242199093103
3328.0,0.007371838204562664
3584.0,-0.0008789028506726027
3840.0,-0.00047392421402037144
4096.0,-0.0007211507181636989
4608.0,0.0008984636515378952
5120.0,-0.007023642770946026
5632.0,0.0015617727767676115
6144.0,-0.00626734783872962
6656.0,0.0036277894396334887
7168.0,-0.006603735499083996
7680.0,0.00033778880606405437
8192.0,-0.0034739163238555193
9216.0,0.006994896102696657
10240.0,0.0007115919142961502
11264.0,-0.013968870975077152
12288.0,-0.006032351404428482
13312.0,-0.005278834141790867
14336.0,-0.02605956606566906
end
