version,3.0
numOfCh,1
type,point
parent_name,40-cuts
ch_type,1_1
kcount,1
numberNandB,1
brightnessNandB,1
carpet pos,0
pc,0
Time (ms),CH1 Auto-Correlation
1.0,0.029223114252090454
2.0,0.028977809473872185
3.0,0.028737958520650864
4.0,0.028504032641649246
5.0,0.028274815529584885
6.0,0.028041943907737732
7.0,0.027806269004940987
8.0,0.027575640007853508
9.0,0.02734491229057312
10.0,0.02711869403719902
11.0,0.02688737027347088
12.0,0.026665067300200462
13.0,0.026450423523783684
14.0,0.026233870536088943
15.0,0.02601553313434124
16.0,0.02578706666827202
18.0,0.025335220620036125
20.0,0.024897631257772446
22.0,0.024476949125528336
24.0,0.02406204305589199
26.0,0.023650111630558968
28.0,0.023242641240358353
30.0,0.022826585918664932
32.0,0.02241617813706398
36.0,0.02162640169262886
40.0,0.020829111337661743
44.0,0.020078960806131363
48.0,0.019370676949620247
52.0,0.018678054213523865
56.0,0.017992563545703888
60.0,0.017343249171972275
64.0,0.01673351414501667
72.0,0.01563543826341629
80.0,0.014580969698727131
88.0,0.013612233102321625
96.0,0.012760552577674389
104.0,0.011952444911003113
112.0,0.01117639522999525
120.0,0.010517067275941372
128.0,0.009975476190447807
144.0,0.009246930480003357
160.0,0.008495094254612923
176.0,0.007816511206328869
192.0,0.0072045233100652695
208.0,0.00673398794606328
224.0,0.006571189966052771
240.0,0.006529391277581453
256.0,0.006438084412366152
288.0,0.005831463262438774
320.0,0.004855961073189974
352.0,0.0036136016715317965
384.0,0.0027728553395718336
416.0,0.002219711197540164
448.0,0.0016999138751998544
480.0,0.0006873360252939165
512.0,8.936751692090183e-05
576.0,6.12503063166514e-05
640.0,-0.000946283747907728
704.0,-0.0003025657497346401
768.0,-0.0013070449931547046
832.0,-0.0028595891781151295
896.0,-0.0027956427074968815
960.0,-0.002900980180129409
1024.0,-0.0022169467993080616
1152.0,-0.002705537946894765
1280.0,-0.002941412851214409
1408.0,-0.0009309885208494961
1536.0,0.0005135537940077484
1664.0,0.0003596054157242179
1792.0,0.0028066113591194153
1920.0,0.0035615006927400827
2048.0,0.003614249173551798
2304.0,0.00039929020567797124
2560.0,-0.0016973500605672598
2816.0,0.0016120235668495297
3072.0,0.0007958071073517203
3328.0,0.0013824696652591228
3584.0,0.0022130149882286787
3840.0,-9.629664418753237e-05
4096.0,-0.0017459075897932053
4608.0,-0.004710478242486715
5120.0,0.0016446824884042144
5632.0,0.0003141168272122741
6144.0,-0.0008675102726556361
6656.0,-0.0048814318142831326
7168.0,0.002174257067963481
7680.0,0.0004846317751798779
8192.0,-0.0027580522000789642
9216.0,0.0011944344732910395
10240.0,-0.0037438655272126198
11264.0,0.004182633012533188
12288.0,-0.002664064522832632
13312.0,-0.00566854840144515
14336.0,0.008911379612982273
end
