version,3.0
numOfCh,1
type,point
parent_name,40-cuts
ch_type,1_1
kcount,1
numberNandB,1
brightnessNandB,1
carpet pos,0
pc,0
Time (ms),CH1 Auto-Correlation
1.0,0.028843749314546585
2.0,0.0285456832498312
3.0,0.02824917808175087
4.0,0.027959708124399185
5.0,0.027681365609169006
6.0,0.027400312945246696
7.0,0.027131184935569763
8.0,0.02686421573162079
9.0,0.026605358347296715
10.0,0.026345999911427498
11.0,0.026096630841493607
12.0,0.025851035490632057
13.0,0.025613022968173027
14.0,0.02536415494978428
15.0,0.0251203253865242
16.0,0.024879150092601776
18.0,0.024397557601332664
20.0,0.02392100729048252
22.0,0.023459628224372864
24.0,0.023016754537820816
26.0,0.022584926337003708
28.0,0.022155120968818665
30.0,0.021728435531258583
32.0,0.021307263523340225
36.0,0.020536260679364204
40.0,0.01982826553285122
44.0,0.01913333684206009
48.0,0.018490802496671677
52.0,0.017911158502101898
56.0,0.017367122694849968
60.0,0.01685948297381401
64.0,0.016378803178668022
72.0,0.015542328357696533
80.0,0.014883712865412235
88.0,0.014229302294552326
96.0,0.013561729341745377
104.0,0.012842491269111633
112.0,0.012249726802110672
120.0,0.011636661365628242
128.0,0.01106278970837593
144.0,0.010076832957565784
160.0,0.009424155578017235
176.0,0.008893942460417747
192.0,0.00843159481883049
208.0,0.008094637654721737
224.0,0.007777592167258263
240.0,0.007342588156461716
256.0,0.006794152781367302
288.0,0.005673340987414122
320.0,0.005067176651209593
352.0,0.004337912425398827
384.0,0.003630888881161809
416.0,0.0029301350004971027
448.0,0.0028567169792950153
480.0,0.0033490434288978577
512.0,0.003622298361733556
576.0,0.002947277156636119
640.0,0.0017027807189151645
704.0,0.0006252557504922152
768.0,0.0007186410366557539
832.0,0.00171043595764786
896.0,0.0007580211968161166
960.0,-0.0007798439473845065
1024.0,0.0008621247252449393
1152.0,0.0037813035305589437
1280.0,0.0042311036959290504
1408.0,0.0031135918106883764
1536.0,0.0021283531095832586
1664.0,-0.00031236957875080407
1792.0,-0.0027255662716925144
1920.0,-0.0018263878300786018
2048.0,-0.0029639871791005135
2304.0,-0.002234636340290308
2560.0,0.0014893058687448502
2816.0,0.0012124963104724884
3072.0,0.00023956138466019183
3328.0,-0.0017826244002208114
3584.0,-0.0024561670143157244
3840.0,0.000475670414743945
4096.0,-0.002623066771775484
4608.0,-0.003103159600868821
5120.0,-0.0017132314387708902
5632.0,-0.001044685603119433
6144.0,-0.00047183482092805207
6656.0,0.0005963800940662622
7168.0,0.0018260767683386803
7680.0,0.0029770073015242815
8192.0,0.0012910717632621527
9216.0,-0.0027769526932388544
10240.0,-0.0038046916015446186
11264.0,-0.0036423022393137217
12288.0,-0.004238503519445658
13312.0,-0.0013829795643687248
14336.0,0.009107670746743679
end
