version,3.0
numOfCh,1
type,point
parent_name,40-cuts
ch_type,1_1
kcount,1
numberNandB,1
brightnessNandB,1
carpet pos,0
pc,0
Time (ms),CH1 Auto-Correlation
1.0,0.08934985846281052
2.0,0.0886196419596672
3.0,0.08790523558855057
4.0,0.08720382302999496
5.0,0.08649764209985733
6.0,0.08580870181322098
7.0,0.08513683080673218
8.0,0.08446285873651505
9.0,0.08380164206027985
10.0,0.08315347880125046
11.0,0.08249791711568832
12.0,0.0818384662270546
13.0,0.08119375258684158
14.0,0.08056497573852539
15.0,0.07993688434362411
16.0,0.07931287586688995
18.0,0.07814591377973557
20.0,0.07704924792051315
22.0,0.07597621530294418
24.0,0.07493250072002411
26.0,0.07389526814222336
28.0,0.07290929555892944
30.0,0.07198219746351242
32.0,0.0710984468460083
36.0,0.06938575208187103
40.0,0.06778788566589355
44.0,0.06629174947738647
48.0,0.0648718923330307
52.0,0.06335748732089996
56.0,0.061846792697906494
60.0,0.06034642085433006
64.0,0.058888763189315796
72.0,0.056159716099500656
80.0,0.05378109961748123
88.0,0.05132294073700905
96.0,0.04883968457579613
104.0,0.04638015851378441
112.0,0.04422944039106369
120.0,0.04250137507915497
128.0,0.041248466819524765
144.0,0.03908517211675644
160.0,0.03679675981402397
176.0,0.033810071647167206
192.0,0.030230218544602394
208.0,0.026905706152319908
224.0,0.023093903437256813
240.0,0.018752889707684517
256.0,0.01506042666733265
288.0,0.009287483990192413
320.0,0.004296946804970503
352.0,0.0010531749576330185
384.0,-0.0016907183453440666
416.0,-0.004601871594786644
448.0,-0.0081953015178442
480.0,-0.010488291271030903
512.0,-0.011691031977534294
576.0,-0.010625259950757027
640.0,-0.00998012162744999
704.0,-0.008485442027449608
768.0,-0.007115738000720739
832.0,-0.0072183567099273205
896.0,-0.01024532224982977
960.0,-0.012881031259894371
1024.0,-0.011347531341016293
1152.0,-0.011153060011565685
1280.0,-0.0021336155477911234
1408.0,0.00969321932643652
1536.0,0.008942694403231144
1664.0,-0.0019379049772396684
1792.0,-0.011302102357149124
1920.0,-0.011987343430519104
2048.0,-0.005716564133763313
2304.0,0.004149505868554115
2560.0,-0.010343372821807861
2816.0,-0.014233879745006561
3072.0,-0.012300243601202965
3328.0,-0.012713592499494553
3584.0,0.0047730375081300735
3840.0,0.0198653694242239
4096.0,0.010039309039711952
4608.0,0.0027886107563972473
5120.0,-0.002801534254103899
5632.0,0.006528377998620272
6144.0,-0.0033557438291609287
6656.0,-0.013627516105771065
7168.0,-0.008001718670129776
7680.0,-0.0051548415794968605
8192.0,0.0067297713831067085
9216.0,0.0039842319674789906
10240.0,0.00031486916122958064
11264.0,-0.020727504044771194
12288.0,0.010206528939306736
13312.0,0.01035710796713829
14336.0,0.012983834370970726
end
