version,3.0
numOfCh,1
type,point
parent_name,40-cuts
ch_type,1_1
kcount,1
numberNandB,1
brightnessNandB,1
carpet pos,0
pc,0
Time (ms),CH1 Auto-Correlation
1.0,0.031108561903238297
2.0,0.030855892226099968
3.0,0.030611466616392136
4.0,0.030376918613910675
5.0,0.030146297067403793
6.0,0.029923027381300926
7.0,0.029701536521315575
8.0,0.02948576956987381
9.0,0.029275204986333847
10.0,0.02907276153564453
11.0,0.02887324057519436
12.0,0.028675153851509094
13.0,0.02848074585199356
14.0,0.028289038687944412
15.0,0.028103450313210487
16.0,0.027920933440327644
18.0,0.027552839368581772
20.0,0.027198752388358116
22.0,0.02685532160103321
24.0,0.02652391791343689
26.0,0.02619749866425991
28.0,0.02586844004690647
30.0,0.02553766407072544
32.0,0.025218166410923004
36.0,0.024580830708146095
40.0,0.023958032950758934
44.0,0.023369425907731056
48.0,0.022801274433732033
52.0,0.022241605445742607
56.0,0.021697770804166794
60.0,0.021187210455536842
64.0,0.020716696977615356
72.0,0.019762903451919556
80.0,0.01878652349114418
88.0,0.018006717786192894
96.0,0.0174487866461277
104.0,0.017044968903064728
112.0,0.01666603423655033
120.0,0.01624598167836666
128.0,0.015776222571730614
144.0,0.014873417094349861
160.0,0.014087771996855736
176.0,0.013367129489779472
192.0,0.012765239924192429
208.0,0.012110189534723759
224.0,0.011545390821993351
240.0,0.010934211313724518
256.0,0.010142780840396881
288.0,0.008287503384053707
320.0,0.006437521893531084
352.0,0.004523459821939468
384.0,0.0032620197162032127
416.0,0.002356418641284108
448.0,0.0011130766943097115
480.0,0.0001159528546850197
512.0,-0.0003068398800678551
576.0,-0.0008414079202339053
640.0,-0.0013523291563615203
704.0,-0.0010757956188172102
768.0,0.0003876588889397681
832.0,0.0013822055188938975
896.0,0.002238452434539795
960.0,0.0024271684233099222
1024.0,0.00292981811799109
1152.0,0.0028179886285215616
1280.0,0.0035361885093152523
1408.0,0.0023098450619727373
1536.0,-8.440988312941045e-05
1664.0,-0.0002153953246306628
1792.0,0.0011272383853793144
1920.0,0.001491312519647181
2048.0,0.0008840292575769126
2304.0,-0.0007716846885159612
2560.0,-0.004082029219716787
2816.0,-0.004324357490986586
3072.0,-0.0021081578452140093
3328.0,0.0004184040299151093
3584.0,0.0005372731829993427
3840.0,0.00035183734144084156
4096.0,-0.0005569923087023199
4608.0,-0.0008853335748426616
5120.0,0.004977903328835964
5632.0,0.003270772285759449
6144.0,3.302796176285483e-05
6656.0,0.0002897316007874906
7168.0,0.0013805899070575833
7680.0,-0.0020210742950439453
8192.0,-0.000842532142996788
9216.0,-0.0034798630513250828
10240.0,-0.0053272428922355175
11264.0,-0.0015825856244191527
12288.0,-0.0009276015916839242
13312.0,-0.006521967239677906
14336.0,-0.007774540223181248
end
