version,3.0
numOfCh,1
type,point
parent_name,40-cuts
ch_type,1_1
kcount,1
numberNandB,1
brightnessNandB,1
carpet pos,0
pc,0
Time (ms),CH1 Auto-Correlation
1.0,0.10626868903636932
2.0,0.10543625056743622
3.0,0.10460397601127625
4.0,0.1037747785449028
5.0,0.10298755764961243
6.0,0.10221118479967117
7.0,0.10145586729049683
8.0,0.10069601237773895
9.0,0.09995725005865097
10.0,0.09923366457223892
11.0,0.09848987311124802
12.0,0.09773940593004227
13.0,0.09699273109436035
14.0,0.09627705812454224
15.0,0.09556420147418976
16.0,0.09486492723226547
18.0,0.0934382826089859
20.0,0.09203773736953735
22.0,0.09066855907440186
24.0,0.0893876850605011
26.0,0.0881119817495346
28.0,0.08685483783483505
30.0,0.08563100546598434
32.0,0.08442693948745728
36.0,0.08222988992929459
40.0,0.08029499650001526
44.0,0.07849983870983124
48.0,0.0767986848950386
52.0,0.07517027854919434
56.0,0.0735715702176094
60.0,0.07199718058109283
64.0,0.07044243067502975
72.0,0.06747246533632278
80.0,0.06472557038068771
88.0,0.06205540522933006
96.0,0.059725504368543625
104.0,0.057308539748191833
112.0,0.054768338799476624
120.0,0.052334483712911606
128.0,0.049919769167900085
144.0,0.04548707976937294
160.0,0.041353389620780945
176.0,0.03789827972650528
192.0,0.03523388132452965
208.0,0.032814137637615204
224.0,0.029916077852249146
240.0,0.026240717619657516
256.0,0.022631902247667313
288.0,0.020511873066425323
320.0,0.02014397643506527
352.0,0.017666839063167572
384.0,0.015003597363829613
416.0,0.012849965132772923
448.0,0.010810627602040768
480.0,0.009306402876973152
512.0,0.008448630571365356
576.0,0.005869036074727774
640.0,0.004074126947671175
704.0,0.003992378246039152
768.0,0.003547476138919592
832.0,0.006546683143824339
896.0,0.00755290174856782
960.0,0.0054472521878778934
1024.0,0.004176310729235411
1152.0,-0.0019170090090483427
1280.0,-0.002048294758424163
1408.0,-0.009518959559500217
1536.0,-0.018765415996313095
1664.0,-0.019276665523648262
1792.0,-0.018786974251270294
1920.0,-0.015049200505018234
2048.0,-0.009599437937140465
2304.0,-0.0018742448883131146
2560.0,0.00997950043529272
2816.0,-0.0021954725962132215
3072.0,-0.0016360218869522214
3328.0,0.01512800995260477
3584.0,0.020302534103393555
3840.0,0.011058512143790722
4096.0,-0.0001387634692946449
4608.0,0.003543377388268709
5120.0,-0.007052259985357523
5632.0,-0.00957056786864996
6144.0,-0.008578010834753513
6656.0,0.0047386144287884235
7168.0,0.013560936786234379
7680.0,-0.010008075274527073
8192.0,-0.007790188305079937
9216.0,-0.007827932946383953
10240.0,0.006689203437417746
11264.0,-0.016547024250030518
12288.0,-0.01736915297806263
13312.0,-0.0015702174277976155
14336.0,0.012339012697339058
end
