version,3.0
numOfCh,1
type,point
parent_name,40-cuts
ch_type,1_1
kcount,1
numberNandB,1
brightnessNandB,1
carpet pos,0
pc,0
Time (ms),CH1 Auto-Correlation
1.0,0.08615182340145111
2.0,0.08547326922416687
3.0,0.0847882553935051
4.0,0.0841154158115387
5.0,0.08346997201442719
6.0,0.08283839374780655
7.0,0.08222270011901855
8.0,0.08162196725606918
9.0,0.08103424310684204
10.0,0.08046702295541763
11.0,0.07988832145929337
12.0,0.0793173536658287
13.0,0.07877341657876968
14.0,0.07824430614709854
15.0,0.07772010564804077
16.0,0.07720357924699783
18.0,0.07618614286184311
20.0,0.07520990073680878
22.0,0.07422298192977905
24.0,0.07330826669931412
26.0,0.07243269681930542
28.0,0.07154243439435959
30.0,0.07064282894134521
32.0,0.06974197179079056
36.0,0.06800730526447296
40.0,0.06643186509609222
44.0,0.06492175161838531
48.0,0.06344028562307358
52.0,0.06194668263196945
56.0,0.06038644164800644
60.0,0.05880845710635185
64.0,0.057274091988801956
72.0,0.054605040699243546
80.0,0.05241438001394272
88.0,0.05043938755989075
96.0,0.04851912707090378
104.0,0.04663516581058502
112.0,0.044624119997024536
120.0,0.04265958443284035
128.0,0.04090496152639389
144.0,0.03793124482035637
160.0,0.03544575348496437
176.0,0.03402730077505112
192.0,0.032951146364212036
208.0,0.03199551999568939
224.0,0.03020743653178215
240.0,0.027641328051686287
256.0,0.025318307802081108
288.0,0.022679656744003296
320.0,0.02214295230805874
352.0,0.022043872624635696
384.0,0.021076969802379608
416.0,0.019897228106856346
448.0,0.019237376749515533
480.0,0.017961926758289337
512.0,0.016854505985975266
576.0,0.01684657670557499
640.0,0.017372528091073036
704.0,0.01853812113404274
768.0,0.019850460812449455
832.0,0.02339780330657959
896.0,0.02352326735854149
960.0,0.02030031569302082
1024.0,0.01717483066022396
1152.0,0.015494544990360737
1280.0,0.012988843955099583
1408.0,0.008434507064521313
1536.0,0.005499313585460186
1664.0,0.0076594571582973
1792.0,0.007885796949267387
1920.0,0.00202212855219841
2048.0,-0.005130035802721977
2304.0,-0.002865677000954747
2560.0,-0.0062395790591835976
2816.0,-0.015812939032912254
3072.0,-0.009804141707718372
3328.0,-0.008128909394145012
3584.0,-0.0144753847271204
3840.0,-0.014877667650580406
4096.0,-0.009864541701972485
4608.0,-0.006975025404244661
5120.0,-0.001253404887393117
5632.0,-2.6299994715373032e-05
6144.0,-0.004737199284136295
6656.0,0.005193745251744986
7168.0,-0.00286678085103631
7680.0,0.002717640483751893
8192.0,0.01039039995521307
9216.0,0.01840292662382126
10240.0,0.0026057797949761152
11264.0,-0.030646776780486107
12288.0,-0.04268597438931465
13312.0,-0.03181162476539612
14336.0,-0.00485546188428998
end
