version,3.0
numOfCh,1
type,point
parent_name,40-cuts
ch_type,1_1
kcount,1
numberNandB,1
brightnessNandB,1
carpet pos,0
pc,0
Time (ms),CH1 Auto-Correlation
1.0,0.04193045198917389
2.0,0.04159131646156311
3.0,0.04126003384590149
4.0,0.040934812277555466
5.0,0.040615081787109375
6.0,0.040288906544446945
7.0,0.039956629276275635
8.0,0.03962765634059906
9.0,0.03930632397532463
10.0,0.03898556903004646
11.0,0.03866482526063919
12.0,0.03834599629044533
13.0,0.03802407532930374
14.0,0.03770054504275322
15.0,0.037384096533060074
16.0,0.037064358592033386
18.0,0.036435432732105255
20.0,0.035820912569761276
22.0,0.03520980849862099
24.0,0.034607239067554474
26.0,0.03402242064476013
28.0,0.033463653177022934
30.0,0.03295440226793289
32.0,0.03246307745575905
36.0,0.03150917589664459
40.0,0.03058357909321785
44.0,0.02970108948647976
48.0,0.02882169559597969
52.0,0.02796083316206932
56.0,0.02713165432214737
60.0,0.02632519043982029
64.0,0.02556752786040306
72.0,0.024377040565013885
80.0,0.023459983989596367
88.0,0.022660724818706512
96.0,0.021841203793883324
104.0,0.02098085917532444
112.0,0.02007775567471981
120.0,0.019150543957948685
128.0,0.01824198290705681
144.0,0.016527432948350906
160.0,0.015336711890995502
176.0,0.014472108334302902
192.0,0.013990601524710655
208.0,0.013921672478318214
224.0,0.013996265828609467
240.0,0.013671156950294971
256.0,0.01276292186230421
288.0,0.011291214264929295
320.0,0.009993690997362137
352.0,0.008633543737232685
384.0,0.006771065294742584
416.0,0.0050663212314248085
448.0,0.0031863488256931305
480.0,0.0008156344993039966
512.0,6.215857865754515e-05
576.0,0.0016343349125236273
640.0,0.0028524177614599466
704.0,0.0032520967070013285
768.0,0.0024592853151261806
832.0,0.0012540740426629782
896.0,0.0006529066013172269
960.0,0.00042008794844150543
1024.0,0.0004154781927354634
1152.0,-0.00043189042480662465
1280.0,0.0001664980809437111
1408.0,-0.0007929981220513582
1536.0,-0.003826170926913619
1664.0,-0.006127520930022001
1792.0,-0.00560483755543828
1920.0,-0.0030224863439798355
2048.0,0.00027342484099790454
2304.0,0.005680929869413376
2560.0,0.004080425947904587
2816.0,-0.0015376433730125427
3072.0,-0.005442072171717882
3328.0,-0.002982204081490636
3584.0,-0.0011431989260017872
3840.0,-0.00333166285417974
4096.0,-0.0027742241509258747
4608.0,0.004047298803925514
5120.0,0.0029857379850000143
5632.0,-0.00016072328435257077
6144.0,-0.0008618367719464004
6656.0,-0.0006015861872583628
7168.0,-0.0021363140549510717
7680.0,-0.008829920552670956
8192.0,-0.003931756597012281
9216.0,0.006207642145454884
10240.0,-0.005318503361195326
11264.0,0.005680452566593885
12288.0,-0.004233440384268761
13312.0,-0.008846578188240528
14336.0,-0.011276262812316418
end
