version,3.0
numOfCh,1
type,point
parent_name,40-cuts
ch_type,1_1
kcount,1
numberNandB,1
brightnessNandB,1
carpet pos,0
pc,0
Time (ms),CH1 Auto-Correlation
1.0,0.029836982488632202
2.0,0.029560143128037453
3.0,0.029295019805431366
4.0,0.02903035655617714
5.0,0.02876242622733116
6.0,0.028499148786067963
7.0,0.028241313993930817
8.0,0.02798553928732872
9.0,0.027733204886317253
10.0,0.027481792494654655
11.0,0.027233164757490158
12.0,0.026992855593562126
13.0,0.026759296655654907
14.0,0.026527022942900658
15.0,0.02629977837204933
16.0,0.02607530727982521
18.0,0.02562936209142208
20.0,0.02517886646091938
22.0,0.024743424728512764
24.0,0.02432973124086857
26.0,0.023927239701151848
28.0,0.02354046329855919
30.0,0.02316790074110031
32.0,0.022797834128141403
36.0,0.022091593593358994
40.0,0.02139889821410179
44.0,0.020743194967508316
48.0,0.020143691450357437
52.0,0.019573722034692764
56.0,0.01904839277267456
60.0,0.018540911376476288
64.0,0.018079932779073715
72.0,0.017282502725720406
80.0,0.016533702611923218
88.0,0.01573070138692856
96.0,0.014954612590372562
104.0,0.014193895272910595
112.0,0.01340995728969574
120.0,0.012621200643479824
128.0,0.011948902159929276
144.0,0.010899556800723076
160.0,0.01001732237637043
176.0,0.009287656284868717
192.0,0.008789746090769768
208.0,0.008458477444946766
224.0,0.007921245880424976
240.0,0.007029620930552483
256.0,0.006198208313435316
288.0,0.004839787725359201
320.0,0.004129530396312475
352.0,0.003952778875827789
384.0,0.003774546552449465
416.0,0.0030096517875790596
448.0,0.001840546727180481
480.0,0.0005284409271553159
512.0,-0.0007697751861996949
576.0,-0.0014047077856957912
640.0,-0.0018482031300663948
704.0,-0.003917706198990345
768.0,-0.005418221931904554
832.0,-0.004906764253973961
896.0,-0.003744989400729537
960.0,-0.002573224250227213
1024.0,-0.00014116043166723102
1152.0,0.0017148785991594195
1280.0,0.00093347008805722
1408.0,0.0014010817976668477
1536.0,0.0012045230250805616
1664.0,0.00011788639676524326
1792.0,-0.004112777300179005
1920.0,-0.0057425424456596375
2048.0,-0.005024982150644064
2304.0,0.00010789425869006664
2560.0,0.0011241422034800053
2816.0,0.0010135648772120476
3072.0,0.0002053463103948161
3328.0,-0.001088522607460618
3584.0,0.0022667134180665016
3840.0,0.0020364278461784124
4096.0,-0.002602938562631607
4608.0,-0.0025365399196743965
5120.0,-0.000764418684411794
5632.0,0.00021845994342584163
6144.0,0.0034336892422288656
6656.0,-0.0005983341834507883
7168.0,0.005285521503537893
7680.0,-0.00031054209102876484
8192.0,-0.0092503996565938
9216.0,-0.0024163732305169106
10240.0,0.0030268351547420025
11264.0,-0.0012206216342747211
12288.0,-0.0008631888777017593
13312.0,0.003179998602718115
14336.0,0.0022285005543380976
end
