version,3.0
numOfCh,1
type,point
parent_name,40-cuts
ch_type,1_1
kcount,1
numberNandB,1
brightnessNandB,1
carpet pos,0
pc,0
Time (ms),CH1 Auto-Correlation
1.0,0.06617932766675949
2.0,0.06562665104866028
3.0,0.06507696211338043
4.0,0.06453889608383179
5.0,0.06400436908006668
6.0,0.06346539407968521
7.0,0.06293487548828125
8.0,0.06242591515183449
9.0,0.06191997602581978
10.0,0.06142757087945938
11.0,0.06094570457935333
12.0,0.06046213209629059
13.0,0.05998080223798752
14.0,0.05949695035815239
15.0,0.059023238718509674
16.0,0.05855051800608635
18.0,0.05764152109622955
20.0,0.05676658824086189
22.0,0.05592378228902817
24.0,0.0550965778529644
26.0,0.054260045289993286
28.0,0.05341007933020592
30.0,0.05256703123450279
32.0,0.05175204947590828
36.0,0.05025222897529602
40.0,0.048923615366220474
44.0,0.04768841341137886
48.0,0.04656533524394035
52.0,0.04553348198533058
56.0,0.044540904462337494
60.0,0.04357433319091797
64.0,0.04266355186700821
72.0,0.04101097583770752
80.0,0.03923226520419121
88.0,0.037552036345005035
96.0,0.036094482988119125
104.0,0.03477688878774643
112.0,0.03364310786128044
120.0,0.032681453973054886
128.0,0.031901467591524124
144.0,0.03028680384159088
160.0,0.028644226491451263
176.0,0.026856372132897377
192.0,0.025043083354830742
208.0,0.023293694481253624
224.0,0.02158536948263645
240.0,0.0199832022190094
256.0,0.018101023510098457
288.0,0.014079813845455647
320.0,0.011015594005584717
352.0,0.007510730065405369
384.0,0.003797054523602128
416.0,0.001967355376109481
448.0,-0.0002567155461292714
480.0,-0.0023537224624305964
512.0,-0.004121428821235895
576.0,-0.0017558338586241007
640.0,-0.0015621089842170477
704.0,-0.003020073752850294
768.0,-0.0035839227493852377
832.0,-0.00239889370277524
896.0,-0.0022015299182385206
960.0,-0.0010352799436077476
1024.0,0.0005277088494040072
1152.0,-0.0015304302796721458
1280.0,-0.004042889457195997
1408.0,-0.0019173682667315006
1536.0,0.0016562402015551925
1664.0,0.008721980266273022
1792.0,0.010339207015931606
1920.0,0.009179099462926388
2048.0,0.01042194664478302
2304.0,0.0034419065341353416
2560.0,-0.004852277226746082
2816.0,-0.008712753653526306
3072.0,-0.003069373546168208
3328.0,-0.003698191372677684
3584.0,-0.00927438773214817
3840.0,-0.008608474396169186
4096.0,-0.00944465771317482
4608.0,-0.00984714925289154
5120.0,-0.001876665628515184
5632.0,-0.0014231414534151554
6144.0,-0.009764258749783039
6656.0,-0.009984130039811134
7168.0,0.00988535676151514
7680.0,0.013899571262300014
8192.0,-0.00397363631054759
9216.0,0.012190117500722408
10240.0,0.001199063379317522
11264.0,-0.0036212296690791845
12288.0,-0.0021397636737674475
13312.0,-0.0110267773270607
14336.0,0.004558381624519825
end
