version,3.0
numOfCh,1
type,point
parent_name,40-cuts
ch_type,1_1
kcount,1
numberNandB,1
brightnessNandB,1
carpet pos,0
pc,0
Time (ms),CH1 Auto-Correlation
1.0,0.05902257189154625
2.0,0.05836902931332588
3.0,0.05770599842071533
4.0,0.057068418711423874
5.0,0.05643688514828682
6.0,0.05581764876842499
7.0,0.05521632730960846
8.0,0.05461420863866806
9.0,0.05401986092329025
10.0,0.0534241646528244
11.0,0.05284237489104271
12.0,0.052267175167798996
13.0,0.051695190370082855
14.0,0.05111830309033394
15.0,0.050541192293167114
16.0,0.049980875104665756
18.0,0.04891321435570717
20.0,0.04786756634712219
22.0,0.046877190470695496
24.0,0.0458822026848793
26.0,0.04490405693650246
28.0,0.043909989297389984
30.0,0.04291544482111931
32.0,0.04196810722351074
36.0,0.04013238102197647
40.0,0.038300156593322754
44.0,0.03653141111135483
48.0,0.03487628698348999
52.0,0.0332600474357605
56.0,0.03167080879211426
60.0,0.030173471197485924
64.0,0.02872212789952755
72.0,0.025858307257294655
80.0,0.02315734140574932
88.0,0.020718885585665703
96.0,0.01867004856467247
104.0,0.016776621341705322
112.0,0.014871460385620594
120.0,0.013030213303864002
128.0,0.01166066899895668
144.0,0.008966978639364243
160.0,0.006896115839481354
176.0,0.005124413874000311
192.0,0.0032248739153146744
208.0,0.0013491978170350194
224.0,2.2025478756404482e-05
240.0,-0.0012183086946606636
256.0,-0.0018178547034040093
288.0,-0.0027389186434447765
320.0,-0.0012744400883093476
352.0,0.0012526966165751219
384.0,0.004014347214251757
416.0,0.004535037092864513
448.0,0.005164971575140953
480.0,0.006020931527018547
512.0,0.0060148825868964195
576.0,0.0073877787217497826
640.0,0.002926490968093276
704.0,0.00070491450605914
768.0,0.001072112936526537
832.0,0.0010003427742049098
896.0,0.0016896080924198031
960.0,0.005100909620523453
1024.0,0.0034007953945547342
1152.0,-0.004854823928326368
1280.0,-0.002722260309383273
1408.0,0.0005986835458315909
1536.0,0.0005413410253822803
1664.0,-0.0019522872753441334
1792.0,-0.0004477134207263589
1920.0,0.0014895520871505141
2048.0,0.003440719796344638
2304.0,-0.0027718525379896164
2560.0,0.001318118185736239
2816.0,-0.00497452262789011
3072.0,-0.005752608645707369
3328.0,-0.007408869452774525
3584.0,-0.008734205737709999
3840.0,-0.005538947880268097
4096.0,0.003021475626155734
4608.0,-0.0069581568241119385
5120.0,0.0013830465031787753
5632.0,-0.0038499629590660334
6144.0,0.0024071703664958477
6656.0,0.003938931040465832
7168.0,0.003893339540809393
7680.0,0.001117103616707027
8192.0,0.002248008269816637
9216.0,0.0007356323767453432
10240.0,0.0003674674953799695
11264.0,-0.0013553453609347343
12288.0,-0.0019868677482008934
13312.0,-0.003600244177505374
14336.0,-0.003403698094189167
end
