version,3.0
numOfCh,1
type,point
parent_name,40-cuts
ch_type,1_1
kcount,1
numberNandB,1
brightnessNandB,1
carpet pos,0
pc,0
Time (ms),CH1 Auto-Correlation
1.0,0.022800909355282784
2.0,0.022561416029930115
3.0,0.022325262427330017
4.0,0.022092189639806747
5.0,0.021868359297513962
6.0,0.02164304070174694
7.0,0.021415870636701584
8.0,0.021192388609051704
9.0,0.020968670025467873
10.0,0.02074718102812767
11.0,0.020525243133306503
12.0,0.020305130630731583
13.0,0.02008219249546528
14.0,0.01986212655901909
15.0,0.019651709124445915
16.0,0.019444113597273827
18.0,0.01904870942234993
20.0,0.018655383959412575
22.0,0.01826651766896248
24.0,0.017897311598062515
26.0,0.01754245162010193
28.0,0.017194712534546852
30.0,0.016850033774971962
32.0,0.016510101035237312
36.0,0.01583392173051834
40.0,0.01518920622766018
44.0,0.01455255039036274
48.0,0.013941259123384953
52.0,0.013357652351260185
56.0,0.012801115401089191
60.0,0.012270252220332623
64.0,0.011750797741115093
72.0,0.01081107184290886
80.0,0.009923208504915237
88.0,0.009031867608428001
96.0,0.008137553930282593
104.0,0.007328490260988474
112.0,0.006661080289632082
120.0,0.00611598277464509
128.0,0.005798630882054567
144.0,0.005671534687280655
160.0,0.005637053865939379
176.0,0.005477059632539749
192.0,0.005195890553295612
208.0,0.005083490628749132
224.0,0.005236891098320484
240.0,0.005387819372117519
256.0,0.005229466129094362
288.0,0.004201306961476803
320.0,0.0034322442952543497
352.0,0.003010507207363844
384.0,0.0029241826850920916
416.0,0.0028956413734704256
448.0,0.0024990185629576445
480.0,0.002159619005396962
512.0,0.00199147779494524
576.0,0.0019904726650565863
640.0,0.0014175270916894078
704.0,0.0004159526724833995
768.0,-0.00034122003125958145
832.0,-0.0005428941803984344
896.0,0.0014495122013613582
960.0,0.0032075238414108753
1024.0,0.0026678377762436867
1152.0,0.0012351355981081724
1280.0,-0.0012015759712085128
1408.0,-0.003760657040402293
1536.0,-0.003823211882263422
1664.0,-0.004121661186218262
1792.0,-0.003586197504773736
1920.0,-0.0016568723367527127
2048.0,-0.0008813622989691794
2304.0,0.00010478478361619636
2560.0,-0.0007556009804829955
2816.0,-0.0017328320536762476
3072.0,0.0005369552527554333
3328.0,0.0003576544695533812
3584.0,-0.00033218596945516765
3840.0,-0.0024783220142126083
4096.0,0.000421148375608027
4608.0,0.0020336098968982697
5120.0,0.0010233608772978187
5632.0,0.00158150983043015
6144.0,-0.003202244872227311
6656.0,-0.0017496199579909444
7168.0,-0.004329754039645195
7680.0,-0.0001953471073647961
8192.0,-0.003712292527779937
9216.0,0.0010823523625731468
10240.0,-0.0006735567003488541
11264.0,0.0007181855035014451
12288.0,0.0018187391106039286
13312.0,-0.00023746115039102733
14336.0,5.7081091654254124e-05
end
