version,3.0
numOfCh,1
type,point
parent_name,40-cuts
ch_type,1_1
kcount,1
numberNandB,1
brightnessNandB,1
carpet pos,0
pc,0
Time (ms),CH1 Auto-Correlation
1.0,0.1087772473692894
2.0,0.10789777338504791
3.0,0.10702954232692719
4.0,0.10619113594293594
5.0,0.1053699404001236
6.0,0.10457125306129456
7.0,0.1038113385438919
8.0,0.10305896401405334
9.0,0.10231241583824158
10.0,0.10157166421413422
11.0,0.10082848370075226
12.0,0.10009699314832687
13.0,0.09939207881689072
14.0,0.09870262444019318
15.0,0.09803757816553116
16.0,0.09737280756235123
18.0,0.0960802510380745
20.0,0.09481391310691833
22.0,0.09359122812747955
24.0,0.09240496158599854
26.0,0.09130723029375076
28.0,0.09023932367563248
30.0,0.0891384407877922
32.0,0.08803573995828629
36.0,0.08594779670238495
40.0,0.08384691923856735
44.0,0.08172059059143066
48.0,0.07971903681755066
52.0,0.0777277871966362
56.0,0.07590536028146744
60.0,0.07406213879585266
64.0,0.07227753102779388
72.0,0.06902547925710678
80.0,0.0659259557723999
88.0,0.06285770982503891
96.0,0.06003124639391899
104.0,0.05717046931385994
112.0,0.054684605449438095
120.0,0.05247505381703377
128.0,0.05014706775546074
144.0,0.04577713459730148
160.0,0.04147863760590553
176.0,0.03768621012568474
192.0,0.03455791622400284
208.0,0.032340291887521744
224.0,0.030897239223122597
240.0,0.03024332970380783
256.0,0.029387904331088066
288.0,0.027227941900491714
320.0,0.02616589330136776
352.0,0.02647448517382145
384.0,0.026444396004080772
416.0,0.02551245503127575
448.0,0.025052884593605995
480.0,0.023598473519086838
512.0,0.021671893075108528
576.0,0.02024892158806324
640.0,0.022224757820367813
704.0,0.02169637940824032
768.0,0.024529794231057167
832.0,0.024375198408961296
896.0,0.016765402629971504
960.0,0.007533510681241751
1024.0,-1.166516994999256e-05
1152.0,-0.001965586794540286
1280.0,0.00469242362305522
1408.0,0.007010636385530233
1536.0,0.01654413901269436
1664.0,0.016221515834331512
1792.0,0.00764560466632247
1920.0,0.01166986208409071
2048.0,0.014440045692026615
2304.0,0.00916077196598053
2560.0,0.009524831548333168
2816.0,0.0007228604517877102
3072.0,0.0005765914102084935
3328.0,0.00786274578422308
3584.0,5.539769335882738e-05
3840.0,-0.004470144398510456
4096.0,0.00041844701627269387
4608.0,-0.0033868763130158186
5120.0,-0.005753910169005394
5632.0,-0.018387245014309883
6144.0,-0.018838414922356606
6656.0,-0.007030636537820101
7168.0,-0.006328793242573738
7680.0,-0.015975141897797585
8192.0,-0.018460111692547798
9216.0,-0.010891352780163288
10240.0,-0.02079722099006176
11264.0,-0.014989592134952545
12288.0,-0.010411012917757034
13312.0,0.005406145937740803
14336.0,0.039126455783843994
end
