version,3.0
numOfCh,1
type,point
parent_name,40-cuts
ch_type,1_1
kcount,1
numberNandB,1
brightnessNandB,1
carpet pos,0
pc,0
Time (ms),CH1 Auto-Correlation
1.0,0.07348622381687164
2.0,0.07296783477067947
3.0,0.07244657725095749
4.0,0.0719134509563446
5.0,0.07137227058410645
6.0,0.0708293691277504
7.0,0.07029823958873749
8.0,0.06975669413805008
9.0,0.06922314316034317
10.0,0.06868786364793777
11.0,0.06817182153463364
12.0,0.06766554713249207
13.0,0.06716888397932053
14.0,0.06666357815265656
15.0,0.06615190207958221
16.0,0.06564934551715851
18.0,0.06468576192855835
20.0,0.06373811513185501
22.0,0.06282080709934235
24.0,0.06193394586443901
26.0,0.06106084957718849
28.0,0.06019166111946106
30.0,0.05934850499033928
32.0,0.058541346341371536
36.0,0.05703995004296303
40.0,0.05569465458393097
44.0,0.05447160452604294
48.0,0.053380463272333145
52.0,0.05237643048167229
56.0,0.05146922916173935
60.0,0.0506095327436924
64.0,0.04981348291039467
72.0,0.04826246574521065
80.0,0.04683232679963112
88.0,0.045493192970752716
96.0,0.04426080733537674
104.0,0.043161191046237946
112.0,0.04203202575445175
120.0,0.04079534485936165
128.0,0.039567817002534866
144.0,0.03802916035056114
160.0,0.03698495030403137
176.0,0.035686615854501724
192.0,0.034159306436777115
208.0,0.03265560790896416
224.0,0.03177940100431442
240.0,0.03093942254781723
256.0,0.03034799173474312
288.0,0.02940748818218708
320.0,0.026480097323656082
352.0,0.02307349070906639
384.0,0.02065175399184227
416.0,0.019469277933239937
448.0,0.018900446593761444
480.0,0.018739398568868637
512.0,0.018261931836605072
576.0,0.014247506856918335
640.0,0.012124279513955116
704.0,0.010231015272438526
768.0,0.007359610870480537
832.0,0.005504108965396881
896.0,0.003255777293816209
960.0,0.003590493928641081
1024.0,0.005429381504654884
1152.0,0.008724969811737537
1280.0,0.007286863401532173
1408.0,0.007693687919527292
1536.0,0.005444700829684734
1664.0,0.005414025858044624
1792.0,0.0036662479396909475
1920.0,0.006082292180508375
2048.0,0.005450739990919828
2304.0,0.012414301745593548
2560.0,0.017131417989730835
2816.0,0.015971394255757332
3072.0,0.01404514443129301
3328.0,0.007422332651913166
3584.0,0.000948093831539154
3840.0,0.005566790234297514
4096.0,0.005731926299631596
4608.0,-0.00218591233715415
5120.0,-0.0008062176639214158
5632.0,-0.002087540226057172
6144.0,-0.0015121016185730696
6656.0,-0.00966216903179884
7168.0,-0.01223369687795639
7680.0,-0.012045768089592457
8192.0,-0.02000560611486435
9216.0,-0.017142947763204575
10240.0,-0.01639210246503353
11264.0,-0.02222438156604767
12288.0,-0.004433921072632074
13312.0,-0.021224355325102806
14336.0,0.008320883847773075
end
