version,3.0
numOfCh,1
type,point
parent_name,40-cuts
ch_type,1_1
kcount,1
numberNandB,1
brightnessNandB,1
carpet pos,0
pc,0
Time (ms),CH1 Auto-Correlation
1.0,0.08351083844900131
2.0,0.08287830650806427
3.0,0.08224847912788391
4.0,0.08162731677293777
5.0,0.08100543171167374
6.0,0.08038218319416046
7.0,0.07978130877017975
8.0,0.0791911706328392
9.0,0.07860574871301651
10.0,0.07803383469581604
11.0,0.07746327668428421
12.0,0.07689971476793289
13.0,0.07634422183036804
14.0,0.07581087201833725
15.0,0.07525958120822906
16.0,0.07470757514238358
18.0,0.07361175864934921
20.0,0.07256705313920975
22.0,0.0715506300330162
24.0,0.07053858786821365
26.0,0.06953571736812592
28.0,0.06853637099266052
30.0,0.06756827235221863
32.0,0.06662033498287201
36.0,0.06479614973068237
40.0,0.06306134909391403
44.0,0.061362333595752716
48.0,0.05974152311682701
52.0,0.058154188096523285
56.0,0.05663572624325752
60.0,0.05512366443872452
64.0,0.053592704236507416
72.0,0.05063284933567047
80.0,0.047726769000291824
88.0,0.0449746735394001
96.0,0.042507484555244446
104.0,0.04010801017284393
112.0,0.03770790621638298
120.0,0.035429712384939194
128.0,0.03341056406497955
144.0,0.03034311719238758
160.0,0.027627957984805107
176.0,0.025665409862995148
192.0,0.023905308917164803
208.0,0.022723494097590446
224.0,0.021489951759576797
240.0,0.020702611654996872
256.0,0.02037155069410801
288.0,0.0186310987919569
320.0,0.01638115383684635
352.0,0.013208034448325634
384.0,0.010219289921224117
416.0,0.007565126288682222
448.0,0.005839327350258827
480.0,0.0059138936921954155
512.0,0.006417230702936649
576.0,0.00713057117536664
640.0,0.006768479011952877
704.0,0.006685647182166576
768.0,0.005213052500039339
832.0,0.0024325386621057987
896.0,0.0006942721083760262
960.0,0.0004126100684516132
1024.0,5.481072730617598e-05
1152.0,-0.0009867004118859768
1280.0,0.003248264780268073
1408.0,0.006626699585467577
1536.0,0.0044578383676707745
1664.0,0.004997246898710728
1792.0,0.0051167006604373455
1920.0,0.009461792185902596
2048.0,0.011986787430942059
2304.0,0.011493343859910965
2560.0,0.010862104594707489
2816.0,0.00778187857940793
3072.0,0.010454235598444939
3328.0,0.003180436324328184
3584.0,0.004535168409347534
3840.0,0.0030962240416556597
4096.0,-0.0009300074889324605
4608.0,-0.006662516389042139
5120.0,-0.0005721446359530091
5632.0,0.004396712873131037
6144.0,-0.009409450925886631
6656.0,-0.010864177718758583
7168.0,-0.012010937556624413
7680.0,0.00017905420099850744
8192.0,-0.008890904486179352
9216.0,-0.013560215942561626
10240.0,-0.010440845042467117
11264.0,-0.01063686702400446
12288.0,-0.003467082977294922
13312.0,-0.0033151530660688877
14336.0,0.002275503007695079
end
