version,3.0
numOfCh,1
type,point
parent_name,40-cuts
ch_type,1_1
kcount,1
numberNandB,1
brightnessNandB,1
carpet pos,0
pc,0
Time (ms),CH1 Auto-Correlation
1.0,0.0847271978855133
2.0,0.08402509987354279
3.0,0.08334238827228546
4.0,0.08266214281320572
5.0,0.08197961747646332
6.0,0.08132597804069519
7.0,0.08068127185106277
8.0,0.08004125207662582
9.0,0.07941532880067825
10.0,0.07879616320133209
11.0,0.07818698137998581
12.0,0.07757143676280975
13.0,0.07697878777980804
14.0,0.076395183801651
15.0,0.07581101357936859
16.0,0.07523161917924881
18.0,0.0741046741604805
20.0,0.0730162039399147
22.0,0.0719592496752739
24.0,0.07092642039060593
26.0,0.06989198178052902
28.0,0.06889963895082474
30.0,0.06795799732208252
32.0,0.06704222410917282
36.0,0.06530817598104477
40.0,0.06376054137945175
44.0,0.062373384833335876
48.0,0.061044078320264816
52.0,0.059792060405015945
56.0,0.05858571454882622
60.0,0.05743783339858055
64.0,0.05637324973940849
72.0,0.054346852004528046
80.0,0.05230431258678436
88.0,0.05022859200835228
96.0,0.04811042919754982
104.0,0.0461609922349453
112.0,0.044442880898714066
120.0,0.042758334428071976
128.0,0.04080657660961151
144.0,0.037783823907375336
160.0,0.03600211441516876
176.0,0.03460576757788658
192.0,0.03336260840296745
208.0,0.03235342726111412
224.0,0.031567398458719254
240.0,0.03138304501771927
256.0,0.030952567234635353
288.0,0.027866007760167122
320.0,0.025492286309599876
352.0,0.022638212889432907
384.0,0.020242197439074516
416.0,0.017319681122899055
448.0,0.015076643787324429
480.0,0.01352740079164505
512.0,0.012390835210680962
576.0,0.013815336860716343
640.0,0.013647249899804592
704.0,0.011970411986112595
768.0,0.011498629115521908
832.0,0.00954143051058054
896.0,0.006940851453691721
960.0,0.008282910101115704
1024.0,0.012224389240145683
1152.0,0.007055661175400019
1280.0,0.004100729711353779
1408.0,0.007820846512913704
1536.0,0.005371054634451866
1664.0,0.0037836215924471617
1792.0,0.005527868401259184
1920.0,0.0008798787603154778
2048.0,-0.00039283899241127074
2304.0,0.0028383899480104446
2560.0,-0.002361064311116934
2816.0,-0.011476672254502773
3072.0,-0.016871266067028046
3328.0,-0.015170170925557613
3584.0,-0.01242115069180727
3840.0,-0.012113891541957855
4096.0,-0.01495293714106083
4608.0,-0.00728087592869997
5120.0,-0.0018810068722814322
5632.0,0.0025206981226801872
6144.0,0.004766569938510656
6656.0,0.010260816663503647
7168.0,0.01831391267478466
7680.0,-0.006495300214737654
8192.0,-0.007536969147622585
9216.0,-0.009574742056429386
10240.0,-0.016814623028039932
11264.0,0.005263123195618391
12288.0,0.0041333455592393875
13312.0,-0.0012026062468066812
14336.0,0.018102549016475677
end
