version,3.0
numOfCh,1
type,point
parent_name,40-cuts
ch_type,1_1
kcount,1
numberNandB,1
brightnessNandB,1
carpet pos,0
pc,0
Time (ms),CH1 Auto-Correlation
1.0,0.023715006187558174
2.0,0.023419346660375595
3.0,0.02312226966023445
4.0,0.02282850444316864
5.0,0.022547826170921326
6.0,0.0222768634557724
7.0,0.022008271887898445
8.0,0.02174067683517933
9.0,0.021481817588210106
10.0,0.02122201770544052
11.0,0.020965440198779106
12.0,0.020713942125439644
13.0,0.02047623321413994
14.0,0.02023901604115963
15.0,0.020008644089102745
16.0,0.01978130079805851
18.0,0.019325191155076027
20.0,0.018898440524935722
22.0,0.018495969474315643
24.0,0.018100526183843613
26.0,0.01772206649184227
28.0,0.017366191372275352
30.0,0.01702292077243328
32.0,0.016670802608132362
36.0,0.015982484444975853
40.0,0.015303213149309158
44.0,0.014636518433690071
48.0,0.013994378037750721
52.0,0.013395033776760101
56.0,0.012861144728958607
60.0,0.012337973341345787
64.0,0.011852349154651165
72.0,0.01103691104799509
80.0,0.010337081737816334
88.0,0.009689517319202423
96.0,0.00914226844906807
104.0,0.008637207560241222
112.0,0.008070473559200764
120.0,0.007584174629300833
128.0,0.007120965979993343
144.0,0.00655773002654314
160.0,0.00592849450185895
176.0,0.00542644364759326
192.0,0.004955184180289507
208.0,0.004527709912508726
224.0,0.004304264672100544
240.0,0.004242295864969492
256.0,0.003874349407851696
288.0,0.0026469940785318613
320.0,0.0013561096275225282
352.0,6.0078473325120285e-05
384.0,-0.0006495702546089888
416.0,-0.0009727097349241376
448.0,-0.000511932885274291
480.0,0.0005721883499063551
512.0,0.0010375475976616144
576.0,6.650495924986899e-05
640.0,-0.0010739013087004423
704.0,-0.001585712074302137
768.0,-0.0013057098258286715
832.0,-0.00030149557278491557
896.0,0.00023514132772106677
960.0,0.0005436364444904029
1024.0,0.00046613047015853226
1152.0,0.00044549599988386035
1280.0,0.0003299503296148032
1408.0,0.0008519779657945037
1536.0,0.0014495000941678882
1664.0,-0.000601686944719404
1792.0,-0.0007859262404963374
1920.0,-0.0007847282686270773
2048.0,0.0013389139203354716
2304.0,0.0007192397606559098
2560.0,0.0004623016284313053
2816.0,-0.0014314268482849002
3072.0,-0.00026522792177274823
3328.0,0.00013751149526797235
3584.0,-0.0019350654911249876
3840.0,-0.0009089747909456491
4096.0,-0.0019436696311458945
4608.0,-0.0004843859642278403
5120.0,-0.0001427171955583617
5632.0,-0.002048112917691469
6144.0,-0.0012514484114944935
6656.0,0.002836225787177682
7168.0,-9.944940393324941e-05
7680.0,7.630716572748497e-05
8192.0,0.0005789914866909385
9216.0,0.0015225919196382165
10240.0,0.0006517399451695383
11264.0,-0.0014131187926977873
12288.0,-0.0039190989919006824
13312.0,-0.0031613341998308897
14336.0,-0.004204624332487583
end
