version,3.0
numOfCh,1
type,point
parent_name,40-cuts
ch_type,1_1
kcount,1
numberNandB,1
brightnessNandB,1
carpet pos,0
pc,0
Time (ms),CH1 Auto-Correlation
1.0,0.03591419756412506
2.0,0.035637304186820984
3.0,0.03536694124341011
4.0,0.03510123863816261
5.0,0.03483356907963753
6.0,0.03457214683294296
7.0,0.0343121662735939
8.0,0.03405359759926796
9.0,0.03378959372639656
10.0,0.03353772312402725
11.0,0.03328165039420128
12.0,0.03302792087197304
13.0,0.0327802449464798
14.0,0.032534822821617126
15.0,0.032289277762174606
16.0,0.03204598277807236
18.0,0.03157617524266243
20.0,0.03112553246319294
22.0,0.030684638768434525
24.0,0.03023303858935833
26.0,0.029780779033899307
28.0,0.029326030984520912
30.0,0.028892923146486282
32.0,0.02845616079866886
36.0,0.027615632861852646
40.0,0.026773937046527863
44.0,0.02596634440124035
48.0,0.025197438895702362
52.0,0.024440668523311615
56.0,0.023684613406658173
60.0,0.022903572767972946
64.0,0.022112637758255005
72.0,0.02073073759675026
80.0,0.019530510529875755
88.0,0.01859366148710251
96.0,0.017714571207761765
104.0,0.01687355898320675
112.0,0.016028720885515213
120.0,0.015235470607876778
128.0,0.014513961039483547
144.0,0.01324981264770031
160.0,0.01231206301599741
176.0,0.011438938789069653
192.0,0.010928594507277012
208.0,0.010345274582505226
224.0,0.009613361209630966
240.0,0.00877626333385706
256.0,0.007997794076800346
288.0,0.006490561179816723
320.0,0.00516147818416357
352.0,0.0040938397869467735
384.0,0.0035815679002553225
416.0,0.0035421496722847223
448.0,0.003704825649037957
480.0,0.0038249921053647995
512.0,0.0035277155693620443
576.0,0.002354143187403679
640.0,0.0019548318814486265
704.0,0.0001438101171515882
768.0,0.0002805603144224733
832.0,0.0018203614745289087
896.0,0.0011644157348200679
960.0,-0.00036267333780415356
1024.0,-0.0002730141277424991
1152.0,0.0014755483716726303
1280.0,0.0017988982144743204
1408.0,0.0015494751278311014
1536.0,-0.00025469038519077003
1664.0,-0.0015594945289194584
1792.0,-0.004139253403991461
1920.0,-0.007237208541482687
2048.0,-0.008199446834623814
2304.0,-0.0055189961567521095
2560.0,-0.00042457866948097944
2816.0,-0.0003497647703625262
3072.0,0.0018331219907850027
3328.0,0.0029550730250775814
3584.0,0.004603676963597536
3840.0,0.0030887331813573837
4096.0,0.0034906179644167423
4608.0,0.00224943645298481
5120.0,0.0028345000464469194
5632.0,-0.0007291559595614672
6144.0,-0.0004792801628354937
6656.0,-0.00025616082712076604
7168.0,-0.0028820482548326254
7680.0,-0.00026129267644137144
8192.0,-0.001019814284518361
9216.0,-0.0024909900967031717
10240.0,-0.003101861570030451
11264.0,-0.0030389216262847185
12288.0,-0.0023166288156062365
13312.0,-0.0027131966780871153
14336.0,-0.009248390793800354
end
