version,3.0
numOfCh,1
type,point
parent_name,40-cuts
ch_type,1_1
kcount,1
numberNandB,1
brightnessNandB,1
carpet pos,0
pc,0
Time (ms),CH1 Auto-Correlation
1.0,0.11415844410657883
2.0,0.11327067017555237
3.0,0.11238621175289154
4.0,0.11149084568023682
5.0,0.11061913520097733
6.0,0.1097467914223671
7.0,0.10888278484344482
8.0,0.1080201044678688
9.0,0.1071743294596672
10.0,0.10633723437786102
11.0,0.10550637543201447
12.0,0.10466524213552475
13.0,0.10384698212146759
14.0,0.10304273664951324
15.0,0.10226013511419296
16.0,0.1014883816242218
18.0,0.0999750867486
20.0,0.09851715713739395
22.0,0.0970584899187088
24.0,0.0956394150853157
26.0,0.09422029554843903
28.0,0.09280402958393097
30.0,0.09139197319746017
32.0,0.08999459445476532
36.0,0.0872889831662178
40.0,0.08471278846263885
44.0,0.08220819383859634
48.0,0.07971995323896408
52.0,0.07741240411996841
56.0,0.07536888122558594
60.0,0.07347147166728973
64.0,0.071627177298069
72.0,0.06823913007974625
80.0,0.06524977833032608
88.0,0.06273398548364639
96.0,0.0605156309902668
104.0,0.058399748057127
112.0,0.05627027526497841
120.0,0.05442212522029877
128.0,0.05242165923118591
144.0,0.04807373881340027
160.0,0.044099826365709305
176.0,0.03959529474377632
192.0,0.035718437284231186
208.0,0.03249925374984741
224.0,0.02966206520795822
240.0,0.026795726269483566
256.0,0.024152690544724464
288.0,0.02040492184460163
320.0,0.019450055435299873
352.0,0.018615305423736572
384.0,0.018103402107954025
416.0,0.017542939633131027
448.0,0.018436875194311142
480.0,0.01787967048585415
512.0,0.016642365604639053
576.0,0.013112795539200306
640.0,0.011279777623713017
704.0,0.011194423772394657
768.0,0.010761262848973274
832.0,0.011314988136291504
896.0,0.008081440813839436
960.0,0.006456994451582432
1024.0,0.00595941673964262
1152.0,0.0029312269762158394
1280.0,0.01420353539288044
1408.0,0.011072761379182339
1536.0,0.008313238620758057
1664.0,0.017643602564930916
1792.0,0.022272834554314613
1920.0,0.01855931058526039
2048.0,0.012424060143530369
2304.0,0.0046846903860569
2560.0,0.0012985692592337728
2816.0,0.0028749164193868637
3072.0,0.009379173628985882
3328.0,0.00795680284500122
3584.0,0.013873185031116009
3840.0,0.010302972048521042
4096.0,-8.780330972513184e-05
4608.0,-0.00021473171364050359
5120.0,-0.0022064000368118286
5632.0,0.00043563457438722253
6144.0,-0.014373465441167355
6656.0,-0.018452031537890434
7168.0,0.008096390403807163
7680.0,-0.013087502680718899
8192.0,-0.011898710392415524
9216.0,-0.017874794080853462
10240.0,-0.02336079813539982
11264.0,-0.02397189289331436
12288.0,-0.016861481592059135
13312.0,-0.009117982350289822
14336.0,-0.008717148564755917
end
