version,3.0
numOfCh,1
type,point
parent_name,40-cuts
ch_type,1_1
kcount,1
numberNandB,1
brightnessNandB,1
carpet pos,0
pc,0
Time (ms),CH1 Auto-Correlation
1.0,0.07070714235305786
2.0,0.07013362646102905
3.0,0.0695604756474495
4.0,0.06899408996105194
5.0,0.06841767579317093
6.0,0.06783290952444077
7.0,0.06727103143930435
8.0,0.0667177364230156
9.0,0.06617272645235062
10.0,0.0656447783112526
11.0,0.06513631343841553
12.0,0.06461235880851746
13.0,0.06410472095012665
14.0,0.06359140574932098
15.0,0.06308887898921967
16.0,0.06259369850158691
18.0,0.06163593381643295
20.0,0.06068442761898041
22.0,0.059757884591817856
24.0,0.05881011486053467
26.0,0.05787548050284386
28.0,0.056946657598018646
30.0,0.056020915508270264
32.0,0.05510168522596359
36.0,0.053340379148721695
40.0,0.05171554908156395
44.0,0.05012866482138634
48.0,0.04865840822458267
52.0,0.04727204144001007
56.0,0.04596947506070137
60.0,0.04472711682319641
64.0,0.043570272624492645
72.0,0.041427865624427795
80.0,0.039416100829839706
88.0,0.03771818429231644
96.0,0.03631231188774109
104.0,0.034840065985918045
112.0,0.033435508608818054
120.0,0.032135602086782455
128.0,0.031002050265669823
144.0,0.02875186689198017
160.0,0.027225274592638016
176.0,0.02573305554687977
192.0,0.024205783382058144
208.0,0.022720953449606895
224.0,0.02155979536473751
240.0,0.0204212237149477
256.0,0.019715843722224236
288.0,0.01784643717110157
320.0,0.01596766896545887
352.0,0.016004882752895355
384.0,0.016884583979845047
416.0,0.017363056540489197
448.0,0.017842337489128113
480.0,0.017452780157327652
512.0,0.016521237790584564
576.0,0.015353959053754807
640.0,0.01465381495654583
704.0,0.013883041217923164
768.0,0.01450510136783123
832.0,0.018169358372688293
896.0,0.019946103915572166
960.0,0.018044965341687202
1024.0,0.013705607503652573
1152.0,0.0061556794680655
1280.0,0.008796031586825848
1408.0,0.007031009532511234
1536.0,0.0022995269391685724
1664.0,-0.0035604010336101055
1792.0,-0.007593080401420593
1920.0,-0.0029835293535143137
2048.0,-0.0084877023473382
2304.0,-0.004867777694016695
2560.0,-4.9052950998884626e-06
2816.0,-0.0024430667981505394
3072.0,-0.0043988595716655254
3328.0,0.0023886181879788637
3584.0,0.004486947786062956
3840.0,0.00016619534289930016
4096.0,0.00107459572609514
4608.0,-0.00023933607735671103
5120.0,-0.0052470071241259575
5632.0,-0.010518095456063747
6144.0,-0.00949105154722929
6656.0,-0.01942451484501362
7168.0,-0.016441695392131805
7680.0,-0.014722328633069992
8192.0,-0.015081354416906834
9216.0,0.0007273732335306704
10240.0,0.0012384771835058928
11264.0,-0.001987873110920191
12288.0,0.0010020405752584338
13312.0,0.013686001300811768
14336.0,0.020770028233528137
end
