version,3.0
numOfCh,1
type,point
parent_name,40-cuts
ch_type,1_1
kcount,1
numberNandB,1
brightnessNandB,1
carpet pos,0
pc,0
Time (ms),CH1 Auto-Correlation
1.0,0.07215139269828796
2.0,0.07146237045526505
3.0,0.07076909393072128
4.0,0.0700877234339714
5.0,0.0694170594215393
6.0,0.06874516606330872
7.0,0.0680873915553093
8.0,0.06743178516626358
9.0,0.06679236888885498
10.0,0.06615154445171356
11.0,0.06550897657871246
12.0,0.06488887965679169
13.0,0.06427289545536041
14.0,0.06366529315710068
15.0,0.06306488811969757
16.0,0.06245829537510872
18.0,0.061259716749191284
20.0,0.060075100511312485
22.0,0.05892440304160118
24.0,0.057800937443971634
26.0,0.05670477822422981
28.0,0.055629223585128784
30.0,0.0545983761548996
32.0,0.053570814430713654
36.0,0.05170039087533951
40.0,0.04993423819541931
44.0,0.04821696877479553
48.0,0.046457014977931976
52.0,0.044686250388622284
56.0,0.04299585521221161
60.0,0.04143395274877548
64.0,0.040043219923973083
72.0,0.03764120861887932
80.0,0.035640615969896317
88.0,0.033855047076940536
96.0,0.03214162215590477
104.0,0.030527081340551376
112.0,0.029356105253100395
120.0,0.028503842651844025
128.0,0.02773146517574787
144.0,0.025917377322912216
160.0,0.023886818438768387
176.0,0.022135216742753983
192.0,0.02081173099577427
208.0,0.019958235323429108
224.0,0.019331231713294983
240.0,0.018908318132162094
256.0,0.0189980361610651
288.0,0.020060840994119644
320.0,0.019083475694060326
352.0,0.0164524856954813
384.0,0.015184519812464714
416.0,0.013299288228154182
448.0,0.010587441734969616
480.0,0.00684011448174715
512.0,0.0037372761871665716
576.0,0.0004906498361378908
640.0,-0.0003965656505897641
704.0,-0.0008566115866415203
768.0,-0.0017363198567181826
832.0,-0.002975431503728032
896.0,-0.0017198245041072369
960.0,-0.0005232550320215523
1024.0,-0.0012210645945742726
1152.0,0.005538515280932188
1280.0,0.013743491843342781
1408.0,0.01439702045172453
1536.0,0.014961016364395618
1664.0,0.022900525480508804
1792.0,0.020160457119345665
1920.0,0.011867850087583065
2048.0,0.010100199840962887
2304.0,-0.0008091187919490039
2560.0,-0.004170394502580166
2816.0,-0.004344652406871319
3072.0,0.0020836188923567533
3328.0,0.00475527485832572
3584.0,-0.0005614396650344133
3840.0,-0.00354885240085423
4096.0,-0.007586246356368065
4608.0,-0.010663234628736973
5120.0,-0.012194355018436909
5632.0,-0.011141771450638771
6144.0,-0.01478500384837389
6656.0,-0.015074406750500202
7168.0,-0.013373259454965591
7680.0,-0.0037637667264789343
8192.0,-0.007550795562565327
9216.0,0.0004656655073631555
10240.0,0.0010850154794752598
11264.0,0.009924989193677902
12288.0,0.00962751917541027
13312.0,0.0030978056602180004
14336.0,0.004612648859620094
end
