version,3.0
numOfCh,1
type,point
parent_name,40-cuts
ch_type,1_1
kcount,1
numberNandB,1
brightnessNandB,1
carpet pos,0
pc,0
Time (ms),CH1 Auto-Correlation
1.0,0.05783037096261978
2.0,0.05722108855843544
3.0,0.05663197115063667
4.0,0.056040991097688675
5.0,0.055468037724494934
6.0,0.05490391328930855
7.0,0.0543658621609211
8.0,0.05383022129535675
9.0,0.053295690566301346
10.0,0.05277417600154877
11.0,0.052270106971263885
12.0,0.05177086219191551
13.0,0.051286522299051285
14.0,0.05079897493124008
15.0,0.050314657390117645
16.0,0.04983269423246384
18.0,0.04889799281954765
20.0,0.04797004535794258
22.0,0.04701535403728485
24.0,0.04607752338051796
26.0,0.04513978958129883
28.0,0.04424974322319031
30.0,0.04338075593113899
32.0,0.04255810007452965
36.0,0.04095279052853584
40.0,0.03942060098052025
44.0,0.03791200369596481
48.0,0.036373402923345566
52.0,0.03489547222852707
56.0,0.03341957554221153
60.0,0.03197658807039261
64.0,0.030579745769500732
72.0,0.02808058075606823
80.0,0.02582627534866333
88.0,0.023896154016256332
96.0,0.022217171266674995
104.0,0.020724639296531677
112.0,0.019376346841454506
120.0,0.017750496044754982
128.0,0.016375111415982246
144.0,0.014677688479423523
160.0,0.013874433934688568
176.0,0.012794515118002892
192.0,0.01146605797111988
208.0,0.010496488772332668
224.0,0.009705730713903904
240.0,0.008494874462485313
256.0,0.006771712563931942
288.0,0.004491234198212624
320.0,0.00286254845559597
352.0,0.0018873718800023198
384.0,0.000805761490482837
416.0,-0.0005019306554459035
448.0,-0.0008778973133303225
480.0,-0.0005231640534475446
512.0,0.000292724696919322
576.0,-3.629704951890744e-05
640.0,-0.0020751231350004673
704.0,-0.0037558821495622396
768.0,-0.004237092100083828
832.0,-0.000952172908000648
896.0,0.00226804381236434
960.0,0.0011060915421694517
1024.0,0.00042675057193264365
1152.0,0.00016477859753649682
1280.0,-0.0005135211977176368
1408.0,0.0012978588929399848
1536.0,0.0013906210660934448
1664.0,0.0031620801892131567
1792.0,0.0027726413682103157
1920.0,0.0038326974026858807
2048.0,0.004511706065386534
2304.0,-0.002784124342724681
2560.0,-0.0055193426087498665
2816.0,-0.0027805527206510305
3072.0,0.00020470010349527001
3328.0,0.0003139248874504119
3584.0,-0.004266130737960339
3840.0,-0.004669188521802425
4096.0,0.0010425496147945523
4608.0,0.002887904876843095
5120.0,-0.007081207819283009
5632.0,-0.004469930659979582
6144.0,0.007724421564489603
6656.0,-0.0008782768272794783
7168.0,-0.006154289003461599
7680.0,3.8110702007543296e-05
8192.0,0.005190721713006496
9216.0,-0.004827754106372595
10240.0,-0.0038942815735936165
11264.0,-0.0039070285856723785
12288.0,0.013012797571718693
13312.0,-0.009916109032928944
14336.0,-0.00700258556753397
end
