version,3.0
numOfCh,1
type,point
parent_name,40-cuts
ch_type,1_1
kcount,1
numberNandB,1
brightnessNandB,1
carpet pos,0
pc,0
Time (ms),CH1 Auto-Correlation
1.0,0.029623715206980705
2.0,0.02935631386935711
3.0,0.02909662202000618
4.0,0.028837667778134346
5.0,0.028585035353899002
6.0,0.028343454003334045
7.0,0.028104407712817192
8.0,0.027859898284077644
9.0,0.02761736698448658
10.0,0.027383465319871902
11.0,0.027156047523021698
12.0,0.026930175721645355
13.0,0.026701154187321663
14.0,0.026477469131350517
15.0,0.026255842298269272
16.0,0.026039578020572662
18.0,0.025608716532588005
20.0,0.02518475614488125
22.0,0.024771468713879585
24.0,0.024369768798351288
26.0,0.02397671714425087
28.0,0.02359991893172264
30.0,0.02322925627231598
32.0,0.022858502343297005
36.0,0.022133009508252144
40.0,0.02142120711505413
44.0,0.020723693072795868
48.0,0.020062822848558426
52.0,0.019432341679930687
56.0,0.018808603286743164
60.0,0.018197856843471527
64.0,0.01760810986161232
72.0,0.016536053270101547
80.0,0.015555286779999733
88.0,0.014622041955590248
96.0,0.013724650256335735
104.0,0.01287419255822897
112.0,0.012041766196489334
120.0,0.011262994259595871
128.0,0.010528420098125935
144.0,0.00941881351172924
160.0,0.008578996174037457
176.0,0.007627050392329693
192.0,0.006814267951995134
208.0,0.0061949389055371284
224.0,0.005540018901228905
240.0,0.004988088738173246
256.0,0.00440204655751586
288.0,0.0034235939383506775
320.0,0.002715509384870529
352.0,0.0025106435641646385
384.0,0.0028580431826412678
416.0,0.0035841427743434906
448.0,0.004131816327571869
480.0,0.004091926850378513
512.0,0.003955405671149492
576.0,0.0035650343634188175
640.0,0.002588830655440688
704.0,0.0019015339203178883
768.0,0.0017517745727673173
832.0,0.0025344027671962976
896.0,0.0032749634701758623
960.0,0.0038665581960231066
1024.0,0.004002049565315247
1152.0,0.003906489349901676
1280.0,0.002830307697877288
1408.0,0.0014471093891188502
1536.0,0.0026078305672854185
1664.0,0.0027196400333195925
1792.0,0.002568769734352827
1920.0,0.0022196262143552303
2048.0,0.002318604849278927
2304.0,-0.0004393473209347576
2560.0,-0.002473182277753949
2816.0,-0.0036113369278609753
3072.0,-0.003659224836155772
3328.0,-0.0007034512818790972
3584.0,-0.0007940525538288057
3840.0,0.001924382522702217
4096.0,-0.0021570255048573017
4608.0,-0.0027031011413782835
5120.0,-0.0021579430904239416
5632.0,0.0007839021272957325
6144.0,-0.0031547972466796637
6656.0,-0.0036076458636671305
7168.0,-0.004332646261900663
7680.0,-0.0027252414729446173
8192.0,-0.005490811541676521
9216.0,0.0010386465582996607
10240.0,0.0013765861513093114
11264.0,0.0006017665727995336
12288.0,0.0010179069358855486
13312.0,0.0007430636323988438
14336.0,0.0024966271594166756
end
