version,3.0
numOfCh,1
type,point
parent_name,40-cuts
ch_type,1_1
kcount,1
numberNandB,1
brightnessNandB,1
carpet pos,0
pc,0
Time (ms),CH1 Auto-Correlation
1.0,0.03245178237557411
2.0,0.03216758742928505
3.0,0.03188560903072357
4.0,0.03161058574914932
5.0,0.03134193271398544
6.0,0.031075457111001015
7.0,0.03080720826983452
8.0,0.03054092451930046
9.0,0.03027506358921528
10.0,0.0300150103867054
11.0,0.02976486086845398
12.0,0.029509883373975754
13.0,0.029258400201797485
14.0,0.029007654637098312
15.0,0.028765052556991577
16.0,0.028525469824671745
18.0,0.02804175391793251
20.0,0.027555013075470924
22.0,0.027060799300670624
24.0,0.026560408994555473
26.0,0.026068510487675667
28.0,0.025584908202290535
30.0,0.02511512115597725
32.0,0.024652592837810516
36.0,0.023772554472088814
40.0,0.022932717576622963
44.0,0.022112077102065086
48.0,0.021374192088842392
52.0,0.020691417157649994
56.0,0.020051416009664536
60.0,0.019394440576434135
64.0,0.01869892328977585
72.0,0.017364606261253357
80.0,0.015982186421751976
88.0,0.014710909686982632
96.0,0.013639060780405998
104.0,0.012578986585140228
112.0,0.011577547527849674
120.0,0.010679777711629868
128.0,0.009874416515231133
144.0,0.00845242664217949
160.0,0.007151391357183456
176.0,0.0060618105344474316
192.0,0.00531630078330636
208.0,0.00471333134919405
224.0,0.004218991845846176
240.0,0.0036652511917054653
256.0,0.003240882186219096
288.0,0.0028474621940404177
320.0,0.0024705175310373306
352.0,0.0024918147828429937
384.0,0.0030094007961452007
416.0,0.0037433800753206015
448.0,0.00414167670533061
480.0,0.003863672260195017
512.0,0.0028302520513534546
576.0,0.0007612785557284951
640.0,-0.0004728294152300805
704.0,-0.0016840117750689387
768.0,-0.0020244233310222626
832.0,-0.002396447816863656
896.0,-0.0031797767151147127
960.0,-0.003436937928199768
1024.0,-0.004250443074852228
1152.0,-0.005906430073082447
1280.0,-0.002315245335921645
1408.0,0.00031416266574524343
1536.0,0.0021469981875270605
1664.0,0.0019369246438145638
1792.0,0.0011761147761717439
1920.0,0.00182062154635787
2048.0,0.0030462651047855616
2304.0,0.0033833207562565804
2560.0,0.0021194687578827143
2816.0,0.0006254992913454771
3072.0,0.002868496347218752
3328.0,-0.00022666630684398115
3584.0,0.002370082540437579
3840.0,-0.0006164812948554754
4096.0,-0.0016318190610036254
4608.0,-0.0001250089699169621
5120.0,0.0009827634785324335
5632.0,0.0018766415305435658
6144.0,0.000991034205071628
6656.0,-0.0027371838223189116
7168.0,0.0013481252826750278
7680.0,0.0002010931057156995
8192.0,-0.005810747854411602
9216.0,-2.8658796509262174e-05
10240.0,-0.003697692882269621
11264.0,-0.001834437600336969
12288.0,-0.0022998275235295296
13312.0,0.0011504261055961251
14336.0,-0.01023554801940918
end
