version,3.0
numOfCh,1
type,point
parent_name,40-cuts
ch_type,1_1
kcount,1
numberNandB,1
brightnessNandB,1
carpet pos,0
pc,0
Time (ms),CH1 Auto-Correlation
1.0,0.050792574882507324
2.0,0.050315868109464645
3.0,0.049847088754177094
4.0,0.0493871234357357
5.0,0.04894785210490227
6.0,0.0485072135925293
7.0,0.04807475581765175
8.0,0.047646403312683105
9.0,0.04722856730222702
10.0,0.04682187736034393
11.0,0.04642600193619728
12.0,0.04602546617388725
13.0,0.04563494399189949
14.0,0.04523233696818352
15.0,0.04483607038855553
16.0,0.04444602131843567
18.0,0.04371992126107216
20.0,0.04301359876990318
22.0,0.04233416169881821
24.0,0.04165610298514366
26.0,0.04101637005805969
28.0,0.040431465953588486
30.0,0.039868004620075226
32.0,0.03931726515293121
36.0,0.03824186325073242
40.0,0.03724860027432442
44.0,0.036307282745838165
48.0,0.035415563732385635
52.0,0.03458961844444275
56.0,0.03375008702278137
60.0,0.03288086876273155
64.0,0.032028935849666595
72.0,0.030471252277493477
80.0,0.028963085263967514
88.0,0.027450356632471085
96.0,0.026182282716035843
104.0,0.02519727498292923
112.0,0.02432839199900627
120.0,0.023335151374340057
128.0,0.0222863107919693
144.0,0.020044129341840744
160.0,0.018105028197169304
176.0,0.01633918285369873
192.0,0.014233820140361786
208.0,0.012355907820165157
224.0,0.011140231043100357
240.0,0.010130247101187706
256.0,0.009416726417839527
288.0,0.00789414718747139
320.0,0.006268583238124847
352.0,0.005019250325858593
384.0,0.0035490249283611774
416.0,0.002758677816018462
448.0,0.0017111152410507202
480.0,0.0009731687605381012
512.0,-0.0002361934893997386
576.0,-0.0019689789041876793
640.0,-0.0012274306500330567
704.0,-0.0024372099433094263
768.0,-0.0024079433642327785
832.0,-0.002120234305039048
896.0,-0.0009619916090741754
960.0,0.0015752216568216681
1024.0,0.0026882688980549574
1152.0,0.004536567255854607
1280.0,0.003657525172457099
1408.0,0.004261988680809736
1536.0,0.0024277500342577696
1664.0,-0.003799897152930498
1792.0,-0.0039739408530294895
1920.0,-0.003201752668246627
2048.0,-0.0003975477593485266
2304.0,0.001522241742350161
2560.0,-0.0020285004284232855
2816.0,-0.003290180116891861
3072.0,-0.008895582519471645
3328.0,-0.00870269350707531
3584.0,-0.008080223575234413
3840.0,-0.004168275278061628
4096.0,-0.0031900452449917793
4608.0,-0.00512791657820344
5120.0,0.0041119251400232315
5632.0,0.002296667080372572
6144.0,0.0027701291255652905
6656.0,0.002269176999107003
7168.0,0.003389845136553049
7680.0,0.006389223970472813
8192.0,-0.007349980063736439
9216.0,-0.001132078468799591
10240.0,-0.0012969423551112413
11264.0,-0.010133874602615833
12288.0,-0.00405559316277504
13312.0,-0.002989031607285142
14336.0,0.006453298963606358
end
