version,3.0
numOfCh,1
type,point
parent_name,40-cuts
ch_type,1_1
kcount,1
numberNandB,1
brightnessNandB,1
carpet pos,0
pc,0
Time (ms),CH1 Auto-Correlation
1.0,0.03364906460046768
2.0,0.03335747867822647
3.0,0.03307364508509636
4.0,0.032792024314403534
5.0,0.03251451626420021
6.0,0.03224094957113266
7.0,0.03197500854730606
8.0,0.031713005155324936
9.0,0.03146626427769661
10.0,0.03122110106050968
11.0,0.03097735345363617
12.0,0.030733490362763405
13.0,0.030495982617139816
14.0,0.030261654406785965
15.0,0.030027326196432114
16.0,0.02979607880115509
18.0,0.029334036633372307
20.0,0.028872724622488022
22.0,0.028395062312483788
24.0,0.027916312217712402
26.0,0.027464188635349274
28.0,0.027028946205973625
30.0,0.026605656370520592
32.0,0.026186959818005562
36.0,0.025385675951838493
40.0,0.024641253054142
44.0,0.023913603276014328
48.0,0.023178141564130783
52.0,0.02243693545460701
56.0,0.021734144538640976
60.0,0.021045668050646782
64.0,0.020387379452586174
72.0,0.0190690029412508
80.0,0.01778212934732437
88.0,0.016709309071302414
96.0,0.01572849228978157
104.0,0.014723644591867924
112.0,0.01371897105127573
120.0,0.012824338860809803
128.0,0.011985701508820057
144.0,0.010248043574392796
160.0,0.008439034223556519
176.0,0.006786381360143423
192.0,0.005389781203120947
208.0,0.004313343670219183
224.0,0.0035266713239252567
240.0,0.0033047040924429893
256.0,0.003281637793406844
288.0,0.003174911718815565
320.0,0.003061070339754224
352.0,0.003066513454541564
384.0,0.0029170417692512274
416.0,0.002677680691704154
448.0,0.0016064158407971263
480.0,0.0010232639033347368
512.0,0.00043718324741348624
576.0,-0.00010262209980282933
640.0,-0.0010675672674551606
704.0,-0.0017956882948055863
768.0,-0.002670472487807274
832.0,-0.004979973658919334
896.0,-0.006869118195027113
960.0,-0.006676943972706795
1024.0,-0.004995291121304035
1152.0,0.001307911123149097
1280.0,0.0027477277908474207
1408.0,0.0032883379608392715
1536.0,0.004713217727839947
1664.0,0.0038718825671821833
1792.0,0.002387730637565255
1920.0,0.0013693227665498853
2048.0,-8.28161500976421e-05
2304.0,-0.0014773092698305845
2560.0,0.0010015154257416725
2816.0,-0.0012464828323572874
3072.0,0.0004013526486232877
3328.0,-0.0014433570904657245
3584.0,-0.004146285355091095
3840.0,-0.002012433484196663
4096.0,-0.0005393361207097769
4608.0,-0.0011809018906205893
5120.0,-0.0009681736119091511
5632.0,0.0017051445320248604
6144.0,-0.00020024676632601768
6656.0,-3.985432340414263e-05
7168.0,0.0010869534453377128
7680.0,0.0026559759862720966
8192.0,0.0009425853495486081
9216.0,0.0005596503615379333
10240.0,-0.007043661084026098
11264.0,0.0007784551125951111
12288.0,-0.007404637522995472
13312.0,-0.000332366005750373
14336.0,-0.0036651508416980505
end
