version,3.0
numOfCh,1
type,point
parent_name,40-cuts
ch_type,1_1
kcount,1
numberNandB,1
brightnessNandB,1
carpet pos,0
pc,0
Time (ms),CH1 Auto-Correlation
1.0,0.0643455982208252
2.0,0.0636395812034607
3.0,0.06291560083627701
4.0,0.06220770254731178
5.0,0.06149723008275032
6.0,0.06080719456076622
7.0,0.06013190373778343
8.0,0.05946226790547371
9.0,0.058785971254110336
10.0,0.05812808871269226
11.0,0.05750027298927307
12.0,0.05686895549297333
13.0,0.05622516945004463
14.0,0.05557485669851303
15.0,0.05494577810168266
16.0,0.05431651696562767
18.0,0.05310092121362686
20.0,0.05187413468956947
22.0,0.05066423490643501
24.0,0.049497123807668686
26.0,0.0483589731156826
28.0,0.047276873141527176
30.0,0.04622230306267738
32.0,0.04520068317651749
36.0,0.04325571283698082
40.0,0.04135938361287117
44.0,0.03955595940351486
48.0,0.037894248962402344
52.0,0.0363595187664032
56.0,0.03491507098078728
60.0,0.03360850363969803
64.0,0.032487962394952774
72.0,0.030617833137512207
80.0,0.028813770040869713
88.0,0.027029482647776604
96.0,0.025281034409999847
104.0,0.02341035008430481
112.0,0.02150612324476242
120.0,0.01963169313967228
128.0,0.01789785735309124
144.0,0.015438885428011417
160.0,0.014139140956103802
176.0,0.013583322986960411
192.0,0.012302707880735397
208.0,0.010765407234430313
224.0,0.009053482674062252
240.0,0.007659065071493387
256.0,0.0066969189792871475
288.0,0.003912934567779303
320.0,0.0019985162653028965
352.0,0.0009554189164191484
384.0,-0.0004377150908112526
416.0,0.0002646425273269415
448.0,0.00010798010043799877
480.0,-0.0001648140896577388
512.0,-8.480825636070222e-05
576.0,0.0008612867095507681
640.0,0.0006573073333129287
704.0,0.0006169740809127688
768.0,0.00012901038280688226
832.0,-0.000931057205889374
896.0,-0.0033133451361209154
960.0,-0.0010845145443454385
1024.0,0.00021573301637545228
1152.0,0.0034299802500754595
1280.0,0.0006476340931840241
1408.0,1.949923716892954e-05
1536.0,-0.004450748208910227
1664.0,0.001123156980611384
1792.0,-0.0024764854460954666
1920.0,-0.0029810993000864983
2048.0,-0.00584037508815527
2304.0,0.00352444383315742
2560.0,0.002039829269051552
2816.0,-0.0039474982768297195
3072.0,-0.0005257620359770954
3328.0,-0.005861531477421522
3584.0,0.004037072416394949
3840.0,0.006323427427560091
4096.0,-0.0021512038074433804
4608.0,-0.0002898926322814077
5120.0,-0.003781273029744625
5632.0,-0.004115249961614609
6144.0,-0.00043106451630592346
6656.0,-0.000446016201749444
7168.0,-0.0038611330091953278
7680.0,-0.007565429899841547
8192.0,-0.006296801380813122
9216.0,0.0052040135487914085
10240.0,0.0027359994128346443
11264.0,-0.002148417988792062
12288.0,-0.0009485082700848579
13312.0,0.0034411796368658543
14336.0,-8.818511560093611e-05
end
