version,3.0
numOfCh,1
type,point
parent_name,40-cuts
ch_type,1_1
kcount,1
numberNandB,1
brightnessNandB,1
carpet pos,0
pc,0
Time (ms),CH1 Auto-Correlation
1.0,0.0577847883105278
2.0,0.05723516270518303
3.0,0.05672609433531761
4.0,0.05622103810310364
5.0,0.05572058632969856
6.0,0.05524096265435219
7.0,0.0547521747648716
8.0,0.054271500557661057
9.0,0.053808651864528656
10.0,0.053363047540187836
11.0,0.05293558910489082
12.0,0.05251329392194748
13.0,0.05208802595734596
14.0,0.05167120322585106
15.0,0.051258936524391174
16.0,0.0508403480052948
18.0,0.049980420619249344
20.0,0.04914943128824234
22.0,0.04834523797035217
24.0,0.047590456902980804
26.0,0.04683639854192734
28.0,0.04608707129955292
30.0,0.04535515606403351
32.0,0.04463469237089157
36.0,0.04320438206195831
40.0,0.0418144129216671
44.0,0.040489327162504196
48.0,0.03925158083438873
52.0,0.03810320794582367
56.0,0.03704351931810379
60.0,0.03599593788385391
64.0,0.03491891548037529
72.0,0.0328463576734066
80.0,0.031036444008350372
88.0,0.029443278908729553
96.0,0.027896128594875336
104.0,0.026277778670191765
112.0,0.024819402024149895
120.0,0.023409252986311913
128.0,0.021987568587064743
144.0,0.01938663236796856
160.0,0.017255796119570732
176.0,0.01574660651385784
192.0,0.014679118990898132
208.0,0.013530973345041275
224.0,0.012727191671729088
240.0,0.011904837563633919
256.0,0.011008213274180889
288.0,0.010846955701708794
320.0,0.009850400499999523
352.0,0.007807223126292229
384.0,0.005586385726928711
416.0,0.003090864745900035
448.0,0.0006707534193992615
480.0,-0.0021362367551773787
512.0,-0.005501221399754286
576.0,-0.008767412975430489
640.0,-0.006576402112841606
704.0,-0.0057716695591807365
768.0,-0.005650192964822054
832.0,-0.007284050807356834
896.0,-0.008164419792592525
960.0,-0.007766317576169968
1024.0,-0.007697971072047949
1152.0,-0.0036487169563770294
1280.0,0.001749871182255447
1408.0,0.0041640326380729675
1536.0,0.004400499165058136
1664.0,0.00031484465580433607
1792.0,-0.003743283450603485
1920.0,-0.0063559566624462605
2048.0,-0.008976518176496029
2304.0,-0.008119908161461353
2560.0,0.0004744482575915754
2816.0,0.0024333102628588676
3072.0,0.008455123752355576
3328.0,0.009004462510347366
3584.0,0.004968683701008558
3840.0,0.00024614398716948926
4096.0,-0.00309203309006989
4608.0,-0.0007544101681560278
5120.0,-0.0034636922646313906
5632.0,-0.0033139875158667564
6144.0,-0.0006530305254273117
6656.0,-0.0029728661756962538
7168.0,0.0007330309017561376
7680.0,0.002460063435137272
8192.0,-0.004611476790159941
9216.0,-0.0011648309882730246
10240.0,-0.007826337590813637
11264.0,0.008271102793514729
12288.0,0.003235356416553259
13312.0,-0.011681836098432541
14336.0,0.003207569941878319
end
