version,3.0
numOfCh,1
type,point
parent_name,40-cuts
ch_type,1_1
kcount,1
numberNandB,1
brightnessNandB,1
carpet pos,0
pc,0
Time (ms),CH1 Auto-Correlation
1.0,0.03311818093061447
2.0,0.032860077917575836
3.0,0.03260182961821556
4.0,0.032350145280361176
5.0,0.03210556507110596
6.0,0.03185935318470001
7.0,0.031616754829883575
8.0,0.03138018026947975
9.0,0.031145812943577766
10.0,0.030914992094039917
11.0,0.030683331191539764
12.0,0.030456269159913063
13.0,0.030234308913350105
14.0,0.03001950867474079
15.0,0.029796386137604713
16.0,0.029578126966953278
18.0,0.02915177308022976
20.0,0.02873104438185692
22.0,0.028314786031842232
24.0,0.02790761925280094
26.0,0.02751375548541546
28.0,0.027134418487548828
30.0,0.02675856649875641
32.0,0.026402151212096214
36.0,0.0257220808416605
40.0,0.025078997015953064
44.0,0.02446509711444378
48.0,0.02389167994260788
52.0,0.02333531156182289
56.0,0.022833354771137238
60.0,0.022387851029634476
64.0,0.02193169854581356
72.0,0.021004293113946915
80.0,0.02004302479326725
88.0,0.019070865586400032
96.0,0.018140222877264023
104.0,0.017222413793206215
112.0,0.016414521262049675
120.0,0.015805544331669807
128.0,0.015317353419959545
144.0,0.014343801885843277
160.0,0.013379106298089027
176.0,0.012736939825117588
192.0,0.012384445406496525
208.0,0.01229045633226633
224.0,0.01220963429659605
240.0,0.012035060673952103
256.0,0.011927835643291473
288.0,0.011777159757912159
320.0,0.011885304935276508
352.0,0.011106651276350021
384.0,0.00960440281778574
416.0,0.007824648171663284
448.0,0.006162757519632578
480.0,0.004483935423195362
512.0,0.003210644004866481
576.0,0.0035800596233457327
640.0,0.004421456716954708
704.0,0.0038804474752396345
768.0,0.0030842202249914408
832.0,0.003546224907040596
896.0,0.004155075643211603
960.0,0.0036064668092876673
1024.0,0.0029978922102600336
1152.0,0.00090402940986678
1280.0,0.0006222734809853137
1408.0,-0.0010769703658297658
1536.0,-0.0023067553993314505
1664.0,-0.0021861924324184656
1792.0,-0.00414610281586647
1920.0,-0.005174722522497177
2048.0,-0.00564792612567544
2304.0,-0.0036074607633054256
2560.0,-0.0010026274248957634
2816.0,-0.0010990340961143374
3072.0,-0.0019310778006911278
3328.0,-0.001261195633560419
3584.0,-0.0016268646577373147
3840.0,-0.0027221881318837404
4096.0,-0.0026479577645659447
4608.0,-0.006979198660701513
5120.0,-0.007290063891559839
5632.0,-0.004380841739475727
6144.0,0.0002495338558219373
6656.0,0.000983162666670978
7168.0,0.0011896423529833555
7680.0,-0.00017064604617189616
8192.0,-0.0010847228113561869
9216.0,0.006440718658268452
10240.0,0.006843967828899622
11264.0,-0.0050747692584991455
12288.0,-0.004089847672730684
13312.0,-0.0011887141736224294
14336.0,-0.000968865817412734
end
