version,3.0
numOfCh,1
type,point
parent_name,40-cuts
ch_type,1_1
kcount,1
numberNandB,1
brightnessNandB,1
carpet pos,0
pc,0
Time (ms),CH1 Auto-Correlation
1.0,0.029515080153942108
2.0,0.02924478054046631
3.0,0.028973914682865143
4.0,0.0287000872194767
5.0,0.028431152924895287
6.0,0.028173986822366714
7.0,0.0279226191341877
8.0,0.027676837518811226
9.0,0.027438180521130562
10.0,0.027197714895009995
11.0,0.026961712166666985
12.0,0.026732970029115677
13.0,0.026505496352910995
14.0,0.026284458115696907
15.0,0.02606331743299961
16.0,0.02584018185734749
18.0,0.025413697585463524
20.0,0.02499869465827942
22.0,0.024600785225629807
24.0,0.02421501837670803
26.0,0.023851966485381126
28.0,0.02349509671330452
30.0,0.023135274648666382
32.0,0.02276027947664261
36.0,0.02200963720679283
40.0,0.021256104111671448
44.0,0.020529357716441154
48.0,0.019847659394145012
52.0,0.01923241838812828
56.0,0.018646718934178352
60.0,0.018062738701701164
64.0,0.017511194571852684
72.0,0.016505375504493713
80.0,0.015553333796560764
88.0,0.014723614789545536
96.0,0.014047006145119667
104.0,0.01349079143255949
112.0,0.012898445129394531
120.0,0.012334950268268585
128.0,0.011836656369268894
144.0,0.01119939610362053
160.0,0.010743509978055954
176.0,0.010414151474833488
192.0,0.010160624980926514
208.0,0.009873501025140285
224.0,0.009549169801175594
240.0,0.00946039892733097
256.0,0.009557010605931282
288.0,0.009392987005412579
320.0,0.008686549961566925
352.0,0.00825404841452837
384.0,0.008245103992521763
416.0,0.008363322354853153
448.0,0.008617122657597065
480.0,0.00841128546744585
512.0,0.007482824847102165
576.0,0.0050629014149308205
640.0,0.00414414843544364
704.0,0.0037709770258516073
768.0,0.004186485894024372
832.0,0.004176037386059761
896.0,0.003584867576137185
960.0,0.001192588941194117
1024.0,-0.000725098536349833
1152.0,-0.0008826145785860717
1280.0,0.001594260218553245
1408.0,-0.0007664414588361979
1536.0,-0.0020048031583428383
1664.0,-0.0008793502929620445
1792.0,-0.0021909866482019424
1920.0,-0.001875920221209526
2048.0,0.0015842015855014324
2304.0,-0.0015809122705832124
2560.0,0.0009153993451036513
2816.0,-0.0008178168791346252
3072.0,-0.0007189182215370238
3328.0,-0.0018345211865380406
3584.0,-0.0022915038280189037
3840.0,5.715685983886942e-05
4096.0,-0.001759814564138651
4608.0,9.464839240536094e-05
5120.0,-0.0003657173947431147
5632.0,-0.002192292595282197
6144.0,-0.003587887389585376
6656.0,-0.0018099285662174225
7168.0,-0.000344964733812958
7680.0,0.0008254019194282591
8192.0,0.002537279622629285
9216.0,0.0013140090741217136
10240.0,-0.001569343381561339
11264.0,-0.005273372866213322
12288.0,-0.004240641836076975
13312.0,-0.004683431703597307
14336.0,-0.0022487598471343517
end
