version,3.0
numOfCh,1
type,point
parent_name,40-cuts
ch_type,1_1
kcount,1
numberNandB,1
brightnessNandB,1
carpet pos,0
pc,0
Time (ms),CH1 Auto-Correlation
1.0,0.06140969693660736
2.0,0.06082840636372566
3.0,0.0602482408285141
4.0,0.05967331305146217
5.0,0.05911504104733467
6.0,0.05854640528559685
7.0,0.05797414854168892
8.0,0.05739281326532364
9.0,0.05680118128657341
10.0,0.056222256273031235
11.0,0.05566060170531273
12.0,0.05511852353811264
13.0,0.05459402874112129
14.0,0.054062701761722565
15.0,0.05353326350450516
16.0,0.05300690978765488
18.0,0.05196674168109894
20.0,0.05096022039651871
22.0,0.049969639629125595
24.0,0.04900343343615532
26.0,0.04808492213487625
28.0,0.0471978597342968
30.0,0.046296872198581696
32.0,0.04539916664361954
36.0,0.043597083538770676
40.0,0.041827812790870667
44.0,0.04012177139520645
48.0,0.03854262828826904
52.0,0.037019386887550354
56.0,0.03554106876254082
60.0,0.03409107029438019
64.0,0.03268883377313614
72.0,0.030018659308552742
80.0,0.027630208060145378
88.0,0.025565072894096375
96.0,0.023896384984254837
104.0,0.022465510293841362
112.0,0.021105987951159477
120.0,0.019521908834576607
128.0,0.017948564141988754
144.0,0.015703676268458366
160.0,0.013858921825885773
176.0,0.012516997754573822
192.0,0.011418446898460388
208.0,0.010665449313819408
224.0,0.009964702650904655
240.0,0.009253593161702156
256.0,0.008301645517349243
288.0,0.005891512613743544
320.0,0.004432970657944679
352.0,0.0035946276038885117
384.0,0.002172368811443448
416.0,0.0020736006554216146
448.0,0.0024042464792728424
480.0,0.0023268398363143206
512.0,0.0014779283665120602
576.0,-0.0007459669723175466
640.0,-0.00046323909191414714
704.0,9.252061317965854e-06
768.0,0.000749991915654391
832.0,0.0010835012653842568
896.0,0.0007594473427161574
960.0,-0.0003136549494229257
1024.0,-0.00010989744623657316
1152.0,-0.0012233593733981252
1280.0,-0.0037503433413803577
1408.0,-0.005341824609786272
1536.0,-0.008891256526112556
1664.0,-0.003995640203356743
1792.0,-0.001355331507511437
1920.0,-0.000522429181728512
2048.0,-0.0036351655144244432
2304.0,-0.006092788185924292
2560.0,0.001174667850136757
2816.0,0.0025540096685290337
3072.0,0.0043859463185071945
3328.0,-1.884913035610225e-05
3584.0,-0.008845360018312931
3840.0,-0.0036498308181762695
4096.0,-0.010376538150012493
4608.0,-0.004939510487020016
5120.0,0.0025572360027581453
5632.0,0.0045095584355294704
6144.0,0.0071959663182497025
6656.0,0.00021717106574214995
7168.0,-3.781783379963599e-05
7680.0,-0.006762261036783457
8192.0,-0.004407457076013088
9216.0,-0.0009189052507281303
10240.0,-0.005759470164775848
11264.0,0.008761509321630001
12288.0,0.002525484887883067
13312.0,0.005241740494966507
14336.0,0.0016159031074494123
end
