version,3.0
numOfCh,1
type,point
parent_name,40-cuts
ch_type,1_1
kcount,1
numberNandB,1
brightnessNandB,1
carpet pos,0
pc,0
Time (ms),CH1 Auto-Correlation
1.0,0.0534529946744442
2.0,0.05295408144593239
3.0,0.052468761801719666
4.0,0.051993925124406815
5.0,0.05152143910527229
6.0,0.05105763301253319
7.0,0.05059261620044708
8.0,0.050134941935539246
9.0,0.04968816787004471
10.0,0.049239542335271835
11.0,0.048807818442583084
12.0,0.04837833717465401
13.0,0.04794899746775627
14.0,0.047532275319099426
15.0,0.04712335020303726
16.0,0.04671374708414078
18.0,0.04592718929052353
20.0,0.04515143111348152
22.0,0.044383008033037186
24.0,0.04364745318889618
26.0,0.04291205853223801
28.0,0.042187925428152084
30.0,0.04147342965006828
32.0,0.040791042149066925
36.0,0.03948432207107544
40.0,0.03823159262537956
44.0,0.03702399507164955
48.0,0.03584307059645653
52.0,0.03467315062880516
56.0,0.03350582718849182
60.0,0.03245203197002411
64.0,0.03149038925766945
72.0,0.02965589612722397
80.0,0.028060508891940117
88.0,0.02677946351468563
96.0,0.025784937664866447
104.0,0.02486756071448326
112.0,0.02395649626851082
120.0,0.023045407608151436
128.0,0.022403504699468613
144.0,0.0213432926684618
160.0,0.020233431831002235
176.0,0.018540913239121437
192.0,0.016544170677661896
208.0,0.014266762882471085
224.0,0.012157564051449299
240.0,0.010569412261247635
256.0,0.009444471448659897
288.0,0.006774552166461945
320.0,0.004043836146593094
352.0,0.0023143477737903595
384.0,0.0014927209122106433
416.0,0.0010260455310344696
448.0,0.0004309414653107524
480.0,-0.0008922995184548199
512.0,-0.0035201041027903557
576.0,-0.006853170692920685
640.0,-0.0046650017611682415
704.0,-0.0007544387481175363
768.0,-0.0003193709417246282
832.0,0.001194459735415876
896.0,0.003075967775657773
960.0,0.00121700472664088
1024.0,-0.0006609006086364388
1152.0,0.0006189634441398084
1280.0,0.00023652844538446516
1408.0,0.0031909511890262365
1536.0,0.00434900913387537
1664.0,0.007176109589636326
1792.0,0.007597041316330433
1920.0,0.003179456340149045
2048.0,-0.0001309326326008886
2304.0,0.0006825044401921332
2560.0,-0.0003332097257953137
2816.0,-0.002033759141340852
3072.0,-0.0022638437803834677
3328.0,-0.002937940414994955
3584.0,-0.002219508634880185
3840.0,-0.0010020702611654997
4096.0,-0.008035385981202126
4608.0,-0.0010632104240357876
5120.0,-0.0003624495002441108
5632.0,-0.0029630474746227264
6144.0,-0.009344334714114666
6656.0,0.004163880832493305
7168.0,0.0037285974249243736
7680.0,-0.003462943248450756
8192.0,0.003210236318409443
9216.0,-0.005631908308714628
10240.0,-0.0020654029212892056
11264.0,0.0006276895292103291
12288.0,-0.00178059923928231
13312.0,-0.0005218278965912759
14336.0,-0.0033683530054986477
end
