version,3.0
numOfCh,1
type,point
parent_name,40-cuts
ch_type,1_1
kcount,1
numberNandB,1
brightnessNandB,1
carpet pos,0
pc,0
Time (ms),CH1 Auto-Correlation
1.0,0.10449346154928207
2.0,0.10373057425022125
3.0,0.10297389328479767
4.0,0.1022203341126442
5.0,0.10146778076887131
6.0,0.1007247045636177
7.0,0.09999066591262817
8.0,0.09932965040206909
9.0,0.09865903854370117
10.0,0.09800472110509872
11.0,0.09734330326318741
12.0,0.09669701755046844
13.0,0.0960559993982315
14.0,0.09542959928512573
15.0,0.09479322284460068
16.0,0.0941549688577652
18.0,0.09289435297250748
20.0,0.0916728749871254
22.0,0.09050949662923813
24.0,0.08937156200408936
26.0,0.0882834792137146
28.0,0.08722498267889023
30.0,0.0861712247133255
32.0,0.08512791246175766
36.0,0.0831971988081932
40.0,0.0814242735505104
44.0,0.07983309030532837
48.0,0.07840532809495926
52.0,0.07711752504110336
56.0,0.07583719491958618
60.0,0.07451702654361725
64.0,0.07314246147871017
72.0,0.0705777034163475
80.0,0.06816792488098145
88.0,0.06581873446702957
96.0,0.06386476755142212
104.0,0.061899520456790924
112.0,0.05984953045845032
120.0,0.057931702584028244
128.0,0.05605502426624298
144.0,0.051839429885149
160.0,0.04841786250472069
176.0,0.04546966776251793
192.0,0.04197869077324867
208.0,0.0383053682744503
224.0,0.035217639058828354
240.0,0.03223194181919098
256.0,0.029225027188658714
288.0,0.02274908311665058
320.0,0.016676772385835648
352.0,0.012170331552624702
384.0,0.00841103307902813
416.0,0.0056444210931658745
448.0,0.003698282176628709
480.0,0.0031621332745999098
512.0,0.0024186039809137583
576.0,0.0011575967073440552
640.0,0.0013763746246695518
704.0,0.004069127142429352
768.0,0.005503970663994551
832.0,0.0024585844948887825
896.0,-0.0013060790952295065
960.0,-0.00348093849606812
1024.0,-0.004296827595680952
1152.0,-0.007019740529358387
1280.0,-0.00717034749686718
1408.0,-0.003730268683284521
1536.0,0.006918035913258791
1664.0,0.01134096086025238
1792.0,0.01142108254134655
1920.0,0.013102371245622635
2048.0,0.008637767285108566
2304.0,-0.0013629593886435032
2560.0,0.009204883128404617
2816.0,0.013657841831445694
3072.0,0.01596534438431263
3328.0,0.016720477491617203
3584.0,0.015445091761648655
3840.0,-0.005277152638882399
4096.0,-0.004603513982146978
4608.0,0.0011859229998663068
5120.0,0.005394028499722481
5632.0,-0.01716887205839157
6144.0,-0.014798037707805634
6656.0,-0.0037173088639974594
7168.0,-0.007877697236835957
7680.0,-0.017551463097333908
8192.0,-0.006822625175118446
9216.0,-0.014554860070347786
10240.0,-0.027579719200730324
11264.0,0.00788007490336895
12288.0,-0.0012360196560621262
13312.0,-0.02407323196530342
14336.0,0.020748378708958626
end
