version,3.0
numOfCh,1
type,point
parent_name,40-cuts
ch_type,1_1
kcount,1
numberNandB,1
brightnessNandB,1
carpet pos,0
pc,0
Time (ms),CH1 Auto-Correlation
1.0,0.07642308622598648
2.0,0.07596538215875626
3.0,0.07550375908613205
4.0,0.0750495046377182
5.0,0.07459937781095505
6.0,0.07415894418954849
7.0,0.07371624559164047
8.0,0.0732838436961174
9.0,0.072860948741436
10.0,0.07244310528039932
11.0,0.07202599942684174
12.0,0.07161359488964081
13.0,0.07120449095964432
14.0,0.07080497592687607
15.0,0.0704030990600586
16.0,0.06999033689498901
18.0,0.06920412182807922
20.0,0.06846486032009125
22.0,0.06772994250059128
24.0,0.06700575351715088
26.0,0.06629148125648499
28.0,0.06558413058519363
30.0,0.0648941621184349
32.0,0.06422613561153412
36.0,0.06290744245052338
40.0,0.06161988899111748
44.0,0.06037883087992668
48.0,0.05918485298752785
52.0,0.05804004520177841
56.0,0.0568951778113842
60.0,0.055705875158309937
64.0,0.054508026689291
72.0,0.052167199552059174
80.0,0.04989076033234596
88.0,0.04761442542076111
96.0,0.04542337357997894
104.0,0.04335786774754524
112.0,0.041382141411304474
120.0,0.0395626425743103
128.0,0.03776588290929794
144.0,0.034033916890621185
160.0,0.030219636857509613
176.0,0.026694875210523605
192.0,0.023780155926942825
208.0,0.021438032388687134
224.0,0.019309397786855698
240.0,0.017548013478517532
256.0,0.01604965701699257
288.0,0.013840659521520138
320.0,0.013247640803456306
352.0,0.013744023628532887
384.0,0.014795099385082722
416.0,0.015369669534265995
448.0,0.01505650021135807
480.0,0.013687600381672382
512.0,0.01066022738814354
576.0,0.0045397779904305935
640.0,-0.0010505063692107797
704.0,-0.0021613428834825754
768.0,-0.00105453806463629
832.0,0.0010025615338236094
896.0,0.0026923080440610647
960.0,0.004301424138247967
1024.0,0.00610473845154047
1152.0,0.009345617145299911
1280.0,0.010354978032410145
1408.0,0.004885188303887844
1536.0,0.0032549493480473757
1664.0,0.003518305253237486
1792.0,0.0018857832765206695
1920.0,-0.005911839194595814
2048.0,-0.011872232891619205
2304.0,-0.010153577663004398
2560.0,-0.01190979965031147
2816.0,-0.008142245933413506
3072.0,-0.005393438506871462
3328.0,-0.007665426470339298
3584.0,-0.008726810105144978
3840.0,-0.002203743439167738
4096.0,0.009840450249612331
4608.0,-0.0030464271549135447
5120.0,-0.0024294061586260796
5632.0,-0.00510004535317421
6144.0,-0.013891381211578846
6656.0,-0.008323458023369312
7168.0,-0.013310804963111877
7680.0,-0.007269340567290783
8192.0,0.004291119985282421
9216.0,0.010272067040205002
10240.0,0.012893707491457462
11264.0,-0.0009689850267022848
12288.0,0.00043184630339965224
13312.0,0.004516951274126768
14336.0,-0.0012221316574141383
end
