version,3.0
numOfCh,1
type,point
parent_name,40-cuts
ch_type,1_1
kcount,1
numberNandB,1
brightnessNandB,1
carpet pos,0
pc,0
Time (ms),CH1 Auto-Correlation
1.0,0.029038021340966225
2.0,0.028751373291015625
3.0,0.028472427278757095
4.0,0.0282013900578022
5.0,0.02792789787054062
6.0,0.027665412053465843
7.0,0.027401836588978767
8.0,0.027138233184814453
9.0,0.026888350024819374
10.0,0.026640526950359344
11.0,0.02638161927461624
12.0,0.02612934820353985
13.0,0.025878606364130974
14.0,0.025632906705141068
15.0,0.025388866662979126
16.0,0.025149991735816002
18.0,0.0246785469353199
20.0,0.024210607632994652
22.0,0.023754557594656944
24.0,0.02331792190670967
26.0,0.02288718707859516
28.0,0.02245963178575039
30.0,0.02203483134508133
32.0,0.02162180468440056
36.0,0.020871823653578758
40.0,0.02018023654818535
44.0,0.01952650398015976
48.0,0.018929388374090195
52.0,0.018350932747125626
56.0,0.01781649701297283
60.0,0.017313549295067787
64.0,0.016831468790769577
72.0,0.015914756804704666
80.0,0.015006199479103088
88.0,0.014132783748209476
96.0,0.013388815335929394
104.0,0.012713714502751827
112.0,0.012012606486678123
120.0,0.011342409998178482
128.0,0.010694453492760658
144.0,0.009561382234096527
160.0,0.00851803831756115
176.0,0.007873889058828354
192.0,0.00711502879858017
208.0,0.006549498997628689
224.0,0.006269270088523626
240.0,0.006041070446372032
256.0,0.005708570126444101
288.0,0.0055905841290950775
320.0,0.005630613304674625
352.0,0.005384040996432304
384.0,0.005029152613133192
416.0,0.0044922432862222195
448.0,0.004236485343426466
480.0,0.0038337192963808775
512.0,0.0033297922927886248
576.0,0.0024520913138985634
640.0,0.002341983374208212
704.0,0.001777702127583325
768.0,0.001970095792785287
832.0,0.0026579417753964663
896.0,0.002937337150797248
960.0,0.0026155312079936266
1024.0,0.001060312264598906
1152.0,-0.0005182811873964965
1280.0,0.0006127142696641386
1408.0,-0.0006415291572920978
1536.0,0.0013766400516033173
1664.0,0.0008786745602265
1792.0,0.0006829273770563304
1920.0,-0.0004847882373724133
2048.0,-0.0017575903329998255
2304.0,-0.0048360200598835945
2560.0,-0.003374030813574791
2816.0,-0.0014655992854386568
3072.0,0.0016236574156209826
3328.0,-0.0002059727703453973
3584.0,-0.0009427343611605465
3840.0,0.00030162400798872113
4096.0,0.001592496526427567
4608.0,0.001098296488635242
5120.0,-0.0004809610254596919
5632.0,-0.0026392843574285507
6144.0,-0.0018416086677461863
6656.0,-0.0031973430886864662
7168.0,0.002264899667352438
7680.0,0.0024407755117863417
8192.0,0.0030962741002440453
9216.0,-0.0024773196782916784
10240.0,-0.0015898876590654254
11264.0,-0.000705162703525275
12288.0,-0.0001844842336140573
13312.0,-0.006860557943582535
14336.0,-0.0034994566813111305
end
