version,3.0
numOfCh,1
type,point
parent_name,40-cuts
ch_type,1_1
kcount,1
numberNandB,1
brightnessNandB,1
carpet pos,0
pc,0
Time (ms),CH1 Auto-Correlation
1.0,0.07939609885215759
2.0,0.07860966771841049
3.0,0.07783249765634537
4.0,0.07704831659793854
5.0,0.07626660168170929
6.0,0.07551876455545425
7.0,0.07475481182336807
8.0,0.07399705797433853
9.0,0.07324780523777008
10.0,0.07249394804239273
11.0,0.07173635810613632
12.0,0.07100343704223633
13.0,0.0702596977353096
14.0,0.06953558325767517
15.0,0.06880319863557816
16.0,0.06807803362607956
18.0,0.06663357466459274
20.0,0.0651884526014328
22.0,0.06379634886980057
24.0,0.06246877461671829
26.0,0.06117190048098564
28.0,0.05991699546575546
30.0,0.05865873768925667
32.0,0.05744389444589615
36.0,0.05518193170428276
40.0,0.05312500521540642
44.0,0.05119236931204796
48.0,0.049387093633413315
52.0,0.047670312225818634
56.0,0.04599974304437637
60.0,0.04437849298119545
64.0,0.04282683879137039
72.0,0.04008299484848976
80.0,0.03797270730137825
88.0,0.03652002289891243
96.0,0.035352904349565506
104.0,0.034208666533231735
112.0,0.03304685652256012
120.0,0.03193208947777748
128.0,0.030738556757569313
144.0,0.0279587060213089
160.0,0.024644125252962112
176.0,0.021030932664871216
192.0,0.01781492680311203
208.0,0.015538287349045277
224.0,0.013555009849369526
240.0,0.011522882618010044
256.0,0.009200841188430786
288.0,0.005051081534475088
320.0,0.0021658067125827074
352.0,-0.0013020675396546721
384.0,-0.0024002986028790474
416.0,-0.0036072165239602327
448.0,-0.0047357999719679356
480.0,-0.006099552847445011
512.0,-0.0068674273788928986
576.0,-0.0030955742113292217
640.0,0.0023483322001993656
704.0,0.0021332281176000834
768.0,0.001014906563796103
832.0,0.0018517166608944535
896.0,0.0003304784477222711
960.0,-0.0021789423190057278
1024.0,-0.0022579191718250513
1152.0,-0.0018320181407034397
1280.0,-0.002190074184909463
1408.0,-0.00551530160009861
1536.0,-0.005498369690030813
1664.0,-0.0029850578866899014
1792.0,0.0029054745100438595
1920.0,0.004124805331230164
2048.0,0.001887366990558803
2304.0,-0.010746154002845287
2560.0,-0.004324192646890879
2816.0,-0.005006219260394573
3072.0,-0.002481268486008048
3328.0,0.003771136049181223
3584.0,-0.005442002322524786
3840.0,0.004970179870724678
4096.0,0.008119308389723301
4608.0,-0.0016129034338518977
5120.0,0.007816222496330738
5632.0,0.004368654917925596
6144.0,0.003085548058152199
6656.0,0.0032948406878858805
7168.0,0.0004182427073828876
7680.0,-0.007218643091619015
8192.0,-0.002173825167119503
9216.0,-0.006726929917931557
10240.0,-0.0005322436336427927
11264.0,-0.0006295038620010018
12288.0,-9.150059486273676e-05
13312.0,0.0029198331758379936
14336.0,-0.002194455126300454
end
