version,3.0
numOfCh,1
type,point
parent_name,40-cuts
ch_type,1_1
kcount,1
numberNandB,1
brightnessNandB,1
carpet pos,0
pc,0
Time (ms),CH1 Auto-Correlation
1.0,0.0519663468003273
2.0,0.05146785080432892
3.0,0.05097617208957672
4.0,0.05049263313412666
5.0,0.05002876743674278
6.0,0.04957497492432594
7.0,0.04912957921624184
8.0,0.04869620501995087
9.0,0.048279453068971634
10.0,0.04786551743745804
11.0,0.04745953530073166
12.0,0.04704023897647858
13.0,0.04662638530135155
14.0,0.046224985271692276
15.0,0.045825861394405365
16.0,0.04543381556868553
18.0,0.044643037021160126
20.0,0.04387173801660538
22.0,0.04311433434486389
24.0,0.04236121475696564
26.0,0.04163961485028267
28.0,0.04093229025602341
30.0,0.04025725647807121
32.0,0.03960512951016426
36.0,0.03829541429877281
40.0,0.036987777799367905
44.0,0.03579946979880333
48.0,0.03465745970606804
52.0,0.03349055349826813
56.0,0.03229651600122452
60.0,0.031157616525888443
64.0,0.030070964246988297
72.0,0.02809665910899639
80.0,0.02621481381356716
88.0,0.024446723982691765
96.0,0.02285953052341938
104.0,0.0213057491928339
112.0,0.01980036310851574
120.0,0.018417995423078537
128.0,0.01726480945944786
144.0,0.015309609472751617
160.0,0.013816340826451778
176.0,0.012650803662836552
192.0,0.011130296625196934
208.0,0.009288373403251171
224.0,0.00788034126162529
240.0,0.007115594111382961
256.0,0.006357125472277403
288.0,0.004501510877162218
320.0,0.0025069965049624443
352.0,0.0004217620298732072
384.0,-0.0009770984761416912
416.0,-0.0016528122359886765
448.0,-0.001642123912461102
480.0,-0.001984755275771022
512.0,-0.0025865950156003237
576.0,-0.0030774723272770643
640.0,-0.0020441513042896986
704.0,-0.0007578017539344728
768.0,0.0007638127426616848
832.0,-0.0002549410564824939
896.0,-0.0018819653196260333
960.0,-0.0008701407932676375
1024.0,-0.0003854877722915262
1152.0,0.001135601312853396
1280.0,-0.0002878204395528883
1408.0,-0.001996951410546899
1536.0,-0.0019714643713086843
1664.0,-1.7629457943257876e-05
1792.0,0.001095160492695868
1920.0,0.0036100486759096384
2048.0,0.0026815535966306925
2304.0,9.289703302783892e-05
2560.0,0.0006589237600564957
2816.0,0.0015236858744174242
3072.0,0.00036501872818917036
3328.0,0.0025629515293985605
3584.0,0.0008920984109863639
3840.0,-0.002131387824192643
4096.0,-0.00424662372097373
4608.0,0.003408772638067603
5120.0,-0.0047390335239470005
5632.0,-0.0018824427388608456
6144.0,-0.007299795746803284
6656.0,-0.0021425639279186726
7168.0,-0.0060472385957837105
7680.0,-0.0009505021153017879
8192.0,-0.003755551762878895
9216.0,0.0009651525178924203
10240.0,0.0009106139186769724
11264.0,-0.0010705188615247607
12288.0,0.006865235511213541
13312.0,-0.0009144002688117325
14336.0,0.004611407406628132
end
