version,3.0
numOfCh,1
type,point
parent_name,40-cuts
ch_type,1_1
kcount,1
numberNandB,1
brightnessNandB,1
carpet pos,0
pc,0
Time (ms),CH1 Auto-Correlation
1.0,0.07970328629016876
2.0,0.07902100682258606
3.0,0.0783497542142868
4.0,0.07770299911499023
5.0,0.07705240696668625
6.0,0.07641644030809402
7.0,0.07579740881919861
8.0,0.0751802921295166
9.0,0.07456188648939133
10.0,0.07395206391811371
11.0,0.07336437702178955
12.0,0.07280168682336807
13.0,0.07225564867258072
14.0,0.07172024995088577
15.0,0.07118363678455353
16.0,0.07063419371843338
18.0,0.06952393054962158
20.0,0.06845017522573471
22.0,0.06746745854616165
24.0,0.06655517965555191
26.0,0.06568969786167145
28.0,0.06485176831483841
30.0,0.06401319801807404
32.0,0.06317777931690216
36.0,0.061551064252853394
40.0,0.060015901923179626
44.0,0.058653444051742554
48.0,0.05731475353240967
52.0,0.05593716353178024
56.0,0.05450177565217018
60.0,0.05311792343854904
64.0,0.05172839015722275
72.0,0.049046702682971954
80.0,0.04654247313737869
88.0,0.04411866515874863
96.0,0.04167340695858002
104.0,0.03922339901328087
112.0,0.03715793043375015
120.0,0.03538285195827484
128.0,0.03373980149626732
144.0,0.03001035749912262
160.0,0.026353269815444946
176.0,0.023425111547112465
192.0,0.020501302555203438
208.0,0.017890354618430138
224.0,0.015898168087005615
240.0,0.014011068269610405
256.0,0.011751984246075153
288.0,0.006623290944844484
320.0,0.0023139985278248787
352.0,-0.0004650792106986046
384.0,-0.001987059134989977
416.0,-0.004299799911677837
448.0,-0.005626179743558168
480.0,-0.005157826468348503
512.0,-0.004901716485619545
576.0,-0.005774649791419506
640.0,-0.005514287389814854
704.0,-0.0071122413501143456
768.0,-0.007894418202340603
832.0,-0.010339244268834591
896.0,-0.011778613552451134
960.0,-0.009188853204250336
1024.0,-0.006865833420306444
1152.0,-0.0024420807603746653
1280.0,-0.008551545441150665
1408.0,-0.012996011413633823
1536.0,-0.019908828660845757
1664.0,-0.020394159480929375
1792.0,-0.00969327799975872
1920.0,0.0012875812826678157
2048.0,0.009996313601732254
2304.0,0.010883253999054432
2560.0,0.007111364509910345
2816.0,0.003898784751072526
3072.0,-0.00032898897188715637
3328.0,0.0010235185036435723
3584.0,-0.007335915695875883
3840.0,-0.01094342116266489
4096.0,-0.0006496162968687713
4608.0,0.005455338396131992
5120.0,-0.002007629256695509
5632.0,-0.0027298571076244116
6144.0,-0.006810124963521957
6656.0,-0.004270408768206835
7168.0,0.00982842966914177
7680.0,0.001854005386121571
8192.0,-0.00536034582182765
9216.0,-0.007361932657659054
10240.0,0.009300067089498043
11264.0,0.0006018099375069141
12288.0,-0.005374086555093527
13312.0,0.0012264122487977147
14336.0,0.01391193363815546
end
