version,3.0
numOfCh,1
type,point
parent_name,40-cuts
ch_type,1_1
kcount,1
numberNandB,1
brightnessNandB,1
carpet pos,0
pc,0
Time (ms),CH1 Auto-Correlation
1.0,0.03713645040988922
2.0,0.03685552626848221
3.0,0.03657519817352295
4.0,0.036298301070928574
5.0,0.03602983430027962
6.0,0.03576166555285454
7.0,0.03549479320645332
8.0,0.03522338718175888
9.0,0.034955285489559174
10.0,0.03469238057732582
11.0,0.03443235158920288
12.0,0.03418191149830818
13.0,0.03393490985035896
14.0,0.03368871659040451
15.0,0.03344602510333061
16.0,0.03320682421326637
18.0,0.03273073211312294
20.0,0.03227657079696655
22.0,0.03183193504810333
24.0,0.03139421343803406
26.0,0.030969349667429924
28.0,0.03055361844599247
30.0,0.030145352706313133
32.0,0.029750393703579903
36.0,0.02899061143398285
40.0,0.028236376121640205
44.0,0.027489371597766876
48.0,0.02677038498222828
52.0,0.026046866551041603
56.0,0.025321021676063538
60.0,0.02463841810822487
64.0,0.0239875391125679
72.0,0.02272961102426052
80.0,0.021608121693134308
88.0,0.02059170976281166
96.0,0.019638873636722565
104.0,0.01867399737238884
112.0,0.01769525185227394
120.0,0.016724884510040283
128.0,0.01583496667444706
144.0,0.014351367019116879
160.0,0.013116379268467426
176.0,0.01207237970083952
192.0,0.011301539838314056
208.0,0.010635550133883953
224.0,0.009966087527573109
240.0,0.009397133253514767
256.0,0.008702004328370094
288.0,0.006658059079200029
320.0,0.0050346520729362965
352.0,0.0034562081564217806
384.0,0.002009850461035967
416.0,0.0012785365106537938
448.0,0.0009460665751248598
480.0,0.0003350384358782321
512.0,-0.00040995024028234184
576.0,-0.0034316466189920902
640.0,-0.005358956288546324
704.0,-0.006296772044152021
768.0,-0.005786682479083538
832.0,-0.005032136105000973
896.0,-0.0037342894356697798
960.0,-0.0018246102845296264
1024.0,0.0005747448303736746
1152.0,0.0019378653960302472
1280.0,0.003575058886781335
1408.0,0.004750114865601063
1536.0,0.002327927388250828
1664.0,-0.000312390155158937
1792.0,-8.107352186925709e-05
1920.0,3.664219184429385e-05
2048.0,0.0004445273370947689
2304.0,0.0018716894555836916
2560.0,-0.0009780533146113157
2816.0,-0.00041526512359268963
3072.0,-0.00023185093596111983
3328.0,0.003607531078159809
3584.0,0.001677528372965753
3840.0,-0.001269034342840314
4096.0,-0.004624302498996258
4608.0,-0.0036361743696033955
5120.0,0.001477259211242199
5632.0,-0.001992524368688464
6144.0,-0.006085277069360018
6656.0,-0.004804735071957111
7168.0,-0.0012725808192044497
7680.0,-0.00551930395886302
8192.0,0.002163899829611182
9216.0,-0.0021347426809370518
10240.0,0.004624475259333849
11264.0,-0.0029211174696683884
12288.0,0.004439983982592821
13312.0,0.009211528114974499
14336.0,-0.004618573933839798
end
