version,3.0
numOfCh,1
type,point
parent_name,40-cuts
ch_type,1_1
kcount,1
numberNandB,1
brightnessNandB,1
carpet pos,0
pc,0
Time (ms),CH1 Auto-Correlation
1.0,0.07973085343837738
2.0,0.0788734033703804
3.0,0.07803807407617569
4.0,0.07720358669757843
5.0,0.07637724280357361
6.0,0.07559613883495331
7.0,0.07481607794761658
8.0,0.07404526323080063
9.0,0.07329487800598145
10.0,0.07256820797920227
11.0,0.07186587899923325
12.0,0.07113958150148392
13.0,0.07041884958744049
14.0,0.06971228867769241
15.0,0.06902676820755005
16.0,0.06833596527576447
18.0,0.06696314364671707
20.0,0.06564860790967941
22.0,0.06438007205724716
24.0,0.06313628703355789
26.0,0.06194643676280975
28.0,0.06080217286944389
30.0,0.05968748405575752
32.0,0.05856655538082123
36.0,0.0563301220536232
40.0,0.054021090269088745
44.0,0.051808640360832214
48.0,0.049823056906461716
52.0,0.048005059361457825
56.0,0.046322088688611984
60.0,0.044736508280038834
64.0,0.04340912774205208
72.0,0.04088140279054642
80.0,0.038433294743299484
88.0,0.036438923329114914
96.0,0.034779585897922516
104.0,0.0330960676074028
112.0,0.0315098874270916
120.0,0.030186999589204788
128.0,0.02923581749200821
144.0,0.027695588767528534
160.0,0.026188582181930542
176.0,0.024126064032316208
192.0,0.021346956491470337
208.0,0.01872316747903824
224.0,0.016978571191430092
240.0,0.015975363552570343
256.0,0.015202970243990421
288.0,0.013544845394790173
320.0,0.0132696982473135
352.0,0.011294974945485592
384.0,0.009011806920170784
416.0,0.0078049604780972
448.0,0.006771724671125412
480.0,0.007369244936853647
512.0,0.006935169920325279
576.0,0.004396999254822731
640.0,0.007097125519067049
704.0,0.006168504245579243
768.0,0.002719360636547208
832.0,-0.0013928189873695374
896.0,-0.004519108682870865
960.0,-0.004511633422225714
1024.0,-0.004049486946314573
1152.0,-0.004700319841504097
1280.0,-0.009297347627580166
1408.0,-0.006868214812129736
1536.0,-0.004951858893036842
1664.0,-0.0007780258310958743
1792.0,-0.0012459472054615617
1920.0,-0.008206862956285477
2048.0,-0.009589700028300285
2304.0,-0.0061507681384682655
2560.0,-0.00783553160727024
2816.0,-0.01607249490916729
3072.0,-0.01820780150592327
3328.0,-0.006021407432854176
3584.0,0.0012542851036414504
3840.0,0.010546961799263954
4096.0,0.013181762769818306
4608.0,8.034239726839587e-05
5120.0,-0.005130433943122625
5632.0,0.0074543701484799385
6144.0,0.00999127421528101
6656.0,-0.0062866839580237865
7168.0,-0.008774206973612309
7680.0,0.005446950439363718
8192.0,0.005917087662965059
9216.0,-0.0043370951898396015
10240.0,-0.0007497543701902032
11264.0,0.0024599262978881598
12288.0,0.0008860678062774241
13312.0,0.0022523750085383654
14336.0,-0.006524754222482443
end
