version,3.0
numOfCh,1
type,point
parent_name,40-cuts
ch_type,1_1
kcount,1
numberNandB,1
brightnessNandB,1
carpet pos,0
pc,0
Time (ms),CH1 Auto-Correlation
1.0,0.03373090177774429
2.0,0.03343350440263748
3.0,0.03314095735549927
4.0,0.03284280374646187
5.0,0.03254901245236397
6.0,0.032256368547677994
7.0,0.03196704015135765
8.0,0.03167683631181717
9.0,0.031385958194732666
10.0,0.03109467215836048
11.0,0.03080996312201023
12.0,0.030526569113135338
13.0,0.03024257905781269
14.0,0.029973261058330536
15.0,0.029699496924877167
16.0,0.02942318469285965
18.0,0.028898129239678383
20.0,0.02837732620537281
22.0,0.02787557803094387
24.0,0.027396272867918015
26.0,0.026923108845949173
28.0,0.026463955640792847
30.0,0.02600928395986557
32.0,0.025565670803189278
36.0,0.02471267618238926
40.0,0.023890171200037003
44.0,0.023122260347008705
48.0,0.02239314466714859
52.0,0.021733539178967476
56.0,0.02109432779252529
60.0,0.020470375195145607
64.0,0.01986498385667801
72.0,0.018702032044529915
80.0,0.017673710361123085
88.0,0.01676170714199543
96.0,0.015913931652903557
104.0,0.015119542367756367
112.0,0.014456681907176971
120.0,0.013917508535087109
128.0,0.013427341356873512
144.0,0.012478956952691078
160.0,0.011424191296100616
176.0,0.010667068883776665
192.0,0.009955152869224548
208.0,0.009172230958938599
224.0,0.008382300846278667
240.0,0.007884988561272621
256.0,0.007618015166372061
288.0,0.007511808071285486
320.0,0.0069824024103581905
352.0,0.0061891451478004456
384.0,0.00485530449077487
416.0,0.0033919033594429493
448.0,0.0026717602740973234
480.0,0.002671640831977129
512.0,0.002547148847952485
576.0,0.0023883930407464504
640.0,0.0024864969309419394
704.0,0.0005256004515103996
768.0,-0.0007860726327635348
832.0,-0.0013472330756485462
896.0,-0.0015182410134002566
960.0,-0.0014872838510200381
1024.0,-0.0013193066697567701
1152.0,4.1753188270376995e-05
1280.0,-0.0008706740918569267
1408.0,-0.000980646233074367
1536.0,-0.001398128573782742
1664.0,0.0015721404924988747
1792.0,0.005886368919163942
1920.0,0.004636711440980434
2048.0,0.0039514400996267796
2304.0,-0.00019784794130828232
2560.0,-0.0033224269282072783
2816.0,-0.0018933783285319805
3072.0,-0.0010876390151679516
3328.0,2.087763641611673e-05
3584.0,0.0019746804609894753
3840.0,-0.0007668524049222469
4096.0,-0.003530011046677828
4608.0,-0.0036235179286450148
5120.0,0.00268276478163898
5632.0,0.002627889858558774
6144.0,0.000758534122724086
6656.0,8.185426850104704e-05
7168.0,0.003454535501077771
7680.0,0.0017476704670116305
8192.0,-0.00042689175461418927
9216.0,-0.00535997748374939
10240.0,-0.003763512009754777
11264.0,-0.004650860093533993
12288.0,-0.003306703409180045
13312.0,-0.001592485816217959
14336.0,-0.0008635547710582614
end
