version,3.0
numOfCh,1
type,point
parent_name,40-cuts
ch_type,1_1
kcount,1
numberNandB,1
brightnessNandB,1
carpet pos,0
pc,0
Time (ms),CH1 Auto-Correlation
1.0,0.07751541584730148
2.0,0.07688649743795395
3.0,0.0762634128332138
4.0,0.07566222548484802
5.0,0.07508572190999985
6.0,0.07450633496046066
7.0,0.0739271491765976
8.0,0.07332958281040192
9.0,0.07271984219551086
10.0,0.0721239373087883
11.0,0.07152446359395981
12.0,0.07092874497175217
13.0,0.07034038752317429
14.0,0.06976213306188583
15.0,0.06919365376234055
16.0,0.06863421946763992
18.0,0.0675811693072319
20.0,0.06655248999595642
22.0,0.06553959846496582
24.0,0.06449812650680542
26.0,0.06345923990011215
28.0,0.062425948679447174
30.0,0.06142072379589081
32.0,0.06043266877532005
36.0,0.05856723710894585
40.0,0.05674458667635918
44.0,0.055041756480932236
48.0,0.05358687415719032
52.0,0.05223774537444115
56.0,0.05098207667469978
60.0,0.049745481461286545
64.0,0.04854199290275574
72.0,0.0460844561457634
80.0,0.04385256767272949
88.0,0.04162745922803879
96.0,0.039359524846076965
104.0,0.037350304424762726
112.0,0.035489313304424286
120.0,0.0337168425321579
128.0,0.032026249915361404
144.0,0.02929830551147461
160.0,0.027050619944930077
176.0,0.02511889673769474
192.0,0.02320287376642227
208.0,0.02201264724135399
224.0,0.02116910181939602
240.0,0.020368125289678574
256.0,0.019249113276600838
288.0,0.01620057411491871
320.0,0.013435625471174717
352.0,0.01161267515271902
384.0,0.010426457971334457
416.0,0.00777650810778141
448.0,0.006563504692167044
480.0,0.006759318057447672
512.0,0.006443848833441734
576.0,0.004654440097510815
640.0,0.0016308102058246732
704.0,-0.0028859900776296854
768.0,-0.0026981814298778772
832.0,-7.990161975612864e-05
896.0,-0.00013256401871331036
960.0,-0.0028580878861248493
1024.0,-0.005704972427338362
1152.0,-0.008922233246266842
1280.0,-0.004527955316007137
1408.0,-0.009471011348068714
1536.0,-0.015328729525208473
1664.0,-0.013301122933626175
1792.0,-0.01261506974697113
1920.0,-0.014604353345930576
2048.0,-0.01228933036327362
2304.0,-0.0022762573789805174
2560.0,0.0070691159926354885
2816.0,0.0074129835702478886
3072.0,0.004671665374189615
3328.0,0.005373151041567326
3584.0,0.0002799024514388293
3840.0,-0.003635740838944912
4096.0,-0.002600736217573285
4608.0,0.005170568358153105
5120.0,-0.0019645460415631533
5632.0,-0.011008119210600853
6144.0,-0.013599000871181488
6656.0,-0.01148491445928812
7168.0,0.0007786925998516381
7680.0,0.013425801880657673
8192.0,0.011727557517588139
9216.0,-0.0056102341040968895
10240.0,0.001028661266900599
11264.0,0.0048723379150033
12288.0,0.00016503524966537952
13312.0,0.00043645265395753086
14336.0,-0.007916197180747986
end
