version,3.0
numOfCh,1
type,point
parent_name,40-cuts
ch_type,1_1
kcount,1
numberNandB,1
brightnessNandB,1
carpet pos,0
pc,0
Time (ms),CH1 Auto-Correlation
1.0,0.028274770826101303
2.0,0.028040600940585136
3.0,0.02780442126095295
4.0,0.027569307014346123
5.0,0.02733105607330799
6.0,0.027094490826129913
7.0,0.026865476742386818
8.0,0.026638666167855263
9.0,0.02642195299267769
10.0,0.02620876580476761
11.0,0.02600025199353695
12.0,0.02579318918287754
13.0,0.025587914511561394
14.0,0.025390680879354477
15.0,0.02519802376627922
16.0,0.02500654011964798
18.0,0.024620413780212402
20.0,0.0242377370595932
22.0,0.02384842187166214
24.0,0.023464133962988853
26.0,0.023087438195943832
28.0,0.022725148126482964
30.0,0.022371431812644005
32.0,0.022024761885404587
36.0,0.02133423462510109
40.0,0.020680835470557213
44.0,0.020069457590579987
48.0,0.019492467865347862
52.0,0.018943028524518013
56.0,0.018404338508844376
60.0,0.01788930781185627
64.0,0.01738247461616993
72.0,0.016354702413082123
80.0,0.015324681997299194
88.0,0.014360261149704456
96.0,0.013455442152917385
104.0,0.012647530995309353
112.0,0.011936902068555355
120.0,0.011323015205562115
128.0,0.010727675631642342
144.0,0.009599622339010239
160.0,0.008622031658887863
176.0,0.007626735605299473
192.0,0.006850703619420528
208.0,0.006165174767374992
224.0,0.005722545087337494
240.0,0.005364602897316217
256.0,0.004982101731002331
288.0,0.004049572162330151
320.0,0.0034509599208831787
352.0,0.0031534095760434866
384.0,0.00336075434461236
416.0,0.0036646700464189053
448.0,0.0037989846896380186
480.0,0.003884487086907029
512.0,0.0037170995492488146
576.0,0.0029123190324753523
640.0,0.0025304651353508234
704.0,0.001592360669746995
768.0,0.00038883593515492976
832.0,-0.000984538346529007
896.0,-0.0019869585521519184
960.0,-0.0026550807524472475
1024.0,-0.0030429435428231955
1152.0,-0.0016970173455774784
1280.0,0.0016797126736491919
1408.0,0.0017485757125541568
1536.0,0.0020717077422887087
1664.0,0.0021994677372276783
1792.0,0.0012149001704528928
1920.0,0.0032459008507430553
2048.0,0.0038146208971738815
2304.0,0.0020924012642353773
2560.0,0.00013528777344617993
2816.0,-0.0008943335269577801
3072.0,-0.0020574999507516623
3328.0,-0.0019997896160930395
3584.0,-0.0034493966959416866
3840.0,-0.0032341296318918467
4096.0,-0.0031885874923318624
4608.0,0.00031462739570997655
5120.0,0.002913578413426876
5632.0,-0.003971382509917021
6144.0,-0.0053333705291152
6656.0,0.0010211765766143799
7168.0,-0.0005968287005089223
7680.0,-0.005549891851842403
8192.0,-0.0039764815010130405
9216.0,-0.0016215264331549406
10240.0,0.0034811224322766066
11264.0,0.0012357000960037112
12288.0,0.0041831303387880325
13312.0,-0.0007248668116517365
14336.0,-0.002151379594579339
end
