version,3.0
numOfCh,1
type,point
parent_name,40-cuts
ch_type,1_1
kcount,1
numberNandB,1
brightnessNandB,1
carpet pos,0
pc,0
Time (ms),CH1 Auto-Correlation
1.0,0.08185171335935593
2.0,0.08121157437562943
3.0,0.08058775216341019
4.0,0.07996527850627899
5.0,0.0793447196483612
6.0,0.07873940467834473
7.0,0.07815373688936234
8.0,0.07759605348110199
9.0,0.07704337686300278
10.0,0.07649669796228409
11.0,0.07596142590045929
12.0,0.07544513046741486
13.0,0.0749368891119957
14.0,0.0744251161813736
15.0,0.07390675693750381
16.0,0.07338090986013412
18.0,0.07232227176427841
20.0,0.07130420953035355
22.0,0.07030507177114487
24.0,0.06931287795305252
26.0,0.06831912696361542
28.0,0.06733902543783188
30.0,0.06637107580900192
32.0,0.06540367007255554
36.0,0.06352968513965607
40.0,0.0617452971637249
44.0,0.060075875371694565
48.0,0.05845559388399124
52.0,0.05688914656639099
56.0,0.05546338111162186
60.0,0.05416654422879219
64.0,0.05294172093272209
72.0,0.05065612494945526
80.0,0.04853767901659012
88.0,0.04634246975183487
96.0,0.04425555095076561
104.0,0.0424451045691967
112.0,0.04069074988365173
120.0,0.039183080196380615
128.0,0.03770565614104271
144.0,0.034774694591760635
160.0,0.032238833606243134
176.0,0.02944992110133171
192.0,0.02746392972767353
208.0,0.025656679645180702
224.0,0.02415703982114792
240.0,0.021969065070152283
256.0,0.019021259620785713
288.0,0.01459279004484415
320.0,0.011160426773130894
352.0,0.006911477539688349
384.0,0.002827621065080166
416.0,-0.00044566881842911243
448.0,-0.0025784557219594717
480.0,-0.003799343714490533
512.0,-0.0036655620206147432
576.0,-0.0019917169120162725
640.0,-0.0020455464255064726
704.0,-0.003374593099579215
768.0,-0.0033143432810902596
832.0,-0.006583992391824722
896.0,-0.008144541643559933
960.0,-0.005898158065974712
1024.0,-0.005213855765759945
1152.0,-0.005473255179822445
1280.0,-0.001981023233383894
1408.0,-0.000705827260389924
1536.0,-0.009007612243294716
1664.0,-0.00976693443953991
1792.0,-0.007078112103044987
1920.0,-0.006175091955810785
2048.0,-0.0062468997202813625
2304.0,-0.0036022637505084276
2560.0,0.00317756668664515
2816.0,0.002386299194768071
3072.0,-0.004134866409003735
3328.0,-0.010399281047284603
3584.0,-0.010205754078924656
3840.0,-0.007997504435479641
4096.0,-0.010373206809163094
4608.0,0.007610547821968794
5120.0,0.005092908162623644
5632.0,0.011828791350126266
6144.0,0.015418981201946735
6656.0,0.006305675953626633
7168.0,-0.014528963714838028
7680.0,-0.004777318798005581
8192.0,-0.002417210955172777
9216.0,-0.004105666186660528
10240.0,0.0007779225124977529
11264.0,0.00243380363099277
12288.0,0.012770366854965687
13312.0,-0.002052923198789358
14336.0,-0.023215197026729584
end
