version,3.0
numOfCh,1
type,point
parent_name,40-cuts
ch_type,1_1
kcount,1
numberNandB,1
brightnessNandB,1
carpet pos,0
pc,0
Time (ms),CH1 Auto-Correlation
1.0,0.04538070783019066
2.0,0.04488283768296242
3.0,0.044396791607141495
4.0,0.043911322951316833
5.0,0.04342929646372795
6.0,0.0429515615105629
7.0,0.042487043887376785
8.0,0.04201541841030121
9.0,0.04154994338750839
10.0,0.041089266538619995
11.0,0.0406399630010128
12.0,0.04019834101200104
13.0,0.0397624671459198
14.0,0.03932933881878853
15.0,0.03890005126595497
16.0,0.03848778083920479
18.0,0.037693385034799576
20.0,0.036937013268470764
22.0,0.03620581328868866
24.0,0.0354921892285347
26.0,0.03480372205376625
28.0,0.034133847802877426
30.0,0.03345317766070366
32.0,0.03280036151409149
36.0,0.03154487535357475
40.0,0.030341919511556625
44.0,0.029153412207961082
48.0,0.028009073808789253
52.0,0.026954833418130875
56.0,0.025974055752158165
60.0,0.02508551999926567
64.0,0.02429421991109848
72.0,0.02287508361041546
80.0,0.021564211696386337
88.0,0.020331772044301033
96.0,0.019035128876566887
104.0,0.01793760061264038
112.0,0.0169818215072155
120.0,0.016010936349630356
128.0,0.01503061130642891
144.0,0.013466998003423214
160.0,0.011688398197293282
176.0,0.010025972500443459
192.0,0.008924651890993118
208.0,0.008273967541754246
224.0,0.007913484238088131
240.0,0.008221497759222984
256.0,0.008527133613824844
288.0,0.00837410893291235
320.0,0.008362842723727226
352.0,0.007976436987519264
384.0,0.00805338378995657
416.0,0.009447412565350533
448.0,0.009844006039202213
480.0,0.009515680372714996
512.0,0.007341265212744474
576.0,0.005429541226476431
640.0,0.003554451745003462
704.0,0.001732790726236999
768.0,0.00106491195037961
832.0,-0.00010139114601770416
896.0,-0.001454615849070251
960.0,-0.003422016277909279
1024.0,-0.003002710873261094
1152.0,0.0024015114177018404
1280.0,-0.0024050301872193813
1408.0,-0.004229865502566099
1536.0,-0.0045883627608418465
1664.0,-0.0032057957723736763
1792.0,-0.006626891903579235
1920.0,-0.008129972964525223
2048.0,-0.009853689931333065
2304.0,-0.007381916046142578
2560.0,-0.009562976658344269
2816.0,-0.006074592936784029
3072.0,-0.0018914883257821202
3328.0,-0.0020493322517722845
3584.0,0.0011005558772012591
3840.0,-0.0043018716387450695
4096.0,0.001525064348243177
4608.0,0.005779205355793238
5120.0,0.005518720950931311
5632.0,0.006083592772483826
6144.0,0.007833619602024555
6656.0,0.0008877265499904752
7168.0,-0.008095873519778252
7680.0,-0.00919629167765379
8192.0,-0.005722768604755402
9216.0,0.00031705183209851384
10240.0,0.006815177854150534
11264.0,0.0011773706646636128
12288.0,-0.004939225967973471
13312.0,-0.0007853761198930442
14336.0,0.0011664305347949266
end
