version,3.0
numOfCh,1
type,point
parent_name,40-cuts
ch_type,1_1
kcount,1
numberNandB,1
brightnessNandB,1
carpet pos,0
pc,0
Time (ms),CH1 Auto-Correlation
1.0,0.05028260871767998
2.0,0.04978325217962265
3.0,0.04928210377693176
4.0,0.04879545792937279
5.0,0.04830684885382652
6.0,0.04781032353639603
7.0,0.047318220138549805
8.0,0.046834636479616165
9.0,0.04636075720191002
10.0,0.045898955315351486
11.0,0.04544125124812126
12.0,0.04499507322907448
13.0,0.04456288740038872
14.0,0.04414007067680359
15.0,0.04371466487646103
16.0,0.043298859149217606
18.0,0.04246726632118225
20.0,0.041662637144327164
22.0,0.040873609483242035
24.0,0.040115609765052795
26.0,0.039386194199323654
28.0,0.03870946541428566
30.0,0.038062889128923416
32.0,0.03740515559911728
36.0,0.036100149154663086
40.0,0.03485504910349846
44.0,0.03361740708351135
48.0,0.032377347350120544
52.0,0.031155023723840714
56.0,0.03001057542860508
60.0,0.0289562176913023
64.0,0.027918273583054543
72.0,0.02606840990483761
80.0,0.024496354162693024
88.0,0.022954847663640976
96.0,0.021493351086974144
104.0,0.02007150836288929
112.0,0.018695952370762825
120.0,0.017153456807136536
128.0,0.015641190111637115
144.0,0.012932571582496166
160.0,0.010746597312390804
176.0,0.008757106028497219
192.0,0.007103426847606897
208.0,0.006094350479543209
224.0,0.005165128968656063
240.0,0.004192565567791462
256.0,0.0033157099969685078
288.0,0.001594184897840023
320.0,0.0004965583211742342
352.0,-0.00041360349860042334
384.0,-0.001976680476218462
416.0,-0.0030628128442913294
448.0,-0.0021866271272301674
480.0,-0.000823772163130343
512.0,0.00033650160185061395
576.0,0.001621641218662262
640.0,0.0017588566988706589
704.0,0.0018690491560846567
768.0,0.0005307344836182892
832.0,-0.001672424259595573
896.0,-0.005022658500820398
960.0,-0.007446880452334881
1024.0,-0.007515476550906897
1152.0,-0.005825361702591181
1280.0,-0.00665643997490406
1408.0,-0.004572681616991758
1536.0,-0.0037859866861253977
1664.0,0.000569905387237668
1792.0,0.003135757055133581
1920.0,0.00021943144383840263
2048.0,-0.0040129912085831165
2304.0,-0.00010609226592350751
2560.0,-0.0008479125099256635
2816.0,-0.007125759031623602
3072.0,-0.0031718784011900425
3328.0,-7.395941793220118e-05
3584.0,0.005730937700718641
3840.0,0.004558084066957235
4096.0,-4.714563692687079e-05
4608.0,-0.003921699710190296
5120.0,0.0007001989288255572
5632.0,0.0014445061096921563
6144.0,0.0030612710397690535
6656.0,-0.00199003960005939
7168.0,-0.007051828783005476
7680.0,0.0024631109554320574
8192.0,0.0033443381544202566
9216.0,0.004372917581349611
10240.0,-0.004917241167277098
11264.0,-0.0023802670184522867
12288.0,-0.0031345775350928307
13312.0,0.005187861155718565
14336.0,0.0070581897161901
end
