version,3.0
numOfCh,1
type,point
parent_name,40-cuts
ch_type,1_1
kcount,1
numberNandB,1
brightnessNandB,1
carpet pos,0
pc,0
Time (ms),CH1 Auto-Correlation
1.0,0.08683138340711594
2.0,0.08609950542449951
3.0,0.08536703139543533
4.0,0.08464160561561584
5.0,0.08390820026397705
6.0,0.08318506926298141
7.0,0.08247417211532593
8.0,0.08177494257688522
9.0,0.08108799904584885
10.0,0.08040912449359894
11.0,0.07974199205636978
12.0,0.07908708602190018
13.0,0.07848329842090607
14.0,0.07785926014184952
15.0,0.07723616808652878
16.0,0.07662037760019302
18.0,0.07539807260036469
20.0,0.07418704032897949
22.0,0.0729622095823288
24.0,0.07175106555223465
26.0,0.07057935744524002
28.0,0.06949129700660706
30.0,0.06846357136964798
32.0,0.06746979057788849
36.0,0.06547418981790543
40.0,0.06341711431741714
44.0,0.06141991913318634
48.0,0.05946247652173042
52.0,0.057548150420188904
56.0,0.055585622787475586
60.0,0.05363520234823227
64.0,0.05163232609629631
72.0,0.04784161224961281
80.0,0.04464917629957199
88.0,0.041881658136844635
96.0,0.03940197825431824
104.0,0.03705768659710884
112.0,0.03454439342021942
120.0,0.03220419958233833
128.0,0.030045991763472557
144.0,0.026778511703014374
160.0,0.024163277819752693
176.0,0.021819688379764557
192.0,0.020326858386397362
208.0,0.018944445997476578
224.0,0.017930105328559875
240.0,0.017077628523111343
256.0,0.01702042482793331
288.0,0.016773059964179993
320.0,0.016621919348835945
352.0,0.017951052635908127
384.0,0.021234789863228798
416.0,0.022936198860406876
448.0,0.022474607452750206
480.0,0.019986407831311226
512.0,0.017772305756807327
576.0,0.014657453633844852
640.0,0.011194699443876743
704.0,0.008620679378509521
768.0,0.005445577669888735
832.0,0.0013396040303632617
896.0,-0.0002964313898701221
960.0,-0.0009665233083069324
1024.0,-0.0008744163205847144
1152.0,0.002987573156133294
1280.0,-0.001058339374139905
1408.0,-0.00467669079080224
1536.0,-0.006367716006934643
1664.0,-0.011669310741126537
1792.0,-0.010923047550022602
1920.0,-0.013750310055911541
2048.0,-0.020558129996061325
2304.0,-0.012699137441813946
2560.0,-0.017594054341316223
2816.0,-0.013042230159044266
3072.0,-0.003048812970519066
3328.0,0.0017896280623972416
3584.0,0.0029818809125572443
3840.0,0.007811299059540033
4096.0,0.009071151725947857
4608.0,0.011219759471714497
5120.0,0.009397323243319988
5632.0,-0.0027052368968725204
6144.0,-0.016876842826604843
6656.0,-0.012893960811197758
7168.0,-0.007435905281454325
7680.0,-0.0007394400308839977
8192.0,0.018084628507494926
9216.0,0.009648460894823074
10240.0,-0.00952159147709608
11264.0,-0.022946052253246307
12288.0,-0.005309029016643763
13312.0,0.012867647223174572
14336.0,-0.00393840903416276
end
