version,3.0
numOfCh,1
type,point
parent_name,40-cuts
ch_type,1_1
kcount,1
numberNandB,1
brightnessNandB,1
carpet pos,0
pc,0
Time (ms),CH1 Auto-Correlation
1.0,0.027549074962735176
2.0,0.02727971039712429
3.0,0.027006736025214195
4.0,0.02673674374818802
5.0,0.02646823786199093
6.0,0.026208316907286644
7.0,0.02594248577952385
8.0,0.02567317709326744
9.0,0.025410287082195282
10.0,0.025155358016490936
11.0,0.02489774487912655
12.0,0.024644555523991585
13.0,0.024404684081673622
14.0,0.02417292632162571
15.0,0.023942550644278526
16.0,0.02371663972735405
18.0,0.02328323945403099
20.0,0.022851936519145966
22.0,0.02243100292980671
24.0,0.022025220096111298
26.0,0.021626193076372147
28.0,0.021225981414318085
30.0,0.020834509283304214
32.0,0.020464126020669937
36.0,0.019754180684685707
40.0,0.01905536837875843
44.0,0.01841200888156891
48.0,0.017776798456907272
52.0,0.017186667770147324
56.0,0.01662815734744072
60.0,0.016096321865916252
64.0,0.015557198785245419
72.0,0.014610347338020802
80.0,0.01375103835016489
88.0,0.013051215559244156
96.0,0.012450107373297215
104.0,0.011826598085463047
112.0,0.011133302003145218
120.0,0.010425972752273083
128.0,0.00972688291221857
144.0,0.008501499891281128
160.0,0.007291337009519339
176.0,0.006098526064306498
192.0,0.005073708016425371
208.0,0.004168887156993151
224.0,0.0034955006558448076
240.0,0.00286618759855628
256.0,0.0023133503273129463
288.0,0.0017023078398779035
320.0,0.0014062105910852551
352.0,0.0011000788072124124
384.0,0.0008343899971805513
416.0,0.0003754753270186484
448.0,-0.0001757436984917149
480.0,-0.0004807330551557243
512.0,-0.0004430863482411951
576.0,-8.192502718884498e-05
640.0,0.00045413055340759456
704.0,0.0005891317268833518
768.0,0.0007089958526194096
832.0,-0.0003909191000275314
896.0,-0.0011709590908139944
960.0,-0.0011745658703148365
1024.0,-0.0014984594890847802
1152.0,-0.0015457915142178535
1280.0,-0.0013605927815660834
1408.0,0.000568617251701653
1536.0,0.0004058710765093565
1664.0,0.0014754695584997535
1792.0,0.0027633649297058582
1920.0,0.0005904167192056775
2048.0,-0.0005778066697530448
2304.0,-0.0012744175037369132
2560.0,-0.0011919456301257014
2816.0,-0.0003396797110326588
3072.0,8.750962297199294e-05
3328.0,-0.0028202885296195745
3584.0,-0.0015869908966124058
3840.0,0.0009211156284436584
4096.0,0.0021016323007643223
4608.0,0.0015948115615174174
5120.0,-0.000506552227307111
5632.0,-0.0003294444759376347
6144.0,-0.002588630188256502
6656.0,-0.0014731002738699317
7168.0,-0.0039275093004107475
7680.0,-0.0015984552446752787
8192.0,-0.0005340154748409986
9216.0,0.0005762206274084747
10240.0,0.0007609958411194384
11264.0,-0.0020155825186520815
12288.0,0.004729239735752344
13312.0,-0.0024601626209914684
14336.0,0.00010331966041121632
end
