version,3.0
numOfCh,1
type,point
parent_name,40-cuts
ch_type,1_1
kcount,1
numberNandB,1
brightnessNandB,1
carpet pos,0
pc,0
Time (ms),CH1 Auto-Correlation
1.0,0.07663629204034805
2.0,0.07589760422706604
3.0,0.07518051564693451
4.0,0.07447053492069244
5.0,0.07376209646463394
6.0,0.07305767387151718
7.0,0.07236959785223007
8.0,0.07170172780752182
9.0,0.07104361057281494
10.0,0.07038749009370804
11.0,0.06974149495363235
12.0,0.06910786032676697
13.0,0.06847187131643295
14.0,0.06785561144351959
15.0,0.0672454833984375
16.0,0.06665129959583282
18.0,0.06543633341789246
20.0,0.06426724046468735
22.0,0.06309711188077927
24.0,0.061936430633068085
26.0,0.060780368745326996
28.0,0.059628572314977646
30.0,0.058534882962703705
32.0,0.05746385455131531
36.0,0.05532369390130043
40.0,0.053326308727264404
44.0,0.05142936483025551
48.0,0.04962170124053955
52.0,0.04779911786317825
56.0,0.04616823419928551
60.0,0.04473193362355232
64.0,0.04340553283691406
72.0,0.04056958481669426
80.0,0.03792338818311691
88.0,0.03556321933865547
96.0,0.033294305205345154
104.0,0.031342681497335434
112.0,0.02960619144141674
120.0,0.02811027318239212
128.0,0.02690657414495945
144.0,0.024521755054593086
160.0,0.022210048511624336
176.0,0.019502606242895126
192.0,0.016669293865561485
208.0,0.014004562981426716
224.0,0.012209192849695683
240.0,0.010804173536598682
256.0,0.009143317118287086
288.0,0.005227835848927498
320.0,0.002041247673332691
352.0,0.0005919646937400103
384.0,0.0006010975921526551
416.0,0.001298788352869451
448.0,0.00033143075415864587
480.0,-0.0003382940776646137
512.0,0.00010735797695815563
576.0,-0.003395882435142994
640.0,-0.005998957436531782
704.0,-0.008080041967332363
768.0,-0.008201097138226032
832.0,-0.009113160893321037
896.0,-0.010629329830408096
960.0,-0.010318346321582794
1024.0,-0.011621844954788685
1152.0,-0.009997852146625519
1280.0,0.0009413370862603188
1408.0,0.001417645369656384
1536.0,0.0009338408708572388
1664.0,0.003430986776947975
1792.0,0.005006025545299053
1920.0,-0.00038159836549311876
2048.0,-0.0020957686938345432
2304.0,0.0002518173714634031
2560.0,-0.004049444571137428
2816.0,-0.004781415686011314
3072.0,-0.0006374205695465207
3328.0,0.0031271688640117645
3584.0,-5.5309619710897096e-06
3840.0,-0.014268147759139538
4096.0,-0.014437105506658554
4608.0,5.2219649660401046e-05
5120.0,0.010396791622042656
5632.0,0.004277544096112251
6144.0,-0.001989812357351184
6656.0,0.006773040629923344
7168.0,-0.0008810661383904517
7680.0,-0.012826417572796345
8192.0,-0.0043645333498716354
9216.0,-0.0031739044934511185
10240.0,-0.0015340654645115137
11264.0,0.00880057830363512
12288.0,0.001649782177992165
13312.0,-0.003005246166139841
14336.0,-0.0022081388160586357
end
