version,3.0
numOfCh,1
type,point
parent_name,40-cuts
ch_type,1_1
kcount,1
numberNandB,1
brightnessNandB,1
carpet pos,0
pc,0
Time (ms),CH1 Auto-Correlation
1.0,0.05395127460360527
2.0,0.05333048477768898
3.0,0.05272485688328743
4.0,0.05213584378361702
5.0,0.05154256150126457
6.0,0.05097490921616554
7.0,0.05041616037487984
8.0,0.049842409789562225
9.0,0.049264777451753616
10.0,0.04870234429836273
11.0,0.04812874644994736
12.0,0.04755992442369461
13.0,0.04700494185090065
14.0,0.04645984619855881
15.0,0.04592910408973694
16.0,0.04540526866912842
18.0,0.04437517374753952
20.0,0.0433986596763134
22.0,0.04244961217045784
24.0,0.041523147374391556
26.0,0.04060667008161545
28.0,0.03971148654818535
30.0,0.038847751915454865
32.0,0.037993185222148895
36.0,0.03633576259016991
40.0,0.03478327393531799
44.0,0.03342544659972191
48.0,0.03214216232299805
52.0,0.030910257250070572
56.0,0.02977946773171425
60.0,0.028788434341549873
64.0,0.027845818549394608
72.0,0.026066578924655914
80.0,0.02430768869817257
88.0,0.022753970697522163
96.0,0.02130727656185627
104.0,0.020151395350694656
112.0,0.018932435661554337
120.0,0.017837155610322952
128.0,0.01687048003077507
144.0,0.014298144727945328
160.0,0.011294434778392315
176.0,0.009178140200674534
192.0,0.007408450823277235
208.0,0.006095808930695057
224.0,0.004742589313536882
240.0,0.0038812411949038506
256.0,0.00330872624181211
288.0,0.0029161793645471334
320.0,0.0027191569097340107
352.0,0.0037406522314995527
384.0,0.004678020253777504
416.0,0.005666819866746664
448.0,0.006437276024371386
480.0,0.0072030359879136086
512.0,0.007464808411896229
576.0,0.006567562930285931
640.0,0.006119605153799057
704.0,0.005207068752497435
768.0,0.0036325869150459766
832.0,0.004469915293157101
896.0,0.0035597404930740595
960.0,0.005194463767111301
1024.0,0.0039047340396791697
1152.0,0.001072846818715334
1280.0,-0.00010777575516840443
1408.0,-0.0007594244088977575
1536.0,-0.0046463399194180965
1664.0,-0.004769144579768181
1792.0,-0.0015783358830958605
1920.0,0.00015894760144874454
2048.0,0.001972839003428817
2304.0,-0.00022738084953743964
2560.0,-0.0010182398837059736
2816.0,-0.004458790645003319
3072.0,-0.0017086626030504704
3328.0,0.0026953285560011864
3584.0,0.0021813595667481422
3840.0,-0.005575275514274836
4096.0,0.0016514391172677279
4608.0,-0.002687926171347499
5120.0,-0.0022423635236918926
5632.0,0.00019678495300468057
6144.0,-0.0026067548897117376
6656.0,4.624089342541993e-05
7168.0,-0.00048632448306307197
7680.0,0.0026035187765955925
8192.0,-0.006459155585616827
9216.0,-0.0030606375075876713
10240.0,-0.0009918969590216875
11264.0,0.002307028044015169
12288.0,-0.0025926893576979637
13312.0,-0.004442404489964247
14336.0,0.005118565168231726
end
