version,3.0
numOfCh,1
type,point
parent_name,40-cuts
ch_type,1_1
kcount,1
numberNandB,1
brightnessNandB,1
carpet pos,0
pc,0
Time (ms),CH1 Auto-Correlation
1.0,0.022135840728878975
2.0,0.021891187876462936
3.0,0.021656377241015434
4.0,0.021430423483252525
5.0,0.021208154037594795
6.0,0.02098812907934189
7.0,0.020762886852025986
8.0,0.020545581355690956
9.0,0.02033557929098606
10.0,0.02011646144092083
11.0,0.019902843981981277
12.0,0.019687781110405922
13.0,0.01947656273841858
14.0,0.019276302307844162
15.0,0.019082974642515182
16.0,0.01889166235923767
18.0,0.018521545454859734
20.0,0.018154514953494072
22.0,0.01779516041278839
24.0,0.017432579770684242
26.0,0.01707281917333603
28.0,0.01672075316309929
30.0,0.016385037451982498
32.0,0.016058597713708878
36.0,0.015442407689988613
40.0,0.01484733447432518
44.0,0.01429623644798994
48.0,0.013787121511995792
52.0,0.013311191461980343
56.0,0.012861371971666813
60.0,0.012415564619004726
64.0,0.01198116596788168
72.0,0.011135807260870934
80.0,0.010387560352683067
88.0,0.009779559448361397
96.0,0.009257747791707516
104.0,0.008744915947318077
112.0,0.008178812451660633
120.0,0.007506221067160368
128.0,0.006874601822346449
144.0,0.005825115833431482
160.0,0.0050140805542469025
176.0,0.004251057747751474
192.0,0.003399049397557974
208.0,0.002623746171593666
224.0,0.0019574628677219152
240.0,0.0015919728903099895
256.0,0.0013821707107126713
288.0,0.0005251324619166553
320.0,-0.0004946605768054724
352.0,-0.0007943536038510501
384.0,-0.0003504109045024961
416.0,-0.00022498036560136825
448.0,-0.0009393641958013177
480.0,-0.0013998799258843064
512.0,-0.0014067156007513404
576.0,-0.0019658126402646303
640.0,-0.002132386900484562
704.0,-0.0011296607553958893
768.0,0.000329852569848299
832.0,0.0020844419486820698
896.0,0.002444205339998007
960.0,0.0028264394495636225
1024.0,0.002483675954863429
1152.0,0.001350206439383328
1280.0,0.001649637590162456
1408.0,0.0011623268947005272
1536.0,0.0019197565270587802
1664.0,0.0018160282634198666
1792.0,-0.0005274071590974927
1920.0,-0.0012066976632922888
2048.0,0.0018973898841068149
2304.0,0.0011396629270166159
2560.0,0.0013142882380634546
2816.0,-0.00021570878743659705
3072.0,0.0009570721886120737
3328.0,0.00022213510237634182
3584.0,-0.002148487139493227
3840.0,-0.001045943470671773
4096.0,0.0016882909694686532
4608.0,0.0024739077780395746
5120.0,-0.0012304498814046383
5632.0,-0.0020400346256792545
6144.0,0.0019441114272922277
6656.0,-0.0030431312043219805
7168.0,-0.0002884927380364388
7680.0,-1.2725252418022137e-05
8192.0,-0.002653795061632991
9216.0,-0.0016531961737200618
10240.0,-0.0011384914396330714
11264.0,-0.001085431664250791
12288.0,-0.0005589464562945068
13312.0,-0.0004506446130108088
14336.0,-0.00023374854936264455
end
