version,3.0
numOfCh,1
type,point
parent_name,40-cuts
ch_type,1_1
kcount,1
numberNandB,1
brightnessNandB,1
carpet pos,0
pc,0
Time (ms),CH1 Auto-Correlation
1.0,0.08928318321704865
2.0,0.0885624811053276
3.0,0.08784026652574539
4.0,0.0871167853474617
5.0,0.08640429377555847
6.0,0.08569461852312088
7.0,0.08497685939073563
8.0,0.08426301181316376
9.0,0.08355356752872467
10.0,0.0828562006354332
11.0,0.08215928822755814
12.0,0.08147778362035751
13.0,0.08081050962209702
14.0,0.08016689866781235
15.0,0.07953935116529465
16.0,0.07892761379480362
18.0,0.07774049788713455
20.0,0.07660473883152008
22.0,0.07551713287830353
24.0,0.07444982975721359
26.0,0.07340968400239944
28.0,0.07237991690635681
30.0,0.07137595862150192
32.0,0.07038343697786331
36.0,0.06851344555616379
40.0,0.06676597148180008
44.0,0.0650208368897438
48.0,0.06330596655607224
52.0,0.061610881239175797
56.0,0.059882089495658875
60.0,0.05819021537899971
64.0,0.0565803125500679
72.0,0.05352265387773514
80.0,0.050621792674064636
88.0,0.0476660281419754
96.0,0.04457996040582657
104.0,0.041641172021627426
112.0,0.03889899700880051
120.0,0.036281343549489975
128.0,0.033784884959459305
144.0,0.02932589501142502
160.0,0.02519683912396431
176.0,0.021748825907707214
192.0,0.018528668209910393
208.0,0.016872601583600044
224.0,0.016035063192248344
240.0,0.015048324130475521
256.0,0.013700036332011223
288.0,0.010885578580200672
320.0,0.008298906497657299
352.0,0.005691776517778635
384.0,0.0037324081640690565
416.0,0.003191078780218959
448.0,0.0037450348027050495
480.0,0.005871973931789398
512.0,0.008746065199375153
576.0,0.011494378559291363
640.0,0.01146063581109047
704.0,0.013965222984552383
768.0,0.01692691259086132
832.0,0.0170085858553648
896.0,0.011478048749268055
960.0,0.0048610190860927105
1024.0,0.0017756761517375708
1152.0,0.011558783240616322
1280.0,0.018405426293611526
1408.0,0.015365281142294407
1536.0,0.012151442468166351
1664.0,0.00423075258731842
1792.0,0.006477016024291515
1920.0,0.006601357366889715
2048.0,0.014801684767007828
2304.0,0.009950419887900352
2560.0,0.0005025666323490441
2816.0,0.009529336355626583
3072.0,0.0017254658741876483
3328.0,-0.007899194024503231
3584.0,-0.003113238839432597
3840.0,-0.008451445959508419
4096.0,-0.009191444143652916
4608.0,0.000347774475812912
5120.0,0.0004821970942430198
5632.0,-0.012809117324650288
6144.0,-0.01111273467540741
6656.0,-0.007416097912937403
7168.0,-0.007188358809798956
7680.0,-0.01574840396642685
8192.0,-0.012317466549575329
9216.0,-0.012092763558030128
10240.0,-0.004245527554303408
11264.0,0.0003227293200325221
12288.0,0.00489356042817235
13312.0,-0.001876035355962813
14336.0,0.006580589804798365
end
