version,3.0
numOfCh,1
type,point
parent_name,40-cuts
ch_type,1_1
kcount,1
numberNandB,1
brightnessNandB,1
carpet pos,0
pc,0
Time (ms),CH1 Auto-Correlation
1.0,0.08130691200494766
2.0,0.08069048821926117
3.0,0.08007068186998367
4.0,0.07944726943969727
5.0,0.07883865386247635
6.0,0.07823887467384338
7.0,0.07764481008052826
8.0,0.07706543803215027
9.0,0.07649675011634827
10.0,0.07594063133001328
11.0,0.07539807260036469
12.0,0.07486074417829514
13.0,0.07432535290718079
14.0,0.07380286604166031
15.0,0.0732719823718071
16.0,0.07274406403303146
18.0,0.07169538736343384
20.0,0.0706515982747078
22.0,0.06958330422639847
24.0,0.068548284471035
26.0,0.0675339326262474
28.0,0.06655460596084595
30.0,0.0655989795923233
32.0,0.0646863654255867
36.0,0.06280193477869034
40.0,0.060953740030527115
44.0,0.059242743998765945
48.0,0.05778591334819794
52.0,0.05643544718623161
56.0,0.05506037548184395
60.0,0.05368266999721527
64.0,0.052337467670440674
72.0,0.04971060901880264
80.0,0.04733391851186752
88.0,0.045217115432024
96.0,0.043382368981838226
104.0,0.041898541152477264
112.0,0.04083440825343132
120.0,0.040020473301410675
128.0,0.03934362530708313
144.0,0.03785165026783943
160.0,0.036339398473501205
176.0,0.034771211445331573
192.0,0.032945096492767334
208.0,0.03137975558638573
224.0,0.02984972856938839
240.0,0.028077872470021248
256.0,0.025702249258756638
288.0,0.02035343274474144
320.0,0.016743652522563934
352.0,0.01345977745950222
384.0,0.01091646496206522
416.0,0.008971251547336578
448.0,0.007175170350819826
480.0,0.004970702342689037
512.0,0.0030596505384892225
576.0,-0.0008997815893962979
640.0,0.0001585047721164301
704.0,0.0024995103012770414
768.0,0.004140013828873634
832.0,0.00494083296507597
896.0,0.006431646645069122
960.0,0.005573225673288107
1024.0,0.002846949268132448
1152.0,-0.0023817557375878096
1280.0,-0.005951063707470894
1408.0,-0.005969599820673466
1536.0,-0.009911683388054371
1664.0,-0.014056981541216373
1792.0,-0.010170494206249714
1920.0,-0.008896485902369022
2048.0,-0.007047045975923538
2304.0,0.017379017546772957
2560.0,0.015422412194311619
2816.0,-0.0015974317211657763
3072.0,-0.0032485048286616802
3328.0,0.008784865029156208
3584.0,0.007353023160248995
3840.0,-0.0034089970868080854
4096.0,-0.002711960580199957
4608.0,4.9078877054853365e-05
5120.0,-0.0027875457890331745
5632.0,0.0002268695243401453
6144.0,0.0001842596975620836
6656.0,0.00518080173060298
7168.0,0.0018854448571801186
7680.0,-0.007798949256539345
8192.0,-0.0040345992892980576
9216.0,-0.0031796968542039394
10240.0,-0.016594354063272476
11264.0,-0.007119591813534498
12288.0,-0.00724820839241147
13312.0,-0.028667740523815155
14336.0,0.013464925810694695
end
