version,3.0
numOfCh,1
type,point
parent_name,40-cuts
ch_type,1_1
kcount,1
numberNandB,1
brightnessNandB,1
carpet pos,0
pc,0
Time (ms),CH1 Auto-Correlation
1.0,0.05230800807476044
2.0,0.0518140010535717
3.0,0.05132095143198967
4.0,0.050820715725421906
5.0,0.05033151060342789
6.0,0.04986293241381645
7.0,0.049397580325603485
8.0,0.048943597823381424
9.0,0.04849208891391754
10.0,0.04803836718201637
11.0,0.04759332910180092
12.0,0.04715723544359207
13.0,0.046735431998968124
14.0,0.046318065375089645
15.0,0.045906104147434235
16.0,0.04551484063267708
18.0,0.04476317763328552
20.0,0.04401613399386406
22.0,0.04326730594038963
24.0,0.04254457354545593
26.0,0.04182862862944603
28.0,0.04110279679298401
30.0,0.04040951654314995
32.0,0.03972750902175903
36.0,0.03841046243906021
40.0,0.037107665091753006
44.0,0.03580955043435097
48.0,0.034576985985040665
52.0,0.03339085727930069
56.0,0.03218798711895943
60.0,0.031056029722094536
64.0,0.029958687722682953
72.0,0.02772083505988121
80.0,0.025426195934414864
88.0,0.023272337391972542
96.0,0.021375959739089012
104.0,0.01965394802391529
112.0,0.018090538680553436
120.0,0.016718531027436256
128.0,0.015581083483994007
144.0,0.013511382043361664
160.0,0.012144193984568119
176.0,0.011504796333611012
192.0,0.01159305963665247
208.0,0.011863973923027515
224.0,0.012037559412419796
240.0,0.011883120983839035
256.0,0.011308744549751282
288.0,0.009806793183088303
320.0,0.007343016564846039
352.0,0.004813723266124725
384.0,0.0034522111527621746
416.0,0.003273326437920332
448.0,0.004451605957001448
480.0,0.005657701753079891
512.0,0.006389267276972532
576.0,0.0043698507361114025
640.0,0.002511640777811408
704.0,0.003128601470962167
768.0,0.005120497662574053
832.0,0.008082452230155468
896.0,0.009952094405889511
960.0,0.00862113293260336
1024.0,0.008894532918930054
1152.0,0.006152752786874771
1280.0,0.003706488525494933
1408.0,0.0031659503001719713
1536.0,0.0022466802038252354
1664.0,0.0052487654611468315
1792.0,0.0037783493753522635
1920.0,0.0025718174874782562
2048.0,0.0007982781971804798
2304.0,-0.004809426609426737
2560.0,-0.0018543165642768145
2816.0,0.004948116838932037
3072.0,0.0007972941966727376
3328.0,-0.0021991964895278215
3584.0,0.001360384514555335
3840.0,0.005967427045106888
4096.0,0.0012931562960147858
4608.0,-0.0031756251119077206
5120.0,-0.0017438450595363975
5632.0,-0.0068299132399261
6144.0,-0.006738504860550165
6656.0,-0.009773408062756062
7168.0,-0.006319595966488123
7680.0,-0.0005575604154728353
8192.0,0.00329065159894526
9216.0,-0.00338759645819664
10240.0,-0.004575709346681833
11264.0,-0.0024068390484899282
12288.0,0.0008487260201945901
13312.0,0.0025403834879398346
14336.0,-0.0033269207924604416
end
