version,3.0
numOfCh,1
type,point
parent_name,40-cuts
ch_type,1_1
kcount,1
numberNandB,1
brightnessNandB,1
carpet pos,0
pc,0
Time (ms),CH1 Auto-Correlation
1.0,0.07171772420406342
2.0,0.07105358690023422
3.0,0.07040254026651382
4.0,0.06975703686475754
5.0,0.06911513954401016
6.0,0.06849147379398346
7.0,0.0678703784942627
8.0,0.06727249920368195
9.0,0.06668909639120102
10.0,0.06610099971294403
11.0,0.0655159130692482
12.0,0.06494033336639404
13.0,0.06437370181083679
14.0,0.0638045221567154
15.0,0.06325200200080872
16.0,0.06272003054618835
18.0,0.06164736673235893
20.0,0.06058087572455406
22.0,0.059523943811655045
24.0,0.0584753043949604
26.0,0.05741925537586212
28.0,0.05635790154337883
30.0,0.05534912273287773
32.0,0.05441683158278465
36.0,0.052601635456085205
40.0,0.050744496285915375
44.0,0.04892721027135849
48.0,0.04724309220910072
52.0,0.045659344643354416
56.0,0.044187698513269424
60.0,0.0427204966545105
64.0,0.04125380516052246
72.0,0.03877699375152588
80.0,0.0366155244410038
88.0,0.03475373983383179
96.0,0.03290534391999245
104.0,0.03142137452960014
112.0,0.03003547340631485
120.0,0.02867897041141987
128.0,0.027660075575113297
144.0,0.025803066790103912
160.0,0.023940596729516983
176.0,0.022123709321022034
192.0,0.02001880668103695
208.0,0.017559189349412918
224.0,0.015537027269601822
240.0,0.013753144070506096
256.0,0.011831363663077354
288.0,0.009342201985418797
320.0,0.007022079546004534
352.0,0.005589171778410673
384.0,0.003321972908452153
416.0,0.00018403380818199366
448.0,-0.0035693435929715633
480.0,-0.007027755957096815
512.0,-0.008460533805191517
576.0,-0.007269297726452351
640.0,-0.00458312826231122
704.0,-0.0038049358408898115
768.0,-0.002388700610026717
832.0,-0.0010566400596871972
896.0,0.001187967718578875
960.0,0.001003114739432931
1024.0,0.0044029573909938335
1152.0,0.009436612017452717
1280.0,0.010395732708275318
1408.0,0.011713559739291668
1536.0,0.009343515150249004
1664.0,0.005002181511372328
1792.0,0.0012106704525649548
1920.0,-0.00011547610483830795
2048.0,0.001401734771206975
2304.0,0.0034784080926328897
2560.0,0.00671432726085186
2816.0,0.004681707825511694
3072.0,0.0014736175071448088
3328.0,-0.004520310088992119
3584.0,0.00011440328671596944
3840.0,0.004148093052208424
4096.0,0.006602483335882425
4608.0,-0.007018329109996557
5120.0,0.00288893049582839
5632.0,0.0012785252183675766
6144.0,-0.003456269856542349
6656.0,-0.006474593188613653
7168.0,-0.0014483281411230564
7680.0,-7.8432603913825e-05
8192.0,-0.008062769658863544
9216.0,-0.007441902998834848
10240.0,-0.013099529780447483
11264.0,-0.003352488623932004
12288.0,-0.007653600070625544
13312.0,0.00039100530557334423
14336.0,-0.0061231935396790504
end
