version,3.0
numOfCh,1
type,point
parent_name,40-cuts
ch_type,1_1
kcount,1
numberNandB,1
brightnessNandB,1
carpet pos,0
pc,0
Time (ms),CH1 Auto-Correlation
1.0,0.05884568765759468
2.0,0.05831759423017502
3.0,0.05780782923102379
4.0,0.05732057988643646
5.0,0.05683666467666626
6.0,0.056350644677877426
7.0,0.05585595220327377
8.0,0.055387549102306366
9.0,0.05492062494158745
10.0,0.05448136106133461
11.0,0.054040711373090744
12.0,0.05360560119152069
13.0,0.05318383499979973
14.0,0.05277244374155998
15.0,0.052366022020578384
16.0,0.05195782706141472
18.0,0.05117721110582352
20.0,0.05042603984475136
22.0,0.049717895686626434
24.0,0.04902596399188042
26.0,0.048379700630903244
28.0,0.047750625759363174
30.0,0.04715695232152939
32.0,0.046567343175411224
36.0,0.04541855677962303
40.0,0.04438124597072601
44.0,0.04333038255572319
48.0,0.04222136735916138
52.0,0.04114113375544548
56.0,0.04013096168637276
60.0,0.0391550250351429
64.0,0.038190919905900955
72.0,0.03645196929574013
80.0,0.035060230642557144
88.0,0.03379296511411667
96.0,0.03251713141798973
104.0,0.03133062273263931
112.0,0.030093157663941383
120.0,0.0289747454226017
128.0,0.027934502810239792
144.0,0.026036277413368225
160.0,0.024651823565363884
176.0,0.022962257266044617
192.0,0.021050158888101578
208.0,0.019664114341139793
224.0,0.018652355298399925
240.0,0.01810646615922451
256.0,0.017316678538918495
288.0,0.015166454017162323
320.0,0.013094285503029823
352.0,0.011009294539690018
384.0,0.009172065183520317
416.0,0.00793769396841526
448.0,0.008027279749512672
480.0,0.008607135154306889
512.0,0.009178437292575836
576.0,0.008210067637264729
640.0,0.008403472602367401
704.0,0.008322056382894516
768.0,0.0094420425593853
832.0,0.009731711819767952
896.0,0.010940514504909515
960.0,0.011499516665935516
1024.0,0.01005872804671526
1152.0,0.008992567658424377
1280.0,0.01056287344545126
1408.0,0.011276418343186378
1536.0,0.00894620455801487
1664.0,0.0034268400631844997
1792.0,-0.0002160551812266931
1920.0,-0.0015402204589918256
2048.0,-0.0037585801910609007
2304.0,-0.0024441524874418974
2560.0,-0.006312859710305929
2816.0,-0.012967689894139767
3072.0,-0.012167838402092457
3328.0,-0.009263305924832821
3584.0,-0.010387901216745377
3840.0,-0.013297779485583305
4096.0,-0.01146877184510231
4608.0,-0.010930665768682957
5120.0,-0.0007773443940095603
5632.0,0.0046138642355799675
6144.0,-6.59621728118509e-05
6656.0,0.005508225876837969
7168.0,0.0035402155481278896
7680.0,-0.0032695592381060123
8192.0,-0.0015651251887902617
9216.0,-0.009079904295504093
10240.0,-0.002187335630878806
11264.0,0.004410916473716497
12288.0,0.006145086605101824
13312.0,0.004533401690423489
14336.0,-0.001560637028887868
end
