version,3.0
numOfCh,1
type,point
parent_name,0-cuts
ch_type,1_1
kcount,1
numberNandB,1
brightnessNandB,1
carpet pos,0
pc,0
Time (ms),CH1 Auto-Correlation
1.0,0.01731584034860134
2.0,0.014539355412125587
3.0,0.012532402761280537
4.0,0.011096053756773472
5.0,0.009892900474369526
6.0,0.008991149254143238
7.0,0.008137363009154797
8.0,0.007490932941436768
9.0,0.006969607900828123
10.0,0.006510840728878975
11.0,0.0060541448183357716
12.0,0.005750566255301237
13.0,0.0054568639025092125
14.0,0.005187745671719313
15.0,0.004982217215001583
16.0,0.004730550106614828
18.0,0.004349459428340197
20.0,0.003957412671297789
22.0,0.003668349701911211
24.0,0.003489561378955841
26.0,0.0033067744225263596
28.0,0.003268153639510274
30.0,0.0030328838620334864
32.0,0.0028468084055930376
36.0,0.0028349561616778374
40.0,0.002675351919606328
44.0,0.002542699920013547
48.0,0.002109336433932185
52.0,0.0016959517961367965
56.0,0.0015023391460999846
60.0,0.0016638804227113724
64.0,0.0013328699860721827
72.0,0.0013753153616562486
80.0,0.0012326698051765561
88.0,0.0007958728238008916
96.0,0.0009600102785043418
104.0,0.0013786389026790857
112.0,0.0009361826232634485
120.0,0.0002886861329898238
128.0,0.00013506854884326458
144.0,0.0004007347743026912
160.0,0.0002807700075209141
176.0,0.0003194863093085587
192.0,0.0004478649061638862
208.0,0.00039619242306798697
224.0,0.0004942241357639432
240.0,0.00098553323186934
256.0,0.0011762937065213919
288.0,0.0008433276670984924
320.0,0.0006572389393113554
352.0,0.0009388471953570843
384.0,0.0004932662122882903
416.0,0.0003242289531044662
448.0,0.0005181251326575875
480.0,0.0005989877390675247
512.0,0.00033721356885507703
576.0,0.00031654053600504994
640.0,-2.9489096050383523e-05
704.0,-0.00015076700947247446
768.0,2.5324730813736096e-05
832.0,0.0007628388120792806
896.0,0.000942387618124485
960.0,-0.00013431529805529863
1024.0,-0.00036173861008137465
1152.0,0.00038276653503999114
1280.0,-7.077465124893934e-05
1408.0,4.454576992429793e-05
1536.0,2.1671174181392416e-05
1664.0,-0.0004866781528107822
1792.0,-0.0010270465863868594
1920.0,-0.0005557448603212833
2048.0,-0.00042193708941340446
2304.0,-0.00021419661061372608
2560.0,-0.0007641467382200062
2816.0,-0.0008198897121474147
3072.0,-0.0007414765423163772
3328.0,-0.00047870492562651634
3584.0,0.0003730740281753242
3840.0,0.00013400669558905065
4096.0,7.992966857273132e-05
4608.0,0.0004854413855355233
5120.0,0.00036036784877069294
5632.0,0.000423199322540313
6144.0,6.634413148276508e-05
6656.0,2.0433155441423878e-05
7168.0,-0.0005063469288870692
7680.0,-0.0009199496125802398
8192.0,0.0002628601505421102
9216.0,0.00027379277162253857
10240.0,0.000514126499183476
11264.0,-0.00039392258622683585
12288.0,-0.0006837343680672348
13312.0,0.00018927770724985749
14336.0,0.00020262907491996884
end
