version,3.0
numOfCh,1
type,point
parent_name,0-cuts
ch_type,1_1
kcount,1
numberNandB,1
brightnessNandB,1
carpet pos,0
pc,0
Time (ms),CH1 Auto-Correlation
1.0,0.02714405208826065
2.0,0.02242095209658146
3.0,0.019043531268835068
4.0,0.016595229506492615
5.0,0.014915927313268185
6.0,0.013440169394016266
7.0,0.01236446388065815
8.0,0.011380963027477264
9.0,0.010487211868166924
10.0,0.009698284789919853
11.0,0.008977615274488926
12.0,0.008503447286784649
13.0,0.007918985560536385
14.0,0.007439357228577137
15.0,0.006776240188628435
16.0,0.006383324973285198
18.0,0.006049783900380135
20.0,0.0055141751654446125
22.0,0.005075075663626194
24.0,0.004858336411416531
26.0,0.00464164512231946
28.0,0.004245290067046881
30.0,0.004010789096355438
32.0,0.0038351956754922867
36.0,0.003793923184275627
40.0,0.003276962088420987
44.0,0.002897189697250724
48.0,0.002771824598312378
52.0,0.002728851279243827
56.0,0.0026574619114398956
60.0,0.002156156115233898
64.0,0.0021697485353797674
72.0,0.002338265534490347
80.0,0.0015252265147864819
88.0,0.00048427091678604484
96.0,0.0008524563163518906
104.0,0.0010951085714623332
112.0,0.00019646149303298444
120.0,-0.0005762220243923366
128.0,-0.0005205954075790942
144.0,-5.147561751073226e-05
160.0,-0.0006276900530792773
176.0,-0.0007938893395476043
192.0,-0.0004538764769677073
208.0,0.00013955718895886093
224.0,-0.00037128254189155996
240.0,0.00029154770891182125
256.0,0.00018382289272267371
288.0,0.0006267962162382901
320.0,0.0002981543948408216
352.0,0.0003722128749359399
384.0,-0.0003078844165429473
416.0,-0.0009542019106447697
448.0,-0.0003417715197429061
480.0,-4.848482785746455e-05
512.0,-0.0005318542243912816
576.0,0.00044533840264193714
640.0,-0.0005631009116768837
704.0,-0.0006656093755736947
768.0,-0.0003663385286927223
832.0,9.203893569065258e-05
896.0,0.00022619127412326634
960.0,1.914895256049931e-05
1024.0,-2.252464764751494e-05
1152.0,-0.00034753503859974444
1280.0,0.0006506141507998109
1408.0,0.0008862654212862253
1536.0,-0.0006007904303260148
1664.0,0.00023003386741038412
1792.0,0.0011011249152943492
1920.0,0.00011646043276414275
2048.0,-0.00021408652537502348
2304.0,-0.00018679743516258895
2560.0,-0.0010722510050982237
2816.0,-2.2040017938707024e-05
3072.0,-0.00011574582458706573
3328.0,0.00037481379695236683
3584.0,0.0005327786202542484
3840.0,-0.0005762106738984585
4096.0,-0.00023186768521554768
4608.0,0.0005231383256614208
5120.0,0.00024247588589787483
5632.0,-0.0005420761881396174
6144.0,0.0003907103673554957
6656.0,0.0005389380967244506
7168.0,-0.0004604738496709615
7680.0,-5.5882828746689484e-05
8192.0,0.0004489115672186017
9216.0,-0.00022032538254279643
10240.0,-0.00035883093369193375
11264.0,9.742408292368054e-05
12288.0,-0.0003576875024009496
13312.0,-5.347837941371836e-05
14336.0,0.00012437929399311543
end
