version,3.0
numOfCh,1
type,point
parent_name,0-cuts
ch_type,1_1
kcount,1
numberNandB,1
brightnessNandB,1
carpet pos,0
pc,0
Time (ms),CH1 Auto-Correlation
1.0,0.026838457211852074
2.0,0.022205663844943047
3.0,0.019013529643416405
4.0,0.016619225963950157
5.0,0.014688742347061634
6.0,0.013133873231709003
7.0,0.011698217131197453
8.0,0.01058907900005579
9.0,0.009711641818284988
10.0,0.0089392876252532
11.0,0.008109791204333305
12.0,0.007521564606577158
13.0,0.007081139832735062
14.0,0.006908814888447523
15.0,0.006502625532448292
16.0,0.006140315905213356
18.0,0.005517682526260614
20.0,0.004952128045260906
22.0,0.00457486417144537
24.0,0.004215950146317482
26.0,0.0035269351210445166
28.0,0.0030035986565053463
30.0,0.003032106440514326
32.0,0.0029617289546877146
36.0,0.002629706170409918
40.0,0.001856628805398941
44.0,0.0017287333030253649
48.0,0.0018905061297118664
52.0,0.0015624582301825285
56.0,0.0011466096621006727
60.0,0.0009070594096556306
64.0,0.000469882448669523
72.0,0.0007446997915394604
80.0,0.00032930736779235303
88.0,0.0001789062371244654
96.0,-3.666389602585696e-05
104.0,-0.00021310278680175543
112.0,0.00012366326700430363
120.0,0.00041528319707140326
128.0,0.0006544955540448427
144.0,0.0008032530313357711
160.0,0.0008493393543176353
176.0,0.0013090127613395452
192.0,0.0011440766975283623
208.0,0.0006643108790740371
224.0,0.00020974544167984277
240.0,-4.933304444421083e-05
256.0,-0.0001353688567178324
288.0,-8.973303920356557e-05
320.0,0.0007287835469469428
352.0,0.0007961567025631666
384.0,0.0002415468479739502
416.0,0.0005168752395547926
448.0,-9.977397712646052e-05
480.0,-0.0005744502996094525
512.0,-0.0003009795327670872
576.0,0.0002999920106958598
640.0,0.0003099357127211988
704.0,-0.0001471205905545503
768.0,0.0007128315046429634
832.0,-0.0002750582352746278
896.0,-0.00030869815964251757
960.0,0.00028121090144850314
1024.0,8.314379374496639e-05
1152.0,-0.00043569208355620503
1280.0,-0.0009785196743905544
1408.0,-0.0005190024385228753
1536.0,5.689145109499805e-05
1664.0,0.0007806973299011588
1792.0,0.00040203912067227066
1920.0,-0.0006097116856835783
2048.0,2.8732682039844804e-05
2304.0,0.00021270492288749665
2560.0,0.00026506176800467074
2816.0,-0.00039625089266337454
3072.0,-0.0005040470277890563
3328.0,-0.0005802384694106877
3584.0,-0.0003374963707756251
3840.0,6.379671685863286e-05
4096.0,0.0001809126406442374
4608.0,-0.00016209449677262455
5120.0,-0.00030140840681269765
5632.0,-0.000337360572302714
6144.0,-0.0004483615921344608
6656.0,0.00012265324767213315
7168.0,-4.992870890418999e-05
7680.0,0.00015951682871673256
8192.0,6.989741086727008e-05
9216.0,0.0006144927465356886
10240.0,-0.0005930567276664078
11264.0,0.00012868772319052368
12288.0,-0.00015808615717105567
13312.0,0.0004644037690013647
14336.0,-0.00038107368163764477
end
