version,3.0
numOfCh,1
type,point
parent_name,0-cuts
ch_type,1_1
kcount,1
numberNandB,1
brightnessNandB,1
carpet pos,0
pc,0
Time (ms),CH1 Auto-Correlation
1.0,0.017223959788680077
2.0,0.014199024066329002
3.0,0.012088107876479626
4.0,0.010571816004812717
5.0,0.009398341178894043
6.0,0.008454526774585247
7.0,0.007621073164045811
8.0,0.0070078615099191666
9.0,0.006482042372226715
10.0,0.005890369415283203
11.0,0.005408755037933588
12.0,0.0050721438601613045
13.0,0.004728485830128193
14.0,0.004443633370101452
15.0,0.0042654466815292835
16.0,0.0041553666815161705
18.0,0.003999506123363972
20.0,0.0036923016887158155
22.0,0.003356687957420945
24.0,0.0031799119897186756
26.0,0.003001552540808916
28.0,0.0027531387750059366
30.0,0.0025621335953474045
32.0,0.0024077987764030695
36.0,0.0018884236924350262
40.0,0.0014927131123840809
44.0,0.0014037640066817403
48.0,0.001287097460590303
52.0,0.001285119098611176
56.0,0.0011077802628278732
60.0,0.0011350142303854227
64.0,0.0012079525040462613
72.0,0.0012563891941681504
80.0,0.0013667765306308866
88.0,0.0006997198215685785
96.0,0.00038924909313209355
104.0,0.0003065679338760674
112.0,0.00015624873049091548
120.0,-0.0002445770660415292
128.0,-0.00017085476429201663
144.0,4.2887579184025526e-05
160.0,6.618841143790632e-05
176.0,-3.0641123885288835e-05
192.0,0.0001073857129085809
208.0,-0.00045520716230385005
224.0,0.0002617746649775654
240.0,0.0001520592049928382
256.0,0.000206827258807607
288.0,0.00035420499625615776
320.0,-0.00024450296768918633
352.0,0.0003666309639811516
384.0,0.00013991736341267824
416.0,-0.00011647585779428482
448.0,0.0002780540962703526
480.0,-0.00013756570115219802
512.0,-0.0005239856545813382
576.0,6.933147233212367e-05
640.0,-0.0003230989968869835
704.0,-1.5938789147185162e-05
768.0,-0.00019621633691713214
832.0,0.00032645981991663575
896.0,0.0005930271581746638
960.0,0.00010818750888574868
1024.0,0.0004934465396218002
1152.0,4.5507655158871785e-05
1280.0,0.0003792173520196229
1408.0,-8.771006832830608e-05
1536.0,0.00011738181638065726
1664.0,-0.0005202449974603951
1792.0,-8.333871664945036e-05
1920.0,0.00021425352315418422
2048.0,0.00020454100740607828
2304.0,-0.0004286757903173566
2560.0,-0.0006115341675467789
2816.0,-0.000419210409745574
3072.0,-4.6464581828331575e-05
3328.0,-0.00034362851874902844
3584.0,-0.00035785703221336007
3840.0,-0.0001667185133555904
4096.0,-0.00033764654654078186
4608.0,-0.00023291200341191143
5120.0,0.00021290022414177656
5632.0,0.0003255409246776253
6144.0,0.00019937774050049484
6656.0,0.00032232014928013086
7168.0,0.0004073290911037475
7680.0,0.00022811423696111888
8192.0,-0.000367680040653795
9216.0,-0.00013464514631778002
10240.0,-0.00021211450803093612
11264.0,-0.00021711911540478468
12288.0,0.0003261402598582208
13312.0,4.137848736718297e-05
14336.0,0.0006333290948532522
end
