version,3.0
numOfCh,1
type,point
parent_name,0-cuts
ch_type,1_1
kcount,1
numberNandB,1
brightnessNandB,1
carpet pos,0
pc,0
Time (ms),CH1 Auto-Correlation
1.0,0.016351427882909775
2.0,0.013331267982721329
3.0,0.011264181695878506
4.0,0.009684503078460693
5.0,0.00845665205270052
6.0,0.007449966389685869
7.0,0.0065608867444098
8.0,0.005876636598259211
9.0,0.005353527143597603
10.0,0.0048513528890907764
11.0,0.004337854217737913
12.0,0.003905724501237273
13.0,0.003381210844963789
14.0,0.0030716219916939735
15.0,0.0027484612073749304
16.0,0.002562787150964141
18.0,0.0021364903077483177
20.0,0.0017634797841310501
22.0,0.0014824423706158996
24.0,0.0013698921538889408
26.0,0.001086401636712253
28.0,0.0009599907789379358
30.0,0.0009779148967936635
32.0,0.0011018533259630203
36.0,0.0010967801790684462
40.0,0.001030763378366828
44.0,0.0008567578042857349
48.0,0.0005948807229287922
52.0,0.0006987623055465519
56.0,0.0005980015266686678
60.0,0.00040047531365416944
64.0,0.00029865396209061146
72.0,0.00020628217316698283
80.0,0.00029642475419677794
88.0,0.0002771882573142648
96.0,0.0005586004699580371
104.0,0.00023193139350041747
112.0,-0.000269487063633278
120.0,-0.00037233304465189576
128.0,-0.00015967617218848318
144.0,0.0002351403672946617
160.0,0.0003141495690215379
176.0,0.0003889462968800217
192.0,-0.00012517147115431726
208.0,-6.0056781876483e-06
224.0,8.448938388028182e-06
240.0,-0.0008264162461273372
256.0,-0.0003772737109102309
288.0,0.0002674847492016852
320.0,0.0005021431716158986
352.0,-0.00021076884877402335
384.0,6.91679451847449e-05
416.0,0.00018900062423199415
448.0,0.00025751825887709856
480.0,7.317344716284424e-05
512.0,0.00021831830963492393
576.0,-9.221612708643079e-05
640.0,-9.277871140511706e-05
704.0,0.0004291385121177882
768.0,-3.47329223586712e-05
832.0,-9.628872066969052e-05
896.0,-0.00010741513688117266
960.0,-0.00014301070768851787
1024.0,0.0004807136720046401
1152.0,-8.315552986459807e-05
1280.0,0.00015234727470669895
1408.0,-3.899142029695213e-05
1536.0,-0.00012316978245507926
1664.0,0.0002100066194543615
1792.0,-0.00013901572674512863
1920.0,-0.00033488310873508453
2048.0,4.321283267927356e-05
2304.0,-2.77052131423261e-05
2560.0,-0.0003032300737686455
2816.0,0.00020230106019880623
3072.0,-6.26895489403978e-05
3328.0,7.729850767645985e-05
3584.0,0.00010276759712724015
3840.0,-0.00010066144750453532
4096.0,-0.00020099400717299432
4608.0,-4.6008917706785724e-05
5120.0,2.1196712623350322e-05
5632.0,-8.232535765273497e-05
6144.0,0.00012913282262161374
6656.0,-1.4703134183946531e-05
7168.0,-4.9268950533587486e-05
7680.0,5.747918112319894e-05
8192.0,0.00019247895397711545
9216.0,-0.00015868456102907658
10240.0,-0.00020038151706103235
11264.0,0.00011513251956785098
12288.0,9.94902293314226e-05
13312.0,3.8834110455354676e-05
14336.0,-6.59862780594267e-05
end
