version,3.0
numOfCh,1
type,point
parent_name,0-cuts
ch_type,1_1
kcount,1
numberNandB,1
brightnessNandB,1
carpet pos,0
pc,0
Time (ms),CH1 Auto-Correlation
1.0,0.01570611633360386
2.0,0.012762797065079212
3.0,0.010764927603304386
4.0,0.009203418157994747
5.0,0.008094304241240025
6.0,0.007145969197154045
7.0,0.006333854980766773
8.0,0.0056669446639716625
9.0,0.005087952595204115
10.0,0.004758432041853666
11.0,0.0042909011244773865
12.0,0.0038965174462646246
13.0,0.0034464315976947546
14.0,0.0031091123819351196
15.0,0.0027637998573482037
16.0,0.002436296548694372
18.0,0.002107364358380437
20.0,0.0015931635862216353
22.0,0.0012855121167376637
24.0,0.0011077816598117352
26.0,0.0010369439842179418
28.0,0.0010039653861895204
30.0,0.0008509805193170905
32.0,0.0007536720368079841
36.0,0.0007491757278330624
40.0,0.0007376446737907827
44.0,0.0005163348978385329
48.0,0.0005937271635048091
52.0,0.00069419015198946
56.0,0.0005630138912238181
60.0,0.0007094838074408472
64.0,0.0007091632578521967
72.0,0.0003839962009806186
80.0,-6.380960257956758e-05
88.0,-2.834109909599647e-05
96.0,0.00016849495295900851
104.0,0.0003767528978642076
112.0,0.00043704791460186243
120.0,7.825112697901204e-05
128.0,-0.00010725407628342509
144.0,-0.0003401232825126499
160.0,9.545507964503486e-06
176.0,0.00013352971291169524
192.0,0.0002391291200183332
208.0,0.00035933259641751647
224.0,0.0001439416519133374
240.0,0.00015233081649057567
256.0,0.0001091156154870987
288.0,-0.00021976757852826267
320.0,-0.00012766203144565225
352.0,-0.00030931562650948763
384.0,-0.00036298949271440506
416.0,-0.00010931642464129254
448.0,-4.1771887481445447e-05
480.0,-0.0004108803695999086
512.0,5.231438626651652e-05
576.0,-0.00035106553696095943
640.0,-5.486514783115126e-05
704.0,-0.00010188239684794098
768.0,0.0003871955559588969
832.0,-0.00010041401401394978
896.0,0.00024814336211420596
960.0,0.00021205435041338205
1024.0,-4.29672836617101e-05
1152.0,-0.00015145759971346706
1280.0,0.00010622310946928337
1408.0,-9.047125786310062e-05
1536.0,-0.0004556455241981894
1664.0,-5.6925553508335724e-05
1792.0,0.00012057111598551273
1920.0,-4.4466956751421094e-05
2048.0,7.34392087906599e-05
2304.0,-3.890592051902786e-05
2560.0,-0.00012459946447052062
2816.0,-8.760796481510624e-05
3072.0,8.86581328813918e-05
3328.0,4.450602500583045e-05
3584.0,-0.0002905517758335918
3840.0,0.0001692010700935498
4096.0,0.0001120884990086779
4608.0,-8.433138282271102e-05
5120.0,1.0880717127292883e-05
5632.0,0.00011862935934914276
6144.0,1.0326856681786012e-05
6656.0,7.89443074609153e-05
7168.0,5.9630412579281256e-05
7680.0,0.0001894327433547005
8192.0,-0.0002496830129530281
9216.0,-3.762714550248347e-05
10240.0,-0.00010818316513905302
11264.0,3.211992225260474e-05
12288.0,-0.00010781017044791952
13312.0,4.518674177234061e-05
14336.0,-5.2408475312404335e-05
end
