version,3.0
numOfCh,1
type,point
parent_name,0-cuts
ch_type,1_1
kcount,1
numberNandB,1
brightnessNandB,1
carpet pos,0
pc,0
Time (ms),CH1 Auto-Correlation
1.0,0.015888642519712448
2.0,0.013052347116172314
3.0,0.0110396146774292
4.0,0.00957247894257307
5.0,0.008368036709725857
6.0,0.007459509186446667
7.0,0.006748399697244167
8.0,0.006142544560134411
9.0,0.005602098535746336
10.0,0.005232614930719137
11.0,0.004914075136184692
12.0,0.004631867166608572
13.0,0.004330968949943781
14.0,0.004070422146469355
15.0,0.003795783733949065
16.0,0.0036578625440597534
18.0,0.003209824441000819
20.0,0.0028260417748242617
22.0,0.0026848940178751945
24.0,0.002756229368969798
26.0,0.0028345489408820868
28.0,0.0026393469888716936
30.0,0.0024989317171275616
32.0,0.002482061740010977
36.0,0.0024942655581980944
40.0,0.002305458765476942
44.0,0.0018531574169173837
48.0,0.0016075618332251906
52.0,0.0015593698481097817
56.0,0.0015852894866839051
60.0,0.001509668305516243
64.0,0.0010908613912761211
72.0,0.000714518129825592
80.0,0.000468806509161368
88.0,0.0006293811602517962
96.0,0.0006893805111758411
104.0,0.0005875674542039633
112.0,0.000339636200806126
120.0,0.0002528343175072223
128.0,4.591459583025426e-05
144.0,-0.0005768331466242671
160.0,-0.0010388458613306284
176.0,-0.001118115964345634
192.0,-0.0010158860823139548
208.0,-0.0007152753532864153
224.0,-0.0006706320564262569
240.0,-0.0005345255485735834
256.0,-0.000716924259904772
288.0,-0.0003640630457084626
320.0,0.00015898406854830682
352.0,0.00016448672977276146
384.0,0.0003933807893190533
416.0,-0.00013539449719246477
448.0,0.00010930167627520859
480.0,-0.00020995040540583432
512.0,-0.0001466968678869307
576.0,0.00015930230438243598
640.0,-0.00038720780867151916
704.0,-9.363703429698944e-05
768.0,0.00041598224197514355
832.0,0.0006442154408432543
896.0,0.00041178122046403587
960.0,-0.00044215659727342427
1024.0,-0.0004934694152325392
1152.0,-3.0555100238416344e-05
1280.0,7.577903306810185e-05
1408.0,0.00013887077511753887
1536.0,0.0005781329819001257
1664.0,0.0004992117173969746
1792.0,-0.0002653599949553609
1920.0,-0.00040783360600471497
2048.0,0.00013337591371964663
2304.0,-3.0076389521127567e-05
2560.0,-2.503825817257166e-05
2816.0,-0.0004271336074452847
3072.0,0.0002332569711143151
3328.0,-0.0003716811188496649
3584.0,-0.00017811152793001384
3840.0,0.0003025998594239354
4096.0,-0.000424385245423764
4608.0,-2.7328878786647692e-05
5120.0,-6.539222795254318e-06
5632.0,-0.00014540404663421214
6144.0,-0.00015041879669297487
6656.0,6.843392475275323e-05
7168.0,0.00022078194888308644
7680.0,-1.5980493117240258e-05
8192.0,0.00012339159729890525
9216.0,8.263233758043498e-05
10240.0,-6.520441093016416e-05
11264.0,-6.66448540869169e-05
12288.0,-1.3699277587875258e-05
13312.0,0.00011605492909438908
14336.0,9.014459465106484e-06
end
