version,3.0
numOfCh,1
type,point
parent_name,0-cuts
ch_type,1_1
kcount,1
numberNandB,1
brightnessNandB,1
carpet pos,0
pc,0
Time (ms),CH1 Auto-Correlation
1.0,0.027856633067131042
2.0,0.023021558299660683
3.0,0.01964500918984413
4.0,0.01717323064804077
5.0,0.015199828892946243
6.0,0.013828006573021412
7.0,0.012533403001725674
8.0,0.011411125771701336
9.0,0.010389771312475204
10.0,0.009579365141689777
11.0,0.008847315795719624
12.0,0.008278561756014824
13.0,0.007646535523235798
14.0,0.0068654208444058895
15.0,0.006365754175931215
16.0,0.005956370383501053
18.0,0.0053299772553145885
20.0,0.004849071614444256
22.0,0.004206431098282337
24.0,0.003914135042577982
26.0,0.0036311480216681957
28.0,0.0034325800370424986
30.0,0.0034148048143833876
32.0,0.0032321999315172434
36.0,0.0028588653076440096
40.0,0.0027309104334563017
44.0,0.002656208584085107
48.0,0.002347341738641262
52.0,0.00208790204487741
56.0,0.00185158452950418
60.0,0.0019093150040134788
64.0,0.0017962437123060226
72.0,0.0011062916601076722
80.0,0.0009696147753857076
88.0,0.001395382802002132
96.0,0.001626830780878663
104.0,0.0011118361726403236
112.0,0.0009310169843956828
120.0,0.001111722202040255
128.0,0.0013774740509688854
144.0,0.0005415856721810997
160.0,0.0009336306829936802
176.0,0.000782709801569581
192.0,0.00020389739074744284
208.0,6.621448846999556e-05
224.0,0.0006525733624584973
240.0,0.00028257755911909044
256.0,0.00019331694056745619
288.0,0.00013304533786140382
320.0,0.00027831175248138607
352.0,0.00026509579038247466
384.0,-0.00019184983102604747
416.0,-0.00036785961128771305
448.0,-0.0006317636580206454
480.0,-0.0009188773692585528
512.0,-0.0004524591495282948
576.0,-1.0917883628280833e-05
640.0,0.00014022500545252115
704.0,0.0008724767249077559
768.0,0.0002837834763340652
832.0,0.0008612493984401226
896.0,0.00028823380125686526
960.0,-0.00016234864597208798
1024.0,0.0005097260000184178
1152.0,6.503900658572093e-05
1280.0,-0.0006579803302884102
1408.0,-0.000628793437499553
1536.0,0.0003742205153685063
1664.0,-0.0005842847167514265
1792.0,-0.0003871780645567924
1920.0,1.3621257721752045e-06
2048.0,-0.00090147799346596
2304.0,-0.00033954260288737714
2560.0,4.5612581743625924e-05
2816.0,-1.488531142967986e-05
3072.0,0.00021814138744957745
3328.0,7.753725367365405e-05
3584.0,0.0002067718014586717
3840.0,-5.665207481797552e-06
4096.0,0.00032424001256003976
4608.0,-0.00025131431175395846
5120.0,5.8214980526827276e-05
5632.0,-0.0001623251591809094
6144.0,4.019753396278247e-05
6656.0,-0.0002281874039908871
7168.0,-8.999014244182035e-05
7680.0,0.0002622052270453423
8192.0,0.0004347517096903175
9216.0,-0.0005600588046945632
10240.0,-0.0003789527399931103
11264.0,0.00016003844211809337
12288.0,0.00017007451970130205
13312.0,-0.00031124139786697924
14336.0,9.875856630969793e-05
end
