version,3.0
numOfCh,1
type,point
parent_name,0-cuts
ch_type,1_1
kcount,1
numberNandB,1
brightnessNandB,1
carpet pos,0
pc,0
Time (ms),CH1 Auto-Correlation
1.0,0.01538430992513895
2.0,0.012606920674443245
3.0,0.010606979951262474
4.0,0.009131896309554577
5.0,0.0079623032361269
6.0,0.007082634139806032
7.0,0.006418494042009115
8.0,0.005728438962250948
9.0,0.005225476808845997
10.0,0.004803373012691736
11.0,0.004416236188262701
12.0,0.004048370756208897
13.0,0.0036799053195863962
14.0,0.003302151570096612
15.0,0.0029702524188905954
16.0,0.002702041296288371
18.0,0.00255645252764225
20.0,0.002444276586174965
22.0,0.0022090391721576452
24.0,0.002023382345214486
26.0,0.0019662133418023586
28.0,0.0017899054801091552
30.0,0.0016272584907710552
32.0,0.001576700946316123
36.0,0.0014706110814586282
40.0,0.001472527626901865
44.0,0.0013186295982450247
48.0,0.001072101527824998
52.0,0.001093841390684247
56.0,0.000908528221771121
60.0,0.0007690564380027354
64.0,0.0005955775268375874
72.0,0.0004537535714916885
80.0,0.0002885280118789524
88.0,6.72953319735825e-05
96.0,-0.0002000950917135924
104.0,0.00013319315621629357
112.0,4.9014502110367175e-06
120.0,8.865343261277303e-05
128.0,0.00019572085875552148
144.0,4.253555744071491e-05
160.0,-0.0001538372744107619
176.0,-0.0004604739951901138
192.0,-0.0003876453556586057
208.0,-0.0003998094762209803
224.0,-0.0003688047581817955
240.0,6.2762905145064e-05
256.0,0.0001824314531404525
288.0,-0.00044853618601337075
320.0,-0.0005712042911909521
352.0,0.0003898502327501774
384.0,0.0001949715515365824
416.0,-0.00023119995603337884
448.0,-0.00034722493728622794
480.0,-0.0001688330521574244
512.0,-9.624724771128967e-05
576.0,-0.0003191801079083234
640.0,0.00019930320559069514
704.0,-2.161892371077556e-05
768.0,-0.000514684827066958
832.0,-0.0007605040445923805
896.0,-0.0003294369962532073
960.0,1.9089141005679267e-06
1024.0,-0.00022009531676303595
1152.0,-0.0004789397935383022
1280.0,0.0002661879116203636
1408.0,0.00042885332368314266
1536.0,0.0004036009486299008
1664.0,-4.2107832996407524e-05
1792.0,-0.0005367783014662564
1920.0,-0.0001833670976338908
2048.0,0.0002741737407632172
2304.0,6.818403926445171e-05
2560.0,0.00026185970637016
2816.0,4.340461964602582e-05
3072.0,-0.0002875535865314305
3328.0,-0.00048598783905617893
3584.0,0.0002516151871532202
3840.0,0.00010176270734518766
4096.0,0.00032320438185706735
4608.0,-0.0002929065376520157
5120.0,-0.000111287365143653
5632.0,0.00035877793561667204
6144.0,5.087388854008168e-05
6656.0,-0.000359114637831226
7168.0,8.581348811276257e-05
7680.0,0.00015486514894291759
8192.0,-5.7803961681202054e-05
9216.0,-0.00011210433149244636
10240.0,4.4568172597792e-05
11264.0,-7.166322757257149e-05
12288.0,0.00015845935558900237
13312.0,-0.00012080740270903334
14336.0,5.707904347218573e-05
end
