version,3.0
numOfCh,1
type,point
parent_name,0-cuts
ch_type,1_1
kcount,1
numberNandB,1
brightnessNandB,1
carpet pos,0
pc,0
Time (ms),CH1 Auto-Correlation
1.0,0.016441036015748978
2.0,0.013497142121195793
3.0,0.011432932689785957
4.0,0.00985283125191927
5.0,0.008709220215678215
6.0,0.007785350549966097
7.0,0.0069890194572508335
8.0,0.006337460596114397
9.0,0.0058463262394070625
10.0,0.005366903264075518
11.0,0.0049530151300132275
12.0,0.004612339660525322
13.0,0.00432142848148942
14.0,0.004025742877274752
15.0,0.003796105505898595
16.0,0.0035493115428835154
18.0,0.003094830783084035
20.0,0.002684739651158452
22.0,0.002426550956442952
24.0,0.0021018849220126867
26.0,0.0019216056680306792
28.0,0.0018753973999992013
30.0,0.0018113243859261274
32.0,0.0017615185352042317
36.0,0.0016727865440770984
40.0,0.0013510871212929487
44.0,0.001315087080001831
48.0,0.001087457174435258
52.0,0.0008494026260450482
56.0,0.0009135083528235555
60.0,0.0008459517848677933
64.0,0.0009035610128194094
72.0,0.0005102145951241255
80.0,0.00035077036591246724
88.0,0.000588070775847882
96.0,0.000902376719750464
104.0,0.000957998214289546
112.0,0.0009577810415066779
120.0,0.00042107104673050344
128.0,-5.90075615036767e-05
144.0,-0.0001994605117943138
160.0,-0.0003085302305407822
176.0,-0.00021759903756901622
192.0,-0.00019268087635282427
208.0,-0.00011518744577188045
224.0,-0.0003870271029882133
240.0,-0.0005006768042221665
256.0,0.00016938717453740537
288.0,0.00038557604420930147
320.0,0.0005003891419619322
352.0,-0.00011719502799678594
384.0,0.0002740760101005435
416.0,-0.00015202013310045004
448.0,-0.00024687699624337256
480.0,-0.00033353481558151543
512.0,-0.0002484923170413822
576.0,0.0002524975861888379
640.0,0.0001735132682370022
704.0,-0.0001159103776444681
768.0,-0.0005873224581591785
832.0,6.192325236042961e-05
896.0,0.00035710298107005656
960.0,0.0005010936874896288
1024.0,0.0006659922655671835
1152.0,-0.0002456225047353655
1280.0,-0.00010404051863588393
1408.0,0.00038928925641812384
1536.0,0.00031854346161708236
1664.0,0.000495473446790129
1792.0,8.931387856137007e-05
1920.0,4.784965858561918e-05
2048.0,-2.600907282612752e-05
2304.0,0.00016904197400435805
2560.0,4.3290470784995705e-05
2816.0,9.586617670720443e-05
3072.0,-6.917165592312813e-06
3328.0,0.0001815510622691363
3584.0,-0.00045220443280413747
3840.0,-6.719001976307482e-05
4096.0,-7.546447159256786e-05
4608.0,-4.4920270738657564e-05
5120.0,-0.00012801968841813505
5632.0,-0.0002073210198432207
6144.0,-0.0003424102033022791
6656.0,-4.083203384652734e-05
7168.0,2.7980004233540967e-05
7680.0,-0.0003474123077467084
8192.0,-0.00014682181063108146
9216.0,0.00011241125321248546
10240.0,-6.0684047639369965e-05
11264.0,-6.495664274552837e-05
12288.0,1.3422765732684638e-05
13312.0,5.345412137103267e-05
14336.0,-5.976111788186245e-05
end
