version,3.0
numOfCh,1
type,point
parent_name,0-cuts
ch_type,1_1
kcount,1
numberNandB,1
brightnessNandB,1
carpet pos,0
pc,0
Time (ms),CH1 Auto-Correlation
1.0,0.016261069104075432
2.0,0.013178241439163685
3.0,0.011088688857853413
4.0,0.009533988311886787
5.0,0.008264963515102863
6.0,0.007328800391405821
7.0,0.0065398262813687325
8.0,0.005913201253861189
9.0,0.005278409458696842
10.0,0.004770087543874979
11.0,0.00435496773570776
12.0,0.004080235026776791
13.0,0.003788210451602936
14.0,0.003568278392776847
15.0,0.00340040004812181
16.0,0.0033152031246572733
18.0,0.0030144366901367903
20.0,0.0026859943754971027
22.0,0.0024630643893033266
24.0,0.0022903529461473227
26.0,0.002163946395739913
28.0,0.002078718738630414
30.0,0.0019365564221516252
32.0,0.0018461926374584436
36.0,0.0017600387800484896
40.0,0.0016171665629372
44.0,0.0015574810095131397
48.0,0.001469948561862111
52.0,0.0013499603373929858
56.0,0.0014999646227806807
60.0,0.0013992927270010114
64.0,0.0013666871236637235
72.0,0.0011276761069893837
80.0,0.0005533932708203793
88.0,0.0002217677974840626
96.0,-0.00029010672005824745
104.0,-0.00013565944391302764
112.0,4.1478979255771264e-06
120.0,-4.97137189086061e-05
128.0,-4.141341560170986e-05
144.0,-0.0008793037850409746
160.0,-0.0007809665985405445
176.0,-0.0001543029648019001
192.0,-0.00031824863981455564
208.0,-0.0007655444205738604
224.0,-0.0004880337801296264
240.0,-0.0002429554151603952
256.0,-0.00017133975052274764
288.0,1.312540643993998e-05
320.0,-0.00030331863672472537
352.0,-0.00018981483299285173
384.0,-0.00026276864809915423
416.0,-0.00011726182128768414
448.0,-5.757379040005617e-05
480.0,0.0005837671342305839
512.0,0.00042763593955896795
576.0,0.0004899727646261454
640.0,0.00023509966558776796
704.0,-0.0002154623216483742
768.0,-8.083070133579895e-05
832.0,-7.549643487436697e-05
896.0,0.00014102595741860569
960.0,0.00035114414640702307
1024.0,0.00022528097906615585
1152.0,2.091753776767291e-05
1280.0,-0.0002724512305576354
1408.0,0.000455602741567418
1536.0,0.0001820584002416581
1664.0,-0.0005322611541487277
1792.0,-5.232238254393451e-05
1920.0,0.00017062693950720131
2048.0,0.00011581571743590757
2304.0,-0.0001588044106028974
2560.0,-5.796087862108834e-05
2816.0,0.0003018960705958307
3072.0,7.819332677172497e-05
3328.0,-6.12408621236682e-05
3584.0,1.5081328456290066e-05
3840.0,3.832551556115504e-06
4096.0,-0.00014840690710116178
4608.0,3.8078916986705735e-05
5120.0,-0.00021757597278337926
5632.0,0.00011335289309499785
6144.0,-1.3724181371799204e-05
6656.0,-1.3855252291250508e-05
7168.0,-5.639322989736684e-05
7680.0,-0.0001412923593306914
8192.0,-0.0002570908109191805
9216.0,-0.00012723424879368395
10240.0,-0.00018043052114080638
11264.0,-1.0050119271909352e-05
12288.0,0.00014916800137143582
13312.0,0.0001416285231243819
14336.0,5.278295066091232e-05
end
