version,3.0
numOfCh,1
type,point
parent_name,0-cuts
ch_type,1_1
kcount,1
numberNandB,1
brightnessNandB,1
carpet pos,0
pc,0
Time (ms),CH1 Auto-Correlation
1.0,0.017045723274350166
2.0,0.014117060229182243
3.0,0.011981247924268246
4.0,0.01034784410148859
5.0,0.009102391079068184
6.0,0.008034992963075638
7.0,0.007268107961863279
8.0,0.00671187462285161
9.0,0.006132211536169052
10.0,0.005678980611264706
11.0,0.005252691451460123
12.0,0.004938367288559675
13.0,0.004748689942061901
14.0,0.004510523285716772
15.0,0.004377402365207672
16.0,0.00415846286341548
18.0,0.0038088692817837
20.0,0.003424169262871146
22.0,0.0031297700479626656
24.0,0.0029800613410770893
26.0,0.0029303585179150105
28.0,0.0028226079884916544
30.0,0.0024471813812851906
32.0,0.002123854123055935
36.0,0.0014382399385794997
40.0,0.0011274763382971287
44.0,0.0011119485134258866
48.0,0.0008494872017763555
52.0,0.000892797252163291
56.0,0.0010258525144308805
60.0,0.001128428615629673
64.0,0.0011111943749710917
72.0,0.0008160523721016943
80.0,0.0005629801307804883
88.0,0.00030707931728102267
96.0,0.00021637715690303594
104.0,-0.00017322981148026884
112.0,-0.00012059932487318292
120.0,5.723259528167546e-05
128.0,0.0005203913897275925
144.0,0.000529573648236692
160.0,0.00021147335064597428
176.0,-0.00018857741088140756
192.0,-0.00029246212216094136
208.0,6.322083663690137e-06
224.0,0.0001576363865751773
240.0,0.0007059033960103989
256.0,0.0005991061916574836
288.0,5.5296604841714725e-06
320.0,-0.0008909250609576702
352.0,-0.0007785268826410174
384.0,-0.0005581665900535882
416.0,-0.0003983737260568887
448.0,-0.0002737955655902624
480.0,-0.00034857247374020517
512.0,-0.00014241824101191014
576.0,-0.00021163313067518175
640.0,-0.00016055548621807247
704.0,-7.989071309566498e-05
768.0,3.437172927078791e-05
832.0,0.0001671438367338851
896.0,-0.0004126406565774232
960.0,-0.00011923956481041387
1024.0,-0.0004010741540696472
1152.0,0.00042324530659243464
1280.0,0.0004226636083330959
1408.0,0.00041879454511217773
1536.0,0.0003826876054517925
1664.0,-0.00018788811576087028
1792.0,-0.00037629521102644503
1920.0,-0.0004237042157910764
2048.0,0.00039706224924884737
2304.0,0.0003239205398131162
2560.0,-0.00015630631241947412
2816.0,-0.00015808602620381862
3072.0,3.221216320525855e-05
3328.0,-0.00021837520762346685
3584.0,0.00029386684764176607
3840.0,7.328271021833643e-05
4096.0,-0.0005649204249493778
4608.0,-2.1196850866544992e-05
5120.0,0.00013158359797671437
5632.0,-9.940392374119256e-06
6144.0,-0.00013013809802941978
6656.0,-0.00039306306280195713
7168.0,0.0002552345395088196
7680.0,0.00021384769934229553
8192.0,-0.00034810457145795226
9216.0,0.0001658772525843233
10240.0,-0.00018212036229670048
11264.0,-0.00037350840284489095
12288.0,1.3008213500143029e-05
13312.0,-0.00013100622163619846
14336.0,0.00046786078019067645
end
