version,3.0
numOfCh,1
type,point
parent_name,0-cuts
ch_type,1_1
kcount,1
numberNandB,1
brightnessNandB,1
carpet pos,0
pc,0
Time (ms),CH1 Auto-Correlation
1.0,0.014957045204937458
2.0,0.012119716964662075
3.0,0.0101500628516078
4.0,0.008710583671927452
5.0,0.007468733936548233
6.0,0.006540525238960981
7.0,0.005801726132631302
8.0,0.005252358969300985
9.0,0.004823310766369104
10.0,0.004458424169570208
11.0,0.004166076425462961
12.0,0.0038511555176228285
13.0,0.003558580530807376
14.0,0.0033248388208448887
15.0,0.003050514729693532
16.0,0.002880032639950514
18.0,0.0024576475843787193
20.0,0.0021971736568957567
22.0,0.002028724178671837
24.0,0.001955854007974267
26.0,0.0018538042204454541
28.0,0.0017530156765133142
30.0,0.0015931702218949795
32.0,0.0015084168408066034
36.0,0.0013284897431731224
40.0,0.0009637976181693375
44.0,0.0007886932580731809
48.0,0.0008070425828918815
52.0,0.0007825961802154779
56.0,0.0007582386606372893
60.0,0.0005950139020569623
64.0,0.00033716170582920313
72.0,0.0001131840908783488
80.0,0.0002531158970668912
88.0,0.00027975422563031316
96.0,0.0004202960408292711
104.0,0.0002862390538211912
112.0,0.00023566855816170573
120.0,-1.363055343972519e-05
128.0,-0.0003816387616097927
144.0,-7.58901223889552e-05
160.0,-0.00042755893082357943
176.0,-0.00040455113048665226
192.0,-0.0001631318446015939
208.0,-0.0001243074075318873
224.0,-3.6679623008240014e-05
240.0,-0.00014408581773750484
256.0,-0.00042945926543325186
288.0,0.00019106226682197303
320.0,3.866337465296965e-06
352.0,8.945933223003522e-05
384.0,0.00012007574696326628
416.0,0.0001330027444055304
448.0,6.791903433622792e-05
480.0,0.00011164933675900102
512.0,-0.00016796104318927974
576.0,-9.827262147155125e-06
640.0,0.0002656521974131465
704.0,0.00032994296634569764
768.0,0.00048261042684316635
832.0,0.0004148677980992943
896.0,0.00043711240869015455
960.0,1.6764975953265093e-05
1024.0,0.0001975322375074029
1152.0,0.000531176570802927
1280.0,-3.906213532900438e-05
1408.0,-0.00022575692855753005
1536.0,-9.524590609544248e-07
1664.0,6.129536632215604e-05
1792.0,0.00013967513223178685
1920.0,-3.604632365750149e-05
2048.0,0.0002558095147833228
2304.0,-0.00018705619731917977
2560.0,-0.0002253115817438811
2816.0,-0.00014448976435232908
3072.0,-0.00017765790107659996
3328.0,-6.356761878123507e-05
3584.0,-6.871233199490234e-05
3840.0,9.026347470353357e-06
4096.0,-0.0002725512604229152
4608.0,-7.896680472185835e-05
5120.0,7.889827975304797e-05
5632.0,0.00020974618382751942
6144.0,-2.4333796773134964e-06
6656.0,8.212014654418454e-05
7168.0,0.00013546129048336297
7680.0,0.0001639435940887779
8192.0,-0.00024200267216656357
9216.0,-0.00013959695934318006
10240.0,-0.00016478338511660695
11264.0,-3.823226143140346e-05
12288.0,-0.00017657344869803637
13312.0,-0.0002543846203479916
14336.0,-0.0003309783642180264
end
