version,3.0
numOfCh,1
type,point
parent_name,0-cuts
ch_type,1_1
kcount,1
numberNandB,1
brightnessNandB,1
carpet pos,0
pc,0
Time (ms),CH1 Auto-Correlation
1.0,0.01550761703401804
2.0,0.01263743918389082
3.0,0.010601261630654335
4.0,0.009153478778898716
5.0,0.008072412572801113
6.0,0.007259765174239874
7.0,0.006570599041879177
8.0,0.005888630636036396
9.0,0.00533708743751049
10.0,0.00491172494366765
11.0,0.0045328568667173386
12.0,0.004154912196099758
13.0,0.0039019144605845213
14.0,0.003706167684867978
15.0,0.0034715922083705664
16.0,0.003266809741035104
18.0,0.0028066879604011774
20.0,0.002491679275408387
22.0,0.0022345406468957663
24.0,0.0019368726061657071
26.0,0.001686924253590405
28.0,0.0015150621766224504
30.0,0.00156353076454252
32.0,0.0014484379207715392
36.0,0.0011811349540948868
40.0,0.0007332616951316595
44.0,0.0003497569705359638
48.0,0.00021787047444377095
52.0,5.792625233880244e-05
56.0,1.0369897609052714e-05
60.0,0.00010982216917909682
64.0,0.00010142033715965226
72.0,5.865792263648473e-05
80.0,0.00018820786499418318
88.0,0.0001948220160556957
96.0,1.5775209249113686e-05
104.0,-2.8731539714499377e-05
112.0,0.00035326677607372403
120.0,0.00032288284273818135
128.0,-1.0067217772302683e-05
144.0,0.00018125235510524362
160.0,0.0002499295223969966
176.0,0.00018944579642266035
192.0,0.00011845080007333308
208.0,0.00014691424439661205
224.0,-0.0002904195280279964
240.0,-0.00035701709566637874
256.0,-0.00026693628751672804
288.0,-0.00015173444990068674
320.0,-9.281562961405143e-05
352.0,8.322212670464069e-05
384.0,6.910190859343857e-05
416.0,-9.354446228826419e-05
448.0,-0.0004127955180592835
480.0,-3.3547403290867805e-05
512.0,0.0005102534196339548
576.0,0.0006521720788441598
640.0,0.0003124948707409203
704.0,0.00047640627599321306
768.0,0.0002951438073068857
832.0,7.237053068820387e-05
896.0,0.00014646456111222506
960.0,-0.0006505362107418478
1024.0,-9.225349640473723e-05
1152.0,-0.00013879785547032952
1280.0,0.00033589755184948444
1408.0,0.0001648630714043975
1536.0,5.996313120704144e-05
1664.0,0.00021483701129909605
1792.0,0.00021271544392220676
1920.0,7.8718236181885e-05
2048.0,0.00041699165012687445
2304.0,0.00011643752077361569
2560.0,-8.501108823111281e-05
2816.0,-0.00010268058395013213
3072.0,9.534416676615365e-06
3328.0,-0.00014566798927262425
3584.0,2.5308775093435543e-06
3840.0,-4.20974574808497e-05
4096.0,-0.0001400303008267656
4608.0,-9.359503746964037e-05
5120.0,-0.00021094044495839626
5632.0,-0.00018955020641442388
6144.0,-0.00027756564668379724
6656.0,-0.0002083767030853778
7168.0,4.291392906452529e-05
7680.0,-0.00011716414883267134
8192.0,-0.0002973877126350999
9216.0,0.0001393925049342215
10240.0,-6.280526577029377e-05
11264.0,0.00013734138337895274
12288.0,-1.1766323041229043e-05
13312.0,2.362272425671108e-05
14336.0,4.215991430100985e-05
end
