version,3.0
numOfCh,1
type,point
parent_name,0-cuts
ch_type,1_1
kcount,1
numberNandB,1
brightnessNandB,1
carpet pos,0
pc,0
Time (ms),CH1 Auto-Correlation
1.0,0.016399554908275604
2.0,0.013414770364761353
3.0,0.011235205456614494
4.0,0.00958243478089571
5.0,0.008379572071135044
6.0,0.007391281891614199
7.0,0.006543865893036127
8.0,0.005778152961283922
9.0,0.005109405145049095
10.0,0.004637361969798803
11.0,0.0042036655358970165
12.0,0.003865746082738042
13.0,0.003597044851630926
14.0,0.0034220749512314796
15.0,0.0032272839453071356
16.0,0.0029677851125597954
18.0,0.0025126999244093895
20.0,0.002363567240536213
22.0,0.002063377760350704
24.0,0.001974761951714754
26.0,0.0018507476197555661
28.0,0.001815286697819829
30.0,0.0018705906113609672
32.0,0.001755481120198965
36.0,0.0015661156503483653
40.0,0.0015188681427389383
44.0,0.0014389782445505261
48.0,0.0012224061647430062
52.0,0.0010924452217295766
56.0,0.0013365942286327481
60.0,0.0015988070517778397
64.0,0.0016509734559804201
72.0,0.0009084331104531884
80.0,0.0006656928453594446
88.0,0.0005614711553789675
96.0,0.0003529340319801122
104.0,0.00018338195513933897
112.0,0.00019362113380338997
120.0,-4.172037006355822e-05
128.0,2.5138951968983747e-05
144.0,0.0005125196184962988
160.0,0.0009536993457004428
176.0,0.0007698567933402956
192.0,0.00021861029381398112
208.0,-0.00015577863086946309
224.0,9.655280882725492e-05
240.0,-4.023612927994691e-05
256.0,-0.0001940858637681231
288.0,-0.0005412074388004839
320.0,-0.00012499550939537585
352.0,-0.0001638018002267927
384.0,-0.000255968130659312
416.0,-0.000363942701369524
448.0,-0.0003551412373781204
480.0,8.246607467299327e-05
512.0,0.00012695924669969827
576.0,0.00014385026588570327
640.0,0.0002338007470825687
704.0,0.0004488864215090871
768.0,0.0007150195306167006
832.0,-0.00029971011099405587
896.0,-0.0006039963918738067
960.0,-0.00011272764822933823
1024.0,-0.00012212908768560737
1152.0,0.00019870542746502906
1280.0,-2.083315621348447e-06
1408.0,0.00010580415255390108
1536.0,-0.00011278148303972557
1664.0,0.00024547509383410215
1792.0,0.00015865397290326655
1920.0,-0.00035032109008170664
2048.0,-0.0006303091067820787
2304.0,-0.0003422195150051266
2560.0,0.0001360943278996274
2816.0,-0.00045287111424840987
3072.0,-0.000296590180369094
3328.0,-0.00012069963850080967
3584.0,0.00012717921345029026
3840.0,0.00037339728442020714
4096.0,0.0002604273322504014
4608.0,-6.568641401827335e-05
5120.0,1.581365540914703e-05
5632.0,8.024601265788078e-05
6144.0,-0.0002735703601501882
6656.0,-0.00022491617710329592
7168.0,0.00011663177428999916
7680.0,0.00019211246399208903
8192.0,0.0001628949394216761
9216.0,0.00021591296535916626
10240.0,-0.0003690687590278685
11264.0,-0.00036692299181595445
12288.0,6.482443859567866e-05
13312.0,0.0004777216527145356
14336.0,0.00017706902872305363
end
