version,3.0
numOfCh,1
type,point
parent_name,0cd20_0dot069-0dot01
ch_type,1_1
kcount,1
numberNandB,1
brightnessNandB,1
carpet pos,0
pc,0
Time (ms),CH1 Auto-Correlation
1.0,0.07179678976535797
2.0,0.0714312270283699
3.0,0.07109253108501434
4.0,0.07077006995677948
5.0,0.07046880573034286
6.0,0.07016850262880325
7.0,0.06986934691667557
8.0,0.06955590099096298
9.0,0.06925686448812485
10.0,0.06895240396261215
11.0,0.06864580512046814
12.0,0.06836197525262833
13.0,0.06807254254817963
14.0,0.06777027994394302
15.0,0.0674750953912735
16.0,0.06717772781848907
18.0,0.06657644361257553
20.0,0.06597715616226196
22.0,0.06532242149114609
24.0,0.06461692601442337
26.0,0.0639430582523346
28.0,0.06328054517507553
30.0,0.06262078881263733
32.0,0.061955586075782776
36.0,0.060615938156843185
40.0,0.05918414518237114
44.0,0.05782149359583855
48.0,0.05655969679355621
52.0,0.05535353347659111
56.0,0.05422380566596985
60.0,0.053259652107954025
64.0,0.052335482090711594
72.0,0.05043942481279373
80.0,0.048572588711977005
88.0,0.04699977487325668
96.0,0.045614439994096756
104.0,0.04386802390217781
112.0,0.04226553067564964
120.0,0.04079447686672211
128.0,0.03956376761198044
144.0,0.03762875497341156
160.0,0.03635397180914879
176.0,0.03519776090979576
192.0,0.034025855362415314
208.0,0.032843995839357376
224.0,0.03216562047600746
240.0,0.03244750574231148
256.0,0.033392827957868576
288.0,0.03418167680501938
320.0,0.03151627257466316
352.0,0.02635064348578453
384.0,0.021418435499072075
416.0,0.017091922461986542
448.0,0.013062682002782822
480.0,0.00835607759654522
512.0,0.004642090294510126
576.0,-0.0007021013298071921
640.0,-0.004615917336195707
704.0,-0.004661942832171917
768.0,-0.010017992928624153
832.0,-0.013762587681412697
896.0,-0.014194798655807972
960.0,-0.010489058680832386
1024.0,-0.006936788558959961
1152.0,-0.005986291915178299
1280.0,-0.004917015787214041
1408.0,-0.0028099510818719864
1536.0,-0.005820819176733494
1664.0,-0.0047956290654838085
1792.0,-0.007698733825236559
1920.0,-0.0014490948524326086
2048.0,-0.001601001713424921
2304.0,-0.0031743578147143126
2560.0,-0.002096087671816349
2816.0,-0.0029100843239575624
3072.0,-0.00044104960397817194
3328.0,-0.002427659695968032
3584.0,-0.009968003258109093
3840.0,-0.015659842640161514
4096.0,-0.01619936153292656
end
