version,3.0
numOfCh,1
type,point
parent_name,0cd20_0dot069-0dot01
ch_type,1_1
kcount,1
numberNandB,1
brightnessNandB,1
carpet pos,0
pc,0
Time (ms),CH1 Auto-Correlation
1.0,0.03165653347969055
2.0,0.0314667671918869
3.0,0.03127722442150116
4.0,0.03108920529484749
5.0,0.030902603641152382
6.0,0.030713973566889763
7.0,0.030529921874403954
8.0,0.030349601060152054
9.0,0.03017015941441059
10.0,0.029993737116456032
11.0,0.029816387221217155
12.0,0.029645858332514763
13.0,0.029475681483745575
14.0,0.029307574033737183
15.0,0.02914361096918583
16.0,0.02898479253053665
18.0,0.028668884187936783
20.0,0.028350254520773888
22.0,0.02804630808532238
24.0,0.02774941362440586
26.0,0.027460813522338867
28.0,0.02717137709259987
30.0,0.02688726969063282
32.0,0.026611439883708954
36.0,0.026097506284713745
40.0,0.02560499496757984
44.0,0.025134822353720665
48.0,0.02469131164252758
52.0,0.02426321990787983
56.0,0.02385161817073822
60.0,0.02345459721982479
64.0,0.023059537634253502
72.0,0.022342167794704437
80.0,0.02164444699883461
88.0,0.020948516204953194
96.0,0.020265957340598106
104.0,0.019637877121567726
112.0,0.019046129658818245
120.0,0.018453707918524742
128.0,0.017908968031406403
144.0,0.01683681271970272
160.0,0.016018282622098923
176.0,0.015302014537155628
192.0,0.014630905352532864
208.0,0.013903328217566013
224.0,0.0130514707416296
240.0,0.012211358174681664
256.0,0.011553021147847176
288.0,0.010677860118448734
320.0,0.0098348967730999
352.0,0.00913666095584631
384.0,0.008770782500505447
416.0,0.007898311130702496
448.0,0.007168589625507593
480.0,0.006816387176513672
512.0,0.006477813236415386
576.0,0.004615101031959057
640.0,0.002701173070818186
704.0,0.0017590762581676245
768.0,0.0005237081786617637
832.0,-0.0011067346204072237
896.0,-0.0022158620413392782
960.0,-0.0025167306885123253
1024.0,-0.0014900440583005548
1152.0,0.0004994425107724965
1280.0,0.0003124470531474799
1408.0,-0.00041178212268278003
1536.0,-0.0005024259444326162
1664.0,0.00045752612641081214
1792.0,0.0017540431581437588
1920.0,0.0029162794817239046
2048.0,0.0013445086078718305
2304.0,0.00022098413319326937
2560.0,-0.0027515289839357138
2816.0,0.0013289194321259856
3072.0,0.0031412539537996054
3328.0,0.0045578558929264545
3584.0,0.00011690631072269753
3840.0,-0.003286709077656269
4096.0,-0.004313807003200054
4608.0,-0.009272136725485325
5120.0,-0.0015504478942602873
5632.0,0.0005541848368011415
6144.0,-0.0019090279238298535
6656.0,-0.0028641291428357363
7168.0,-0.004083787091076374
7680.0,-0.004723100923001766
8192.0,-0.0026922207325696945
end
