version,3.0
numOfCh,1
type,point
parent_name,0cd20_0dot069-0dot01
ch_type,1_1
kcount,1
numberNandB,1
brightnessNandB,1
carpet pos,0
pc,0
Time (ms),CH1 Auto-Correlation
1.0,0.017433498054742813
2.0,0.01717391610145569
3.0,0.016915293410420418
4.0,0.016668619588017464
5.0,0.016430402174592018
6.0,0.016189033165574074
7.0,0.015942048281431198
8.0,0.015699222683906555
9.0,0.015453102067112923
10.0,0.015214658342301846
11.0,0.014974595978856087
12.0,0.014729080721735954
13.0,0.01449798047542572
14.0,0.014269263483583927
15.0,0.014051424339413643
16.0,0.013850735500454903
18.0,0.013455977663397789
20.0,0.013071815483272076
22.0,0.012697407975792885
24.0,0.012319553643465042
26.0,0.011946703307330608
28.0,0.011613662354648113
30.0,0.011290107853710651
32.0,0.01094891969114542
36.0,0.01031044963747263
40.0,0.009734688326716423
44.0,0.009195108897984028
48.0,0.008685651235282421
52.0,0.008197681978344917
56.0,0.007773959543555975
60.0,0.007420824840664864
64.0,0.007089290302246809
72.0,0.006353330798447132
80.0,0.005701098591089249
88.0,0.005131565500050783
96.0,0.0047375778667628765
104.0,0.004454055801033974
112.0,0.00403638556599617
120.0,0.0035885500255972147
128.0,0.0033491908106952906
144.0,0.0032285796478390694
160.0,0.0030264239758253098
176.0,0.0029325527139008045
192.0,0.002906929235905409
208.0,0.0030068689957261086
224.0,0.0030662138015031815
240.0,0.003161416156217456
256.0,0.0033240406773984432
288.0,0.0024315586779266596
320.0,0.0010412131668999791
352.0,0.0007231312920339406
384.0,0.0012475851690396667
416.0,0.001090274308808148
448.0,0.0019929874688386917
480.0,0.002721951110288501
512.0,0.002604964654892683
576.0,-0.0003469429793767631
640.0,-0.001955874729901552
704.0,-0.0012867336627095938
768.0,0.0003029367362614721
832.0,8.043476555030793e-06
896.0,-0.0009291259339079261
960.0,-0.0004536666383501142
1024.0,-0.0011636249255388975
1152.0,-0.0018506970955058932
1280.0,-0.00047098976210691035
1408.0,-0.0007062105578370392
1536.0,0.0002232052356703207
1664.0,0.001593324588611722
1792.0,0.0015706904232501984
1920.0,-0.001044342527166009
2048.0,-0.000997471623122692
2304.0,-0.0016079656779766083
2560.0,-0.001092184567824006
2816.0,-0.0018539816373959184
3072.0,-0.00040769955376163125
3328.0,-0.0012386112939566374
3584.0,-0.0014509594766423106
3840.0,-0.0012266184203326702
4096.0,-0.0033516299445182085
end
