version,3.0
numOfCh,1
type,point
parent_name,0cd20_0dot069-0dot01
ch_type,1_1
kcount,1
numberNandB,1
brightnessNandB,1
carpet pos,0
pc,0
Time (ms),CH1 Auto-Correlation
1.0,0.02414819970726967
2.0,0.02394847758114338
3.0,0.023751098662614822
4.0,0.02355741709470749
5.0,0.0233717430382967
6.0,0.023189445957541466
7.0,0.023014597594738007
8.0,0.022842328995466232
9.0,0.0226751696318388
10.0,0.022507740184664726
11.0,0.02234216220676899
12.0,0.02218000404536724
13.0,0.022020675241947174
14.0,0.021865375339984894
15.0,0.021719355136156082
16.0,0.02157573215663433
18.0,0.021300341933965683
20.0,0.021033335477113724
22.0,0.02078060433268547
24.0,0.02053418569266796
26.0,0.020303193479776382
28.0,0.020067930221557617
30.0,0.01983414590358734
32.0,0.01959882862865925
36.0,0.01915043592453003
40.0,0.018733805045485497
44.0,0.018322361633181572
48.0,0.017902329564094543
52.0,0.01747102104127407
56.0,0.017041867598891258
60.0,0.016636407002806664
64.0,0.016225410625338554
72.0,0.015433236956596375
80.0,0.014658692292869091
88.0,0.013889355584979057
96.0,0.01313792448490858
104.0,0.012433459982275963
112.0,0.011745833791792393
120.0,0.011054656468331814
128.0,0.010302660055458546
144.0,0.008897495456039906
160.0,0.007982355542480946
176.0,0.007469960954040289
192.0,0.00697204889729619
208.0,0.0065061538480222225
224.0,0.006189639680087566
240.0,0.005963951349258423
256.0,0.005860399920493364
288.0,0.005458254367113113
320.0,0.00509975990280509
352.0,0.004531095270067453
384.0,0.0037815195973962545
416.0,0.0029269144870340824
448.0,0.0021388342138379812
480.0,0.0015857536345720291
512.0,0.0012618021573871374
576.0,0.000415503338444978
640.0,-0.0007136542117223144
704.0,-0.002264069626107812
768.0,-0.0030005185399204493
832.0,-0.002217931905761361
896.0,-0.0019178591901436448
960.0,-0.0026291669346392155
1024.0,-0.0025885379873216152
1152.0,-0.0017668746877461672
1280.0,-0.0019623932894319296
1408.0,-3.26923473039642e-05
1536.0,0.0002581588632892817
1664.0,-0.00027983789914287627
1792.0,0.0004509473801590502
1920.0,0.00046663949615322053
2048.0,0.00030144985066726804
2304.0,1.1594538591452874e-05
2560.0,0.004344849847257137
2816.0,0.0038993507623672485
3072.0,0.001287642284296453
3328.0,-0.001998610096052289
3584.0,-0.002959419973194599
3840.0,-0.0022909948602318764
4096.0,-0.0003852035733871162
4608.0,0.0008745510713197291
5120.0,-0.0017633859533816576
5632.0,-0.0003815398958977312
6144.0,0.0006098155863583088
6656.0,-6.304059638750914e-07
7168.0,-0.0014094524085521698
7680.0,-0.00047836446901783347
8192.0,-0.0010441341437399387
end
