version,3.0
numOfCh,1
type,point
parent_name,0cd20_0dot069-0dot01
ch_type,1_1
kcount,1
numberNandB,1
brightnessNandB,1
carpet pos,0
pc,0
Time (ms),CH1 Auto-Correlation
1.0,0.030946357175707817
2.0,0.03073212318122387
3.0,0.03052520379424095
4.0,0.030314307659864426
5.0,0.030109619721770287
6.0,0.029903840273618698
7.0,0.02970140054821968
8.0,0.02950267679989338
9.0,0.02930520661175251
10.0,0.029111959040164948
11.0,0.02891998551785946
12.0,0.028732014819979668
13.0,0.02854921482503414
14.0,0.028366876766085625
15.0,0.028186986222863197
16.0,0.028006182983517647
18.0,0.02764512598514557
20.0,0.02730896882712841
22.0,0.026987377554178238
24.0,0.026669329032301903
26.0,0.026364751160144806
28.0,0.026058634743094444
30.0,0.025759585201740265
32.0,0.025468148291110992
36.0,0.02491028606891632
40.0,0.024350371211767197
44.0,0.02375771291553974
48.0,0.023167075589299202
52.0,0.022599078714847565
56.0,0.02208668738603592
60.0,0.021605966612696648
64.0,0.021123064681887627
72.0,0.020214026793837547
80.0,0.01936022937297821
88.0,0.01862458512187004
96.0,0.017938951030373573
104.0,0.017284339293837547
112.0,0.016596844419836998
120.0,0.01590602658689022
128.0,0.015295431949198246
144.0,0.01423721294850111
160.0,0.013240499421954155
176.0,0.012393074110150337
192.0,0.011788003146648407
208.0,0.011460334993898869
224.0,0.011081487871706486
240.0,0.010730685666203499
256.0,0.010290488600730896
288.0,0.00908459722995758
320.0,0.00806267000734806
352.0,0.007066207006573677
384.0,0.006101488135755062
416.0,0.004976931028068066
448.0,0.004036733880639076
480.0,0.003411795012652874
512.0,0.0029390407726168633
576.0,0.0010658805258572102
640.0,0.00019068067194893956
704.0,-0.0007019843906164169
768.0,-0.0009605264640413225
832.0,-0.002647948218509555
896.0,-0.004335112404078245
960.0,-0.006554341875016689
1024.0,-0.006940837949514389
1152.0,-0.007179890759289265
1280.0,-0.008002913556993008
1408.0,-0.00960901565849781
1536.0,-0.007971873506903648
1664.0,-0.004287837538868189
1792.0,-0.0013104523532092571
1920.0,0.001327194506302476
2048.0,0.003027028637006879
2304.0,0.006067075300961733
2560.0,0.004120314493775368
2816.0,0.001645736745558679
3072.0,-0.0015742848627269268
3328.0,-0.0031479226890951395
3584.0,-0.0026172627694904804
3840.0,-0.001148642972111702
4096.0,0.0008498772513121367
4608.0,0.001573990099132061
5120.0,-0.004976912867277861
5632.0,-0.005067119374871254
6144.0,0.0019858963787555695
6656.0,0.0024491066578775644
7168.0,-0.004119110759347677
7680.0,-0.007488025352358818
8192.0,0.0005122757283970714
end
