version,3.0
numOfCh,1
type,point
parent_name,0cd20_0dot069-0dot01
ch_type,1_1
kcount,1
numberNandB,1
brightnessNandB,1
carpet pos,0
pc,0
Time (ms),CH1 Auto-Correlation
1.0,0.030646979808807373
2.0,0.030449271202087402
3.0,0.030261965468525887
4.0,0.030077485367655754
5.0,0.02989168092608452
6.0,0.029704496264457703
7.0,0.029515258967876434
8.0,0.029328603297472
9.0,0.029144030064344406
10.0,0.028964266180992126
11.0,0.028780143707990646
12.0,0.028595848008990288
13.0,0.02841212972998619
14.0,0.02823055349290371
15.0,0.028057483956217766
16.0,0.027888072654604912
18.0,0.027556680142879486
20.0,0.027227815240621567
22.0,0.02689359337091446
24.0,0.026563001796603203
26.0,0.026236677542328835
28.0,0.02591630257666111
30.0,0.025588516145944595
32.0,0.025252019986510277
36.0,0.024629557505249977
40.0,0.024046434089541435
44.0,0.023537373170256615
48.0,0.023071497678756714
52.0,0.0226104985922575
56.0,0.022153668105602264
60.0,0.021709343418478966
64.0,0.02129346691071987
72.0,0.020581141114234924
80.0,0.019943032413721085
88.0,0.019370270892977715
96.0,0.018820930272340775
104.0,0.0182938352227211
112.0,0.01774517074227333
120.0,0.01731136254966259
128.0,0.01704489253461361
144.0,0.016490938141942024
160.0,0.015849104151129723
176.0,0.015202839858829975
192.0,0.014753220602869987
208.0,0.014198057353496552
224.0,0.013799121603369713
240.0,0.013722563162446022
256.0,0.013572746887803078
288.0,0.01324776466935873
320.0,0.012962538748979568
352.0,0.012756401672959328
384.0,0.012659518048167229
416.0,0.012633898295462132
448.0,0.012794118374586105
480.0,0.012091906741261482
512.0,0.011275277473032475
576.0,0.010537763126194477
640.0,0.009765620343387127
704.0,0.008442515507340431
768.0,0.008567603304982185
832.0,0.008293158374726772
896.0,0.007211208343505859
960.0,0.006380412727594376
1024.0,0.005822612438350916
1152.0,0.005837146658450365
1280.0,0.004285681061446667
1408.0,0.0022618575021624565
1536.0,0.0012291548773646355
1664.0,-0.0005383275565691292
1792.0,-0.004748017061501741
1920.0,-0.008035950362682343
2048.0,-0.008606396615505219
2304.0,-0.008369670249521732
2560.0,-0.008290535770356655
2816.0,-0.009833886288106441
3072.0,-0.012112676165997982
3328.0,-0.012045611627399921
3584.0,-0.010008726269006729
3840.0,-0.007248760666698217
4096.0,-0.005981317721307278
4608.0,-0.0048490604385733604
5120.0,0.0019565261900424957
5632.0,0.0017605741741135716
6144.0,0.0022881419863551855
6656.0,0.0063719432801008224
7168.0,0.0004327221540734172
7680.0,0.0011925534345209599
8192.0,0.004956959281116724
end
