version,3.0
numOfCh,1
type,point
parent_name,0cd20_0dot069-0dot01
ch_type,1_1
kcount,1
numberNandB,1
brightnessNandB,1
carpet pos,0
pc,0
Time (ms),CH1 Auto-Correlation
1.0,0.03534936532378197
2.0,0.03500626981258392
3.0,0.03467561677098274
4.0,0.0343451052904129
5.0,0.034025032073259354
6.0,0.03372567892074585
7.0,0.03341982141137123
8.0,0.033116791397333145
9.0,0.0328160859644413
10.0,0.03250977769494057
11.0,0.03220690041780472
12.0,0.03191211074590683
13.0,0.031627532094717026
14.0,0.031360652297735214
15.0,0.031105399131774902
16.0,0.030856972560286522
18.0,0.030386535450816154
20.0,0.02994413487613201
22.0,0.029544256627559662
24.0,0.0292061734944582
26.0,0.028854794800281525
28.0,0.028532054275274277
30.0,0.028251735493540764
32.0,0.027968136593699455
36.0,0.027351196855306625
40.0,0.0267502348870039
44.0,0.02622314728796482
48.0,0.025751300156116486
52.0,0.02528023160994053
56.0,0.024815235286951065
60.0,0.02430386282503605
64.0,0.02379993349313736
72.0,0.022838668897747993
80.0,0.02202737331390381
88.0,0.02154199779033661
96.0,0.020971668884158134
104.0,0.020296305418014526
112.0,0.01974882371723652
120.0,0.019280992448329926
128.0,0.0185727346688509
144.0,0.01755828596651554
160.0,0.01719541847705841
176.0,0.017252879217267036
192.0,0.01680886186659336
208.0,0.016827909275889397
224.0,0.017070217058062553
240.0,0.01675569638609886
256.0,0.01622479408979416
288.0,0.014672765508294106
320.0,0.012240257114171982
352.0,0.010231474414467812
384.0,0.009076211601495743
416.0,0.008515284396708012
448.0,0.007972794584929943
480.0,0.00743101816624403
512.0,0.00728457048535347
576.0,0.006506648380309343
640.0,0.005114784464240074
704.0,0.00570675078779459
768.0,0.005461130291223526
832.0,0.0056663015857338905
896.0,0.0032590797636657953
960.0,0.0006423563463613391
1024.0,2.033835153270047e-05
1152.0,0.0006623371155001223
1280.0,0.0024201024789363146
1408.0,0.0009242183296009898
1536.0,-0.00046424291213043034
1664.0,-0.0025677629746496677
1792.0,-0.0063142976723611355
1920.0,-0.004412806127220392
2048.0,-0.0020581241697072983
2304.0,-0.001718862447887659
2560.0,-0.001966208452358842
2816.0,-0.0015773478662595153
3072.0,-0.00138684525154531
3328.0,-0.002585318870842457
3584.0,-0.004050706513226032
3840.0,-0.007475460879504681
4096.0,-0.009893343783915043
4608.0,-0.009614773094654083
5120.0,-0.005268631037324667
5632.0,-0.0013046929379925132
6144.0,0.002290726639330387
6656.0,-0.0007830674876458943
7168.0,-0.0016549322754144669
7680.0,0.009341203607618809
8192.0,0.002489630598574877
end
