version,3.0
numOfCh,1
type,point
parent_name,0cd20_0dot069-0dot01
ch_type,1_1
kcount,1
numberNandB,1
brightnessNandB,1
carpet pos,0
pc,0
Time (ms),CH1 Auto-Correlation
1.0,0.033843979239463806
2.0,0.033616479486227036
3.0,0.0333927720785141
4.0,0.03316999599337578
5.0,0.03294610232114792
6.0,0.0327322855591774
7.0,0.03252461925148964
8.0,0.03232278302311897
9.0,0.03212412819266319
10.0,0.03191939741373062
11.0,0.03172373026609421
12.0,0.03153064846992493
13.0,0.031339358538389206
14.0,0.03115074522793293
15.0,0.03096655197441578
16.0,0.030782539397478104
18.0,0.030409082770347595
20.0,0.03004501760005951
22.0,0.0296927522867918
24.0,0.029360398650169373
26.0,0.029054025188088417
28.0,0.028768697753548622
30.0,0.02848888747394085
32.0,0.02820788510143757
36.0,0.027641797438263893
40.0,0.02712252177298069
44.0,0.026608949527144432
48.0,0.026095304638147354
52.0,0.02559683658182621
56.0,0.025160346180200577
60.0,0.024734988808631897
64.0,0.024306869134306908
72.0,0.02348230592906475
80.0,0.022614028304815292
88.0,0.021746015176177025
96.0,0.020948883146047592
104.0,0.020379595458507538
112.0,0.020172370597720146
120.0,0.01999194361269474
128.0,0.01968144066631794
144.0,0.019035376608371735
160.0,0.01829899288713932
176.0,0.01792926713824272
192.0,0.01766897737979889
208.0,0.01740163005888462
224.0,0.01709657348692417
240.0,0.01688673533499241
256.0,0.016913987696170807
288.0,0.01636013202369213
320.0,0.01582600176334381
352.0,0.014940466731786728
384.0,0.014373484067618847
416.0,0.013785693794488907
448.0,0.013081464916467667
480.0,0.01177915558218956
512.0,0.010712582617998123
576.0,0.009695853106677532
640.0,0.009532622061669827
704.0,0.009724386036396027
768.0,0.009169939905405045
832.0,0.007699750363826752
896.0,0.0067243617959320545
960.0,0.006177511997520924
1024.0,0.005369306076318026
1152.0,0.0031717969104647636
1280.0,0.0007165145943872631
1408.0,-0.001121153007261455
1536.0,-0.0031159529462456703
1664.0,-0.004635938443243504
1792.0,-0.004594126250594854
1920.0,-0.00654626777395606
2048.0,-0.009959200397133827
2304.0,-0.006411581300199032
2560.0,-0.0019384898478165269
2816.0,-0.0015346265863627195
3072.0,-0.0007020815392024815
3328.0,0.00012532465916592628
3584.0,0.0009012717055156827
3840.0,0.003144441405311227
4096.0,0.005445511545985937
4608.0,0.0006328074960038066
5120.0,0.00269663636572659
5632.0,-0.0017062685219570994
6144.0,-0.009302356280386448
6656.0,-0.014124867506325245
7168.0,-0.020187363028526306
7680.0,-0.015326883643865585
8192.0,-0.005179057363420725
end
