version,3.0
numOfCh,1
type,point
parent_name,0cd20_0dot069-0dot01
ch_type,1_1
kcount,1
numberNandB,1
brightnessNandB,1
carpet pos,0
pc,0
Time (ms),CH1 Auto-Correlation
1.0,0.021205827593803406
2.0,0.021020153537392616
3.0,0.02083428204059601
4.0,0.02065398544073105
5.0,0.02047443948686123
6.0,0.020298795774579048
7.0,0.020128760486841202
8.0,0.019965047016739845
9.0,0.01980213262140751
10.0,0.019645055755972862
11.0,0.01948775351047516
12.0,0.019334470853209496
13.0,0.019181104376912117
14.0,0.019033778458833694
15.0,0.018886087462306023
16.0,0.018742136657238007
18.0,0.018467552959918976
20.0,0.01819167286157608
22.0,0.017920564860105515
24.0,0.017645543441176414
26.0,0.017368879169225693
28.0,0.0171021968126297
30.0,0.016838978976011276
32.0,0.01658756658434868
36.0,0.016126109287142754
40.0,0.01570327766239643
44.0,0.015309042297303677
48.0,0.014953180216252804
52.0,0.014591402374207973
56.0,0.01424492709338665
60.0,0.013888288289308548
64.0,0.013521363958716393
72.0,0.012856184504926205
80.0,0.012189139612019062
88.0,0.011564289219677448
96.0,0.01098275650292635
104.0,0.010363534092903137
112.0,0.009750600904226303
120.0,0.009203307330608368
128.0,0.008723795413970947
144.0,0.007879886776208878
160.0,0.007242629770189524
176.0,0.0067720008082687855
192.0,0.006337161175906658
208.0,0.006013643927872181
224.0,0.005579352844506502
240.0,0.005121069494634867
256.0,0.004886215552687645
288.0,0.004662168212234974
320.0,0.004530204925686121
352.0,0.004634245298802853
384.0,0.0047005824744701385
416.0,0.004744320176541805
448.0,0.004597159568220377
480.0,0.004364406690001488
512.0,0.0037545424420386553
576.0,0.002782975323498249
640.0,0.0029228851199150085
704.0,0.0034944002982228994
768.0,0.0038609185721725225
832.0,0.004298171494156122
896.0,0.003873254405334592
960.0,0.001880920259281993
1024.0,0.00015101853932719678
1152.0,-0.00032924191327765584
1280.0,-0.0008039046078920364
1408.0,-0.0007915135356597602
1536.0,-0.0007321006269194186
1664.0,-0.0016793250106275082
1792.0,-0.004125245381146669
1920.0,-0.005831160116940737
2048.0,-0.005062552634626627
2304.0,-0.0043112533167004585
2560.0,-0.004419712815433741
2816.0,-0.004229217767715454
3072.0,-0.003302490571513772
3328.0,-0.002079050987958908
3584.0,-0.0011039378587156534
3840.0,0.002388790249824524
4096.0,0.003127139527350664
4608.0,0.0038505983538925648
5120.0,0.0005857472424395382
5632.0,0.000596365483943373
6144.0,-0.0010363752953708172
6656.0,-0.001464304281398654
7168.0,-0.0019435605499893427
7680.0,-0.0016159496735781431
8192.0,0.0007286202162504196
end
