version,3.0
numOfCh,1
type,point
parent_name,0cd20_0dot069-0dot01
ch_type,1_1
kcount,1
numberNandB,1
brightnessNandB,1
carpet pos,0
pc,0
Time (ms),CH1 Auto-Correlation
1.0,0.04198228567838669
2.0,0.04158418998122215
3.0,0.041233859956264496
4.0,0.040884122252464294
5.0,0.040584709495306015
6.0,0.040318045765161514
7.0,0.03996381536126137
8.0,0.03971577435731888
9.0,0.039392247796058655
10.0,0.039083875715732574
11.0,0.03877781331539154
12.0,0.038512397557497025
13.0,0.03827060014009476
14.0,0.03803065046668053
15.0,0.03780500963330269
16.0,0.03756611421704292
18.0,0.037034276872873306
20.0,0.03647860139608383
22.0,0.03600991144776344
24.0,0.0355413444340229
26.0,0.03509673476219177
28.0,0.03468061983585358
30.0,0.034287575632333755
32.0,0.03393557667732239
36.0,0.03305605798959732
40.0,0.03219616413116455
44.0,0.03128208592534065
48.0,0.03040589578449726
52.0,0.02964053675532341
56.0,0.028915753588080406
60.0,0.02816620096564293
64.0,0.027664098888635635
72.0,0.02661665715277195
80.0,0.025947334244847298
88.0,0.025421032682061195
96.0,0.02473645657300949
104.0,0.02419537492096424
112.0,0.023525826632976532
120.0,0.022690271958708763
128.0,0.021936457604169846
144.0,0.01967867650091648
160.0,0.01819554716348648
176.0,0.017158983275294304
192.0,0.016286741942167282
208.0,0.015542356297373772
224.0,0.014307762496173382
240.0,0.01275603473186493
256.0,0.011278565973043442
288.0,0.009450644254684448
320.0,0.008441423997282982
352.0,0.007019240874797106
384.0,0.005879983305931091
416.0,0.005046299658715725
448.0,0.004643967840820551
480.0,0.0036083480808883905
512.0,0.0032749082893133163
576.0,0.004506692755967379
640.0,0.00732716079801321
704.0,0.009172280319035053
768.0,0.010497868992388248
832.0,0.010857679881155491
896.0,0.011245514266192913
960.0,0.011125048622488976
1024.0,0.008272573351860046
1152.0,0.0012654929887503386
1280.0,-0.0026602016296237707
1408.0,-0.004034886602312326
1536.0,-0.0005991910002194345
1664.0,0.001610922859981656
1792.0,0.00043249549344182014
1920.0,0.0012911956291645765
2048.0,-0.0017628211062401533
2304.0,0.0009592437418177724
2560.0,0.0019641490653157234
2816.0,-0.002673292765393853
3072.0,-2.1830096557096113e-06
3328.0,0.00185079884249717
3584.0,-0.0045547871850430965
3840.0,-0.009947438724339008
4096.0,-0.00431541632860899
4608.0,0.0003980302717536688
5120.0,0.004951039329171181
5632.0,0.003143522422760725
6144.0,-0.0002107657928718254
6656.0,-0.0016777932178229094
7168.0,0.003040352603420615
7680.0,-0.003174101235345006
8192.0,-0.0022929501719772816
end
