version,3.0
numOfCh,1
type,point
parent_name,0cd20_0dot069-0dot01
ch_type,1_1
kcount,1
numberNandB,1
brightnessNandB,1
carpet pos,0
pc,0
Time (ms),CH1 Auto-Correlation
1.0,0.04391152039170265
2.0,0.04361890256404877
3.0,0.04334356635808945
4.0,0.04307207837700844
5.0,0.04281878471374512
6.0,0.04256190359592438
7.0,0.042306020855903625
8.0,0.042053502053022385
9.0,0.04181414470076561
10.0,0.041585519909858704
11.0,0.041364897042512894
12.0,0.04113450273871422
13.0,0.040891245007514954
14.0,0.040662482380867004
15.0,0.040438055992126465
16.0,0.040224138647317886
18.0,0.03980768471956253
20.0,0.039389580488204956
22.0,0.03898767754435539
24.0,0.03857181966304779
26.0,0.03815388306975365
28.0,0.03774566575884819
30.0,0.03734724223613739
32.0,0.036954138427972794
36.0,0.03616270422935486
40.0,0.035408955067396164
44.0,0.03471585363149643
48.0,0.03400031849741936
52.0,0.033324483782052994
56.0,0.03269026800990105
60.0,0.03205769509077072
64.0,0.03145039826631546
72.0,0.03021639585494995
80.0,0.02892586961388588
88.0,0.027579834684729576
96.0,0.026231467723846436
104.0,0.025028163567185402
112.0,0.024045970290899277
120.0,0.023208605125546455
128.0,0.022384420037269592
144.0,0.020867375656962395
160.0,0.019512860104441643
176.0,0.018342768773436546
192.0,0.01734517328441143
208.0,0.016416482627391815
224.0,0.015403678640723228
240.0,0.014301998540759087
256.0,0.013130506500601768
288.0,0.011264721862971783
320.0,0.009334307163953781
352.0,0.007990633137524128
384.0,0.006796014029532671
416.0,0.005504247732460499
448.0,0.004661068320274353
480.0,0.004397620912641287
512.0,0.004708023276180029
576.0,0.004614311270415783
640.0,0.005410317797213793
704.0,0.006651482544839382
768.0,0.007004891987890005
832.0,0.006059790961444378
896.0,0.006022308953106403
960.0,0.0059593962505459785
1024.0,0.004657499026507139
1152.0,0.0013971676817163825
1280.0,0.0011583792511373758
1408.0,0.0015145688084885478
1536.0,0.002093727234750986
1664.0,0.002125194063410163
1792.0,-0.0018695932812988758
1920.0,-0.004109266214072704
2048.0,-0.004038212355226278
2304.0,-0.004390740301460028
2560.0,-0.0038468351121991873
2816.0,0.00030823840643279254
3072.0,-0.001508992980234325
3328.0,-0.007984154857695103
3584.0,-0.010056890547275543
3840.0,-0.006316380575299263
4096.0,-0.005635783076286316
4608.0,-0.009059789590537548
5120.0,-0.0008323987713083625
5632.0,0.0026656771078705788
6144.0,0.0013022467028349638
6656.0,0.005560452584177256
7168.0,0.006764386780560017
7680.0,-0.0018951939418911934
8192.0,-0.0022340374998748302
end
