version,3.0
numOfCh,1
type,point
parent_name,0cd20_0dot069-0dot01
ch_type,1_1
kcount,1
numberNandB,1
brightnessNandB,1
carpet pos,0
pc,0
Time (ms),CH1 Auto-Correlation
1.0,0.03898587450385094
2.0,0.03875266760587692
3.0,0.03852352499961853
4.0,0.03830032795667648
5.0,0.03807611018419266
6.0,0.03785600885748863
7.0,0.03763056918978691
8.0,0.037410423159599304
9.0,0.03719567507505417
10.0,0.03698655962944031
11.0,0.03678238391876221
12.0,0.036577653139829636
13.0,0.03638508915901184
14.0,0.03620181232690811
15.0,0.03601313382387161
16.0,0.03581684082746506
18.0,0.03543141111731529
20.0,0.03507378697395325
22.0,0.03471669554710388
24.0,0.03435860201716423
26.0,0.03401337191462517
28.0,0.03369542211294174
30.0,0.033384498208761215
32.0,0.03308023884892464
36.0,0.03250515088438988
40.0,0.03197011351585388
44.0,0.031465690582990646
48.0,0.031001824885606766
52.0,0.030542166903614998
56.0,0.030046168714761734
60.0,0.02954721264541149
64.0,0.02910483069717884
72.0,0.028321802616119385
80.0,0.02754797972738743
88.0,0.0268373005092144
96.0,0.02611086517572403
104.0,0.02535407617688179
112.0,0.024577397853136063
120.0,0.02380208671092987
128.0,0.023121075704693794
144.0,0.021939918398857117
160.0,0.020788051187992096
176.0,0.019934477284550667
192.0,0.019415056332945824
208.0,0.018917730078101158
224.0,0.01822836324572563
240.0,0.017441274598240852
256.0,0.016597995534539223
288.0,0.01524267066270113
320.0,0.013866771943867207
352.0,0.012355544604361057
384.0,0.010647909715771675
416.0,0.009682811796665192
448.0,0.009015480056405067
480.0,0.008917640894651413
512.0,0.008781898766756058
576.0,0.009257704950869083
640.0,0.009129256941378117
704.0,0.009788689203560352
768.0,0.009707420133054256
832.0,0.008973115123808384
896.0,0.008090270683169365
960.0,0.00733573641628027
1024.0,0.008066018112003803
1152.0,0.006734497379511595
1280.0,0.0045677968300879
1408.0,0.005468293558806181
1536.0,0.007323337718844414
1664.0,0.007208565715700388
1792.0,0.005827157758176327
1920.0,0.0019393096445128322
2048.0,0.00039322939119301736
2304.0,-0.002060412662103772
2560.0,-0.005689707584679127
2816.0,-0.004977503325790167
3072.0,-0.003778053680434823
3328.0,-0.006401486229151487
3584.0,-0.0022044896613806486
3840.0,0.0006268009310588241
4096.0,-0.003569552209228277
4608.0,-0.001378619228489697
5120.0,-0.0002111455105477944
5632.0,-0.00027122109895572066
6144.0,-0.010684831999242306
6656.0,-0.012752818875014782
7168.0,-0.014319419860839844
7680.0,-0.014719589613378048
8192.0,-0.0182351004332304
end
