version,3.0
numOfCh,1
type,point
parent_name,0cd20_0dot069-0dot01
ch_type,1_1
kcount,1
numberNandB,1
brightnessNandB,1
carpet pos,0
pc,0
Time (ms),CH1 Auto-Correlation
1.0,0.028675327077507973
2.0,0.02847651019692421
3.0,0.028280165046453476
4.0,0.02808608114719391
5.0,0.027891865000128746
6.0,0.027704106643795967
7.0,0.027515370398759842
8.0,0.027331771329045296
9.0,0.027154183015227318
10.0,0.02698473446071148
11.0,0.02680639550089836
12.0,0.026631977409124374
13.0,0.02646135352551937
14.0,0.026297345757484436
15.0,0.02613486908376217
16.0,0.02597770467400551
18.0,0.02566242590546608
20.0,0.025350220501422882
22.0,0.025049623101949692
24.0,0.024760358035564423
26.0,0.024466857314109802
28.0,0.024167168885469437
30.0,0.023869890719652176
32.0,0.023580648005008698
36.0,0.02306029573082924
40.0,0.022564487531781197
44.0,0.022057784721255302
48.0,0.021547170355916023
52.0,0.021031484007835388
56.0,0.02052777074277401
60.0,0.020027119666337967
64.0,0.019553013145923615
72.0,0.018609996885061264
80.0,0.01769370399415493
88.0,0.016847582533955574
96.0,0.016023075208067894
104.0,0.015280745923519135
112.0,0.014640679582953453
120.0,0.014018787071108818
128.0,0.013430478051304817
144.0,0.0123601034283638
160.0,0.011498293839395046
176.0,0.0107120918110013
192.0,0.010027345269918442
208.0,0.009512186050415039
224.0,0.009068427607417107
240.0,0.008830084465444088
256.0,0.00852964073419571
288.0,0.008016715757548809
320.0,0.007544962223619223
352.0,0.006714934017509222
384.0,0.00584883289411664
416.0,0.004969182889908552
448.0,0.0041460273787379265
480.0,0.003487813752144575
512.0,0.0030459503177553415
576.0,0.003107961965724826
640.0,0.0030718017369508743
704.0,0.002240345813333988
768.0,0.0011594599345698953
832.0,-0.0006619927589781582
896.0,-0.001744622248224914
960.0,-0.0016602978575974703
1024.0,-0.000922599749173969
1152.0,-0.00022622491815127432
1280.0,0.000888005830347538
1408.0,-0.0004528085410129279
1536.0,-0.0025402370374649763
1664.0,-0.003278538817539811
1792.0,-0.005226454231888056
1920.0,-0.005526720080524683
2048.0,-0.006553943734616041
2304.0,-0.005846157670021057
2560.0,-0.001880293246358633
2816.0,-0.0011163257295265794
3072.0,-0.0028285887092351913
3328.0,-0.003182833781465888
3584.0,0.0001032244908856228
3840.0,0.0014261414762586355
4096.0,0.00022099100169725716
4608.0,-0.00341245555318892
5120.0,0.0036103292368352413
5632.0,0.0024316967464983463
6144.0,0.0032680779695510864
6656.0,0.007292431779205799
7168.0,-0.005105666816234589
7680.0,-0.006441466510295868
8192.0,-0.006900522392243147
end
