version,3.0
numOfCh,1
type,point
parent_name,0cd20_0dot069-0dot01
ch_type,1_1
kcount,1
numberNandB,1
brightnessNandB,1
carpet pos,0
pc,0
Time (ms),CH1 Auto-Correlation
1.0,0.026152092963457108
2.0,0.025957655161619186
3.0,0.025770651176571846
4.0,0.025591714307665825
5.0,0.025427499786019325
6.0,0.02526770904660225
7.0,0.025114307180047035
8.0,0.02496206946671009
9.0,0.024809615686535835
10.0,0.024659065529704094
11.0,0.02450587786734104
12.0,0.02434939332306385
13.0,0.024195633828639984
14.0,0.02405129186809063
15.0,0.02390807308256626
16.0,0.023770026862621307
18.0,0.02348850667476654
20.0,0.02320864237844944
22.0,0.022931689396500587
24.0,0.02266601100564003
26.0,0.02242303639650345
28.0,0.022201789543032646
30.0,0.021989814937114716
32.0,0.021788332611322403
36.0,0.021414196118712425
40.0,0.021032024174928665
44.0,0.020652955397963524
48.0,0.020279744639992714
52.0,0.019901443272829056
56.0,0.0195251926779747
60.0,0.019163254648447037
64.0,0.018821779638528824
72.0,0.018134040758013725
80.0,0.017479075118899345
88.0,0.016836252063512802
96.0,0.016244307160377502
104.0,0.015735182911157608
112.0,0.01535191759467125
120.0,0.015042535960674286
128.0,0.014721667394042015
144.0,0.013944990932941437
160.0,0.013095051981508732
176.0,0.01250434573739767
192.0,0.01197125855833292
208.0,0.01136358454823494
224.0,0.01083538867533207
240.0,0.010335669852793217
256.0,0.009900291450321674
288.0,0.00897686555981636
320.0,0.008813808672130108
352.0,0.008667428977787495
384.0,0.008613226003944874
416.0,0.008590051904320717
448.0,0.008971485309302807
480.0,0.008501318283379078
512.0,0.007511309813708067
576.0,0.005349470302462578
640.0,0.003961296286433935
704.0,0.003328591352328658
768.0,0.0034721754491329193
832.0,0.004301399923861027
896.0,0.004548992495983839
960.0,0.0034746595192700624
1024.0,0.001973607810214162
1152.0,0.003268348053097725
1280.0,0.004825747571885586
1408.0,0.0035918571520596743
1536.0,0.001950506237335503
1664.0,0.0009705867851153016
1792.0,0.00015836843522265553
1920.0,-0.0015878126723691821
2048.0,-0.0015168432146310806
2304.0,-0.002538794418796897
2560.0,-0.0016032233834266663
2816.0,-0.0001458858314435929
3072.0,-0.0012962438631802797
3328.0,0.00010785399354062974
3584.0,-0.0027889686170965433
3840.0,-0.004787791520357132
4096.0,-0.0020793736912310123
4608.0,-0.0008277013548649848
5120.0,-0.002682550111785531
5632.0,-0.003866960294544697
6144.0,-0.005471584387123585
6656.0,-4.9293044867226854e-05
7168.0,0.0040008495561778545
7680.0,0.003255863906815648
8192.0,0.005429898854345083
end
