version,3.0
numOfCh,1
type,point
parent_name,0cd20_0dot069-0dot01
ch_type,1_1
kcount,1
numberNandB,1
brightnessNandB,1
carpet pos,0
pc,0
Time (ms),CH1 Auto-Correlation
1.0,0.06350191682577133
2.0,0.06320687383413315
3.0,0.06290128082036972
4.0,0.06259626895189285
5.0,0.062280140817165375
6.0,0.06197396665811539
7.0,0.061666905879974365
8.0,0.06135432794690132
9.0,0.061049073934555054
10.0,0.060742031782865524
11.0,0.060444269329309464
12.0,0.06014564260840416
13.0,0.05983663350343704
14.0,0.05953947454690933
15.0,0.05924930050969124
16.0,0.05895749852061272
18.0,0.05837603658437729
20.0,0.0578102171421051
22.0,0.05724756419658661
24.0,0.056682486087083817
26.0,0.05613721162080765
28.0,0.055629663169384
30.0,0.05511252209544182
32.0,0.05460225045681
36.0,0.05354940891265869
40.0,0.052558958530426025
44.0,0.05162481591105461
48.0,0.050684280693531036
52.0,0.04972813278436661
56.0,0.04873814806342125
60.0,0.04779946804046631
64.0,0.0468895398080349
72.0,0.04518808797001839
80.0,0.04358832538127899
88.0,0.042128998786211014
96.0,0.04070162773132324
104.0,0.039355769753456116
112.0,0.038219500333070755
120.0,0.03714706376194954
128.0,0.03587576746940613
144.0,0.03329039365053177
160.0,0.031300321221351624
176.0,0.029673675075173378
192.0,0.028554461896419525
208.0,0.02803151123225689
224.0,0.027888309210538864
240.0,0.0278173740953207
256.0,0.027781395241618156
288.0,0.02743648737668991
320.0,0.02671433798968792
352.0,0.02574795112013817
384.0,0.02516993321478367
416.0,0.0237326230853796
448.0,0.022726885974407196
480.0,0.023161904886364937
512.0,0.023106470704078674
576.0,0.021751290187239647
640.0,0.01851196028292179
704.0,0.014345083385705948
768.0,0.011859769932925701
832.0,0.013743428513407707
896.0,0.0161825530230999
960.0,0.014208853244781494
1024.0,0.011692700907588005
1152.0,0.014200970530509949
1280.0,0.015665875747799873
1408.0,0.01046424824744463
1536.0,0.007611379958689213
1664.0,0.003596383612602949
1792.0,-0.0007173215853981674
1920.0,-0.007121161557734013
2048.0,-0.010241799056529999
2304.0,-0.009199496358633041
2560.0,-0.01173845212906599
2816.0,-0.013792969286441803
3072.0,-0.016319848597049713
3328.0,-0.01599484495818615
3584.0,-0.010128826834261417
3840.0,-0.011145574040710926
4096.0,-0.010307024233043194
4608.0,-0.005598859395831823
5120.0,-0.003869015257805586
5632.0,-0.000504890049342066
6144.0,0.0003859534044750035
6656.0,-0.013083967380225658
7168.0,0.003126712515950203
7680.0,0.007100972346961498
8192.0,-0.0001452479773433879
end
