version,3.0
numOfCh,1
type,point
parent_name,0cd20_0dot069-0dot01
ch_type,1_1
kcount,1
numberNandB,1
brightnessNandB,1
carpet pos,0
pc,0
Time (ms),CH1 Auto-Correlation
1.0,0.031446896493434906
2.0,0.031248999759554863
3.0,0.031048856675624847
4.0,0.030857354402542114
5.0,0.03066941350698471
6.0,0.03048691153526306
7.0,0.03030821681022644
8.0,0.03013010323047638
9.0,0.029952120035886765
10.0,0.029772723093628883
11.0,0.029593575745821
12.0,0.029412483796477318
13.0,0.029230428859591484
14.0,0.029059121385216713
15.0,0.02888038381934166
16.0,0.02869991771876812
18.0,0.028358567506074905
20.0,0.02801785245537758
22.0,0.027678685262799263
24.0,0.027341408655047417
26.0,0.027013929560780525
28.0,0.026686038821935654
30.0,0.026363598182797432
32.0,0.026040775701403618
36.0,0.025403939187526703
40.0,0.024805279448628426
44.0,0.02422461099922657
48.0,0.023684225976467133
52.0,0.023185601457953453
56.0,0.022742774337530136
60.0,0.022316573187708855
64.0,0.0218796506524086
72.0,0.021034596487879753
80.0,0.020238785073161125
88.0,0.019522828981280327
96.0,0.018867449834942818
104.0,0.018192529678344727
112.0,0.01755678281188011
120.0,0.01699148491024971
128.0,0.01644013822078705
144.0,0.015660375356674194
160.0,0.015089507214725018
176.0,0.014648194424808025
192.0,0.014228681102395058
208.0,0.013681787997484207
224.0,0.012946881353855133
240.0,0.012105010449886322
256.0,0.011296126991510391
288.0,0.009589923545718193
320.0,0.008880614303052425
352.0,0.008418410085141659
384.0,0.007938012480735779
416.0,0.008021058514714241
448.0,0.00794058945029974
480.0,0.0070066251792013645
512.0,0.006157703697681427
576.0,0.006180892698466778
640.0,0.006380547769367695
704.0,0.0057898336090147495
768.0,0.00430678715929389
832.0,0.004729526117444038
896.0,0.004371844697743654
960.0,0.0035730416420847178
1024.0,0.0034352755174040794
1152.0,0.004982195794582367
1280.0,0.003472699085250497
1408.0,-0.00040545122465118766
1536.0,-0.0011432406026870012
1664.0,-0.002199812326580286
1792.0,-0.00022759180865250528
1920.0,0.004196541849523783
2048.0,0.005285575985908508
2304.0,0.006911624222993851
2560.0,0.00599656393751502
2816.0,0.002634154399856925
3072.0,0.003135196166113019
3328.0,0.0016214681090787053
3584.0,-0.0005592285888269544
3840.0,-0.0011887577129527926
4096.0,-0.004451263230293989
4608.0,-0.004239176400005817
5120.0,-0.008523127064108849
5632.0,-0.011225034482777119
6144.0,-0.009402558207511902
6656.0,-0.00669975858181715
7168.0,-0.00602881982922554
7680.0,-0.006521780043840408
8192.0,-0.010319173336029053
end
