version,3.0
numOfCh,1
type,point
parent_name,0cd20_0dot069-0dot01
ch_type,1_1
kcount,1
numberNandB,1
brightnessNandB,1
carpet pos,0
pc,0
Time (ms),CH1 Auto-Correlation
1.0,0.022278426215052605
2.0,0.02207034081220627
3.0,0.021863766014575958
4.0,0.021662801504135132
5.0,0.021471435204148293
6.0,0.021276356652379036
7.0,0.02108428254723549
8.0,0.020902909338474274
9.0,0.020723698660731316
10.0,0.02055017650127411
11.0,0.020382128655910492
12.0,0.020219482481479645
13.0,0.02006133645772934
14.0,0.01991334557533264
15.0,0.019770296290516853
16.0,0.019625840708613396
18.0,0.01933687925338745
20.0,0.019068146124482155
22.0,0.018804308027029037
24.0,0.018548697233200073
26.0,0.018293099477887154
28.0,0.01804358884692192
30.0,0.01781061850488186
32.0,0.017578471451997757
36.0,0.017084436491131783
40.0,0.01662241667509079
44.0,0.016209030523896217
48.0,0.01581287384033203
52.0,0.015403605997562408
56.0,0.014981932006776333
60.0,0.014582501724362373
64.0,0.01422787643969059
72.0,0.013594921678304672
80.0,0.013004174456000328
88.0,0.012462194077670574
96.0,0.011986629106104374
104.0,0.011478135362267494
112.0,0.01090763509273529
120.0,0.010277344845235348
128.0,0.009686813689768314
144.0,0.008470003493130207
160.0,0.007247012108564377
176.0,0.00604312215000391
192.0,0.004969994071871042
208.0,0.004008830990642309
224.0,0.0031088986434042454
240.0,0.002367077162489295
256.0,0.0016902516363188624
288.0,0.0009652599110268056
320.0,0.0008629344520159066
352.0,0.0007679744157940149
384.0,0.0007357035647146404
416.0,0.0012056375853717327
448.0,0.0019652615301311016
480.0,0.0026417518965899944
512.0,0.0025483162607997656
576.0,0.0015032225055620074
640.0,0.001051531289704144
704.0,0.0001616875088075176
768.0,-0.00044115816126577556
832.0,-0.0004586258146446198
896.0,-0.0006982087506912649
960.0,-0.0006662183441221714
1024.0,-0.000770963670220226
1152.0,-0.0010896697640419006
1280.0,-0.0007593915215693414
1408.0,-0.0004809953970834613
1536.0,0.00035323278279975057
1664.0,0.0018973387777805328
1792.0,0.001582135446369648
1920.0,0.0004852242418564856
2048.0,0.00029513207846321166
2304.0,-0.002529335906729102
2560.0,0.0003280645178165287
2816.0,-0.0014541413402184844
3072.0,-0.0019914289005100727
3328.0,-0.0002023841516347602
3584.0,0.0029853754676878452
3840.0,0.0031807059422135353
4096.0,0.003453075885772705
4608.0,-0.002223737770691514
5120.0,-5.275802323012613e-05
5632.0,0.00238116760738194
6144.0,-0.00434289313852787
6656.0,-0.005097464192658663
7168.0,-0.0015755038475617766
7680.0,0.002206533681601286
8192.0,0.0023454620968550444
end
