version,3.0
numOfCh,1
type,point
parent_name,0cd20_0dot069-0dot01
ch_type,1_1
kcount,1
numberNandB,1
brightnessNandB,1
carpet pos,0
pc,0
Time (ms),CH1 Auto-Correlation
1.0,0.030638929456472397
2.0,0.030439218506217003
3.0,0.03024352714419365
4.0,0.030043456703424454
5.0,0.029844749718904495
6.0,0.029652193188667297
7.0,0.02946176379919052
8.0,0.029269816353917122
9.0,0.029075585305690765
10.0,0.028881428763270378
11.0,0.028691647574305534
12.0,0.028506139293313026
13.0,0.028322475031018257
14.0,0.028140759095549583
15.0,0.027965594083070755
16.0,0.02778528816998005
18.0,0.027417123317718506
20.0,0.027065632864832878
22.0,0.02671918459236622
24.0,0.026372723281383514
26.0,0.02604302577674389
28.0,0.025724442675709724
30.0,0.02541210688650608
32.0,0.02510511502623558
36.0,0.02449733018875122
40.0,0.023917993530631065
44.0,0.02339771017432213
48.0,0.022917229682207108
52.0,0.02243582159280777
56.0,0.02196316607296467
60.0,0.021495932713150978
64.0,0.02106473594903946
72.0,0.02029886282980442
80.0,0.019600626081228256
88.0,0.018860986456274986
96.0,0.018156656995415688
104.0,0.0175019484013319
112.0,0.016865909099578857
120.0,0.016240837052464485
128.0,0.015695754438638687
144.0,0.014672664925456047
160.0,0.013830477371811867
176.0,0.01316232793033123
192.0,0.012433999218046665
208.0,0.011733753606677055
224.0,0.011046943254768848
240.0,0.01020362414419651
256.0,0.009367944672703743
288.0,0.007495291065424681
320.0,0.006063031032681465
352.0,0.0053039295598864555
384.0,0.004747171886265278
416.0,0.004037652164697647
448.0,0.0036934015806764364
480.0,0.003276639152318239
512.0,0.003172079101204872
576.0,0.002401417586952448
640.0,0.001252625952474773
704.0,0.0008560412679798901
768.0,0.0021803313866257668
832.0,0.002412712201476097
896.0,0.002936055650934577
960.0,0.0026960112154483795
1024.0,0.0017096070805564523
1152.0,-0.0019475859589874744
1280.0,-0.003648181911557913
1408.0,-0.005069113802164793
1536.0,-0.006663017440587282
1664.0,-0.006575546693056822
1792.0,-0.004843099042773247
1920.0,-0.003811982460319996
2048.0,-0.0018842583522200584
2304.0,0.0008744383230805397
2560.0,-0.0016409686068072915
2816.0,-0.002248294185847044
3072.0,0.0021951026283204556
3328.0,0.00045288007822819054
3584.0,-0.0008883182890713215
3840.0,0.0007537419442087412
4096.0,0.0038696229457855225
4608.0,0.00042057401151396334
5120.0,-0.003755782265216112
5632.0,-0.009113527834415436
6144.0,-0.009886656887829304
6656.0,0.0008860937086865306
7168.0,0.006897790357470512
7680.0,0.0008499634568579495
8192.0,-0.0006233539315871894
end
