version,3.0
numOfCh,1
type,point
parent_name,0cd20_0dot069-0dot01
ch_type,1_1
kcount,1
numberNandB,1
brightnessNandB,1
carpet pos,0
pc,0
Time (ms),CH1 Auto-Correlation
1.0,0.02900056727230549
2.0,0.02879311516880989
3.0,0.02858807146549225
4.0,0.02837899699807167
5.0,0.028172310441732407
6.0,0.02797401137650013
7.0,0.027773434296250343
8.0,0.02757997065782547
9.0,0.02739066444337368
10.0,0.027206916362047195
11.0,0.027022559195756912
12.0,0.02684931270778179
13.0,0.026680054143071175
14.0,0.026514090597629547
15.0,0.026352884247899055
16.0,0.026194537058472633
18.0,0.025881441310048103
20.0,0.025583654642105103
22.0,0.025291820988059044
24.0,0.02499757520854473
26.0,0.02471177652478218
28.0,0.024430686607956886
30.0,0.024162502959370613
32.0,0.02390557900071144
36.0,0.02343003638088703
40.0,0.022947585210204124
44.0,0.022441502660512924
48.0,0.021916355937719345
52.0,0.02141846902668476
56.0,0.020960502326488495
60.0,0.020518537610769272
64.0,0.02010020986199379
72.0,0.019233524799346924
80.0,0.0184576865285635
88.0,0.01771264523267746
96.0,0.017038993537425995
104.0,0.01649293676018715
112.0,0.01600566692650318
120.0,0.015543365851044655
128.0,0.015020960010588169
144.0,0.013994649052619934
160.0,0.013121604919433594
176.0,0.012079773470759392
192.0,0.010984218679368496
208.0,0.009852951392531395
224.0,0.008839706890285015
240.0,0.007864482700824738
256.0,0.006904068402945995
288.0,0.004879838787019253
320.0,0.0029652344528585672
352.0,0.0017379000782966614
384.0,0.000708129839040339
416.0,-0.000343857187544927
448.0,-0.0010632661869749427
480.0,-0.001399399945512414
512.0,-0.0015303153777495027
576.0,-0.0006145425722934306
640.0,0.0006782722193747759
704.0,0.0018477106932550669
768.0,0.0032265810295939445
832.0,0.003628574777394533
896.0,0.003934862557798624
960.0,0.004239864647388458
1024.0,0.004040836822241545
1152.0,0.0019437178270891309
1280.0,0.00017517736705485731
1408.0,-0.0010735574178397655
1536.0,-0.0007108069257810712
1664.0,9.040295117301866e-05
1792.0,-0.0012077358551323414
1920.0,-0.0017322009662166238
2048.0,-0.001805661479011178
2304.0,-0.002825450152158737
2560.0,-0.002755617955699563
2816.0,-0.0003666224656626582
3072.0,0.00032830898999236524
3328.0,-0.004605587106198072
3584.0,-0.006540053058415651
3840.0,-0.0007321535958908498
4096.0,0.001327719073742628
4608.0,0.002085660584270954
5120.0,0.0015152832493185997
5632.0,0.0031526945531368256
6144.0,0.002351956209167838
6656.0,-0.0033836928196251392
7168.0,-0.002791044069454074
7680.0,-0.002814828883856535
8192.0,-0.002629819791764021
end
