version,3.0
numOfCh,1
type,point
parent_name,0cd20_0dot069-0dot01
ch_type,1_1
kcount,1
numberNandB,1
brightnessNandB,1
carpet pos,0
pc,0
Time (ms),CH1 Auto-Correlation
1.0,0.022092457860708237
2.0,0.02189890667796135
3.0,0.021709352731704712
4.0,0.021523267030715942
5.0,0.021336926147341728
6.0,0.02114925906062126
7.0,0.020961496978998184
8.0,0.020776541903614998
9.0,0.020589174702763557
10.0,0.020399419590830803
11.0,0.020208992063999176
12.0,0.02001831866800785
13.0,0.019833404570817947
14.0,0.019651396200060844
15.0,0.01946738362312317
16.0,0.019288213923573494
18.0,0.018926674500107765
20.0,0.018567897379398346
22.0,0.018212731927633286
24.0,0.017849205061793327
26.0,0.017487170174717903
28.0,0.01713850162923336
30.0,0.01680428721010685
32.0,0.016472555696964264
36.0,0.01583246886730194
40.0,0.015226826071739197
44.0,0.01463623158633709
48.0,0.014071188867092133
52.0,0.013550261035561562
56.0,0.013054164126515388
60.0,0.012551367282867432
64.0,0.012032127939164639
72.0,0.011054779402911663
80.0,0.010142053477466106
88.0,0.009250679053366184
96.0,0.008396589197218418
104.0,0.007631022948771715
112.0,0.006927089300006628
120.0,0.006295507308095694
128.0,0.005672296974807978
144.0,0.004665502812713385
160.0,0.00396124180406332
176.0,0.00343188620172441
192.0,0.003079049289226532
208.0,0.002788974903523922
224.0,0.002366729313507676
240.0,0.0019159398507326841
256.0,0.0014989889459684491
288.0,0.0010890606790781021
320.0,0.0006409866618923843
352.0,0.00020273718109820038
384.0,0.0001140235981438309
416.0,-4.5921166019979864e-05
448.0,-0.00024762190878391266
480.0,-0.00022842899488750845
512.0,-3.542826743796468e-05
576.0,0.0001017216345644556
640.0,8.637001883471385e-05
704.0,-0.0005323796067386866
768.0,-0.0015461612492799759
832.0,-0.0016678257379680872
896.0,0.0004848681855946779
960.0,0.002513951389119029
1024.0,0.002550623845309019
1152.0,0.0005597904091700912
1280.0,-0.0011523565044626594
1408.0,-0.0012440899154171348
1536.0,-0.0012218040646985173
1664.0,-0.0018757000798359513
1792.0,-0.00442041689530015
1920.0,-0.004810268059372902
2048.0,-0.0036312933079898357
2304.0,0.0009138932218775153
2560.0,0.0005648654187098145
2816.0,-0.0022398782894015312
3072.0,-0.002625700319185853
3328.0,0.005175843369215727
3584.0,0.002362831961363554
3840.0,0.0007580596720799804
4096.0,-0.0018199945334345102
4608.0,0.000674558337777853
5120.0,-0.0012358665699139237
5632.0,0.001212238916195929
6144.0,-0.0027258936315774918
6656.0,-0.0007334767724387348
7168.0,-0.0006548875826410949
7680.0,-0.00326355523429811
8192.0,0.0021603365894407034
end
