version,3.0
numOfCh,1
type,point
parent_name,0cd20_0dot069-0dot01
ch_type,1_1
kcount,1
numberNandB,1
brightnessNandB,1
carpet pos,0
pc,0
Time (ms),CH1 Auto-Correlation
1.0,0.07601717859506607
2.0,0.07567562162876129
3.0,0.07533589750528336
4.0,0.07501330971717834
5.0,0.07468192279338837
6.0,0.07436451315879822
7.0,0.07407587021589279
8.0,0.0737871378660202
9.0,0.07348597794771194
10.0,0.07318864017724991
11.0,0.07289233058691025
12.0,0.07257314771413803
13.0,0.07226663827896118
14.0,0.07195398211479187
15.0,0.07167079299688339
16.0,0.07137051224708557
18.0,0.07077664136886597
20.0,0.0701942965388298
22.0,0.06966827064752579
24.0,0.06917280703783035
26.0,0.0686875581741333
28.0,0.06820416450500488
30.0,0.06772986799478531
32.0,0.06727954000234604
36.0,0.06639415770769119
40.0,0.06555350869894028
44.0,0.06486792117357254
48.0,0.06429527699947357
52.0,0.06366535276174545
56.0,0.06294161081314087
60.0,0.06230975687503815
64.0,0.06176763027906418
72.0,0.060375820845365524
80.0,0.058925677090883255
88.0,0.05774107202887535
96.0,0.05702979490160942
104.0,0.05657112970948219
112.0,0.05620487406849861
120.0,0.055750589817762375
128.0,0.05514166131615639
144.0,0.0536096952855587
160.0,0.05236702412366867
176.0,0.050853926688432693
192.0,0.04896904155611992
208.0,0.04725763946771622
224.0,0.04586881026625633
240.0,0.044936876744031906
256.0,0.04377390071749687
288.0,0.04106033220887184
320.0,0.03845033794641495
352.0,0.036669500172138214
384.0,0.03483637049794197
416.0,0.03298752382397652
448.0,0.03038973920047283
480.0,0.028594497591257095
512.0,0.027324063703417778
576.0,0.02366912178695202
640.0,0.021501872688531876
704.0,0.02312074974179268
768.0,0.025773560628294945
832.0,0.02554299496114254
896.0,0.023137656971812248
960.0,0.02083067037165165
1024.0,0.0171965379267931
1152.0,0.011128872632980347
1280.0,0.0036547391209751368
1408.0,-0.003993852064013481
1536.0,-0.009024899452924728
1664.0,-0.01138424500823021
1792.0,-0.011925836093723774
1920.0,-0.01086683850735426
2048.0,-0.012980218976736069
2304.0,-0.016326026991009712
2560.0,-0.014936416409909725
2816.0,-0.009981381706893444
3072.0,-0.007981031201779842
3328.0,-0.007698191795498133
3584.0,-0.0006616313476115465
3840.0,0.007247350178658962
4096.0,0.0059886835515499115
4608.0,0.00024739227956160903
5120.0,-0.001840908546000719
5632.0,-0.006991884671151638
6144.0,-0.013907415792346
6656.0,-0.002787287812680006
7168.0,-0.020584385842084885
7680.0,-0.11040153354406357
8192.0,-0.10450221598148346
end
