version,3.0
numOfCh,1
type,point
parent_name,0cd20_0dot069-0dot01
ch_type,1_1
kcount,1
numberNandB,1
brightnessNandB,1
carpet pos,0
pc,0
Time (ms),CH1 Auto-Correlation
1.0,0.0246171485632658
2.0,0.02441117912530899
3.0,0.024205302819609642
4.0,0.024002155289053917
5.0,0.02379884570837021
6.0,0.023597370833158493
7.0,0.023394422605633736
8.0,0.023193296045064926
9.0,0.02299552410840988
10.0,0.02280435711145401
11.0,0.022605156525969505
12.0,0.02240549400448799
13.0,0.02220279537141323
14.0,0.02199748530983925
15.0,0.021795593202114105
16.0,0.021600766107439995
18.0,0.02122715301811695
20.0,0.020855851471424103
22.0,0.02049138955771923
24.0,0.020130561664700508
26.0,0.019776083528995514
28.0,0.01941881887614727
30.0,0.019059941172599792
32.0,0.018716882914304733
36.0,0.01802242361009121
40.0,0.01735532470047474
44.0,0.016720382496714592
48.0,0.01610875315964222
52.0,0.015509220771491528
56.0,0.014914136379957199
60.0,0.014345427043735981
64.0,0.013803289271891117
72.0,0.012750621885061264
80.0,0.011744186282157898
88.0,0.010802540928125381
96.0,0.009957253001630306
104.0,0.009251682087779045
112.0,0.008744072169065475
120.0,0.008350206539034843
128.0,0.007991124875843525
144.0,0.007459016051143408
160.0,0.00687723932787776
176.0,0.00617280462756753
192.0,0.005295302253216505
208.0,0.004306938964873552
224.0,0.0034924738574773073
240.0,0.0028608771972358227
256.0,0.002338687190786004
288.0,0.0017630355432629585
320.0,0.0013221981935203075
352.0,0.0006630911375395954
384.0,-0.0006090254755690694
416.0,-0.0014106360031291842
448.0,-0.0015090281376615167
480.0,-0.0010266343597322702
512.0,0.0002084447769448161
576.0,0.002670005429536104
640.0,0.0033603052143007517
704.0,0.002642957028001547
768.0,0.0016179028898477554
832.0,0.00144159235060215
896.0,0.002265603980049491
960.0,0.0009463060414418578
1024.0,-0.0007195057114586234
1152.0,-0.0007191543700173497
1280.0,-0.0013832073891535401
1408.0,0.0009378092363476753
1536.0,0.000505708740092814
1664.0,0.00033029576297849417
1792.0,-3.075745917158201e-05
1920.0,0.0008825152763165534
2048.0,0.0006489910301752388
2304.0,-8.45449321786873e-05
2560.0,-0.0008758301846683025
2816.0,0.0001952066959347576
3072.0,-0.0016401426400989294
3328.0,0.000539899745490402
3584.0,0.0021336697973310947
3840.0,0.0009216837934218347
4096.0,0.0015660446370020509
4608.0,-0.00411785626783967
5120.0,-0.00029124735738150775
5632.0,0.0022156385239213705
6144.0,0.0004441770142875612
6656.0,-0.0022048670798540115
7168.0,-0.004337794613093138
7680.0,-0.003746251342818141
8192.0,-0.009160323068499565
end
