version,3.0
numOfCh,1
type,point
parent_name,0cd20_0dot069-0dot01
ch_type,1_1
kcount,1
numberNandB,1
brightnessNandB,1
carpet pos,0
pc,0
Time (ms),CH1 Auto-Correlation
1.0,0.08962684124708176
2.0,0.0892440676689148
3.0,0.08887111395597458
4.0,0.0884883925318718
5.0,0.08812761306762695
6.0,0.08776772022247314
7.0,0.08742441236972809
8.0,0.08709467947483063
9.0,0.08674588054418564
10.0,0.08639546483755112
11.0,0.08605161309242249
12.0,0.08572438359260559
13.0,0.08538244664669037
14.0,0.08502895385026932
15.0,0.08466850966215134
16.0,0.08431287854909897
18.0,0.08365166187286377
20.0,0.08295419067144394
22.0,0.08223496377468109
24.0,0.08151371777057648
26.0,0.08078933507204056
28.0,0.0800967812538147
30.0,0.07947520166635513
32.0,0.07891634851694107
36.0,0.07768119871616364
40.0,0.07635147869586945
44.0,0.0749339759349823
48.0,0.07350879162549973
52.0,0.07211604714393616
56.0,0.07060721516609192
60.0,0.06894193589687347
64.0,0.0672663152217865
72.0,0.06451970338821411
80.0,0.062050189822912216
88.0,0.05935186892747879
96.0,0.056485164910554886
104.0,0.05345610901713371
112.0,0.05083347111940384
120.0,0.04855310544371605
128.0,0.046990133821964264
144.0,0.04432641714811325
160.0,0.04245525598526001
176.0,0.0415203757584095
192.0,0.04072088003158569
208.0,0.039922505617141724
224.0,0.039098937064409256
240.0,0.03760715574026108
256.0,0.035555411130189896
288.0,0.030427953228354454
320.0,0.022816050797700882
352.0,0.014458653517067432
384.0,0.009165182709693909
416.0,0.005661855451762676
448.0,0.0034829406067728996
480.0,0.0019918186590075493
512.0,0.0006820652051828802
576.0,0.00035535049391910434
640.0,0.0010167702566832304
704.0,0.0026929236482828856
768.0,0.0011669021332636476
832.0,-0.0028776770923286676
896.0,-0.007248935289680958
960.0,-0.01311372872442007
1024.0,-0.017420737072825432
1152.0,-0.019977973774075508
1280.0,-0.011592726223170757
1408.0,-0.004834940191358328
1536.0,0.0013809086522087455
1664.0,0.0044949972070753574
1792.0,0.004038249608129263
1920.0,0.003913639113306999
2048.0,0.003944036550819874
2304.0,0.005828488152474165
2560.0,0.010678746737539768
2816.0,0.0016627785516902804
3072.0,-0.004727204330265522
3328.0,-0.0036804107949137688
3584.0,-0.009261569939553738
3840.0,-0.010255499742925167
4096.0,-0.01841244287788868
4608.0,-0.0010011272970587015
5120.0,0.001411409117281437
5632.0,-0.021447254344820976
6144.0,-0.024167409166693687
6656.0,-0.02314593456685543
7168.0,-0.01660436950623989
end
