version,3.0
numOfCh,1
type,point
parent_name,484af_3dot0-0dot1
ch_type,1_1
kcount,1
numberNandB,1
brightnessNandB,1
carpet pos,0
pc,0
Time (ms),CH1 Auto-Correlation
1.0,0.015156302601099014
2.0,0.01236949022859335
3.0,0.010557246394455433
4.0,0.009129897691309452
5.0,0.007938766852021217
6.0,0.007082556840032339
7.0,0.00624076509848237
8.0,0.005627873819321394
9.0,0.005147148389369249
10.0,0.004668410401791334
11.0,0.004168148618191481
12.0,0.003682185662910342
13.0,0.0033087816555052996
14.0,0.0030627541709691286
15.0,0.0028037652373313904
16.0,0.0026019872166216373
18.0,0.0023941644467413425
20.0,0.0020668096840381622
22.0,0.00184553861618042
24.0,0.0016082378569990396
26.0,0.0014558188850060105
28.0,0.0012528062798082829
30.0,0.001205358887091279
32.0,0.001153750577941537
36.0,0.0012456073891371489
40.0,0.001375382300466299
44.0,0.001495425240136683
48.0,0.0012439403217285872
52.0,0.0010842455085366964
56.0,0.0010778888827189803
60.0,0.0011642032768577337
64.0,0.0010470704874023795
72.0,0.0007102073286660016
80.0,0.0009108196245506406
88.0,0.0007010323461145163
96.0,0.0006804208969697356
104.0,0.001092490623705089
112.0,0.0010654791258275509
120.0,0.0009896395495161414
128.0,0.0010941372020170093
144.0,0.00040384294698014855
160.0,0.00011548543989192694
176.0,9.226117981597781e-05
192.0,7.062524673528969e-06
208.0,0.0006048603099770844
224.0,0.0009014358511194587
240.0,0.00040842362795956433
256.0,8.721736958250403e-05
288.0,0.00028164926334284246
320.0,0.0007493088487535715
352.0,0.0005234033451415598
384.0,0.00023144100850913674
416.0,0.0001633644278626889
448.0,0.00022681384871248156
480.0,0.00013585099077317864
512.0,0.00020866983686573803
576.0,0.00016124323883559555
640.0,0.0003379133704584092
704.0,2.0772531570401043e-05
768.0,-0.00028426587232388556
832.0,-0.00035213163937442005
896.0,-0.00019234369392506778
960.0,-0.00020841469813603908
1024.0,-5.800314829684794e-05
1152.0,-0.00013364717597141862
1280.0,-3.951731923734769e-05
1408.0,-0.00021397628006525338
1536.0,-0.000507767079398036
1664.0,-0.00039385363925248384
1792.0,-0.0004840174224227667
1920.0,-0.00037081705522723496
2048.0,-0.00018519716104492545
2304.0,-1.782894651114475e-05
2560.0,8.509503823006526e-05
2816.0,-0.00017630595539230853
3072.0,-1.9706985767697915e-05
3328.0,0.00017741431656759232
3584.0,0.000236156236496754
3840.0,0.0003154729201924056
4096.0,0.00024054944515228271
4608.0,0.0003069438971579075
5120.0,-0.00038276283885352314
5632.0,-0.0006676465854980052
6144.0,-0.00045671791303902864
6656.0,0.0002302141801919788
7168.0,0.0002768062986433506
7680.0,-0.0002055212389677763
8192.0,-5.102772774989717e-06
end
