version,3.0
numOfCh,1
type,point
parent_name,484af_3dot0-0dot1
ch_type,1_1
kcount,1
numberNandB,1
brightnessNandB,1
carpet pos,0
pc,0
Time (ms),CH1 Auto-Correlation
1.0,0.015929484739899635
2.0,0.01320455502718687
3.0,0.01131785660982132
4.0,0.009864609688520432
5.0,0.008772428147494793
6.0,0.007842126302421093
7.0,0.007188925053924322
8.0,0.006645240820944309
9.0,0.0063336798921227455
10.0,0.0058062439784407616
11.0,0.0054548815824091434
12.0,0.005140563007444143
13.0,0.004873502533882856
14.0,0.0045470064505934715
15.0,0.004204122815281153
16.0,0.003942621406167746
18.0,0.003429883625358343
20.0,0.0031497818417847157
22.0,0.0030111928936094046
24.0,0.002861828077584505
26.0,0.0027745042461901903
28.0,0.0025687438901513815
30.0,0.0023684659972786903
32.0,0.0022165002301335335
36.0,0.0017548423493281007
40.0,0.001689573866315186
44.0,0.0016203741542994976
48.0,0.0012444835156202316
52.0,0.0010339817963540554
56.0,0.0010399649618193507
60.0,0.0008871188038028777
64.0,0.0009018732234835625
72.0,0.0005696142325177789
80.0,0.00019103684462606907
88.0,-5.554162271437235e-05
96.0,4.7041070502018556e-05
104.0,-0.0006424235762096941
112.0,-0.0007655418012291193
120.0,-0.0008256289293058217
128.0,-0.0010769250802695751
144.0,-0.0014773922739550471
160.0,-0.001192271476611495
176.0,-0.0010298481211066246
192.0,-0.0009938078001141548
208.0,-0.0007662450661882758
224.0,-0.0005271246773190796
240.0,-0.00015518395230174065
256.0,0.0002486679586581886
288.0,0.0004713459638878703
320.0,0.0005719957407563925
352.0,7.427660602843389e-05
384.0,-6.481259333668277e-05
416.0,-0.00044872896978631616
448.0,-0.0009876724798232317
480.0,-0.0008828070131130517
512.0,-0.0005479003884829581
576.0,1.2359961147012655e-05
640.0,1.2796400596926105e-06
704.0,3.337374437251128e-05
768.0,6.492577085737139e-06
832.0,-0.00013632838090416044
896.0,-0.0003229881403967738
960.0,0.00030802839319221675
1024.0,0.00044669921044260263
1152.0,-0.0002822542155627161
1280.0,0.0005126033793203533
1408.0,-2.6180394343100488e-05
1536.0,-0.00011117610119981691
1664.0,9.663360833656043e-05
1792.0,0.00013058668992016464
1920.0,-0.00021846778690814972
2048.0,0.0001796327269403264
2304.0,-0.00036790347076021135
2560.0,0.00042289329576306045
2816.0,-0.0004952488234266639
3072.0,-1.3068613043287769e-05
3328.0,0.00015470611106138676
3584.0,2.447489350743126e-05
3840.0,4.7853471187409014e-05
4096.0,-0.0004354800912551582
4608.0,2.8398526410455815e-05
5120.0,4.554230690700933e-05
5632.0,2.845713243004866e-05
6144.0,9.500118903815746e-05
6656.0,-0.00014707358786836267
7168.0,0.00010668857430573553
7680.0,-0.0001724776957416907
8192.0,-4.9894850235432386e-05
end
