version,3.0
numOfCh,1
type,point
parent_name,484af_3dot0-0dot1
ch_type,1_1
kcount,1
numberNandB,1
brightnessNandB,1
carpet pos,0
pc,0
Time (ms),CH1 Auto-Correlation
1.0,0.0167293231934309
2.0,0.013861174695193768
3.0,0.0119032496586442
4.0,0.010517710819840431
5.0,0.009366356767714024
6.0,0.008424859493970871
7.0,0.00767348101362586
8.0,0.006912354379892349
9.0,0.006308211013674736
10.0,0.005806803237646818
11.0,0.005367051810026169
12.0,0.0049941204488277435
13.0,0.004641488194465637
14.0,0.004359012935310602
15.0,0.004115008283406496
16.0,0.003901116782799363
18.0,0.0035628564655780792
20.0,0.0032218005508184433
22.0,0.002777269808575511
24.0,0.0025749164633452892
26.0,0.002311456250026822
28.0,0.0021249926649034023
30.0,0.0019443642813712358
32.0,0.0017978803953155875
36.0,0.001422204775735736
40.0,0.0011717148590832949
44.0,0.0010200366377830505
48.0,0.0010485043749213219
52.0,0.0010175547795370221
56.0,0.0009676687768660486
60.0,0.0008246915531344712
64.0,0.0010180175304412842
72.0,0.0008643500041216612
80.0,0.00047705776523798704
88.0,0.0002698723110370338
96.0,-1.5653957234462723e-05
104.0,-0.0004640278348233551
112.0,-0.00028537234175018966
120.0,-0.00014163627929519862
128.0,-0.0004862204659730196
144.0,-0.0006173578440211713
160.0,-0.0006203011726029217
176.0,-0.000498948385939002
192.0,-0.0006672959425486624
208.0,-0.00023851287551224232
224.0,-0.00018219601770397276
240.0,0.0002493780048098415
256.0,-0.00030722899828106165
288.0,-0.00033640163019299507
320.0,-7.059863128233701e-05
352.0,-0.0006411714130081236
384.0,-0.0006223944365046918
416.0,-0.0007865786901675165
448.0,-0.0003120101464446634
480.0,-0.00027273825253359973
512.0,-7.455812010448426e-05
576.0,0.0005231455434113741
640.0,0.00027185710496269166
704.0,-0.00033722256193868816
768.0,0.00033413636265322566
832.0,0.00040363313746638596
896.0,0.0002729534753598273
960.0,-0.0006484171026386321
1024.0,-0.0011167202610522509
1152.0,-0.00013369337830226868
1280.0,8.799882198218256e-05
1408.0,0.00029982495470903814
1536.0,0.00034505766234360635
1664.0,6.602345092687756e-05
1792.0,-0.00023758555471431464
1920.0,-0.00032188804470933974
2048.0,0.00017420171934645623
2304.0,0.0002491725899744779
2560.0,0.00016886713274288923
2816.0,-0.0002493850770406425
3072.0,-0.00017392168228980154
3328.0,-1.3141981980879791e-05
3584.0,-0.00014450620801653713
3840.0,0.000215182633837685
4096.0,9.078476432478055e-05
4608.0,-0.00014716415898874402
5120.0,9.421215509064496e-06
5632.0,-0.0001285321923205629
6144.0,4.390050162328407e-05
6656.0,-8.800082287052646e-05
7168.0,-7.599431683047442e-06
7680.0,4.0415366129309405e-06
8192.0,-6.741662218701094e-05
end
