version,3.0
numOfCh,1
type,point
parent_name,484af_3dot0-0dot1
ch_type,1_1
kcount,1
numberNandB,1
brightnessNandB,1
carpet pos,0
pc,0
Time (ms),CH1 Auto-Correlation
1.0,0.015454697422683239
2.0,0.012662049382925034
3.0,0.010671993717551231
4.0,0.009201322682201862
5.0,0.007980973459780216
6.0,0.0071569145657122135
7.0,0.006429263390600681
8.0,0.005792035721242428
9.0,0.005235396791249514
10.0,0.004760680720210075
11.0,0.004347037058323622
12.0,0.003992009907960892
13.0,0.0036602315958589315
14.0,0.003269757144153118
15.0,0.0028600115329027176
16.0,0.0025772457011044025
18.0,0.0021526594646275043
20.0,0.001824836595915258
22.0,0.0017838191706687212
24.0,0.0017980517586693168
26.0,0.0016894963337108493
28.0,0.0017099363030865788
30.0,0.0016246724408119917
32.0,0.0015345214633271098
36.0,0.0014047406148165464
40.0,0.0013346123741939664
44.0,0.0012179847108200192
48.0,0.0012864024611189961
52.0,0.001205655513331294
56.0,0.0012019805144518614
60.0,0.0012236835900694132
64.0,0.0010776729322969913
72.0,0.0006189103005453944
80.0,-0.00018002769502345473
88.0,-0.0004906109534204006
96.0,-0.0007065364625304937
104.0,-0.0004804898926522583
112.0,4.9889862566487864e-05
120.0,0.00012101198808522895
128.0,-0.00039277257747016847
144.0,-0.0006899095023982227
160.0,-0.00022861194156575948
176.0,0.0006135253352113068
192.0,0.00043360175914131105
208.0,0.0006934564444236457
224.0,0.0007896622992120683
240.0,0.0004647803434636444
256.0,0.000549779855646193
288.0,0.0002728799299802631
320.0,-0.0005007256986573339
352.0,-0.0002853298792615533
384.0,-1.4638913853559643e-05
416.0,3.3906813769135624e-05
448.0,-0.00019470877305138856
480.0,0.00020971892809029669
512.0,-5.23720882483758e-05
576.0,-0.00032577518140897155
640.0,-0.00030816002981737256
704.0,0.0005659176968038082
768.0,-0.00012264422548469156
832.0,-0.0008431245805695653
896.0,-0.0002855889324564487
960.0,-0.000230821970035322
1024.0,-4.0548519564254093e-07
1152.0,-0.000269481010036543
1280.0,0.00014766425010748208
1408.0,0.00019049398542847484
1536.0,-0.0002705689985305071
1664.0,0.00020057556685060263
1792.0,3.39558428095188e-05
1920.0,-0.0002494645013939589
2048.0,9.701147791929543e-05
2304.0,0.0002582863380666822
2560.0,9.950283129001036e-05
2816.0,6.665810360573232e-05
3072.0,4.57159367215354e-05
3328.0,-0.0003987376403529197
3584.0,-0.0003187456459272653
3840.0,-2.2215645003598183e-05
4096.0,0.00017063428822439164
4608.0,-0.0001767131470842287
5120.0,2.549861164879985e-05
5632.0,0.00022301175340544432
6144.0,-9.258843056159094e-05
6656.0,-0.00012494881229940802
7168.0,0.0001656603126320988
7680.0,-0.00010192301851930097
8192.0,-0.00018360379908699542
end
