version,3.0
numOfCh,1
type,point
parent_name,484af_3dot0-0dot1
ch_type,1_1
kcount,1
numberNandB,1
brightnessNandB,1
carpet pos,0
pc,0
Time (ms),CH1 Auto-Correlation
1.0,0.016959991306066513
2.0,0.014030983671545982
3.0,0.011979644186794758
4.0,0.010660253465175629
5.0,0.009621663950383663
6.0,0.008861222304403782
7.0,0.008142301812767982
8.0,0.007446713745594025
9.0,0.007014393340796232
10.0,0.006580131594091654
11.0,0.00616449723020196
12.0,0.005784318316727877
13.0,0.0054166666232049465
14.0,0.0050896103493869305
15.0,0.00482667051255703
16.0,0.00462385592982173
18.0,0.004223709460347891
20.0,0.003906821832060814
22.0,0.003694783430546522
24.0,0.0035056606866419315
26.0,0.0033531023655086756
28.0,0.0032752174884080887
30.0,0.0030863757710903883
32.0,0.0027701579965651035
36.0,0.002379241632297635
40.0,0.00208581262268126
44.0,0.0017336871242150664
48.0,0.001478813705034554
52.0,0.0014316373271867633
56.0,0.0011609789216890931
60.0,0.0009596440941095352
64.0,0.0005820420919917524
72.0,0.00023820274509489536
80.0,0.00031245220452547073
88.0,0.00027704625972546637
96.0,1.9618786609498784e-05
104.0,7.844608626328409e-05
112.0,7.304203609237447e-05
120.0,0.00013842056796420366
128.0,-0.00011478424130473286
144.0,4.657502722693607e-05
160.0,0.00048512170906178653
176.0,0.0002178649156121537
192.0,-5.6711600336711854e-05
208.0,-0.00018464114691596478
224.0,-0.0004899002378806472
240.0,-0.0008412873139604926
256.0,-0.0002710739499889314
288.0,-0.00020546087762340903
320.0,5.798444544780068e-05
352.0,-1.968408287211787e-05
384.0,-0.0005317348404787481
416.0,0.0001980832894332707
448.0,0.000624004693236202
480.0,0.0009814647492021322
512.0,0.0009622572688385844
576.0,0.0007574680494144559
640.0,0.00022832676768302917
704.0,-0.00012846307072322816
768.0,-0.00020444433903321624
832.0,-4.1122410038951784e-05
896.0,5.0972441385965794e-05
960.0,-8.034580969251692e-05
1024.0,0.00032226135954260826
1152.0,-0.00024614649009890854
1280.0,-0.00041574949864298105
1408.0,-9.29792586248368e-05
1536.0,0.00047539034858345985
1664.0,-0.00030391456675715744
1792.0,-0.0003685803385451436
1920.0,-0.00033282648655585945
2048.0,-4.2020481487270445e-05
2304.0,-0.0002427171275485307
2560.0,1.4048574485059362e-05
2816.0,-5.369882273953408e-05
3072.0,0.0003172704018652439
3328.0,-9.309263987233862e-05
3584.0,1.2606941709236708e-05
3840.0,-3.542396007105708e-05
4096.0,0.00017814473540056497
4608.0,-0.0002899190876632929
5120.0,-0.0005172588280402124
5632.0,-0.0002113433147314936
6144.0,0.0001265964820049703
6656.0,0.0001454894372727722
7168.0,0.00023734712158329785
7680.0,0.00018617998284753412
8192.0,-6.854363164165989e-05
end
