version,3.0
numOfCh,1
type,point
parent_name,484af_3dot0-0dot1
ch_type,1_1
kcount,1
numberNandB,1
brightnessNandB,1
carpet pos,0
pc,0
Time (ms),CH1 Auto-Correlation
1.0,0.016602521762251854
2.0,0.01377120427787304
3.0,0.011905770748853683
4.0,0.010409425012767315
5.0,0.009159604087471962
6.0,0.008204912766814232
7.0,0.007475394289940596
8.0,0.006799569819122553
9.0,0.006233171559870243
10.0,0.005811076145619154
11.0,0.00550220999866724
12.0,0.005281438585370779
13.0,0.005109757650643587
14.0,0.004911324474960566
15.0,0.004663674160838127
16.0,0.0044922479428350925
18.0,0.003934409003704786
20.0,0.0034314137883484364
22.0,0.0030729889404028654
24.0,0.0027041849680244923
26.0,0.0022839405573904514
28.0,0.0019128769636154175
30.0,0.0017866790294647217
32.0,0.0017781847855076194
36.0,0.0018212449504062533
40.0,0.0016669097822159529
44.0,0.0014435818884521723
48.0,0.001331701991148293
52.0,0.0010864074574783444
56.0,0.0011233272962272167
60.0,0.0012506189523264766
64.0,0.0011104079894721508
72.0,0.0005965816671960056
80.0,0.0006789553444832563
88.0,0.0011058668605983257
96.0,0.000967225234489888
104.0,0.0009027572232298553
112.0,0.0008858673390932381
120.0,0.0009276739438064396
128.0,0.000983050442300737
144.0,0.0004752856330014765
160.0,0.0008281153859570622
176.0,0.0014876201748847961
192.0,0.00103214371483773
208.0,0.0014870479935780168
224.0,0.0014131806092336774
240.0,0.0010533788008615375
256.0,0.0007684280280955136
288.0,0.000386270898161456
320.0,0.0007459523621946573
352.0,0.00034991520806215703
384.0,0.000416939496062696
416.0,0.00020877427596133202
448.0,-0.0003255610936321318
480.0,-0.0007578535005450249
512.0,-0.000824452901724726
576.0,-0.0001782870531314984
640.0,-4.5533437514677644e-05
704.0,-0.0005199999432079494
768.0,-0.00031028897501528263
832.0,7.957860361784697e-06
896.0,0.0001335216365987435
960.0,0.00039849162567406893
1024.0,0.0001611421030247584
1152.0,0.00033708548289723694
1280.0,-0.00013051030691713095
1408.0,-3.689647201099433e-05
1536.0,-0.0004090470029041171
1664.0,-0.000485398544697091
1792.0,-0.00041027803672477603
1920.0,-0.0006267130374908447
2048.0,-0.0007981373928487301
2304.0,-0.0008135744137689471
2560.0,-0.00017615026445128024
2816.0,0.0003685365372803062
3072.0,0.0001045382596203126
3328.0,2.4191931515815668e-05
3584.0,-8.987334149423987e-05
3840.0,0.00022966225515119731
4096.0,0.0003805173619184643
4608.0,-0.00029503414407372475
5120.0,2.6212950615445152e-05
5632.0,0.0004587840521708131
6144.0,0.0003549896937329322
6656.0,8.307351527037099e-05
7168.0,8.142996193782892e-06
7680.0,-0.0011814313475042582
8192.0,0.00017152534564957023
end
