version,3.0
numOfCh,1
type,point
parent_name,484af_3dot0-0dot1
ch_type,1_1
kcount,1
numberNandB,1
brightnessNandB,1
carpet pos,0
pc,0
Time (ms),CH1 Auto-Correlation
1.0,0.01638595014810562
2.0,0.013565904460847378
3.0,0.01156020350754261
4.0,0.010193283669650555
5.0,0.009126745164394379
6.0,0.008316680788993835
7.0,0.007709842640906572
8.0,0.00712540140375495
9.0,0.0066299643367528915
10.0,0.006122652441263199
11.0,0.005806547589600086
12.0,0.005464485380798578
13.0,0.005049922037869692
14.0,0.00465324567630887
15.0,0.004397121258080006
16.0,0.004205498844385147
18.0,0.0037400920409709215
20.0,0.003227159846574068
22.0,0.002988644642755389
24.0,0.002824348397552967
26.0,0.002694185823202133
28.0,0.0025963671505451202
30.0,0.002286679809913039
32.0,0.002094586379826069
36.0,0.001841322286054492
40.0,0.0015884606400504708
44.0,0.0013425021898001432
48.0,0.0011586669133976102
52.0,0.0011490712640807033
56.0,0.0010260548442602158
60.0,0.0007522730156779289
64.0,0.0006104172207415104
72.0,0.00025952851865440607
80.0,0.00023927252914290875
88.0,-0.0002709431282710284
96.0,-0.0005754079320468009
104.0,-0.0005683510680682957
112.0,-0.0006984441424719989
120.0,-0.00038193288492038846
128.0,-4.37663175034686e-06
144.0,9.0465196990408e-05
160.0,0.00010474265582161024
176.0,0.00011629262007772923
192.0,0.0004891909193247557
208.0,0.00048099050763994455
224.0,0.000752055668272078
240.0,0.00048188469372689724
256.0,-7.560205267509446e-05
288.0,-0.00023222905292641371
320.0,-0.00021605691290460527
352.0,-0.0004547112330328673
384.0,-0.0010003490606322885
416.0,-0.0006468506180681288
448.0,0.00013276207027956843
480.0,-0.0003392346843611449
512.0,-0.0008473221096210182
576.0,-0.000995222246274352
640.0,-0.00031283037969842553
704.0,-0.0004466446116566658
768.0,-0.0005229281960055232
832.0,-9.439656423637643e-06
896.0,0.0005147735355421901
960.0,7.902312790974975e-05
1024.0,-0.00011803063534898683
1152.0,0.0007971079321578145
1280.0,0.00046491349348798394
1408.0,-0.00014857470523566008
1536.0,-0.000725532416254282
1664.0,-0.00028881762409582734
1792.0,-0.00018944425391964614
1920.0,-0.00010974104225169867
2048.0,4.000108674517833e-05
2304.0,0.00031793140806257725
2560.0,-0.00017655173724051565
2816.0,-2.9824992452631705e-05
3072.0,4.4241569412406534e-05
3328.0,4.088308924110606e-05
3584.0,-6.862523150630295e-05
3840.0,-0.00028906925581395626
4096.0,9.723964467411861e-05
4608.0,-8.266596705652773e-05
5120.0,-9.244288230547681e-05
5632.0,-5.79350016778335e-05
6144.0,5.489899558597244e-05
6656.0,8.49463976919651e-05
7168.0,-1.81939140020404e-05
7680.0,5.084705844637938e-05
8192.0,-0.0001303113967878744
end
