version,3.0
numOfCh,1
type,point
parent_name,484af_3dot0-0dot1
ch_type,1_1
kcount,1
numberNandB,1
brightnessNandB,1
carpet pos,0
pc,0
Time (ms),CH1 Auto-Correlation
1.0,0.015053765848279
2.0,0.012273848056793213
3.0,0.010349484160542488
4.0,0.008995964191854
5.0,0.007929268293082714
6.0,0.007071144413203001
7.0,0.006413435563445091
8.0,0.005819349549710751
9.0,0.005281420890241861
10.0,0.004840795416384935
11.0,0.0045144278556108475
12.0,0.004254693165421486
13.0,0.004056180361658335
14.0,0.0038078934885561466
15.0,0.0036056633107364178
16.0,0.003580742049962282
18.0,0.003342126961797476
20.0,0.0031086206436157227
22.0,0.002834111684933305
24.0,0.0026289895176887512
26.0,0.0023683267645537853
28.0,0.002061188453808427
30.0,0.0018985847709700465
32.0,0.0018597086891531944
36.0,0.0015723812393844128
40.0,0.0014416417106986046
44.0,0.0013299711281433702
48.0,0.0011216901475563645
52.0,0.000985099351964891
56.0,0.001034483895637095
60.0,0.0008692560368217528
64.0,0.0007841760525479913
72.0,0.0004995237686671317
80.0,0.0004202665586490184
88.0,0.000254312704782933
96.0,9.914443216985092e-05
104.0,0.00015033548697829247
112.0,0.0004750195366796106
120.0,0.0003603273071348667
128.0,0.0003409561759326607
144.0,0.0005511943600140512
160.0,-2.0449071598704904e-05
176.0,0.0005438641528598964
192.0,0.0002230115933343768
208.0,0.0003461902088019997
224.0,-0.0003009987995028496
240.0,-0.000186166274943389
256.0,5.9833295381395146e-05
288.0,0.00010389992530690506
320.0,0.000233172278967686
352.0,0.0002703423670027405
384.0,1.1253909178776667e-05
416.0,-3.3698950574034825e-05
448.0,-7.046999962767586e-05
480.0,0.00015711617015767843
512.0,-0.00017486211436334997
576.0,-0.00012661355140153319
640.0,-0.0002240819885628298
704.0,0.0004675342934206128
768.0,-4.458168041310273e-05
832.0,-0.00012474706454668194
896.0,2.6019026336143725e-05
960.0,-0.0008174205431714654
1024.0,-0.00040214075124822557
1152.0,-9.270972077501938e-05
1280.0,0.0002802055678330362
1408.0,0.0005632979446090758
1536.0,0.0005792571464553475
1664.0,0.0004238162946421653
1792.0,-8.628670184407383e-05
1920.0,0.00023223456810228527
2048.0,0.0004003101494163275
2304.0,-0.0001021685529849492
2560.0,-0.00016943977971095592
2816.0,5.163231253391132e-05
3072.0,8.486028673360124e-05
3328.0,3.4937267628265545e-05
3584.0,-0.0002389328001299873
3840.0,-0.00012312592298258096
4096.0,-0.00011240095045650378
4608.0,-0.00015724959666840732
5120.0,-8.80203333508689e-06
5632.0,-0.00017671077512204647
6144.0,-0.0002863757836166769
6656.0,-0.000253330625128001
7168.0,-3.591028871596791e-05
7680.0,-0.00017607462359592319
8192.0,-0.00082783232210204
end
