version,3.0
numOfCh,1
type,point
parent_name,484af_3dot0-0dot1
ch_type,1_1
kcount,1
numberNandB,1
brightnessNandB,1
carpet pos,0
pc,0
Time (ms),CH1 Auto-Correlation
1.0,0.015513173304498196
2.0,0.012645154260098934
3.0,0.010714245960116386
4.0,0.009267083369195461
5.0,0.008233156055212021
6.0,0.007439103443175554
7.0,0.006741673219949007
8.0,0.00597433652728796
9.0,0.005480531137436628
10.0,0.0050222123973071575
11.0,0.0046413252130150795
12.0,0.004361853003501892
13.0,0.004133311565965414
14.0,0.0039286501705646515
15.0,0.0037051914259791374
16.0,0.0036118861753493547
18.0,0.0033248248510062695
20.0,0.0030256386380642653
22.0,0.0026671411469578743
24.0,0.0022378815338015556
26.0,0.0019618161022663116
28.0,0.0017595096724107862
30.0,0.0015305706765502691
32.0,0.001303256256505847
36.0,0.0013529781717807055
40.0,0.0011452938197180629
44.0,0.0009087412036024034
48.0,0.001000867923721671
52.0,0.0012260123621672392
56.0,0.0013338375138118863
60.0,0.001189703238196671
64.0,0.0010748833883553743
72.0,0.0013578047510236502
80.0,0.0009121255716308951
88.0,0.00041514370241202414
96.0,3.728665615199134e-05
104.0,-0.0007660917472094297
112.0,-0.0006757758092135191
120.0,-0.0006501711905002594
128.0,-0.0002955714298877865
144.0,-0.0003113797283731401
160.0,-0.0002556350955273956
176.0,-9.131032129516825e-05
192.0,0.000287334609311074
208.0,0.0003924805496353656
224.0,0.0005772241274826229
240.0,0.0006804451695643365
256.0,0.0005081035196781158
288.0,4.780027666129172e-05
320.0,-0.00010322966409148648
352.0,-3.566576197044924e-05
384.0,-0.000374761555576697
416.0,0.00011447398719610646
448.0,6.937515450999854e-08
480.0,2.8326860046945512e-05
512.0,-0.0004232925421092659
576.0,-0.00027207014500163496
640.0,-9.591568232281134e-05
704.0,-5.089260412205476e-06
768.0,0.00032756730797700584
832.0,8.86372072272934e-05
896.0,-0.0007414486026391387
960.0,-7.734570681350306e-05
1024.0,0.0003846658219117671
1152.0,0.0003556156298145652
1280.0,-0.00026565694133751094
1408.0,-0.00014218268916010857
1536.0,-6.125487561803311e-05
1664.0,-6.756557559128851e-05
1792.0,1.5265854017343372e-05
1920.0,-0.0005093000363558531
2048.0,-0.00010616341751301661
2304.0,-0.00015519371663685888
2560.0,0.00017359250341542065
2816.0,0.00016847444931045175
3072.0,-0.0005843316321261227
3328.0,-0.00011646099301287904
3584.0,0.00018347029981669039
3840.0,6.148729153210297e-05
4096.0,-0.00034181299270130694
4608.0,-0.00012027534103253856
5120.0,-2.1852190911886282e-05
5632.0,-5.130796125740744e-05
6144.0,-4.518842251854949e-05
6656.0,-0.00023662534658797085
7168.0,-0.00034552329452708364
7680.0,0.0002794977917801589
8192.0,0.00028617028146982193
end
