version,3.0
numOfCh,1
type,point
parent_name,484af_3dot0-0dot1
ch_type,1_1
kcount,1
numberNandB,1
brightnessNandB,1
carpet pos,0
pc,0
Time (ms),CH1 Auto-Correlation
1.0,0.016953518614172935
2.0,0.014184066094458103
3.0,0.012101463042199612
4.0,0.010558990761637688
5.0,0.009398240596055984
6.0,0.008394075557589531
7.0,0.007705628871917725
8.0,0.007092596031725407
9.0,0.006674945820122957
10.0,0.006172546651214361
11.0,0.005851735360920429
12.0,0.00566759193316102
13.0,0.005395691376179457
14.0,0.0050677708350121975
15.0,0.004920219071209431
16.0,0.004664689768105745
18.0,0.004149839282035828
20.0,0.0035574366338551044
22.0,0.003191489027813077
24.0,0.003008479019626975
26.0,0.002868669107556343
28.0,0.0028572287410497665
30.0,0.0027812509797513485
32.0,0.002647236455231905
36.0,0.002449639840051532
40.0,0.0021584180649369955
44.0,0.002252622041851282
48.0,0.0023060250096023083
52.0,0.002122508594766259
56.0,0.0018739356892183423
60.0,0.001775910030119121
64.0,0.0015715265180915594
72.0,0.0010200473479926586
80.0,0.0008860633242875338
88.0,0.0011398547794669867
96.0,0.001075799809768796
104.0,0.0012265773257240653
112.0,0.0015129867242649198
120.0,0.0014862397219985723
128.0,0.0010874959407374263
144.0,0.0009760026005096734
160.0,0.00044093962060287595
176.0,0.00018176024605054408
192.0,0.0006625769310630858
208.0,0.0005431054742075503
224.0,0.000394918693928048
240.0,0.0005210593808442354
256.0,0.0005900593241676688
288.0,0.0003558032331056893
320.0,7.961194205563515e-05
352.0,-8.935902587836608e-05
384.0,-9.278707148041576e-05
416.0,-0.0004850407422054559
448.0,-0.0005073623615317047
480.0,-0.00034400500589981675
512.0,-0.0004268535994924605
576.0,-0.0003813522635027766
640.0,0.00015578811871819198
704.0,-1.5280545994755812e-05
768.0,-6.329535972326994e-05
832.0,-0.00018289685249328613
896.0,5.2049126679776236e-05
960.0,0.0001039044072967954
1024.0,9.072242391994223e-05
1152.0,-2.45468345383415e-05
1280.0,-5.0665417802520096e-05
1408.0,-0.00014442105020862073
1536.0,0.0005916496738791466
1664.0,0.0007458982290700078
1792.0,0.0004962820676155388
1920.0,5.173100726096891e-05
2048.0,-0.00031509195105172694
2304.0,-0.0006554275169037282
2560.0,0.00036490862839855254
2816.0,-0.00039864485734142363
3072.0,-0.00043491675751283765
3328.0,-0.0002395863994024694
3584.0,7.804091728758067e-05
3840.0,-0.0003738334635272622
4096.0,-0.00014502376143354923
4608.0,-0.00023901752138044685
5120.0,1.956224332388956e-05
5632.0,0.0003216263430658728
6144.0,0.00019065859669353813
6656.0,0.00022514918236993253
7168.0,0.0001775088021531701
7680.0,0.0004025982634630054
8192.0,-0.0001837496820371598
end
