version,3.0
numOfCh,1
type,point
parent_name,484af_3dot0-0dot1
ch_type,1_1
kcount,1
numberNandB,1
brightnessNandB,1
carpet pos,0
pc,0
Time (ms),CH1 Auto-Correlation
1.0,0.015301882289350033
2.0,0.012494707480072975
3.0,0.010567976161837578
4.0,0.009038644842803478
5.0,0.007880166172981262
6.0,0.0069668893702328205
7.0,0.0062512983568012714
8.0,0.005683999042958021
9.0,0.005040319636464119
10.0,0.004511280916631222
11.0,0.004091965965926647
12.0,0.0037989779375493526
13.0,0.003539337543770671
14.0,0.00321391224861145
15.0,0.0029610407073050737
16.0,0.0028588862624019384
18.0,0.002581054577603936
20.0,0.0023312203120440245
22.0,0.0022614167537540197
24.0,0.0022846171632409096
26.0,0.002204572083428502
28.0,0.002026825211942196
30.0,0.0018934516701847315
32.0,0.0016712129581719637
36.0,0.0011485443683341146
40.0,0.0010108230635523796
44.0,0.0008438919321633875
48.0,0.000798047287389636
52.0,0.0007105115801095963
56.0,0.000513274222612381
60.0,0.00041162472916767
64.0,0.00032887537963688374
72.0,0.00031550085986964405
80.0,0.00013546584523282945
88.0,-8.793891902314499e-05
96.0,-0.00024255216703750193
104.0,9.358346142107621e-05
112.0,0.0005918737151660025
120.0,0.0006472571403719485
128.0,0.00035601621493697166
144.0,6.645008397754282e-05
160.0,-6.910131924087182e-05
176.0,0.0003305933205410838
192.0,-0.00015682251250836998
208.0,3.0326014893944375e-05
224.0,0.0004237881803419441
240.0,0.0004915022291243076
256.0,0.00016945612151175737
288.0,-7.592413749080151e-05
320.0,-0.0001382360205752775
352.0,-0.0004049265698995441
384.0,9.53079779719701e-06
416.0,0.00036590363015420735
448.0,-0.00013432162813842297
480.0,-7.041183562250808e-05
512.0,0.0006629033596254885
576.0,0.00036778778303414583
640.0,0.00018397900566924363
704.0,-0.0002102424914482981
768.0,5.839273217134178e-05
832.0,-0.00019540212815627456
896.0,4.078515758010326e-06
960.0,0.00025892682606354356
1024.0,2.473562562954612e-05
1152.0,-0.00011577244004001841
1280.0,-5.790496652480215e-05
1408.0,0.00021995654969941825
1536.0,-0.0001813301641959697
1664.0,4.528880162979476e-05
1792.0,0.0001625887380214408
1920.0,0.0002698552270885557
2048.0,0.00012336148938629776
2304.0,-0.00014243573241401464
2560.0,-0.00010107917478308082
2816.0,4.374730269773863e-05
3072.0,-0.00013730610953643918
3328.0,0.00040521216578781605
3584.0,0.0003850201901514083
3840.0,3.162612483720295e-05
4096.0,9.858631528913975e-05
4608.0,-0.00032978097442537546
5120.0,-0.00025372247910127044
5632.0,-0.00018641771748661995
6144.0,-6.991776899667457e-05
6656.0,-0.00012396593228913844
7168.0,-7.251970964716747e-05
7680.0,-3.6490811908151954e-05
8192.0,-0.00030937520205043256
end
