version,3.0
numOfCh,1
type,point
parent_name,484af_3dot0-0dot1
ch_type,1_1
kcount,1
numberNandB,1
brightnessNandB,1
carpet pos,0
pc,0
Time (ms),CH1 Auto-Correlation
1.0,0.015541200526058674
2.0,0.012554009445011616
3.0,0.010494090616703033
4.0,0.009000701829791069
5.0,0.007810796611011028
6.0,0.006885678507387638
7.0,0.006292332429438829
8.0,0.005687090568244457
9.0,0.005251473281532526
10.0,0.0049201976507902145
11.0,0.004523925948888063
12.0,0.004191746935248375
13.0,0.0038879720959812403
14.0,0.0035613609943538904
15.0,0.003274195594713092
16.0,0.0029567761812359095
18.0,0.002320550149306655
20.0,0.0020161792635917664
22.0,0.0019355927361175418
24.0,0.0016534916358068585
26.0,0.001472177216783166
28.0,0.0012258186470717192
30.0,0.001022718963213265
32.0,0.0009008911438286304
36.0,0.0009463408496230841
40.0,0.0010763545287773013
44.0,0.0010374455014243722
48.0,0.0007109134458005428
52.0,0.000642838072963059
56.0,0.00040457662544213235
60.0,0.00041200857958756387
64.0,0.0006037511629983783
72.0,0.0006813998334109783
80.0,0.00028117786860093474
88.0,-0.00020727240189444274
96.0,-0.00013112624583300203
104.0,0.00022182757675182074
112.0,0.0004966171109117568
120.0,0.0005663078627549112
128.0,0.00042254431173205376
144.0,0.00027588303782977164
160.0,0.00011970755440415815
176.0,4.85210184706375e-05
192.0,-5.5077896831789985e-05
208.0,-2.232684346381575e-05
224.0,0.0002974689123220742
240.0,0.0003089553792960942
256.0,0.000453021697467193
288.0,0.0005505720619112253
320.0,8.852101018419489e-05
352.0,0.0003480373998172581
384.0,0.00014952050696592778
416.0,-6.404262239811942e-05
448.0,-0.0001531411980977282
480.0,0.0003332168562337756
512.0,0.00019562672241590917
576.0,8.974597585620359e-05
640.0,-9.245965338777751e-05
704.0,0.00010750363435363397
768.0,-0.00031852535903453827
832.0,-7.723215821897611e-05
896.0,-0.0001639422553125769
960.0,0.00028190080774948
1024.0,-5.480185791384429e-05
1152.0,0.0004395080322865397
1280.0,0.00026142847491428256
1408.0,6.97104860591935e-06
1536.0,0.00014657681458629668
1664.0,-9.592711285222322e-05
1792.0,0.0001058205307344906
1920.0,2.1947829736745916e-05
2048.0,-0.00044465894461609423
2304.0,-2.6589113986119628e-05
2560.0,7.88097531767562e-05
2816.0,0.00014490414469037205
3072.0,0.00011849244765471667
3328.0,-6.137446325737983e-05
3584.0,-0.0003345392760820687
3840.0,5.927728852839209e-05
4096.0,4.820513368031243e-06
4608.0,-0.00032581522827968
5120.0,-0.00020021565433125943
5632.0,-0.00021147170627955347
6144.0,-6.873623351566494e-05
6656.0,3.351052146172151e-05
7168.0,-0.00012397747195791453
7680.0,7.891870336607099e-05
8192.0,-0.00035757714067585766
end
