version,3.0
numOfCh,1
type,point
parent_name,484af_3dot0-0dot1
ch_type,1_1
kcount,1
numberNandB,1
brightnessNandB,1
carpet pos,0
pc,0
Time (ms),CH1 Auto-Correlation
1.0,0.01533531490713358
2.0,0.012521489523351192
3.0,0.01062188483774662
4.0,0.009252914227545261
5.0,0.008124698884785175
6.0,0.007236682344228029
7.0,0.006447791121900082
8.0,0.005944095551967621
9.0,0.005463832523673773
10.0,0.005022974219173193
11.0,0.0045591313391923904
12.0,0.004246894270181656
13.0,0.00400948291644454
14.0,0.003819573437795043
15.0,0.003660326823592186
16.0,0.003611583262681961
18.0,0.003474294440820813
20.0,0.0032639240380376577
22.0,0.002972763031721115
24.0,0.002667994936928153
26.0,0.0024837458040565252
28.0,0.0022879112511873245
30.0,0.002075974131003022
32.0,0.001759866951033473
36.0,0.0016696336679160595
40.0,0.0015202416107058525
44.0,0.0012697541387751698
48.0,0.0010410132817924023
52.0,0.0009815642843022943
56.0,0.0008332830620929599
60.0,0.0007244175067171454
64.0,0.00032042351085692644
72.0,0.0005515748634934425
80.0,0.0005017780349589884
88.0,0.0004397307347971946
96.0,0.000534637423697859
104.0,0.0004322993627283722
112.0,0.0002522265713196248
120.0,0.00016727313050068915
128.0,-5.409918958321214e-05
144.0,-0.00036277927574701607
160.0,-0.0004279698187019676
176.0,-0.0003206488327123225
192.0,-0.0002287491224706173
208.0,-0.00026740881730802357
224.0,-0.0004079714126419276
240.0,-0.00018116772116627544
256.0,0.0004068011185154319
288.0,6.279406989051495e-06
320.0,-9.619268530514091e-05
352.0,-0.00010472750727785751
384.0,-0.00023492758919019252
416.0,-0.0005408371798694134
448.0,0.00027333860634826124
480.0,0.0007924242527224123
512.0,-3.121331610600464e-05
576.0,0.0004018518084194511
640.0,0.00020294912974350154
704.0,0.00013130746083334088
768.0,4.575055936584249e-05
832.0,1.1254256605752744e-05
896.0,0.0001068831334123388
960.0,0.00027513367240317166
1024.0,0.0003384418087080121
1152.0,3.291639586677775e-05
1280.0,7.720518624410033e-06
1408.0,-0.00019925335072912276
1536.0,0.00017354074225295335
1664.0,-0.00023363393847830594
1792.0,3.215787000954151e-05
1920.0,-0.0004539064539130777
2048.0,-0.0001925318210851401
2304.0,-0.00016229398897849023
2560.0,1.3504120033758227e-05
2816.0,-8.477964729536325e-05
3072.0,-0.00019015182624571025
3328.0,-4.7439159970963374e-05
3584.0,-5.822344610351138e-05
3840.0,9.435134415980428e-06
4096.0,0.00011852250463562086
4608.0,-4.4929525756742805e-05
5120.0,0.0002676987205632031
5632.0,-1.1758383152482565e-05
6144.0,-0.00016495311865583062
6656.0,5.8871064538834617e-05
7168.0,-0.0005126213654875755
7680.0,0.00026452066958881915
8192.0,-0.0004065684333909303
end
