version,3.0
numOfCh,1
type,point
parent_name,484af_3dot0-0dot1
ch_type,1_1
kcount,1
numberNandB,1
brightnessNandB,1
carpet pos,0
pc,0
Time (ms),CH1 Auto-Correlation
1.0,0.015561006031930447
2.0,0.01286659948527813
3.0,0.010941175743937492
4.0,0.009487438946962357
5.0,0.00832486804574728
6.0,0.007446877658367157
7.0,0.006676908116787672
8.0,0.006087119225412607
9.0,0.0055480278097093105
10.0,0.005179043859243393
11.0,0.0047614420764148235
12.0,0.0044320980086922646
13.0,0.004111107904464006
14.0,0.0036974328104406595
15.0,0.0033383292611688375
16.0,0.003006621031090617
18.0,0.0025670642498880625
20.0,0.0023217257112264633
22.0,0.0021321356762200594
24.0,0.0020033824257552624
26.0,0.0017392835579812527
28.0,0.0014586939942091703
30.0,0.0014669442316517234
32.0,0.001239486038684845
36.0,0.0010574108455330133
40.0,0.0010740207508206367
44.0,0.0012789354659616947
48.0,0.0012196310563012958
52.0,0.0010571937309578061
56.0,0.0011031115427613258
60.0,0.0008243843331001699
64.0,0.0005456528160721064
72.0,0.00038212243816815317
80.0,0.00044358219020068645
88.0,0.0005363737000152469
96.0,0.0005129362107254565
104.0,0.0007117366185411811
112.0,0.00024854904040694237
120.0,1.6806103303679265e-05
128.0,8.937095844885334e-05
144.0,0.0002750893181655556
160.0,0.0003373560030013323
176.0,0.0004969589645043015
192.0,0.00032241243752650917
208.0,-0.0002926613378804177
224.0,-0.0005830756272189319
240.0,-0.00021858593390788883
256.0,-0.00017409035353921354
288.0,-0.0002305571106262505
320.0,-0.0007248034817166626
352.0,-0.00031633477192372084
384.0,0.0001350210077362135
416.0,7.521262159571052e-05
448.0,-8.728779357625172e-05
480.0,1.2705718290817458e-06
512.0,0.0001732022501528263
576.0,-0.0002668219094630331
640.0,1.353359766653739e-05
704.0,4.774220542458352e-06
768.0,0.00028756604297086596
832.0,0.0001289570500375703
896.0,-0.00024356850190088153
960.0,-0.00026256294222548604
1024.0,-0.00012429780326783657
1152.0,-0.00011865968554047868
1280.0,-0.0006723214173689485
1408.0,-0.00039779936196282506
1536.0,0.0002315481979167089
1664.0,0.0003652645682450384
1792.0,-0.0001241447898792103
1920.0,-0.00019965633691754192
2048.0,-0.0006529024103656411
2304.0,-0.00021499510330613703
2560.0,0.0003989296965301037
2816.0,-0.00014663775800727308
3072.0,-0.0002132599038304761
3328.0,0.0002567888586781919
3584.0,1.4026816643308848e-05
3840.0,-0.0001729724317556247
4096.0,0.0003242749662604183
4608.0,-0.00033492236980237067
5120.0,0.00011428714788053185
5632.0,7.722097507212311e-05
6144.0,-8.721710037207231e-05
6656.0,0.00022464126232080162
7168.0,-0.0008067823946475983
7680.0,7.233666110550985e-06
8192.0,0.0007629769970662892
end
