version,3.0
numOfCh,1
type,point
parent_name,484af_3dot0-0dot1
ch_type,1_1
kcount,1
numberNandB,1
brightnessNandB,1
carpet pos,0
pc,0
Time (ms),CH1 Auto-Correlation
1.0,0.017774153500795364
2.0,0.01478099450469017
3.0,0.01278363261371851
4.0,0.011250597424805164
5.0,0.010007940232753754
6.0,0.009102367796003819
7.0,0.008396722376346588
8.0,0.007769647054374218
9.0,0.007214616518467665
10.0,0.006801032926887274
11.0,0.006334523670375347
12.0,0.00597452512010932
13.0,0.005794944707304239
14.0,0.005596061237156391
15.0,0.005487802438437939
16.0,0.005361749790608883
18.0,0.0048420606181025505
20.0,0.004484640900045633
22.0,0.004281409550458193
24.0,0.004305148497223854
26.0,0.004160167183727026
28.0,0.00379161536693573
30.0,0.003483922453597188
32.0,0.003239680780097842
36.0,0.002765157027170062
40.0,0.0026850919239223003
44.0,0.002340512117370963
48.0,0.0018490408547222614
52.0,0.001737038022838533
56.0,0.001638572895899415
60.0,0.001972432713955641
64.0,0.002094127470627427
72.0,0.001475106691941619
80.0,0.0012789062457159162
88.0,0.0011555509408935905
96.0,0.000858898798469454
104.0,0.0009303344995714724
112.0,0.0008393501630052924
120.0,0.0008836662163957953
128.0,0.0007002793136052787
144.0,0.0007275778334587812
160.0,9.024119935929775e-05
176.0,7.577620272058994e-05
192.0,0.00019577797502279282
208.0,0.000347257504472509
224.0,2.8001959435641766e-05
240.0,0.00027680600760504603
256.0,0.00022802363673690706
288.0,0.0002736480673775077
320.0,-2.1570422177319415e-05
352.0,-0.00031283104908652604
384.0,-0.0004284132446628064
416.0,-0.00010370940435677767
448.0,0.00013586270506493747
480.0,-0.00019255503138992935
512.0,-9.644270176067948e-05
576.0,0.00015336360957007855
640.0,3.240032310714014e-05
704.0,0.00021219337941147387
768.0,-1.0044856935564894e-05
832.0,0.00010621139517752454
896.0,0.0004427490057423711
960.0,-0.00025827594799920917
1024.0,0.0001694782986305654
1152.0,-0.0002155898982891813
1280.0,-0.00016460948972962797
1408.0,-0.00028111322899349034
1536.0,-0.00011526050366228446
1664.0,0.0006611566641367972
1792.0,-0.00026606020401231945
1920.0,0.0004615821235347539
2048.0,-0.00011788951087510213
2304.0,0.00023969162430148572
2560.0,0.0007799901068210602
2816.0,-0.00039519224083051085
3072.0,0.0002709797117859125
3328.0,-0.0002869547752197832
3584.0,-0.00026891156448982656
3840.0,-0.0003163344517815858
4096.0,-0.00043598480988293886
4608.0,0.0005558772827498615
5120.0,-0.0005065195728093386
5632.0,0.00010883869981626049
6144.0,-0.0003138240717817098
6656.0,9.106760444410611e-06
7168.0,-0.00036745640682056546
7680.0,-0.00018035761604551226
8192.0,-0.0006936463760212064
end
