version,3.0
numOfCh,1
type,point
parent_name,484af_3dot0-0dot1
ch_type,1_1
kcount,1
numberNandB,1
brightnessNandB,1
carpet pos,0
pc,0
Time (ms),CH1 Auto-Correlation
1.0,0.019208313897252083
2.0,0.01639745756983757
3.0,0.014413558878004551
4.0,0.012842070311307907
5.0,0.011619770899415016
6.0,0.01061102282255888
7.0,0.009570843540132046
8.0,0.008777771145105362
9.0,0.008204068057239056
10.0,0.007731316611170769
11.0,0.007228725589811802
12.0,0.006872521247714758
13.0,0.00649890536442399
14.0,0.006310007069259882
15.0,0.0059671360068023205
16.0,0.005731343291699886
18.0,0.0050222366116940975
20.0,0.004738594405353069
22.0,0.004395341966301203
24.0,0.004110454116016626
26.0,0.0037291967310011387
28.0,0.0032456694170832634
30.0,0.002718857256695628
32.0,0.0023649081122130156
36.0,0.002400247612968087
40.0,0.0023067269939929247
44.0,0.002453361637890339
48.0,0.002616484649479389
52.0,0.0023635432589799166
56.0,0.0020425207912921906
60.0,0.0018947575008496642
64.0,0.001852469053119421
72.0,0.0006883599562570453
80.0,0.000392174901207909
88.0,-0.00014588533667847514
96.0,1.6574822438997217e-05
104.0,0.00029057826031930745
112.0,0.0005935311201028526
120.0,0.0006051121163181961
128.0,5.862945909029804e-05
144.0,-0.0005481174448505044
160.0,-0.00033053691731765866
176.0,9.638963092584163e-05
192.0,-8.376695177503279e-07
208.0,0.0003068559744860977
224.0,0.00039691553683951497
240.0,0.0010301204165443778
256.0,0.0009133070125244558
288.0,0.0003933534608222544
320.0,0.0008311407291330397
352.0,0.00036100856959819794
384.0,0.0003896347770933062
416.0,9.082732140086591e-05
448.0,-0.0004106172709725797
480.0,-0.0005685756914317608
512.0,-0.0005945064476691186
576.0,-0.0005323486402630806
640.0,4.926024121232331e-05
704.0,0.0006076056160964072
768.0,-6.812388164689764e-05
832.0,-0.0009050617227330804
896.0,-0.0002718693285714835
960.0,0.00011386830738047138
1024.0,4.993488619220443e-05
1152.0,-0.000317505793645978
1280.0,-0.0002865265414584428
1408.0,0.0002037304948316887
1536.0,-0.000548856274690479
1664.0,-0.00030283030355349183
1792.0,-0.00018892838852480054
1920.0,-0.0007717837579548359
2048.0,0.0002917890960816294
2304.0,9.350282925879583e-05
2560.0,0.0004664185980800539
2816.0,0.00043715626816265285
3072.0,-0.00014795438619330525
3328.0,-8.67829003254883e-05
3584.0,-0.0002594230172690004
3840.0,-1.7906975699588656e-05
4096.0,-1.4532644854625687e-05
4608.0,-0.0006457467097789049
5120.0,-0.00014087189629208297
5632.0,0.00021111794922035187
6144.0,0.00034762927680276334
6656.0,-9.495284029981121e-05
7168.0,-0.0003490522503852844
7680.0,-0.00015772550250403583
8192.0,5.366491313907318e-05
end
