version,3.0
numOfCh,1
type,point
parent_name,484af_3dot0-0dot1
ch_type,1_1
kcount,1
numberNandB,1
brightnessNandB,1
carpet pos,0
pc,0
Time (ms),CH1 Auto-Correlation
1.0,0.01592952013015747
2.0,0.013126042671501637
3.0,0.011127693578600883
4.0,0.00967023428529501
5.0,0.008541414514183998
6.0,0.007613412570208311
7.0,0.006862483453005552
8.0,0.006233760621398687
9.0,0.005770578980445862
10.0,0.005358499940484762
11.0,0.0050470526330173016
12.0,0.004734083544462919
13.0,0.004409561865031719
14.0,0.004125107079744339
15.0,0.003765400964766741
16.0,0.0034936112351715565
18.0,0.0031062562484294176
20.0,0.0027890680357813835
22.0,0.002435122150927782
24.0,0.0024428595788776875
26.0,0.00245672557502985
28.0,0.0023291893303394318
30.0,0.00216484977863729
32.0,0.0021239733323454857
36.0,0.0019368964713066816
40.0,0.00181905971840024
44.0,0.001862320234067738
48.0,0.0017564547015354037
52.0,0.001603779848664999
56.0,0.0012939126463606954
60.0,0.0011918668169528246
64.0,0.001122877816669643
72.0,0.0004903277731500566
80.0,0.00023845749092288315
88.0,0.0005143544403836131
96.0,0.0004682523140218109
104.0,0.00030500919092446566
112.0,0.0005583374877460301
120.0,0.0006552091217599809
128.0,0.0007453851285390556
144.0,0.0006272948230616748
160.0,-0.0002989134518429637
176.0,-0.0004120489757042378
192.0,-0.00017693729023449123
208.0,-0.00024058559210970998
224.0,-0.00041094914195127785
240.0,0.00018817723321262747
256.0,0.00012336768850218505
288.0,0.0005377106135711074
320.0,0.00084912427701056
352.0,0.0007922581280581653
384.0,-0.00020642951130867004
416.0,0.0002274210419273004
448.0,0.0005109071498736739
480.0,5.3372506954474375e-05
512.0,0.00020741517073474824
576.0,0.00014343805378302932
640.0,0.0004450588021427393
704.0,0.00036328574060462415
768.0,0.0004487129917833954
832.0,4.072147567057982e-05
896.0,7.794790144544095e-05
960.0,-0.0002290918055223301
1024.0,0.00020862148085143417
1152.0,2.358310121053364e-05
1280.0,-8.532271749572828e-05
1408.0,0.0006858673295937479
1536.0,0.00036779505899176
1664.0,-0.0002731056301854551
1792.0,-0.00042475140071474016
1920.0,-0.0007004222716204822
2048.0,-0.00048194036935456097
2304.0,-0.0005178062128834426
2560.0,-0.00019379689183551818
2816.0,-0.00020170571224298328
3072.0,-0.0003372410428710282
3328.0,-0.0001263543963432312
3584.0,-0.00025114111485891044
3840.0,0.00014310520782601088
4096.0,0.0006262867827899754
4608.0,0.000334553507855162
5120.0,-3.3340453228447586e-05
5632.0,-7.804235792718828e-05
6144.0,-0.0005256481235846877
6656.0,-0.0006673627649433911
7168.0,-0.0005932165076956153
7680.0,-0.0003810982743743807
8192.0,0.00048668577801436186
end
