version,3.0
numOfCh,1
type,point
parent_name,484af_3dot0-0dot1
ch_type,1_1
kcount,1
numberNandB,1
brightnessNandB,1
carpet pos,0
pc,0
Time (ms),CH1 Auto-Correlation
1.0,0.01640813797712326
2.0,0.013512227684259415
3.0,0.011458666995167732
4.0,0.009862282313406467
5.0,0.008719679899513721
6.0,0.007833671756088734
7.0,0.007121803238987923
8.0,0.006492527201771736
9.0,0.0059258295223116875
10.0,0.005510225426405668
11.0,0.005145016126334667
12.0,0.004876226652413607
13.0,0.004652880597859621
14.0,0.00452835951000452
15.0,0.00438779266551137
16.0,0.0041978745721280575
18.0,0.00395062193274498
20.0,0.003578358795493841
22.0,0.0030301029328256845
24.0,0.002705950755625963
26.0,0.0024800151586532593
28.0,0.002229325007647276
30.0,0.0018462594598531723
32.0,0.0015890238573774695
36.0,0.0015333321643993258
40.0,0.0016595080960541964
44.0,0.001654447172768414
48.0,0.0014722817577421665
52.0,0.0013735691318288445
56.0,0.0013449388789013028
60.0,0.0013087838888168335
64.0,0.0011637016432359815
72.0,0.0009794454090297222
80.0,0.0007030537235550582
88.0,0.0006622584187425673
96.0,0.0003200699866283685
104.0,0.00016746621986385435
112.0,-8.647603681311011e-05
120.0,-0.00019494460138957947
128.0,-8.742960199015215e-05
144.0,0.00022516892931889743
160.0,3.0802249966654927e-05
176.0,-0.000598988845013082
192.0,-0.0008750480483286083
208.0,-0.00047412022831849754
224.0,-4.56341149401851e-05
240.0,0.0001271389046451077
256.0,0.00016288598999381065
288.0,0.00046447484055534005
320.0,0.0003873633104376495
352.0,1.593313572811894e-05
384.0,0.00039496857789345086
416.0,-0.00011517626990098506
448.0,-0.00024698456400074065
480.0,0.0001441132480977103
512.0,9.819761180551723e-05
576.0,-0.0003257777134422213
640.0,0.00015058970893733203
704.0,0.00017981011478696018
768.0,0.00043562331120483577
832.0,-0.00013752320955973119
896.0,6.756345828762278e-05
960.0,0.00010969895811285824
1024.0,0.0004352555552031845
1152.0,0.0002909125469159335
1280.0,-0.00010377520084148273
1408.0,0.0004624154535122216
1536.0,0.0004533561004791409
1664.0,0.0008554326486773789
1792.0,0.0003585841623134911
1920.0,0.00023072515614330769
2048.0,-0.0001442263019271195
2304.0,5.004518970963545e-05
2560.0,0.00019474684086162597
2816.0,8.08775657787919e-05
3072.0,5.2521754696499556e-05
3328.0,0.00017979257972911
3584.0,1.9866347429342568e-05
3840.0,8.859470108291134e-05
4096.0,0.0003592548309825361
4608.0,-0.00015509843069594353
5120.0,-0.0001150073076132685
5632.0,0.0003647525445558131
6144.0,-0.0005491063930094242
6656.0,-0.000374676805222407
7168.0,0.0003267544962000102
7680.0,-0.0008593820384703577
8192.0,-0.00010037310858024284
end
