version,3.0
numOfCh,1
type,point
parent_name,484af_3dot0-0dot1
ch_type,1_1
kcount,1
numberNandB,1
brightnessNandB,1
carpet pos,0
pc,0
Time (ms),CH1 Auto-Correlation
1.0,0.0168605949729681
2.0,0.0139984842389822
3.0,0.011939289048314095
4.0,0.010463941842317581
5.0,0.00933294091373682
6.0,0.008431808091700077
7.0,0.007684813346713781
8.0,0.0070069110952317715
9.0,0.006515671964734793
10.0,0.006033673416823149
11.0,0.005546975880861282
12.0,0.005253789946436882
13.0,0.0049536279402673244
14.0,0.004763877019286156
15.0,0.004646385088562965
16.0,0.004499936476349831
18.0,0.004194031003862619
20.0,0.003933306783437729
22.0,0.0037239878438413143
24.0,0.003541635349392891
26.0,0.0034232556354254484
28.0,0.003148866118863225
30.0,0.0029278481379151344
32.0,0.002736639464274049
36.0,0.0024150442332029343
40.0,0.002366764936596155
44.0,0.002347489120438695
48.0,0.0024637295864522457
52.0,0.002229247707873583
56.0,0.0020552498754113913
60.0,0.001729848561808467
64.0,0.0013182637048885226
72.0,0.000977221061475575
80.0,0.0006734640919603407
88.0,0.0007107006385922432
96.0,0.0005189111107029021
104.0,0.0004157454241067171
112.0,0.0003446678165346384
120.0,0.0002657147706486285
128.0,0.0004048047703690827
144.0,-6.0623504396062344e-05
160.0,0.00015639327466487885
176.0,-0.00020923557167407125
192.0,-0.00030815688660368323
208.0,-0.00011685467325150967
224.0,-1.1955390618823003e-05
240.0,0.00045292224967852235
256.0,0.0007099469657987356
288.0,0.0004015452868770808
320.0,0.0006455765105783939
352.0,0.00016709842020645738
384.0,-0.00012642709771171212
416.0,-0.00019006809452548623
448.0,-0.0006112368428148329
480.0,-0.0004917216720059514
512.0,-0.0010575123596936464
576.0,-0.0006432184600271285
640.0,0.00045365860569290817
704.0,0.0001791842223610729
768.0,-0.0006117420853115618
832.0,-0.0005186392809264362
896.0,-7.251193892443553e-05
960.0,-0.00012861152936238796
1024.0,0.000220925867324695
1152.0,1.0529909559409134e-05
1280.0,0.00017267321527469903
1408.0,-0.00012560923642013222
1536.0,0.00026493772747926414
1664.0,-9.265075641451403e-05
1792.0,2.4247347027994692e-06
1920.0,0.00012609836994670331
2048.0,0.00018003283184953034
2304.0,-0.0006500348681584001
2560.0,-0.0001358719018753618
2816.0,0.00016843002231325954
3072.0,0.00018030630599241704
3328.0,-6.866355397505686e-05
3584.0,0.00011170013749506325
3840.0,-9.988252713810652e-05
4096.0,-0.00020029077131766826
4608.0,0.00015911232912912965
5120.0,-0.000289050251012668
5632.0,-2.8237525839358568e-05
6144.0,0.0003361066628713161
6656.0,-0.00040210632141679525
7168.0,1.3973429304314777e-05
7680.0,-5.850307843502378e-06
8192.0,-0.00043726255535148084
end
