version,3.0
numOfCh,1
type,point
parent_name,484af_3dot0-0dot1
ch_type,1_1
kcount,1
numberNandB,1
brightnessNandB,1
carpet pos,0
pc,0
Time (ms),CH1 Auto-Correlation
1.0,0.016971226781606674
2.0,0.014134588651359081
3.0,0.012231354601681232
4.0,0.010807747021317482
5.0,0.00976269505918026
6.0,0.008839162066578865
7.0,0.008120185695588589
8.0,0.007535780780017376
9.0,0.00688985176384449
10.0,0.00637309392914176
11.0,0.006014789454638958
12.0,0.005809542257338762
13.0,0.005505731329321861
14.0,0.005256991367787123
15.0,0.004880550317466259
16.0,0.0046754986979067326
18.0,0.0044187335297465324
20.0,0.004192588850855827
22.0,0.0038356485310941935
24.0,0.003344113938510418
26.0,0.002990863984450698
28.0,0.002952123526483774
30.0,0.00280657852999866
32.0,0.0025246618315577507
36.0,0.002199822571128607
40.0,0.001858667004853487
44.0,0.0015599590260535479
48.0,0.0013771217782050371
52.0,0.0009982921183109283
56.0,0.0007217538659460843
60.0,0.00013461298658512533
64.0,2.3983513528946787e-05
72.0,8.596687985118479e-05
80.0,0.00013458615285344422
88.0,3.5149681934854016e-05
96.0,0.0003869890933856368
104.0,0.0006484540062956512
112.0,0.0008825536351650953
120.0,0.000659075565636158
128.0,0.0007742287707515061
144.0,0.00038712690002284944
160.0,-0.00043055927380919456
176.0,-4.500357681536116e-05
192.0,-0.0007126661948859692
208.0,-0.0007239966653287411
224.0,-0.0003487991925794631
240.0,-0.0001677317632129416
256.0,0.00020103665883652866
288.0,0.000755499757360667
320.0,0.0006005502073094249
352.0,0.0006905252812430263
384.0,0.001002816716209054
416.0,0.000505243893712759
448.0,-6.368775211740285e-05
480.0,-6.943026528460905e-05
512.0,-0.0005303150974214077
576.0,-0.0003225205873604864
640.0,0.00014423132233787328
704.0,0.0002518589608371258
768.0,0.0001270485226996243
832.0,-0.000543670728802681
896.0,-0.0002540109271649271
960.0,7.462730718543753e-05
1024.0,0.0005864480626769364
1152.0,5.6797336583258584e-05
1280.0,-0.0003140705230180174
1408.0,-0.00012222907389514148
1536.0,-9.502582543063909e-05
1664.0,-0.0002728541730903089
1792.0,5.7027926231967285e-05
1920.0,-0.00019766569312196225
2048.0,-3.1292078347178176e-05
2304.0,-0.00010600898531265557
2560.0,0.00015562860062345862
2816.0,0.0002153517707483843
3072.0,-0.00032081385143101215
3328.0,-0.0002934515359811485
3584.0,6.712775939377025e-05
3840.0,-7.619381358381361e-05
4096.0,-5.776487523689866e-05
4608.0,0.00015446463658008724
5120.0,0.00019719683041330427
5632.0,0.00017826101975515485
6144.0,-0.00010462242789799348
6656.0,0.0001692107762210071
7168.0,0.00016139307990670204
7680.0,-0.00022103921219240874
8192.0,8.980355050880462e-05
end
