version,3.0
numOfCh,1
type,point
parent_name,484af_3dot0-0dot1
ch_type,1_1
kcount,1
numberNandB,1
brightnessNandB,1
carpet pos,0
pc,0
Time (ms),CH1 Auto-Correlation
1.0,0.015982715412974358
2.0,0.01321971695870161
3.0,0.011221702210605145
4.0,0.009747699834406376
5.0,0.00855602603405714
6.0,0.007730791810899973
7.0,0.006948825437575579
8.0,0.006269074976444244
9.0,0.005789405200630426
10.0,0.005193529184907675
11.0,0.004788768943399191
12.0,0.004392051137983799
13.0,0.0040183947421610355
14.0,0.0037058675661683083
15.0,0.0034729077015072107
16.0,0.0032884166575968266
18.0,0.00302843376994133
20.0,0.002790610073134303
22.0,0.0025948132388293743
24.0,0.0025176326744258404
26.0,0.002322238637134433
28.0,0.002180208917707205
30.0,0.002174464985728264
32.0,0.002177136717364192
36.0,0.0018141953041777015
40.0,0.0016170821618288755
44.0,0.00126763922162354
48.0,0.0009244439424946904
52.0,0.0006908689974807203
56.0,0.000564141315408051
60.0,0.00048631508252583444
64.0,0.0005509566981345415
72.0,0.00016434938879683614
80.0,0.00023938478261698037
88.0,0.00019524488016031682
96.0,0.00024989823577925563
104.0,0.0006177964969538152
112.0,0.0009003350278362632
120.0,0.0006095357821322978
128.0,0.00019667537708301097
144.0,0.0005146164912730455
160.0,0.0005785959074273705
176.0,0.00045225449139252305
192.0,-2.0216170014464296e-05
208.0,-0.00025689322501420975
224.0,0.00026179489213973284
240.0,-0.0002477268863003701
256.0,-0.00014301309420261532
288.0,-0.0004600420652423054
320.0,2.674187817319762e-05
352.0,0.0005256057484075427
384.0,0.0003969020617660135
416.0,0.00030796416103839874
448.0,0.00025283783907070756
480.0,0.0003515357384458184
512.0,8.880400127964094e-05
576.0,0.000566914037335664
640.0,0.00022622020333074033
704.0,-0.0005401612143032253
768.0,-0.00020672034588642418
832.0,-0.0003890924563165754
896.0,-0.00031540976488031447
960.0,-0.0002567052433732897
1024.0,-0.0005477250088006258
1152.0,-0.00016379874432459474
1280.0,0.00017422644305042922
1408.0,0.00026482652174308896
1536.0,-0.0005337863694876432
1664.0,-0.00028081543860025704
1792.0,0.0005357097252272069
1920.0,0.0002164492179872468
2048.0,0.00037227131542749703
2304.0,0.00014611730875913054
2560.0,0.00026615423848852515
2816.0,-2.7197535018785857e-05
3072.0,-0.00012049077486153692
3328.0,-0.0002334065648028627
3584.0,1.2543411685328465e-05
3840.0,0.0002558794221840799
4096.0,0.0001607171434443444
4608.0,-0.00013496345491148531
5120.0,-2.9050188459223136e-05
5632.0,-0.0002705467341002077
6144.0,-1.018609145830851e-05
6656.0,0.00010560068767517805
7168.0,0.0001204951768158935
7680.0,-9.308886365033686e-05
8192.0,-0.00036658853059634566
end
