version,3.0
numOfCh,1
type,point
parent_name,484af_3dot0-0dot1
ch_type,1_1
kcount,1
numberNandB,1
brightnessNandB,1
carpet pos,0
pc,0
Time (ms),CH1 Auto-Correlation
1.0,0.01637711375951767
2.0,0.013524544425308704
3.0,0.011407717131078243
4.0,0.009791473858058453
5.0,0.008563604205846786
6.0,0.007583511993288994
7.0,0.006866095587611198
8.0,0.006213003769516945
9.0,0.0056519219651818275
10.0,0.0051676309667527676
11.0,0.004848667420446873
12.0,0.004658491816371679
13.0,0.004493591375648975
14.0,0.004307206720113754
15.0,0.004174543544650078
16.0,0.003983438480645418
18.0,0.0035187252797186375
20.0,0.0029994393698871136
22.0,0.0026731393299996853
24.0,0.0024378360249102116
26.0,0.0023368634283542633
28.0,0.0022875892464071512
30.0,0.0023046962451189756
32.0,0.002270535798743367
36.0,0.0021381548140197992
40.0,0.0020094069186598063
44.0,0.002164693083614111
48.0,0.002135041868314147
52.0,0.0018075176049023867
56.0,0.0016220661345869303
60.0,0.0015595251461490989
64.0,0.0014462785329669714
72.0,0.001276660361327231
80.0,0.0014242272591218352
88.0,0.0011246399953961372
96.0,0.000618453836068511
104.0,0.0008390871225856245
112.0,0.0007033235742710531
120.0,0.0003433596284594387
128.0,0.00019426491053309292
144.0,0.0002970762434415519
160.0,1.7491120161139406e-05
176.0,-0.00014840622316114604
192.0,-0.0002804292016662657
208.0,-5.709551987820305e-05
224.0,-0.0001650125050218776
240.0,-0.000398538337321952
256.0,-7.511198782594875e-05
288.0,6.814472726546228e-05
320.0,0.00015743347466923296
352.0,6.925714842509478e-05
384.0,8.77545026014559e-05
416.0,0.0003355597145855427
448.0,0.0008851531310938299
480.0,0.0007662388379685581
512.0,0.000670095847453922
576.0,0.00014267540245782584
640.0,-0.00017731910338625312
704.0,0.0004132593749091029
768.0,0.0010154631454497576
832.0,0.00111094256862998
896.0,0.0011129898484796286
960.0,-1.237408355336811e-06
1024.0,-0.00023575135855935514
1152.0,5.1524511945899576e-05
1280.0,0.0003535448631737381
1408.0,0.00047515032929368317
1536.0,0.0002491254126653075
1664.0,0.0006164190708659589
1792.0,6.301877874648198e-05
1920.0,-0.00022750426433049142
2048.0,-0.00026422529481351376
2304.0,0.0004173163615632802
2560.0,-0.0003475668781902641
2816.0,7.282143633347005e-05
3072.0,9.023966413224116e-05
3328.0,-0.00033514920505695045
3584.0,0.00026632598019205034
3840.0,0.00027154633426107466
4096.0,-8.033683116082102e-05
4608.0,-5.196299389353953e-05
5120.0,0.00021105659834574908
5632.0,-0.00021642957290168852
6144.0,-0.00047947841812856495
6656.0,9.017620868689846e-06
7168.0,4.1653940570540726e-05
7680.0,-0.0004107769054826349
8192.0,8.605362381786108e-05
end
