version,3.0
numOfCh,1
type,point
parent_name,484af_3dot0-0dot1
ch_type,1_1
kcount,1
numberNandB,1
brightnessNandB,1
carpet pos,0
pc,0
Time (ms),CH1 Auto-Correlation
1.0,0.015298226848244667
2.0,0.012420683167874813
3.0,0.010495391674339771
4.0,0.008989728055894375
5.0,0.007873817346990108
6.0,0.007039002142846584
7.0,0.006286012940108776
8.0,0.005714366212487221
9.0,0.00511713745072484
10.0,0.004636554513126612
11.0,0.004153813701122999
12.0,0.0038619365077465773
13.0,0.003613072680309415
14.0,0.003377181012183428
15.0,0.0031436870340257883
16.0,0.003029746003448963
18.0,0.002662348560988903
20.0,0.0024315332993865013
22.0,0.0022467682138085365
24.0,0.0021336704958230257
26.0,0.0019464459037408233
28.0,0.001769552705809474
30.0,0.001582756987772882
32.0,0.001609301078133285
36.0,0.0015167935052886605
40.0,0.00131929200142622
44.0,0.0012762582628056407
48.0,0.0008822458912618458
52.0,0.0005287714884616435
56.0,0.0005755636375397444
60.0,0.0008446474676020443
64.0,0.000437001435784623
72.0,0.00023768816026858985
80.0,-7.725571776973084e-06
88.0,5.287060412229039e-05
96.0,-0.00019398920994717628
104.0,-2.713792127906345e-05
112.0,0.00011046040162909776
120.0,-4.7318735596491024e-05
128.0,-0.00013653429050464183
144.0,-2.7589387173065916e-05
160.0,-0.00011183813330717385
176.0,3.375182132003829e-05
192.0,0.00043439771980047226
208.0,-0.00011409151193220168
224.0,-0.0003697045031003654
240.0,0.00045873114140704274
256.0,0.00045438986853696406
288.0,0.0003010737709701061
320.0,0.0002069039474008605
352.0,-4.993643597117625e-05
384.0,-0.0002753669396042824
416.0,-0.0002645412751007825
448.0,-0.0009026532643474638
480.0,-0.0011270148679614067
512.0,-0.0006807853933423758
576.0,-0.0002298500476172194
640.0,-0.00011940390686504543
704.0,-0.00044101939420215786
768.0,-0.0002936377131845802
832.0,0.0003197580517735332
896.0,6.916304118931293e-05
960.0,0.00023495088680647314
1024.0,-9.387783211423084e-05
1152.0,1.7768952602637e-05
1280.0,-0.00024780232342891395
1408.0,0.0001345539785688743
1536.0,-0.00024260733334813267
1664.0,2.5697314413264394e-05
1792.0,0.00010688936163205653
1920.0,0.00026535731740295887
2048.0,0.0003721885441336781
2304.0,-0.0002101057762047276
2560.0,6.348046736093238e-05
2816.0,9.377195237902924e-05
3072.0,-0.00025013735285028815
3328.0,-6.693101022392511e-05
3584.0,0.00019148616411257535
3840.0,-0.00022693438222631812
4096.0,-0.0004651402705349028
4608.0,0.0003492173564154655
5120.0,-0.00011860435915878043
5632.0,5.269349640002474e-05
6144.0,1.4827547602180857e-05
6656.0,-0.00023878795036580414
7168.0,0.00030964994220994413
7680.0,-0.00027459923876449466
8192.0,0.0002863361733034253
end
