version,3.0
numOfCh,1
type,point
parent_name,484af_3dot0-0dot1
ch_type,1_1
kcount,1
numberNandB,1
brightnessNandB,1
carpet pos,0
pc,0
Time (ms),CH1 Auto-Correlation
1.0,0.01570747420191765
2.0,0.01285614538937807
3.0,0.010753684677183628
4.0,0.00917841587215662
5.0,0.00801760796457529
6.0,0.007079726550728083
7.0,0.006220768205821514
8.0,0.005468258634209633
9.0,0.004937070421874523
10.0,0.004552028141915798
11.0,0.004217109177261591
12.0,0.0038851709105074406
13.0,0.0036525013856589794
14.0,0.003434419399127364
15.0,0.003316533286124468
16.0,0.003122346242889762
18.0,0.002638967940583825
20.0,0.0022630193270742893
22.0,0.0018936225678771734
24.0,0.001622562762349844
26.0,0.0013582614483311772
28.0,0.0013219286920502782
30.0,0.0012505276827141643
32.0,0.0010293039958924055
36.0,0.0007008035317994654
40.0,0.0006027122144587338
44.0,0.0006330269388854504
48.0,0.0006115887081250548
52.0,0.0006517062429338694
56.0,0.0006384503212757409
60.0,0.0008036528597585857
64.0,0.0009837552206590772
72.0,0.0013536519836634398
80.0,0.0008769566193223
88.0,0.0006977958837524056
96.0,0.0006034951074980199
104.0,0.00043928829836659133
112.0,0.0002880856045521796
120.0,8.943534339778125e-05
128.0,0.0003316982474643737
144.0,0.0003179664781782776
160.0,-0.000183104959432967
176.0,-0.0008305374067276716
192.0,-0.0006820275448262691
208.0,-0.00039832829497754574
224.0,-0.00013187949662096798
240.0,-3.878161805914715e-05
256.0,-0.00040253830957226455
288.0,0.00017511613259557635
320.0,0.00016086033429019153
352.0,0.0008060918771661818
384.0,-1.5163018360908609e-06
416.0,-7.520605868194252e-05
448.0,0.00013153956388123333
480.0,-0.0003191674768459052
512.0,1.754786899255123e-05
576.0,0.00014771844143979251
640.0,0.00012411997886374593
704.0,-0.0004999811644665897
768.0,-0.0003665751137305051
832.0,-0.00019160599913448095
896.0,6.155449227662757e-05
960.0,0.0002799060894176364
1024.0,-0.00017853347526397556
1152.0,-0.00022571482986677438
1280.0,-4.8320380301447585e-05
1408.0,0.000126604427350685
1536.0,-5.509244874701835e-05
1664.0,-0.00012259661161806434
1792.0,-0.00037649553269147873
1920.0,0.0003391042409930378
2048.0,0.00020269624656066298
2304.0,5.1983693992951885e-05
2560.0,0.00030673539731651545
2816.0,0.0001643966097617522
3072.0,-0.0003183023654855788
3328.0,-0.0004100269579794258
3584.0,-0.0003945048083551228
3840.0,0.00023286245414055884
4096.0,0.00019374891417101026
4608.0,3.321751864859834e-05
5120.0,4.1464492824161425e-05
5632.0,-0.0001630820770515129
6144.0,1.4133426702755969e-05
6656.0,0.00026543770218268037
7168.0,-0.00017435043992009014
7680.0,0.000137315655592829
8192.0,-0.00022935961897019297
end
