version,3.0
numOfCh,1
type,point
parent_name,484af_3dot0-0dot1
ch_type,1_1
kcount,1
numberNandB,1
brightnessNandB,1
carpet pos,0
pc,0
Time (ms),CH1 Auto-Correlation
1.0,0.01700710877776146
2.0,0.014120648615062237
3.0,0.011981463059782982
4.0,0.010496546514332294
5.0,0.009384729899466038
6.0,0.008449518121778965
7.0,0.007862728089094162
8.0,0.0073257433250546455
9.0,0.006780113093554974
10.0,0.006371965166181326
11.0,0.00594192324206233
12.0,0.005466125905513763
13.0,0.004962355364114046
14.0,0.0045747216790914536
15.0,0.004227759316563606
16.0,0.0039518182165920734
18.0,0.0034359258133918047
20.0,0.0029480820521712303
22.0,0.002694663591682911
24.0,0.002499478869140148
26.0,0.0022887836676090956
28.0,0.0020461089443415403
30.0,0.0017628909554332495
32.0,0.0016355444677174091
36.0,0.0015701391967013478
40.0,0.001700349966995418
44.0,0.0016783347819000483
48.0,0.001496249227784574
52.0,0.001142876804806292
56.0,0.0010313652455806732
60.0,0.0013585641281679273
64.0,0.001470937510021031
72.0,0.0014418810606002808
80.0,0.0008491108892485499
88.0,0.00042541997390799224
96.0,0.0003941913309972733
104.0,0.00093002401990816
112.0,0.0008983730804175138
120.0,0.0006482137832790613
128.0,0.0005071189953014255
144.0,0.00021266675321385264
160.0,0.00034115189919248223
176.0,0.00039037453825585544
192.0,0.0005535525851882994
208.0,-0.0001806932414183393
224.0,-0.00033322288072668016
240.0,-0.00010561695671640337
256.0,-0.00033234694274142385
288.0,7.5703595939558e-05
320.0,-0.0002871515171136707
352.0,-0.0005712765268981457
384.0,8.796466136118397e-05
416.0,0.0004972146707586944
448.0,0.0005460880347527564
480.0,0.00032085072598420084
512.0,-0.00014501491386909038
576.0,0.0004923927481286228
640.0,-8.849917503539473e-05
704.0,0.0005766042158938944
768.0,0.00025447754887863994
832.0,0.00021191024279687554
896.0,-0.00022465932124760002
960.0,-0.0004293015517760068
1024.0,-4.882313533016713e-06
1152.0,-9.101154137169942e-05
1280.0,-1.3086407761875307e-06
1408.0,3.631790241342969e-05
1536.0,0.0001414855505572632
1664.0,-0.00030285827233456075
1792.0,-9.983718337025493e-05
1920.0,0.0001072961968020536
2048.0,-0.0002183112665079534
2304.0,-0.0001215080264955759
2560.0,2.0400948415044695e-05
2816.0,0.000421661272412166
3072.0,0.0004689235065598041
3328.0,0.00044037975021637976
3584.0,0.000371701578842476
3840.0,-0.00025594071485102177
4096.0,-0.0002557826810516417
4608.0,-0.00030810138559900224
5120.0,-0.00026262577739544213
5632.0,-9.14454649318941e-05
6144.0,0.00017754832515493035
6656.0,0.00016022962518036366
7168.0,-0.00036513537634164095
7680.0,-0.00075015879701823
8192.0,-0.0003221131628379226
end
