version,3.0
numOfCh,1
type,point
parent_name,484af_3dot0-0dot1
ch_type,1_1
kcount,1
numberNandB,1
brightnessNandB,1
carpet pos,0
pc,0
Time (ms),CH1 Auto-Correlation
1.0,0.01576637290418148
2.0,0.013073033653199673
3.0,0.011227510869503021
4.0,0.009772265329957008
5.0,0.008673707954585552
6.0,0.007681410294026136
7.0,0.006931793875992298
8.0,0.0063263531774282455
9.0,0.005826231557875872
10.0,0.005357636138796806
11.0,0.005017335992306471
12.0,0.004672665148973465
13.0,0.004435138776898384
14.0,0.004229713696986437
15.0,0.003991534933447838
16.0,0.003744410118088126
18.0,0.0032615619711577892
20.0,0.0028631258755922318
22.0,0.0023189557250589132
24.0,0.001882734359242022
26.0,0.0017022127285599709
28.0,0.0016302098520100117
30.0,0.0016131405718624592
32.0,0.0015278380597010255
36.0,0.001201922190375626
40.0,0.0009157851454801857
44.0,0.0005498407990671694
48.0,0.00036408918094821274
52.0,0.00029683907632716
56.0,0.0004146565916016698
60.0,0.00022022453777026385
64.0,0.00023409532150253654
72.0,0.00020549503096845
80.0,-4.394489951664582e-05
88.0,-4.186949445283972e-05
96.0,0.00023765992955304682
104.0,0.0005839714431203902
112.0,0.0005560421268455684
120.0,0.0004466453392524272
128.0,0.0006389904883690178
144.0,0.000640940445009619
160.0,0.000723496952559799
176.0,0.00036181375617161393
192.0,5.070331553724827e-06
208.0,-8.503999561071396e-05
224.0,-0.00011830278526758775
240.0,-0.0002716211602091789
256.0,0.00010674653458409011
288.0,0.00028419337468221784
320.0,-0.0001396263687638566
352.0,-0.000507779885083437
384.0,0.00046982825733721256
416.0,0.00022553540475200862
448.0,-0.00014379012282006443
480.0,-0.0005160106811672449
512.0,-0.00011290255497442558
576.0,-0.00023900879023130983
640.0,-0.0003526214568410069
704.0,-0.00012183206126792356
768.0,-0.0005149400094524026
832.0,-4.268745396984741e-05
896.0,5.115728345117532e-05
960.0,0.00013437487359624356
1024.0,-0.0001370841491734609
1152.0,-0.0001394177379552275
1280.0,0.00020813519950024784
1408.0,-0.0005757999606430531
1536.0,-0.000511365884449333
1664.0,-2.5344521418446675e-05
1792.0,9.663586388342083e-05
1920.0,0.00032064318656921387
2048.0,0.00017858044884633273
2304.0,0.00016925758973229676
2560.0,0.0003175381280016154
2816.0,3.604507219279185e-05
3072.0,-0.00011719028407242149
3328.0,-0.0003848553460557014
3584.0,-0.00021536742860917002
3840.0,-0.00026699682348407805
4096.0,-0.0003604120865929872
4608.0,3.289421510999091e-05
5120.0,0.00012128383968956769
5632.0,-0.0001836390292737633
6144.0,-4.41893280367367e-05
6656.0,0.00010935363388853148
7168.0,6.595703598577529e-05
7680.0,-4.0268932934850454e-05
8192.0,-0.00018547906074672937
end
