version,3.0
numOfCh,1
type,point
parent_name,484af_3dot0-0dot1
ch_type,1_1
kcount,1
numberNandB,1
brightnessNandB,1
carpet pos,0
pc,0
Time (ms),CH1 Auto-Correlation
1.0,0.01462182030081749
2.0,0.011831183917820454
3.0,0.009846527129411697
4.0,0.008293747901916504
5.0,0.007174672093242407
6.0,0.006327482871711254
7.0,0.005650669801980257
8.0,0.005257460754364729
9.0,0.004815970081835985
10.0,0.004476346541196108
11.0,0.004212882369756699
12.0,0.003953306004405022
13.0,0.0036724088713526726
14.0,0.0033609450329095125
15.0,0.003133037593215704
16.0,0.002973397495225072
18.0,0.0024396381340920925
20.0,0.0022174965124577284
22.0,0.0020540975965559483
24.0,0.001922524068504572
26.0,0.0017335442826151848
28.0,0.0015437941765412688
30.0,0.0013575447956100106
32.0,0.001217025681398809
36.0,0.0011991927167400718
40.0,0.0010379201266914606
44.0,0.0005836052005179226
48.0,0.00026063076802529395
52.0,0.000307433248963207
56.0,0.0005108098266646266
60.0,0.0006829835474491119
64.0,0.0007268305053003132
72.0,0.0010187076404690742
80.0,0.0009086441132239997
88.0,0.0005701733171008527
96.0,0.00037184200482442975
104.0,0.0004240392008796334
112.0,0.0002276412269566208
120.0,9.150906407739967e-05
128.0,7.530073344241828e-05
144.0,0.00011292230192339048
160.0,-0.00018192901916336268
176.0,1.134701324190246e-05
192.0,-3.842765363515355e-05
208.0,0.00026324644568376243
224.0,0.00018590905528981239
240.0,-0.00015922504826448858
256.0,-1.0764983016997576e-05
288.0,0.0006990815745666623
320.0,0.0004343746695667505
352.0,-3.879214636981487e-05
384.0,5.955267261015251e-05
416.0,6.240941002033651e-05
448.0,0.0002900486288126558
480.0,0.00042507797479629517
512.0,0.00024079266586340964
576.0,-0.0005227268557064235
640.0,-0.00037478955346159637
704.0,-9.312557813245803e-05
768.0,0.00024250060960184783
832.0,0.00044571852777153254
896.0,2.631777306305594e-06
960.0,0.00045417220098897815
1024.0,0.00025425321655347943
1152.0,6.462006422225386e-05
1280.0,0.00033937342232093215
1408.0,0.00010341612505726516
1536.0,0.0003301445103716105
1664.0,0.00025657741934992373
1792.0,0.00020066149591002613
1920.0,-6.455239781644195e-05
2048.0,0.00016227936430368572
2304.0,-0.00014133153308648616
2560.0,0.0001593053893884644
2816.0,0.0002511845377739519
3072.0,-8.98060534382239e-05
3328.0,6.323886918835342e-05
3584.0,-8.539667032891884e-05
3840.0,-0.00027013345970772207
4096.0,-0.00036015312070958316
4608.0,-0.0002022183034569025
5120.0,-0.0003657680645119399
5632.0,-0.00026733046979643404
6144.0,-0.00028472801204770803
6656.0,-0.00019727832113858312
7168.0,-8.755134331295267e-05
7680.0,-0.0002667959488462657
8192.0,-0.00016763529856689274
end
