version,3.0
numOfCh,1
type,point
parent_name,484af_3dot0-0dot1
ch_type,1_1
kcount,1
numberNandB,1
brightnessNandB,1
carpet pos,0
pc,0
Time (ms),CH1 Auto-Correlation
1.0,0.01653439924120903
2.0,0.01372633408755064
3.0,0.01178653072565794
4.0,0.010332806035876274
5.0,0.009206369519233704
6.0,0.008358224295079708
7.0,0.007568140048533678
8.0,0.0069694300182163715
9.0,0.006403215229511261
10.0,0.0059407358057796955
11.0,0.005568506196141243
12.0,0.005144078750163317
13.0,0.004759184084832668
14.0,0.004471825435757637
15.0,0.004203085787594318
16.0,0.003944079391658306
18.0,0.003542663063853979
20.0,0.003136052517220378
22.0,0.0027052764780819416
24.0,0.002593225333839655
26.0,0.0023909977171570063
28.0,0.0023306210059672594
30.0,0.002138383686542511
32.0,0.002093951217830181
36.0,0.001973822247236967
40.0,0.0018482354935258627
44.0,0.001724852598272264
48.0,0.00154154933989048
52.0,0.001549588399939239
56.0,0.0014504966093227267
60.0,0.001024012453854084
64.0,0.0007619388052262366
72.0,0.0004602224216796458
80.0,0.0006227791309356689
88.0,0.0006178611074574292
96.0,0.0005091895000077784
104.0,0.0004372104594949633
112.0,0.0001448208640795201
120.0,-0.0001775593846105039
128.0,0.00011632762470981106
144.0,-0.00013331574155017734
160.0,-0.0001267747866222635
176.0,0.00035830712295137346
192.0,0.0006136097363196313
208.0,0.0003954711137339473
224.0,9.899178985506296e-05
240.0,0.00021620167535729706
256.0,0.0002808917488437146
288.0,-0.0002255265280837193
320.0,-0.00026821400388143957
352.0,-8.764784433878958e-05
384.0,0.00017183982708957046
416.0,0.00023165075981523842
448.0,0.00025229749735444784
480.0,0.00018169372924603522
512.0,-9.740332461660728e-05
576.0,-2.5720199118950404e-05
640.0,0.0006419389392249286
704.0,0.0003105083596892655
768.0,-3.606237441999838e-05
832.0,-0.00025754811940714717
896.0,-0.0004503180680330843
960.0,-0.0003635345783550292
1024.0,-0.0003684441326186061
1152.0,0.00031677272636443377
1280.0,-0.00038498250069096684
1408.0,-0.0005835916963405907
1536.0,-0.0004987757420167327
1664.0,-0.00023650647199247032
1792.0,-0.00027538498397916555
1920.0,-0.00019006902584806085
2048.0,-0.0002102695725625381
2304.0,0.00027777155628427863
2560.0,-3.38155405188445e-05
2816.0,-7.12707478669472e-05
3072.0,-3.2019390346249565e-05
3328.0,0.00011481634282972664
3584.0,-7.781376189086586e-05
3840.0,2.363328712817747e-05
4096.0,-0.00010525847756071016
4608.0,0.00016942562069743872
5120.0,-0.0001617406087461859
5632.0,-0.00018923598690889776
6144.0,-0.0003705993585754186
6656.0,0.00018959326553158462
7168.0,4.319312211009674e-05
7680.0,-0.00016111806326080114
8192.0,-6.574946019100025e-05
end
