version,3.0
numOfCh,1
type,point
parent_name,484af_3dot0-0dot1
ch_type,1_1
kcount,1
numberNandB,1
brightnessNandB,1
carpet pos,0
pc,0
Time (ms),CH1 Auto-Correlation
1.0,0.01602437160909176
2.0,0.013164998963475227
3.0,0.011189085431396961
4.0,0.00973249226808548
5.0,0.008536795154213905
6.0,0.007561840116977692
7.0,0.006859747227281332
8.0,0.006253309082239866
9.0,0.005747487768530846
10.0,0.005334699060767889
11.0,0.005046514328569174
12.0,0.004728453233838081
13.0,0.004375459626317024
14.0,0.004087021108716726
15.0,0.003865065285935998
16.0,0.003637826070189476
18.0,0.003235614625737071
20.0,0.002722635632380843
22.0,0.0022683057468384504
24.0,0.0019309131894260645
26.0,0.001519767101854086
28.0,0.00116393668577075
30.0,0.0009674281463958323
32.0,0.0009508575312793255
36.0,0.001183453481644392
40.0,0.0012357585364952683
44.0,0.0008790182764641941
48.0,0.0006581851630471647
52.0,0.0006296444917097688
56.0,0.0004225663433317095
60.0,6.963180931052193e-05
64.0,6.397137622116134e-05
72.0,0.000499146175570786
80.0,0.0009164275252260268
88.0,0.0009534924174658954
96.0,0.0011565993772819638
104.0,0.0006508102524094284
112.0,0.0004159322415944189
120.0,0.0004559835069812834
128.0,7.173077028710395e-05
144.0,3.64540278496861e-06
160.0,0.00011874941264977679
176.0,0.0005208281800150871
192.0,8.632553362986073e-05
208.0,-0.0003668339631985873
224.0,0.00042774263420142233
240.0,0.00032477776403538883
256.0,0.0004547244170680642
288.0,-2.3960104954312555e-05
320.0,-0.0001556167844682932
352.0,0.0003536435542628169
384.0,-0.00019635986245702952
416.0,-5.697133019566536e-05
448.0,0.00082344253314659
480.0,0.00014675351849291474
512.0,-0.0004958836361765862
576.0,-0.00025617858045734465
640.0,-0.00017145225137937814
704.0,0.00033818790689110756
768.0,-0.00010849400860024616
832.0,-0.0002985721221193671
896.0,-0.00034231727477163076
960.0,-0.0007904648664407432
1024.0,0.00011403293319744989
1152.0,-5.273160422802903e-05
1280.0,-0.00040575419552624226
1408.0,-0.0006825539749115705
1536.0,-0.00034401181619614363
1664.0,-0.0004856346931774169
1792.0,0.00018548095249570906
1920.0,6.254002073546872e-05
2048.0,0.00020976757514290512
2304.0,0.0001240934361703694
2560.0,0.0003231768496334553
2816.0,0.00018796940275933594
3072.0,0.00011600357538554817
3328.0,-0.0002217748260591179
3584.0,0.0001713165402179584
3840.0,-0.00041020018397830427
4096.0,-4.5766690163873136e-05
4608.0,9.507865797786508e-06
5120.0,9.1386420535855e-05
5632.0,-6.26403561909683e-05
6144.0,0.00015807265299372375
6656.0,-6.737654621247202e-05
7168.0,8.756552415434271e-05
7680.0,-0.0005162411252968013
8192.0,-0.0003891119558829814
end
