version,3.0
numOfCh,1
type,point
parent_name,484af_3dot0-0dot1
ch_type,1_1
kcount,1
numberNandB,1
brightnessNandB,1
carpet pos,0
pc,0
Time (ms),CH1 Auto-Correlation
1.0,0.020232906565070152
2.0,0.017328787595033646
3.0,0.015146768651902676
4.0,0.013530147261917591
5.0,0.012167495675384998
6.0,0.011138468980789185
7.0,0.01021250244230032
8.0,0.009593833237886429
9.0,0.009074250236153603
10.0,0.008543048053979874
11.0,0.00807998701930046
12.0,0.007724008988589048
13.0,0.007282527629286051
14.0,0.006930571980774403
15.0,0.006606833077967167
16.0,0.006537230685353279
18.0,0.006059702951461077
20.0,0.005537840072065592
22.0,0.005105275195091963
24.0,0.004416844341903925
26.0,0.004011140670627356
28.0,0.003754507517442107
30.0,0.003636576235294342
32.0,0.003579956479370594
36.0,0.003273467067629099
40.0,0.0028733129147440195
44.0,0.0027664792723953724
48.0,0.0025915689766407013
52.0,0.002225222997367382
56.0,0.001651864149607718
60.0,0.001325160381384194
64.0,0.0009295655763708055
72.0,0.0003852898662444204
80.0,0.001322922995314002
88.0,0.0016245503211393952
96.0,0.0017092464258894324
104.0,0.0016159643419086933
112.0,0.0014754744479432702
120.0,0.0009714057086966932
128.0,0.0007649700273759663
144.0,0.0009251609444618225
160.0,0.0006648354465141892
176.0,0.0012227556435391307
192.0,0.0012554001295939088
208.0,0.0008594121318310499
224.0,0.0009112479747273028
240.0,0.0014355980092659593
256.0,0.00028324357117526233
288.0,0.00023067882284522057
320.0,0.0005593236419372261
352.0,0.00032258598366752267
384.0,0.00019201567920390517
416.0,0.0004064287059009075
448.0,0.0004350344242993742
480.0,0.000340288010193035
512.0,-0.0005809214781038463
576.0,-0.0003566938394214958
640.0,1.866496677394025e-05
704.0,-0.0006878901622258127
768.0,-0.00013213536294642836
832.0,-0.00043268597801215947
896.0,0.0002428838051855564
960.0,-0.0002801614173222333
1024.0,-0.000212808619835414
1152.0,0.0002925058361142874
1280.0,-0.00020707238581962883
1408.0,-0.0004227184981573373
1536.0,-0.0005261217011138797
1664.0,-0.0006772419437766075
1792.0,-0.0006659865030087531
1920.0,-0.0005820043734274805
2048.0,-0.0003752541379071772
2304.0,1.3938833035354037e-05
2560.0,-2.48894102696795e-05
2816.0,0.000349159148754552
3072.0,0.00016907214012462646
3328.0,-0.0002141585573554039
3584.0,-0.000426456390414387
3840.0,-5.586342012975365e-06
4096.0,0.00011637690477073193
4608.0,0.00013861412298865616
5120.0,0.0002912938653025776
5632.0,0.0001748798822518438
6144.0,-0.00040955934673547745
6656.0,-0.0007766392664052546
7168.0,0.0002994470705743879
7680.0,-0.0003575854061637074
8192.0,0.0009671375737525523
end
