version,3.0
numOfCh,1
type,point
parent_name,ff67b_0dot4-0dot1
ch_type,1_1
kcount,1
numberNandB,1
brightnessNandB,1
carpet pos,0
pc,0
Time (ms),CH1 Auto-Correlation
1.0,0.028108207508921623
2.0,0.02704990841448307
3.0,0.026057297363877296
4.0,0.025140363723039627
5.0,0.024266622960567474
6.0,0.023415042087435722
7.0,0.022642064839601517
8.0,0.021933088079094887
9.0,0.021228497847914696
10.0,0.02057354338467121
11.0,0.019948206841945648
12.0,0.01938198134303093
13.0,0.018840791657567024
14.0,0.018348950892686844
15.0,0.017859937623143196
16.0,0.017402734607458115
18.0,0.016555819660425186
20.0,0.015802940353751183
22.0,0.01508889626711607
24.0,0.01440724078565836
26.0,0.013763380236923695
28.0,0.013195269741117954
30.0,0.012747520580887794
32.0,0.01231316477060318
36.0,0.011720267124474049
40.0,0.011160681024193764
44.0,0.010550819337368011
48.0,0.00987150240689516
52.0,0.009182224050164223
56.0,0.008465124294161797
60.0,0.007736776489764452
64.0,0.007009694818407297
72.0,0.005805506370961666
80.0,0.004723318852484226
88.0,0.003642480121925473
96.0,0.0027384276036173105
104.0,0.0020886899437755346
112.0,0.0016188024310395122
120.0,0.0011844992404803634
128.0,0.0007459829794242978
144.0,0.0002682618796825409
160.0,0.0001540483790449798
176.0,0.0001972049503820017
192.0,0.0007727750344201922
208.0,0.0006639425409957767
224.0,0.0004979565273970366
240.0,0.0005273394053801894
256.0,0.00035385359660722315
288.0,0.00039368323632515967
320.0,-0.00022025860380381346
352.0,0.0007251286879181862
384.0,0.0003461051092017442
416.0,-0.0003168517432641238
448.0,0.0004631639749277383
480.0,0.0003954358398914337
512.0,0.0004745495389215648
576.0,0.0011322145583108068
640.0,3.2474166800966486e-05
704.0,-0.0008077192469500005
768.0,-0.000326863577356562
832.0,1.730271651467774e-05
896.0,-0.0003422519366722554
960.0,-0.0013915611198171973
1024.0,-0.00034705232246778905
1152.0,-0.0019377046264708042
1280.0,-6.639659113716334e-05
1408.0,-0.0018470260547474027
1536.0,-0.0013671647757291794
1664.0,-0.0012437099358066916
1792.0,-0.002508963691070676
1920.0,-0.0021021272987127304
2048.0,-0.0006817453540861607
2304.0,-0.000467271136585623
2560.0,0.0014949515461921692
2816.0,0.0016237727832049131
3072.0,0.0011111709754914045
3328.0,0.0014904752606526017
3584.0,0.0014798890333622694
3840.0,0.000247608550125733
4096.0,-0.0010492646833881736
4608.0,-0.0021035203244537115
5120.0,-0.0005732415593229234
5632.0,-0.0013844609493389726
6144.0,0.001033447915688157
6656.0,0.0017551752971485257
7168.0,-0.0007770368829369545
7680.0,-0.00038269677315838635
8192.0,-0.0020474207121878862
end
