version,3.0
numOfCh,1
type,point
parent_name,ff67b_0dot4-0dot1
ch_type,1_1
kcount,1
numberNandB,1
brightnessNandB,1
carpet pos,0
pc,0
Time (ms),CH1 Auto-Correlation
1.0,0.029691871255636215
2.0,0.0286239180713892
3.0,0.02763272449374199
4.0,0.026706485077738762
5.0,0.02583671547472477
6.0,0.0250445194542408
7.0,0.024305827915668488
8.0,0.023625534027814865
9.0,0.02299843356013298
10.0,0.02239494025707245
11.0,0.0218526478856802
12.0,0.02134966477751732
13.0,0.02085379883646965
14.0,0.0204117801040411
15.0,0.0200036708265543
16.0,0.019597744569182396
18.0,0.018759282305836678
20.0,0.017951034009456635
22.0,0.017212850973010063
24.0,0.016476741060614586
26.0,0.015751922503113747
28.0,0.015094717033207417
30.0,0.014499785378575325
32.0,0.013980955816805363
36.0,0.01307972613722086
40.0,0.012402980588376522
44.0,0.01173218060284853
48.0,0.010998591780662537
52.0,0.010211791843175888
56.0,0.009505988098680973
60.0,0.008939201943576336
64.0,0.00845707394182682
72.0,0.00757724791765213
80.0,0.006794807966798544
88.0,0.006437269970774651
96.0,0.006181327160447836
104.0,0.006041801534593105
112.0,0.005816567223519087
120.0,0.005429618060588837
128.0,0.005068938247859478
144.0,0.004354456439614296
160.0,0.003276183269917965
176.0,0.0022496709134429693
192.0,0.0018650329438969493
208.0,0.001955763902515173
224.0,0.0021915265824645758
240.0,0.0024124199990183115
256.0,0.0023536833468824625
288.0,0.002379834186285734
320.0,0.001926141674630344
352.0,0.002093607559800148
384.0,0.0024072271771728992
416.0,0.0018571786349639297
448.0,0.0010315350955352187
480.0,0.00020566269813571125
512.0,-0.0001022795622702688
576.0,-0.0006348739843815565
640.0,-0.00020384433446452022
704.0,-0.0010993963805958629
768.0,-0.0010360185988247395
832.0,-0.0020840317010879517
896.0,-0.0009206256363540888
960.0,-0.0014638745924457908
1024.0,-0.002523767063394189
1152.0,-0.0035291030071675777
1280.0,-0.0035703645553439856
1408.0,-0.001465978566557169
1536.0,-0.0010042432695627213
1664.0,-0.0005448993179015815
1792.0,-0.000627060595434159
1920.0,0.0012008855119347572
2048.0,0.001045831828378141
2304.0,-0.00037034827983006835
2560.0,0.0013610238675028086
2816.0,0.0005023610428906977
3072.0,0.00012724794214591384
3328.0,0.0011259918101131916
3584.0,-0.00056025804951787
3840.0,-0.001830840716138482
4096.0,0.0012464416213333607
4608.0,0.0012108201626688242
5120.0,-0.0005893446505069733
5632.0,-0.0016219726530835032
6144.0,0.0018999470630660653
6656.0,0.0009674702887423337
7168.0,-0.004462930839508772
7680.0,-0.0007217709789983928
8192.0,0.0034019711893051863
end
