version,3.0
numOfCh,1
type,point
parent_name,ff67b_0dot4-0dot1
ch_type,1_1
kcount,1
numberNandB,1
brightnessNandB,1
carpet pos,0
pc,0
Time (ms),CH1 Auto-Correlation
1.0,0.03234175220131874
2.0,0.03128078579902649
3.0,0.030299799516797066
4.0,0.029421983286738396
5.0,0.028591470792889595
6.0,0.027797723188996315
7.0,0.02702830173075199
8.0,0.02628922462463379
9.0,0.025567563250660896
10.0,0.0249010119587183
11.0,0.02426898665726185
12.0,0.023674678057432175
13.0,0.02310996502637863
14.0,0.022551702335476875
15.0,0.022034427151083946
16.0,0.021513501182198524
18.0,0.02053861692547798
20.0,0.01965915597975254
22.0,0.01884041726589203
24.0,0.01807212270796299
26.0,0.017326483502984047
28.0,0.01663285307586193
30.0,0.0160385575145483
32.0,0.015458687208592892
36.0,0.014467851258814335
40.0,0.013531138189136982
44.0,0.012717938050627708
48.0,0.012072132900357246
52.0,0.011464614421129227
56.0,0.010818076319992542
60.0,0.010197841562330723
64.0,0.0097988061606884
72.0,0.009004388935863972
80.0,0.00850277952849865
88.0,0.008119537495076656
96.0,0.007624279707670212
104.0,0.007490872871130705
112.0,0.007689994294196367
120.0,0.00801132246851921
128.0,0.007901671342551708
144.0,0.007328345440328121
160.0,0.006330015603452921
176.0,0.005834253039211035
192.0,0.005320517811924219
208.0,0.004358137492090464
224.0,0.0037431009113788605
240.0,0.0038509194273501635
256.0,0.003979521803557873
288.0,0.0024349167943000793
320.0,0.0008397118654102087
352.0,0.0008686510846018791
384.0,0.002451241947710514
416.0,0.00290949665941298
448.0,0.00349654583260417
480.0,0.003217899240553379
512.0,0.0023827352561056614
576.0,0.002501840004697442
640.0,0.0016789244255051017
704.0,0.0015527164796367288
768.0,0.0005981394788250327
832.0,-0.0002592488599475473
896.0,-0.0006448090425692499
960.0,-0.0005515245138667524
1024.0,0.00019004695059265941
1152.0,-0.00049527024384588
1280.0,-0.0010877583408728242
1408.0,-0.0016319160349667072
1536.0,-0.00080999790225178
1664.0,0.0005255440482869744
1792.0,0.0004219541442580521
1920.0,-0.0002640403399709612
2048.0,-0.0012726896675303578
2304.0,-0.0012268489226698875
2560.0,-0.0014151580398902297
2816.0,0.0006286348216235638
3072.0,0.00047851810813881457
3328.0,-0.00013613150804303586
3584.0,-0.0024531460367143154
3840.0,-0.0032724738121032715
4096.0,-0.0035124069545418024
4608.0,-0.001016320544295013
5120.0,0.0009543324122205377
5632.0,0.00016586016863584518
6144.0,0.0015973369590938091
6656.0,-0.0011212617391720414
7168.0,-0.00036830041790381074
7680.0,0.0033440322149544954
8192.0,0.0017245927592739463
end
