version,3.0
numOfCh,1
type,point
parent_name,ff67b_0dot4-0dot1
ch_type,1_1
kcount,1
numberNandB,1
brightnessNandB,1
carpet pos,0
pc,0
Time (ms),CH1 Auto-Correlation
1.0,0.028533225879073143
2.0,0.027544856071472168
3.0,0.026611458510160446
4.0,0.025733761489391327
5.0,0.024926921352744102
6.0,0.02412569150328636
7.0,0.023378882557153702
8.0,0.022676408290863037
9.0,0.022027743980288506
10.0,0.021438688039779663
11.0,0.020882684737443924
12.0,0.020357441157102585
13.0,0.019854648038744926
14.0,0.0193667933344841
15.0,0.018877016380429268
16.0,0.018428971990942955
18.0,0.01753866858780384
20.0,0.01667386293411255
22.0,0.01587391272187233
24.0,0.015135140158236027
26.0,0.014450461603701115
28.0,0.013831239193677902
30.0,0.01322281826287508
32.0,0.012673677876591682
36.0,0.011763295158743858
40.0,0.010900474153459072
44.0,0.010197274386882782
48.0,0.009629625827074051
52.0,0.009038225747644901
56.0,0.008495284244418144
60.0,0.007977175526320934
64.0,0.007549990434199572
72.0,0.006820375565439463
80.0,0.006047260947525501
88.0,0.005122607108205557
96.0,0.004495422355830669
104.0,0.0036757555790245533
112.0,0.0030617613811045885
120.0,0.0029665399342775345
128.0,0.002830160316079855
144.0,0.0016712743090465665
160.0,0.0008524899603798985
176.0,0.0006763075944036245
192.0,0.0006033142562955618
208.0,0.000226531527005136
224.0,0.0009461657609790564
240.0,0.0015957958530634642
256.0,0.002110436325892806
288.0,0.0012489984510466456
320.0,0.000558101455681026
352.0,-0.000608965172432363
384.0,-0.0012503300094977021
416.0,-9.365350706502795e-05
448.0,-3.722275505424477e-05
480.0,0.0003087166987825185
512.0,4.530531805357896e-05
576.0,-0.00046327768359333277
640.0,-0.0015202389331534505
704.0,-1.6354768376913853e-05
768.0,0.000563599809538573
832.0,0.00026919975061900914
896.0,0.00047105830162763596
960.0,-0.0012333025224506855
1024.0,-0.0015634732553735375
1152.0,-0.0005760908243246377
1280.0,-0.00025931387790478766
1408.0,-0.00015620084013789892
1536.0,-0.0001566642167745158
1664.0,0.00039144919719547033
1792.0,-7.028617983451113e-05
1920.0,-0.002364319283515215
2048.0,-0.0034256300423294306
2304.0,-0.0011203401954844594
2560.0,-0.00025428406661376357
2816.0,0.0004552530881483108
3072.0,-0.00015041817096062005
3328.0,0.0006641325308009982
3584.0,0.0002671276743058115
3840.0,0.0004145374696236104
4096.0,0.00038993475027382374
4608.0,0.00015422057185787708
5120.0,-8.791047002887353e-05
5632.0,-0.0002589353534858674
6144.0,0.0007196044898591936
6656.0,0.00025841264869086444
7168.0,-0.001425836468115449
7680.0,-0.0009294486371800303
8192.0,-0.0006168585969135165
end
