version,3.0
numOfCh,1
type,point
parent_name,ff67b_0dot4-0dot1
ch_type,1_1
kcount,1
numberNandB,1
brightnessNandB,1
carpet pos,0
pc,0
Time (ms),CH1 Auto-Correlation
1.0,0.029969988390803337
2.0,0.028914695605635643
3.0,0.027907803654670715
4.0,0.02695527859032154
5.0,0.0260755717754364
6.0,0.02523869276046753
7.0,0.024426544085144997
8.0,0.023643797263503075
9.0,0.022887928411364555
10.0,0.0221734419465065
11.0,0.021533595398068428
12.0,0.0208999402821064
13.0,0.020307466387748718
14.0,0.019784342497587204
15.0,0.019271770492196083
16.0,0.01877407357096672
18.0,0.01797010377049446
20.0,0.01722433976829052
22.0,0.016591351479291916
24.0,0.016076941043138504
26.0,0.015643637627363205
28.0,0.015177842229604721
30.0,0.014734803698956966
32.0,0.01431775651872158
36.0,0.013594427146017551
40.0,0.012955687008798122
44.0,0.012363908812403679
48.0,0.011866697110235691
52.0,0.011325536295771599
56.0,0.010921534150838852
60.0,0.010502838529646397
64.0,0.010073118843138218
72.0,0.009157232940196991
80.0,0.008684583008289337
88.0,0.008246221579611301
96.0,0.007962152361869812
104.0,0.007624274119734764
112.0,0.006983694154769182
120.0,0.006363408174365759
128.0,0.005688762757927179
144.0,0.005415205843746662
160.0,0.005049579776823521
176.0,0.004576302133500576
192.0,0.004204243887215853
208.0,0.0031243632547557354
224.0,0.0019030774710699916
240.0,0.001510952366515994
256.0,0.0012678016209974885
288.0,0.0011875508353114128
320.0,0.0017734095454216003
352.0,0.00195908360183239
384.0,0.0021322451066225767
416.0,0.0012696590274572372
448.0,0.001503792474977672
480.0,0.002318046288564801
512.0,0.0034374946262687445
576.0,0.0027109752409160137
640.0,0.0008984830346889794
704.0,0.000970116991084069
768.0,0.0006989271496422589
832.0,0.0008238219888880849
896.0,0.0010657047387212515
960.0,0.0010873132850974798
1024.0,0.0007095573819242418
1152.0,0.0022779428400099277
1280.0,0.0018529498483985662
1408.0,-0.0006274327170103788
1536.0,-0.0025574611499905586
1664.0,-0.0008708065142855048
1792.0,0.0003784184227697551
1920.0,0.0007030528504401445
2048.0,0.0017137357499450445
2304.0,-0.0017382358200848103
2560.0,-0.0035682660527527332
2816.0,-0.0025434421841055155
3072.0,0.00039045821176841855
3328.0,-0.0004208330065011978
3584.0,-0.0022394752595573664
3840.0,0.0014124895678833127
4096.0,0.0003350162005517632
4608.0,7.47400990803726e-05
5120.0,0.002213122323155403
5632.0,0.0004724575555883348
6144.0,0.0011711178813129663
6656.0,-0.00012089544907212257
7168.0,-0.00140100356657058
7680.0,-0.004431608598679304
8192.0,-0.0032067380379885435
end
