version,3.0
numOfCh,1
type,point
parent_name,ff67b_0dot4-0dot1
ch_type,1_1
kcount,1
numberNandB,1
brightnessNandB,1
carpet pos,0
pc,0
Time (ms),CH1 Auto-Correlation
1.0,0.02873511053621769
2.0,0.02762165665626526
3.0,0.026623127982020378
4.0,0.02566397190093994
5.0,0.024763869121670723
6.0,0.02393907867372036
7.0,0.023205570876598358
8.0,0.022496666759252548
9.0,0.021801890805363655
10.0,0.021119117736816406
11.0,0.020452436059713364
12.0,0.01982327178120613
13.0,0.01922394335269928
14.0,0.01869116723537445
15.0,0.018170902505517006
16.0,0.01765720546245575
18.0,0.0167231485247612
20.0,0.01589961349964142
22.0,0.015128287486732006
24.0,0.01445649191737175
26.0,0.013898272067308426
28.0,0.013420921750366688
30.0,0.012954081408679485
32.0,0.01247774250805378
36.0,0.011757186613976955
40.0,0.011179580353200436
44.0,0.010599424131214619
48.0,0.009985826909542084
52.0,0.009269444271922112
56.0,0.008534803055226803
60.0,0.007870533503592014
64.0,0.007367594167590141
72.0,0.00663796765729785
80.0,0.006035051308572292
88.0,0.005712268408387899
96.0,0.005301016382873058
104.0,0.005006613675504923
112.0,0.004507916048169136
120.0,0.00409951526671648
128.0,0.003887594910338521
144.0,0.004278482869267464
160.0,0.004040569998323917
176.0,0.003617708571255207
192.0,0.0034904845524579287
208.0,0.003272818401455879
224.0,0.003342806361615658
240.0,0.00283973035402596
256.0,0.0018640978960320354
288.0,0.0011501847766339779
320.0,0.001181853818707168
352.0,0.0013587966095656157
384.0,0.001120971399359405
416.0,-0.00020795504678972065
448.0,0.0005119270645081997
480.0,0.0007888347026892006
512.0,0.0013336786068975925
576.0,0.0016725379973649979
640.0,0.0003186885151080787
704.0,0.0007629695464856923
768.0,0.0019453202839940786
832.0,0.0018777921795845032
896.0,0.00014177792763803154
960.0,-0.0018009485211223364
1024.0,-0.0006467248895205557
1152.0,0.000929066794924438
1280.0,0.0005962244467809796
1408.0,0.0014869187725707889
1536.0,0.002538071246817708
1664.0,0.002260401379317045
1792.0,0.0015719363000243902
1920.0,0.0021049175411462784
2048.0,1.9719456759048626e-05
2304.0,-0.000326789915561676
2560.0,-0.0017283473862335086
2816.0,0.0009625997045077384
3072.0,0.001485870685428381
3328.0,0.0009565911022946239
3584.0,0.0014255845453590155
3840.0,0.0013265550369396806
4096.0,-0.0017392492154613137
4608.0,0.0005987465847283602
5120.0,0.0005892710760235786
5632.0,7.442597416229546e-05
6144.0,0.0011089666513726115
6656.0,-9.80034819804132e-05
7168.0,-0.0037776578683406115
7680.0,-0.0019664200954139233
8192.0,-0.0006960848113521934
end
