version,3.0
numOfCh,1
type,point
parent_name,ff67b_0dot4-0dot1
ch_type,1_1
kcount,1
numberNandB,1
brightnessNandB,1
carpet pos,0
pc,0
Time (ms),CH1 Auto-Correlation
1.0,0.02670804224908352
2.0,0.025660764425992966
3.0,0.024717086926102638
4.0,0.023841962218284607
5.0,0.023038269951939583
6.0,0.022294895723462105
7.0,0.021576570346951485
8.0,0.02089882642030716
9.0,0.020262565463781357
10.0,0.019691526889801025
11.0,0.019169393926858902
12.0,0.018710872158408165
13.0,0.018271366134285927
14.0,0.01785437762737274
15.0,0.017459100112318993
16.0,0.017073316499590874
18.0,0.01636403612792492
20.0,0.01568157598376274
22.0,0.015013163909316063
24.0,0.014332786202430725
26.0,0.013695286586880684
28.0,0.01312614418566227
30.0,0.012560958042740822
32.0,0.01207677274942398
36.0,0.01111049484461546
40.0,0.010173579677939415
44.0,0.009307668544352055
48.0,0.008513391017913818
52.0,0.007861539721488953
56.0,0.0072293574921786785
60.0,0.006728971842676401
64.0,0.006432875990867615
72.0,0.0056383986957371235
80.0,0.004877965897321701
88.0,0.00465251924470067
96.0,0.004488192033022642
104.0,0.004282188601791859
112.0,0.0041726818308234215
120.0,0.004268713761121035
128.0,0.004360416438430548
144.0,0.004417216405272484
160.0,0.00358404777944088
176.0,0.0030958945862948895
192.0,0.002599972765892744
208.0,0.002289567608386278
224.0,0.0019240424735471606
240.0,0.0015847133472561836
256.0,0.0010927728144451976
288.0,0.0007828040397725999
320.0,0.0014284985372796655
352.0,0.0012591362465173006
384.0,0.001834722119383514
416.0,0.0022095851600170135
448.0,0.0019493609433993697
480.0,0.0021535451523959637
512.0,0.001826790045015514
576.0,0.0015523044858127832
640.0,0.0016297074034810066
704.0,0.000562524248380214
768.0,-0.00015951003297232091
832.0,-0.0008568047778680921
896.0,0.0010580637026578188
960.0,0.001810754998587072
1024.0,0.001662378665059805
1152.0,0.00014456926146522164
1280.0,-0.0006734831258654594
1408.0,0.0009039494907483459
1536.0,0.0010384918423369527
1664.0,-0.00047238744446076453
1792.0,-0.0010312407976016402
1920.0,0.00032770397956483066
2048.0,-0.001081908936612308
2304.0,-0.0010166690917685628
2560.0,-0.0018361558904871345
2816.0,-0.0016245500883087516
3072.0,-0.0010150580201297998
3328.0,9.806229354580864e-05
3584.0,0.0015509475488215685
3840.0,0.002387548331171274
4096.0,0.0014499640092253685
4608.0,-0.0007687259931117296
5120.0,0.00011745384836103767
5632.0,-0.0010058085899800062
6144.0,-0.003125361632555723
6656.0,-0.0025235204957425594
7168.0,-0.0025203044060617685
7680.0,-1.2595758562383708e-05
8192.0,-0.0009746423456817865
end
