version,3.0
numOfCh,1
type,point
parent_name,ff67b_0dot4-0dot1
ch_type,1_1
kcount,1
numberNandB,1
brightnessNandB,1
carpet pos,0
pc,0
Time (ms),CH1 Auto-Correlation
1.0,0.027947451919317245
2.0,0.02692047320306301
3.0,0.02594263292849064
4.0,0.02505331300199032
5.0,0.024200541898608208
6.0,0.023390593007206917
7.0,0.02262684516608715
8.0,0.021893763914704323
9.0,0.02119673229753971
10.0,0.020526375621557236
11.0,0.019898362457752228
12.0,0.019319647923111916
13.0,0.018831467255949974
14.0,0.018375711515545845
15.0,0.017971476539969444
16.0,0.0175615306943655
18.0,0.016831791028380394
20.0,0.016136620193719864
22.0,0.015473904088139534
24.0,0.014899338595569134
26.0,0.014349658973515034
28.0,0.013867476023733616
30.0,0.013392447493970394
32.0,0.012917029671370983
36.0,0.01209484413266182
40.0,0.011507074348628521
44.0,0.011019245721399784
48.0,0.010625367052853107
52.0,0.010220222175121307
56.0,0.009669197723269463
60.0,0.009151335805654526
64.0,0.008644845336675644
72.0,0.007826760411262512
80.0,0.007338685914874077
88.0,0.006906671449542046
96.0,0.006566847208887339
104.0,0.006291204132139683
112.0,0.00570325180888176
120.0,0.005250046029686928
128.0,0.004969405010342598
144.0,0.004178773146122694
160.0,0.00326496921479702
176.0,0.0032332504633814096
192.0,0.0031556421890854836
208.0,0.0022662077099084854
224.0,0.0016499919584020972
240.0,0.0013466511154547334
256.0,0.0010639103129506111
288.0,0.00126733654178679
320.0,0.0011155817192047834
352.0,-0.0004508460115175694
384.0,-0.0006561639602296054
416.0,-0.0006727217114530504
448.0,9.291466267313808e-05
480.0,0.000377251417376101
512.0,-0.0008766085957176983
576.0,-0.001644024276174605
640.0,-0.000588369439356029
704.0,-0.0010961429215967655
768.0,-0.0008627560455352068
832.0,-0.0016874732682481408
896.0,-0.0018197885947301984
960.0,-0.0013090878492221236
1024.0,1.2481718840717804e-05
1152.0,0.00030266717658378184
1280.0,0.0006659306236542761
1408.0,-0.0020972529891878366
1536.0,-0.00228887889534235
1664.0,-0.004194638691842556
1792.0,-0.0012261065421625972
1920.0,-0.0010239437688142061
2048.0,0.00025389494840055704
2304.0,-0.0006074427510611713
2560.0,0.00037201328086666763
2816.0,-0.0001077366978279315
3072.0,0.001255442388355732
3328.0,0.001715524704195559
3584.0,-0.00037954538129270077
3840.0,-0.0013736252440139651
4096.0,-0.001278184587135911
4608.0,0.0018593246350064874
5120.0,-0.0016012227861210704
5632.0,0.0011512540513649583
6144.0,0.0004187491431366652
6656.0,0.00015182196511887014
7168.0,0.0012357871746644378
7680.0,-0.0010057140607386827
8192.0,-0.00014891134924255311
end
