version,3.0
numOfCh,1
type,point
parent_name,ff67b_0dot4-0dot1
ch_type,1_1
kcount,1
numberNandB,1
brightnessNandB,1
carpet pos,0
pc,0
Time (ms),CH1 Auto-Correlation
1.0,0.028810888528823853
2.0,0.02767341025173664
3.0,0.026622509583830833
4.0,0.02564704418182373
5.0,0.024726737290620804
6.0,0.02387775108218193
7.0,0.02306210808455944
8.0,0.022297682240605354
9.0,0.021563228219747543
10.0,0.020875247195363045
11.0,0.020208200439810753
12.0,0.019544534385204315
13.0,0.018915968015789986
14.0,0.018334420397877693
15.0,0.01780049502849579
16.0,0.017327051609754562
18.0,0.016481073573231697
20.0,0.015716681256890297
22.0,0.015010020695626736
24.0,0.014383752830326557
26.0,0.01376902312040329
28.0,0.013154829852283001
30.0,0.01254701055586338
32.0,0.011992705054581165
36.0,0.01094841305166483
40.0,0.01003921590745449
44.0,0.009233365766704082
48.0,0.008477849885821342
52.0,0.007740647066384554
56.0,0.0069993664510548115
60.0,0.006221810355782509
64.0,0.005583539139479399
72.0,0.004726932384073734
80.0,0.0038746020291000605
88.0,0.003167057642713189
96.0,0.002662374870851636
104.0,0.0027210426051169634
112.0,0.0029694270342588425
120.0,0.0032692637760192156
128.0,0.003495378652587533
144.0,0.00393055472522974
160.0,0.0042701419442892075
176.0,0.00411765743046999
192.0,0.0039286441169679165
208.0,0.003087211400270462
224.0,0.0018006686586886644
240.0,0.0005541594582609832
256.0,-0.000399227486923337
288.0,-0.00021742936223745346
320.0,-0.000217552442336455
352.0,0.0009687404381111264
384.0,0.0005464459536597133
416.0,0.001185669214464724
448.0,0.001027838559821248
480.0,0.000521274225320667
512.0,0.0003303396515548229
576.0,0.00029601354617625475
640.0,-0.0009079071460291743
704.0,-0.0013582486426457763
768.0,-0.0012237986084073782
832.0,-0.001907547120936215
896.0,9.612202120479196e-06
960.0,-0.0008505703881382942
1024.0,-0.0015483954921364784
1152.0,7.00379823683761e-05
1280.0,0.001165678258985281
1408.0,0.0008984329761005938
1536.0,0.0007117526256479323
1664.0,0.00037332583451643586
1792.0,0.0003790166520047933
1920.0,-0.00020046719873789698
2048.0,-0.00014233104593586177
2304.0,-0.0010829562088474631
2560.0,-0.001732218312099576
2816.0,-0.002119454089552164
3072.0,-0.001316534704528749
3328.0,0.00026131299091503024
3584.0,-0.0008424518746323884
3840.0,-0.0009472729871049523
4096.0,-0.0006404491141438484
4608.0,-0.0015394900692626834
5120.0,0.0021957638673484325
5632.0,0.0006019366555847228
6144.0,-0.00033415568759664893
6656.0,0.0017841688822954893
7168.0,0.0005178778665140271
7680.0,-0.0008170280489139259
8192.0,0.00011761193309212103
end
