version,3.0
numOfCh,1
type,point
parent_name,ff67b_0dot4-0dot1
ch_type,1_1
kcount,1
numberNandB,1
brightnessNandB,1
carpet pos,0
pc,0
Time (ms),CH1 Auto-Correlation
1.0,0.031231706961989403
2.0,0.030031757429242134
3.0,0.02890527807176113
4.0,0.027845697477459908
5.0,0.026847781613469124
6.0,0.02588433027267456
7.0,0.024952655658125877
8.0,0.024120673537254333
9.0,0.023342784494161606
10.0,0.022663068026304245
11.0,0.02197185903787613
12.0,0.021335452795028687
13.0,0.020772965624928474
14.0,0.02023291401565075
15.0,0.019708458334207535
16.0,0.019251469522714615
18.0,0.018375631421804428
20.0,0.017636749893426895
22.0,0.017009779810905457
24.0,0.016479820013046265
26.0,0.015960799530148506
28.0,0.015460380353033543
30.0,0.01503168698400259
32.0,0.014698164537549019
36.0,0.01401606760919094
40.0,0.013320469297468662
44.0,0.012611335143446922
48.0,0.012111901305615902
52.0,0.011667272076010704
56.0,0.011125980876386166
60.0,0.01071141380816698
64.0,0.01038579922169447
72.0,0.009353590197861195
80.0,0.008189047686755657
88.0,0.007251288741827011
96.0,0.006596643477678299
104.0,0.00591119984164834
112.0,0.005365466233342886
120.0,0.004512352403253317
128.0,0.0038438830524683
144.0,0.0030287178233265877
160.0,0.002499327529221773
176.0,0.0026747598312795162
192.0,0.0032967731822282076
208.0,0.0037470716051757336
224.0,0.0033471467904746532
240.0,0.003094289219006896
256.0,0.0027077835984528065
288.0,0.0012826434103772044
320.0,-0.00036216332227922976
352.0,-0.0004946633125655353
384.0,-0.0006493789842352271
416.0,-0.001824250677600503
448.0,-0.0025618586223572493
480.0,-0.0019919625483453274
512.0,-0.0019078258192166686
576.0,-0.002899184823036194
640.0,-0.0038987838197499514
704.0,-0.003593775210902095
768.0,-0.00039043897413648665
832.0,0.00021821622794959694
896.0,0.0023293625563383102
960.0,0.003981134854257107
1024.0,0.002494538901373744
1152.0,0.0023989814799278975
1280.0,0.0023799920454621315
1408.0,0.00010924505477305502
1536.0,-0.00037690415047109127
1664.0,-0.0033581911120563745
1792.0,-0.006258887704461813
1920.0,-0.003978290595114231
2048.0,-0.0011946223676204681
2304.0,0.0027598508168011904
2560.0,0.002086813095957041
2816.0,-0.0031711983028799295
3072.0,-0.0042058611288666725
3328.0,0.00044108767178840935
3584.0,0.0009609208791516721
3840.0,0.0003265312407165766
4096.0,-0.0017051524482667446
4608.0,0.002275582868605852
5120.0,0.001660555717535317
5632.0,-0.0007803313783369958
6144.0,0.0021473634988069534
6656.0,-0.0022094580344855785
7168.0,0.00012971865362487733
7680.0,-0.0023344282526522875
8192.0,-0.003152008866891265
end
