version,3.0
numOfCh,1
type,point
parent_name,ff67b_0dot4-0dot1
ch_type,1_1
kcount,1
numberNandB,1
brightnessNandB,1
carpet pos,0
pc,0
Time (ms),CH1 Auto-Correlation
1.0,0.04685182124376297
2.0,0.04397380352020264
3.0,0.041381917893886566
4.0,0.039083462208509445
5.0,0.036769211292266846
6.0,0.03463178128004074
7.0,0.032555222511291504
8.0,0.030503060668706894
9.0,0.028519276529550552
10.0,0.026433149352669716
11.0,0.02409329265356064
12.0,0.021636227145791054
13.0,0.02114851027727127
14.0,0.020672474056482315
15.0,0.020225558429956436
16.0,0.01977510005235672
18.0,0.019104788079857826
20.0,0.01842935010790825
22.0,0.01782962493598461
24.0,0.01722896285355091
26.0,0.016664618626236916
28.0,0.01612783782184124
30.0,0.015604555606842041
32.0,0.015067370608448982
36.0,0.013971444219350815
40.0,0.013185301795601845
44.0,0.012326597236096859
48.0,0.011628622189164162
52.0,0.010838156566023827
56.0,0.010200923308730125
60.0,0.009741065092384815
64.0,0.009682876989245415
72.0,0.00885279942303896
80.0,0.00780700147151947
88.0,0.006765834521502256
96.0,0.0061224983073771
104.0,0.005838061682879925
112.0,0.00574475945904851
120.0,0.005521414801478386
128.0,0.005484904162585735
144.0,0.0050334925763309
160.0,0.004972389433532953
176.0,0.005110451485961676
192.0,0.004885465372353792
208.0,0.004522710107266903
224.0,0.0034278351813554764
240.0,0.0030544581823050976
256.0,0.0028360076248645782
288.0,0.002374310279265046
320.0,0.002352367853745818
352.0,0.00295230932533741
384.0,0.002534047933295369
416.0,0.002427794272080064
448.0,0.0016635535284876823
480.0,0.0011365668615326285
512.0,0.000444251112639904
576.0,-0.00010101443331222981
640.0,0.00010509201092645526
704.0,0.0004416768788360059
768.0,0.0020436542108654976
832.0,0.003150004195049405
896.0,0.0013210709439590573
960.0,0.0002349318383494392
1024.0,0.00032533094054087996
1152.0,0.0010596713982522488
1280.0,0.0003621012147050351
1408.0,-0.003055984852835536
1536.0,-0.003738146973773837
1664.0,-0.0010325659532099962
1792.0,-0.001535326591692865
1920.0,0.0010623239213600755
2048.0,0.001821264624595642
2304.0,1.4301620467449538e-05
2560.0,-0.0007536949124187231
2816.0,-0.0013096798211336136
3072.0,-0.0009580377372913063
3328.0,-0.0005320996278896928
3584.0,-0.002462869044393301
3840.0,-0.0008325966773554683
4096.0,-0.00021345708228182048
4608.0,5.19507666467689e-05
5120.0,0.0002441984252072871
5632.0,0.0003496218705549836
6144.0,0.0014040855458006263
6656.0,-0.0026408263947814703
7168.0,-0.0038680904544889927
7680.0,-0.004139512777328491
8192.0,0.00045576493721455336
end
