version,3.0
numOfCh,1
type,point
parent_name,ff67b_0dot4-0dot1
ch_type,1_1
kcount,1
numberNandB,1
brightnessNandB,1
carpet pos,0
pc,0
Time (ms),CH1 Auto-Correlation
1.0,0.025711936876177788
2.0,0.02465634234249592
3.0,0.023680971935391426
4.0,0.022778553888201714
5.0,0.02190914936363697
6.0,0.02110588364303112
7.0,0.02036234736442566
8.0,0.019637251272797585
9.0,0.01894541271030903
10.0,0.018302448093891144
11.0,0.017696857452392578
12.0,0.017155367881059647
13.0,0.01665533147752285
14.0,0.016201741993427277
15.0,0.015777772292494774
16.0,0.015406670048832893
18.0,0.01466575637459755
20.0,0.013981889002025127
22.0,0.013363405130803585
24.0,0.012765302322804928
26.0,0.012121125124394894
28.0,0.011493146419525146
30.0,0.010898149572312832
32.0,0.010448331944644451
36.0,0.009740838780999184
40.0,0.009232627227902412
44.0,0.00872016791254282
48.0,0.008106082677841187
52.0,0.007426613010466099
56.0,0.00678402092307806
60.0,0.00622657360509038
64.0,0.005793411284685135
72.0,0.005210245959460735
80.0,0.004985761363059282
88.0,0.005129612050950527
96.0,0.004907956812530756
104.0,0.004310051444917917
112.0,0.0037769610062241554
120.0,0.0032540911342948675
128.0,0.0030018407851457596
144.0,0.002635309239849448
160.0,0.002256786683574319
176.0,0.0021941151935607195
192.0,0.0021789080929011106
208.0,0.0019514664309099317
224.0,0.0022823174949735403
240.0,0.0029568879399448633
256.0,0.0030891422647982836
288.0,0.0033082752488553524
320.0,0.0028128065168857574
352.0,0.0021589070092886686
384.0,0.0008191193919628859
416.0,0.0002182870957767591
448.0,0.0005597323761321604
480.0,0.0009668499696999788
512.0,0.000381630496121943
576.0,0.0005120274727232754
640.0,0.001169818453490734
704.0,0.0013183586997911334
768.0,0.0011693448759615421
832.0,0.0003580378834158182
896.0,-0.0007899489719420671
960.0,0.0009492263197898865
1024.0,0.0007986510172486305
1152.0,-0.002105813240632415
1280.0,-0.002179803792387247
1408.0,-0.0031778409611433744
1536.0,-0.000993578229099512
1664.0,-0.00039083947194740176
1792.0,-0.0015290447045117617
1920.0,-0.0013215792132541537
2048.0,-0.001660286681726575
2304.0,-0.002030447358265519
2560.0,-0.0025641738902777433
2816.0,-0.002620796440169215
3072.0,-0.0018908410565927625
3328.0,9.957802831195295e-05
3584.0,0.0007091935258358717
3840.0,0.0015909154899418354
4096.0,0.0021609256509691477
4608.0,0.0034860260784626007
5120.0,0.0010424721986055374
5632.0,-0.0002952209033537656
6144.0,-0.0015295952325686812
6656.0,-0.0017247417708858848
7168.0,-0.0027370296884328127
7680.0,-0.001057200599461794
8192.0,0.003223835490643978
end
