version,3.0
numOfCh,1
type,point
parent_name,ff67b_0dot4-0dot1
ch_type,1_1
kcount,1
numberNandB,1
brightnessNandB,1
carpet pos,0
pc,0
Time (ms),CH1 Auto-Correlation
1.0,0.024488117545843124
2.0,0.023454058915376663
3.0,0.022473236545920372
4.0,0.021541770547628403
5.0,0.020678818225860596
6.0,0.019870368763804436
7.0,0.019105929881334305
8.0,0.01838388666510582
9.0,0.017695948481559753
10.0,0.01702563837170601
11.0,0.01639222726225853
12.0,0.015793452039361
13.0,0.015254146419465542
14.0,0.014711030758917332
15.0,0.01418954599648714
16.0,0.013729605823755264
18.0,0.012915057130157948
20.0,0.012200023978948593
22.0,0.01154383085668087
24.0,0.010962975211441517
26.0,0.01046216581016779
28.0,0.010022900998592377
30.0,0.009651719592511654
32.0,0.009323821403086185
36.0,0.008525429293513298
40.0,0.0077578420750796795
44.0,0.0071191987954080105
48.0,0.006555481813848019
52.0,0.005988537333905697
56.0,0.005438948515802622
60.0,0.004918164573609829
64.0,0.004465548321604729
72.0,0.003909960854798555
80.0,0.003499046666547656
88.0,0.0031984776724129915
96.0,0.002856535604223609
104.0,0.0026598155964165926
112.0,0.002491355175152421
120.0,0.0024207865353673697
128.0,0.0021390581969171762
144.0,0.0014474494382739067
160.0,0.0015610447153449059
176.0,0.0012489325599744916
192.0,0.0009450133657082915
208.0,0.001012312015518546
224.0,0.001713085686787963
240.0,0.002400357509031892
256.0,0.002418141346424818
288.0,0.001763717969879508
320.0,0.0005793663440272212
352.0,0.00044469567365013063
384.0,0.0002519383851904422
416.0,0.0005531226634047925
448.0,0.0006738078664056957
480.0,0.00010639086394803599
512.0,0.0008124730666168034
576.0,0.0009809527546167374
640.0,0.0005207660142332315
704.0,2.3686265194555745e-05
768.0,-0.0010873923311010003
832.0,-0.0008518040995113552
896.0,-0.00047545734560117126
960.0,-0.00013215832586865872
1024.0,0.0002421583340037614
1152.0,0.0013425390934571624
1280.0,0.00042903091525658965
1408.0,-0.0010897968895733356
1536.0,-0.0009138516616076231
1664.0,0.0003383956791367382
1792.0,0.000684179540257901
1920.0,-0.0007199608953669667
2048.0,-0.0020178379490971565
2304.0,-0.0008415267802774906
2560.0,-0.001523659098893404
2816.0,-0.0005863936385139823
3072.0,-0.0005901906406506896
3328.0,-0.00021349501912482083
3584.0,-0.0005104579031467438
3840.0,-0.0010733256349340081
4096.0,-0.00032700630254112184
4608.0,0.00034989233245141804
5120.0,-0.0006340384716168046
5632.0,0.0012937923893332481
6144.0,0.001628208439797163
6656.0,0.0014075872022658587
7168.0,-4.303784589865245e-05
7680.0,-0.0005090348422527313
8192.0,-0.0015476207481697202
end
