version,3.0
numOfCh,1
type,point
parent_name,ff67b_0dot4-0dot1
ch_type,1_1
kcount,1
numberNandB,1
brightnessNandB,1
carpet pos,0
pc,0
Time (ms),CH1 Auto-Correlation
1.0,0.02831767126917839
2.0,0.027283361181616783
3.0,0.026315372437238693
4.0,0.025388162583112717
5.0,0.02451743185520172
6.0,0.023715771734714508
7.0,0.022947290912270546
8.0,0.02221439965069294
9.0,0.02153424732387066
10.0,0.020868603140115738
11.0,0.020269161090254784
12.0,0.0197308249771595
13.0,0.019189095124602318
14.0,0.018638962879776955
15.0,0.018113305792212486
16.0,0.017627328634262085
18.0,0.016753464937210083
20.0,0.01591544784605503
22.0,0.01507000532001257
24.0,0.014391107484698296
26.0,0.013778932392597198
28.0,0.013190757483243942
30.0,0.012718550860881805
32.0,0.012291302904486656
36.0,0.011653038673102856
40.0,0.011117339134216309
44.0,0.010509071871638298
48.0,0.00999458134174347
52.0,0.009268149733543396
56.0,0.0086527019739151
60.0,0.00797226745635271
64.0,0.007339488249272108
72.0,0.006746194325387478
80.0,0.006245715543627739
88.0,0.005755843129009008
96.0,0.005202874541282654
104.0,0.00406845984980464
112.0,0.0030119423754513264
120.0,0.002187933772802353
128.0,0.0017573911463841796
144.0,0.001289447071030736
160.0,0.0009348535677418113
176.0,0.0009233651799149811
192.0,0.0002529890916775912
208.0,-0.00039903048309497535
224.0,-0.0003376888926140964
240.0,-0.00019076268654316664
256.0,0.0004713898233603686
288.0,0.0012836517998948693
320.0,0.00042714999290183187
352.0,1.1181623449374456e-05
384.0,-7.256762910401449e-05
416.0,-0.0005122540751472116
448.0,0.0003461407613940537
480.0,0.0016307110199704766
512.0,0.002163882367312908
576.0,0.0021933948155492544
640.0,0.0016581099480390549
704.0,0.0010010363766923547
768.0,0.0009501797612756491
832.0,0.0008132556104101241
896.0,0.00016719871200621128
960.0,3.472000753390603e-05
1024.0,-0.0009324358543381095
1152.0,2.3161661374615505e-05
1280.0,-0.0005883268895559013
1408.0,-0.0012024006573483348
1536.0,0.0005533683579415083
1664.0,-0.0006354558863677084
1792.0,-0.0004077777557540685
1920.0,-0.00102432060521096
2048.0,-0.0019511516438797116
2304.0,-0.0004718097625300288
2560.0,8.124659507302567e-05
2816.0,0.0005639105220325291
3072.0,0.001163577544502914
3328.0,-0.00046841768198646605
3584.0,-0.0006420034915208817
3840.0,-0.002545598428696394
4096.0,-0.0020339693874120712
4608.0,0.0005701750633306801
5120.0,0.0005773713928647339
5632.0,0.0006736567593179643
6144.0,0.0005718488246202469
6656.0,-0.002601845422759652
7168.0,-0.0017001817468553782
7680.0,-0.001605044468306005
8192.0,-0.002629751106724143
end
