version,3.0
numOfCh,1
type,point
parent_name,ff67b_0dot4-0dot1
ch_type,1_1
kcount,1
numberNandB,1
brightnessNandB,1
carpet pos,0
pc,0
Time (ms),CH1 Auto-Correlation
1.0,0.03321553394198418
2.0,0.03205149620771408
3.0,0.030966948717832565
4.0,0.02997431717813015
5.0,0.029106585308909416
6.0,0.02829819545149803
7.0,0.027523895725607872
8.0,0.026789797469973564
9.0,0.026081418618559837
10.0,0.025442147627472878
11.0,0.024853888899087906
12.0,0.02431786060333252
13.0,0.02381594106554985
14.0,0.02331518568098545
15.0,0.022851767018437386
16.0,0.022386224940419197
18.0,0.02156015671789646
20.0,0.02082369476556778
22.0,0.020121797919273376
24.0,0.01944681815803051
26.0,0.018831949681043625
28.0,0.018277842551469803
30.0,0.01780129224061966
32.0,0.01742164045572281
36.0,0.01687311753630638
40.0,0.016354026272892952
44.0,0.01576451025903225
48.0,0.015077856369316578
52.0,0.014302248135209084
56.0,0.013532592914998531
60.0,0.012869601137936115
64.0,0.012156197801232338
72.0,0.01098574511706829
80.0,0.010133464820683002
88.0,0.009337078779935837
96.0,0.00858691893517971
104.0,0.007825124077498913
112.0,0.007069780025631189
120.0,0.0066274432465434074
128.0,0.0062991962768137455
144.0,0.0054683261550962925
160.0,0.005484217777848244
176.0,0.005506841465830803
192.0,0.005390272941440344
208.0,0.005586961749941111
224.0,0.0046471706591546535
240.0,0.0036943708546459675
256.0,0.003232800867408514
288.0,0.002429276006296277
320.0,0.0016275413800030947
352.0,0.0013915124582126737
384.0,0.0012070987140759826
416.0,0.0020504852291196585
448.0,0.0017917935037985444
480.0,0.001988528296351433
512.0,0.002619781531393528
576.0,0.002059177029877901
640.0,0.0017274976707994938
704.0,0.00018460645515006036
768.0,-0.0011647692881524563
832.0,0.0009318293887190521
896.0,0.0012945798225700855
960.0,0.0023716383147984743
1024.0,0.002116005402058363
1152.0,0.0021895573008805513
1280.0,-0.0003747312002815306
1408.0,-0.0016508123371750116
1536.0,-0.0021818543318659067
1664.0,-0.0012624935479834676
1792.0,-0.00042795672197826207
1920.0,-0.002106976928189397
2048.0,-0.003344686236232519
2304.0,-0.00011423453543102369
2560.0,-0.005577670875936747
2816.0,-0.00510078389197588
3072.0,-0.0023506036959588528
3328.0,0.0006570886471308768
3584.0,-0.003930331207811832
3840.0,-0.004062549211084843
4096.0,0.0008425532141700387
4608.0,0.0004859965993091464
5120.0,0.00296577881090343
5632.0,0.0008712249691598117
6144.0,-0.0003784557047765702
6656.0,0.0006146850646473467
7168.0,-0.00044227097532711923
7680.0,-0.003530247835442424
8192.0,0.0016618598019704223
end
