version,3.0
numOfCh,1
type,point
parent_name,ff67b_0dot4-0dot1
ch_type,1_1
kcount,1
numberNandB,1
brightnessNandB,1
carpet pos,0
pc,0
Time (ms),CH1 Auto-Correlation
1.0,0.02934405393898487
2.0,0.028299255296587944
3.0,0.027364900335669518
4.0,0.026521436870098114
5.0,0.02572006545960903
6.0,0.024956610053777695
7.0,0.024271035566926003
8.0,0.023643232882022858
9.0,0.022993961349129677
10.0,0.02238251268863678
11.0,0.021795541048049927
12.0,0.021240530535578728
13.0,0.02068815380334854
14.0,0.020152416080236435
15.0,0.019634021446108818
16.0,0.019155213609337807
18.0,0.01827840693295002
20.0,0.017450867220759392
22.0,0.016680438071489334
24.0,0.015980564057826996
26.0,0.015323259867727757
28.0,0.014690129086375237
30.0,0.014105057343840599
32.0,0.013581846840679646
36.0,0.012588804587721825
40.0,0.011722704395651817
44.0,0.010882408358156681
48.0,0.010195080190896988
52.0,0.009757655672729015
56.0,0.009347235783934593
60.0,0.008909485302865505
64.0,0.008596616797149181
72.0,0.008056338876485825
80.0,0.00743825500831008
88.0,0.006716647185385227
96.0,0.006072202231734991
104.0,0.0054454924538731575
112.0,0.0051112668588757515
120.0,0.005086216609925032
128.0,0.004992714151740074
144.0,0.004952100571244955
160.0,0.004820979665964842
176.0,0.004828462842851877
192.0,0.004465626552700996
208.0,0.004123241174966097
224.0,0.004091384820640087
240.0,0.0033907105680555105
256.0,0.0027741934172809124
288.0,0.0028162747621536255
320.0,0.0023062732070684433
352.0,0.0011769318953156471
384.0,0.0008692871197126806
416.0,0.00012952338147442788
448.0,-0.0002490602491889149
480.0,0.00026282461476512253
512.0,-3.427346018725075e-05
576.0,0.0007023114012554288
640.0,0.002553397323936224
704.0,0.0026647441554814577
768.0,0.0018507838249206543
832.0,0.0018727235728874803
896.0,0.0015848604962229729
960.0,0.0015418658731505275
1024.0,5.428296935860999e-05
1152.0,0.0010670017218217254
1280.0,0.0010769276414066553
1408.0,0.0009748947340995073
1536.0,0.000686087878420949
1664.0,0.0019021761836484075
1792.0,0.0014903321862220764
1920.0,0.0025669268798083067
2048.0,0.002541466150432825
2304.0,0.0034475387074053288
2560.0,0.000641420076135546
2816.0,-0.00039449133328162134
3072.0,0.0012761346297338605
3328.0,0.001231448259204626
3584.0,0.0018437114777043462
3840.0,-0.00025112731964327395
4096.0,0.0013933019945397973
4608.0,0.001311899977736175
5120.0,-0.0012997494777664542
5632.0,-0.0011413840111345053
6144.0,-0.003221041988581419
6656.0,-0.0010710228234529495
7168.0,-0.0019233451457694173
7680.0,-0.002754947869107127
8192.0,-0.0042059351690113544
end
