version,3.0
numOfCh,1
type,point
parent_name,ff67b_0dot4-0dot1
ch_type,1_1
kcount,1
numberNandB,1
brightnessNandB,1
carpet pos,0
pc,0
Time (ms),CH1 Auto-Correlation
1.0,0.028117164969444275
2.0,0.0270650926977396
3.0,0.026094352826476097
4.0,0.02519744448363781
5.0,0.024357739835977554
6.0,0.023552093654870987
7.0,0.022720027714967728
8.0,0.021933607757091522
9.0,0.021190095692873
10.0,0.02054116316139698
11.0,0.01989324763417244
12.0,0.019269781187176704
13.0,0.018647179007530212
14.0,0.018072498962283134
15.0,0.017490744590759277
16.0,0.016947612166404724
18.0,0.015985624864697456
20.0,0.015132207423448563
22.0,0.014265716075897217
24.0,0.013411399908363819
26.0,0.012671480886638165
28.0,0.012000308372080326
30.0,0.011408882215619087
32.0,0.010898142121732235
36.0,0.009966954588890076
40.0,0.009224042296409607
44.0,0.008624855428934097
48.0,0.008097760379314423
52.0,0.007637279108166695
56.0,0.007286637090146542
60.0,0.006970575544983149
64.0,0.006733600050210953
72.0,0.006230143364518881
80.0,0.005619875155389309
88.0,0.0052188062109053135
96.0,0.004752109292894602
104.0,0.0043357424437999725
112.0,0.004349010065197945
120.0,0.0042934780940413475
128.0,0.0040644872933626175
144.0,0.0038406248204410076
160.0,0.003117999993264675
176.0,0.0024267614353448153
192.0,0.0017776279710233212
208.0,0.001839862554334104
224.0,0.00280458084307611
240.0,0.0034742611460387707
256.0,0.003334547160193324
288.0,0.0023126204032450914
320.0,0.0015340084210038185
352.0,0.0013186276191845536
384.0,0.001706146402284503
416.0,0.0013760938309133053
448.0,0.002017452847212553
480.0,0.0021924246102571487
512.0,0.0015875013777986169
576.0,-0.00018426422320771962
640.0,0.00036940473364666104
704.0,0.0011812496231868863
768.0,0.0024819367099553347
832.0,0.0011536566307768226
896.0,0.0002842732355929911
960.0,-0.00030632069683633745
1024.0,0.0008491020416840911
1152.0,-0.0002900633553508669
1280.0,-0.0005115570966154337
1408.0,0.000958566612098366
1536.0,0.0023150742053985596
1664.0,0.0018350171158090234
1792.0,0.002047730376943946
1920.0,0.0010046204552054405
2048.0,-0.00010569814912742004
2304.0,-0.0016281711868941784
2560.0,-0.0024749967269599438
2816.0,-0.002248099073767662
3072.0,-0.0003247252607252449
3328.0,0.0006724834674969316
3584.0,0.0007830599206499755
3840.0,-0.0010506513062864542
4096.0,-0.0017271314281970263
4608.0,-0.0015934400726109743
5120.0,0.00013962168304715306
5632.0,-0.003024693578481674
6144.0,-0.002336959121748805
6656.0,-0.0008746543899178505
7168.0,-8.797713235253468e-06
7680.0,-0.00014586298493668437
8192.0,0.0015330403111875057
end
