version,3.0
numOfCh,1
type,point
parent_name,ff67b_0dot4-0dot1
ch_type,1_1
kcount,1
numberNandB,1
brightnessNandB,1
carpet pos,0
pc,0
Time (ms),CH1 Auto-Correlation
1.0,0.029474329203367233
2.0,0.02836468070745468
3.0,0.02730688825249672
4.0,0.02631048485636711
5.0,0.02541380375623703
6.0,0.024589529260993004
7.0,0.02381819859147072
8.0,0.023121783509850502
9.0,0.02245769277215004
10.0,0.02184133604168892
11.0,0.021234186366200447
12.0,0.020657507702708244
13.0,0.02013082057237625
14.0,0.019622255116701126
15.0,0.019164538010954857
16.0,0.018700269982218742
18.0,0.01780122146010399
20.0,0.016911163926124573
22.0,0.016099615022540092
24.0,0.01532651949673891
26.0,0.014598672278225422
28.0,0.013953587971627712
30.0,0.013321817852556705
32.0,0.012637457810342312
36.0,0.01150805875658989
40.0,0.010806247591972351
44.0,0.010223044082522392
48.0,0.009730683639645576
52.0,0.009186580777168274
56.0,0.008653013035655022
60.0,0.008248230442404747
64.0,0.007936864160001278
72.0,0.007124809082597494
80.0,0.005850044544786215
88.0,0.005052196327596903
96.0,0.00496403593569994
104.0,0.0048908088356256485
112.0,0.00510922959074378
120.0,0.005502005107700825
128.0,0.005767610389739275
144.0,0.005507125519216061
160.0,0.00493095675483346
176.0,0.0050238496623933315
192.0,0.005105122458189726
208.0,0.004553225822746754
224.0,0.0032870701979845762
240.0,0.00286127720028162
256.0,0.0026587347965687513
288.0,0.002606042195111513
320.0,0.002410414395853877
352.0,0.002346151042729616
384.0,0.002205410972237587
416.0,0.0031653554178774357
448.0,0.0038293320685625076
480.0,0.0022009650710970163
512.0,0.0009211694705300033
576.0,0.00044490047730505466
640.0,-0.0006548532983288169
704.0,-0.002058017300441861
768.0,-0.0018733449978753924
832.0,-0.0008629150106571615
896.0,-0.0010847877711057663
960.0,-9.300631791120395e-05
1024.0,2.3404398234561086e-05
1152.0,-0.00045632003457285464
1280.0,-0.0007784354966133833
1408.0,0.0005877851508557796
1536.0,0.002660897793248296
1664.0,0.002734709996730089
1792.0,0.0006868324708193541
1920.0,-0.00014416796329896897
2048.0,0.0010964315151795745
2304.0,-0.0004966132109984756
2560.0,0.0009784249123185873
2816.0,0.0014060158282518387
3072.0,-0.00022425258066505194
3328.0,0.00037571703433059156
3584.0,-0.0019301980501040816
3840.0,-0.0019415711285546422
4096.0,-0.0017430660082027316
4608.0,0.0014420083025470376
5120.0,0.0021273919846862555
5632.0,-0.0010925455717369914
6144.0,-0.0022284204605966806
6656.0,-0.002177000977098942
7168.0,-0.0017934998031705618
7680.0,-0.0010336680570617318
8192.0,-0.0031773759983479977
end
