version,3.0
numOfCh,1
type,point
parent_name,ff67b_0dot4-0dot1
ch_type,1_1
kcount,1
numberNandB,1
brightnessNandB,1
carpet pos,0
pc,0
Time (ms),CH1 Auto-Correlation
1.0,0.03589990735054016
2.0,0.0347633957862854
3.0,0.03368200734257698
4.0,0.03268309682607651
5.0,0.03176397085189819
6.0,0.03093966282904148
7.0,0.030152810737490654
8.0,0.029452266171574593
9.0,0.028790894895792007
10.0,0.028178125619888306
11.0,0.027607353404164314
12.0,0.0270345788449049
13.0,0.02650083787739277
14.0,0.025981193408370018
15.0,0.02546676993370056
16.0,0.02502354606986046
18.0,0.02419104427099228
20.0,0.023473171517252922
22.0,0.022880392149090767
24.0,0.022331418469548225
26.0,0.02184024266898632
28.0,0.021287716925144196
30.0,0.020795702934265137
32.0,0.02032824419438839
36.0,0.019475601613521576
40.0,0.01860497146844864
44.0,0.017699401825666428
48.0,0.016703201457858086
52.0,0.015819737687706947
56.0,0.01507834903895855
60.0,0.01428628247231245
64.0,0.013555103912949562
72.0,0.01244345959275961
80.0,0.011581715196371078
88.0,0.011028198525309563
96.0,0.010274765081703663
104.0,0.009737960062921047
112.0,0.009216081351041794
120.0,0.009161544032394886
128.0,0.009089713916182518
144.0,0.00818976853042841
160.0,0.0075533646158874035
176.0,0.00768398167565465
192.0,0.007981514558196068
208.0,0.007659934461116791
224.0,0.0068671428598463535
240.0,0.007118158973753452
256.0,0.006910062860697508
288.0,0.006415101699531078
320.0,0.005519856698811054
352.0,0.0051904646679759026
384.0,0.005197231192141771
416.0,0.005141174886375666
448.0,0.0038868014235049486
480.0,0.002909245900809765
512.0,0.0015079875010997057
576.0,0.00045953382505103946
640.0,-0.00014834152534604073
704.0,-0.0002826940326485783
768.0,0.0009986860677599907
832.0,0.002591111231595278
896.0,0.0017410089494660497
960.0,0.0009235263569280505
1024.0,0.0006621229695156217
1152.0,0.0033075225073844194
1280.0,0.0040916334837675095
1408.0,0.0019734485540539026
1536.0,0.0008823267999105155
1664.0,0.0012843424919992685
1792.0,0.0004062994848936796
1920.0,-0.002747867489233613
2048.0,-0.0024411275517195463
2304.0,-0.002804427407681942
2560.0,-0.00400201790034771
2816.0,-0.005345699843019247
3072.0,-0.002931659109890461
3328.0,-0.0015067742206156254
3584.0,-0.00041552414768375456
3840.0,-0.0018382436828687787
4096.0,-0.0006682805833406746
4608.0,-0.002962218364700675
5120.0,-0.001164911431260407
5632.0,0.0013133642496541142
6144.0,-0.0017872486496344209
6656.0,0.0036176261492073536
7168.0,0.005138498265296221
7680.0,0.004045343026518822
8192.0,0.001186347915790975
end
