version,3.0
numOfCh,1
type,point
parent_name,ff67b_0dot4-0dot1
ch_type,1_1
kcount,1
numberNandB,1
brightnessNandB,1
carpet pos,0
pc,0
Time (ms),CH1 Auto-Correlation
1.0,0.029985638335347176
2.0,0.028834355995059013
3.0,0.02776515483856201
4.0,0.026766566559672356
5.0,0.025879323482513428
6.0,0.025064742192626
7.0,0.024287791922688484
8.0,0.023529009893536568
9.0,0.02280512824654579
10.0,0.02213256247341633
11.0,0.021519014611840248
12.0,0.020975511521100998
13.0,0.020464789122343063
14.0,0.019997939467430115
15.0,0.019558943808078766
16.0,0.019076084718108177
18.0,0.018163293600082397
20.0,0.017320886254310608
22.0,0.01655648835003376
24.0,0.01581735536456108
26.0,0.015181900933384895
28.0,0.01466423086822033
30.0,0.014168423600494862
32.0,0.013691985048353672
36.0,0.012908865697681904
40.0,0.012202947400510311
44.0,0.011438126675784588
48.0,0.010714035481214523
52.0,0.01019950769841671
56.0,0.00980046484619379
60.0,0.009398716501891613
64.0,0.008899862878024578
72.0,0.00825033150613308
80.0,0.007514867465943098
88.0,0.007083077449351549
96.0,0.006709321402013302
104.0,0.00663779815658927
112.0,0.006161179859191179
120.0,0.005436762701719999
128.0,0.004655733238905668
144.0,0.0034804220777004957
160.0,0.0023843019735068083
176.0,0.0016970672877505422
192.0,9.557441808283329e-05
208.0,-7.256044773384929e-05
224.0,0.00017522989946883172
240.0,-0.0002220464957645163
256.0,-0.0002960458514280617
288.0,-0.0008043062407523394
320.0,-0.000730484607629478
352.0,-0.0009279729565605521
384.0,-0.0011637117713689804
416.0,-0.0014685041969642043
448.0,-0.0016150681767612696
480.0,-0.0015144040808081627
512.0,-0.0021533470135182142
576.0,-0.0013707620091736317
640.0,-4.874371734331362e-05
704.0,5.74268342461437e-05
768.0,-0.0002704339858610183
832.0,-0.0016924081137403846
896.0,-0.00187995086889714
960.0,-0.001883651246316731
1024.0,-0.00193523068446666
1152.0,-0.004410476423799992
1280.0,-0.001967579824849963
1408.0,-0.0023311194963753223
1536.0,0.0008959667175076902
1664.0,0.0014047535369172692
1792.0,0.00026282784529030323
1920.0,0.0009478367865085602
2048.0,0.0008466703584417701
2304.0,0.003645154880359769
2560.0,0.001629011007025838
2816.0,-0.0017911395989358425
3072.0,-0.001211236696690321
3328.0,-0.001889107283204794
3584.0,-0.0029367301613092422
3840.0,-0.00138254021294415
4096.0,0.0015175497392192483
4608.0,0.0028386551421135664
5120.0,-0.0016277298564091325
5632.0,-0.0022046947851777077
6144.0,0.0008157148258760571
6656.0,0.0010706239845603704
7168.0,-0.0003311823238618672
7680.0,0.0006729871965944767
8192.0,-0.0005395167972892523
end
