version,3.0
numOfCh,1
type,point
parent_name,ff67b_0dot4-0dot1
ch_type,1_1
kcount,1
numberNandB,1
brightnessNandB,1
carpet pos,0
pc,0
Time (ms),CH1 Auto-Correlation
1.0,0.027964968234300613
2.0,0.026930250227451324
3.0,0.02596803940832615
4.0,0.025069070979952812
5.0,0.024180976673960686
6.0,0.02332986705005169
7.0,0.022537684068083763
8.0,0.02181071974337101
9.0,0.021126771345734596
10.0,0.02049652859568596
11.0,0.019900530576705933
12.0,0.01932539977133274
13.0,0.01879277639091015
14.0,0.0182674378156662
15.0,0.01776179112493992
16.0,0.017295531928539276
18.0,0.016391264274716377
20.0,0.015585239976644516
22.0,0.014862398616969585
24.0,0.014193744398653507
26.0,0.013538363389670849
28.0,0.012916709296405315
30.0,0.012326679192483425
32.0,0.011778571642935276
36.0,0.010671300813555717
40.0,0.00977498758584261
44.0,0.008971243165433407
48.0,0.008191856555640697
52.0,0.0075848945416510105
56.0,0.0069319880567491055
60.0,0.006289550103247166
64.0,0.005658056121319532
72.0,0.0046761296689510345
80.0,0.00447041355073452
88.0,0.004499038215726614
96.0,0.004417872987687588
104.0,0.0037463621702045202
112.0,0.0032088118605315685
120.0,0.0030067923944443464
128.0,0.0028632907196879387
144.0,0.0024671333376318216
160.0,0.0024378462694585323
176.0,0.003029697574675083
192.0,0.003226518165320158
208.0,0.0026985667645931244
224.0,0.0022128340788185596
240.0,0.00202094460837543
256.0,0.0021718107163906097
288.0,0.002530277008190751
320.0,0.002657997654750943
352.0,0.003591935383155942
384.0,0.0035397005267441273
416.0,0.001647936413064599
448.0,0.001027443679049611
480.0,0.0005714109283871949
512.0,-2.2355532109941123e-06
576.0,-0.0013498618500307202
640.0,-0.0011024052510038018
704.0,-0.0014234458794817328
768.0,-0.0016163465334102511
832.0,-0.0014559997944161296
896.0,-0.001995223807170987
960.0,-0.0013562123058363795
1024.0,-0.001958393957465887
1152.0,-0.0013323492603376508
1280.0,-0.0005627733771689236
1408.0,-0.0019256164086982608
1536.0,-0.0017888592556118965
1664.0,-0.0009359485702589154
1792.0,-0.002818121574819088
1920.0,0.0002951518108602613
2048.0,0.00016213205526582897
2304.0,0.0028314075898379087
2560.0,0.0015924901235848665
2816.0,-0.0012212538858875632
3072.0,-0.0020648592617362738
3328.0,-0.001738033490255475
3584.0,-0.0008510921034030616
3840.0,-0.0019574244506657124
4096.0,-0.002873731544241309
4608.0,0.0009826102759689093
5120.0,0.00047624160652048886
5632.0,0.0013422751799225807
6144.0,-0.00041750719537958503
6656.0,-0.0001268238265765831
7168.0,0.0007183504640124738
7680.0,0.0007011903217062354
8192.0,-0.0006470218067988753
end
