version,3.0
numOfCh,1
type,point
parent_name,34766_0dot6-0dot1
ch_type,1_1
kcount,1
numberNandB,1
brightnessNandB,1
carpet pos,0
pc,0
Time (ms),CH1 Auto-Correlation
1.0,0.021274618804454803
2.0,0.020114140585064888
3.0,0.019069554284214973
4.0,0.018106861039996147
5.0,0.017266450449824333
6.0,0.016472890973091125
7.0,0.015741027891635895
8.0,0.015055321156978607
9.0,0.01439529936760664
10.0,0.013771075755357742
11.0,0.013208975084125996
12.0,0.01268737018108368
13.0,0.012198388576507568
14.0,0.011752203106880188
15.0,0.011324410326778889
16.0,0.010918939486145973
18.0,0.010202453471720219
20.0,0.009635045193135738
22.0,0.009132438339293003
24.0,0.00863316934555769
26.0,0.008106253109872341
28.0,0.007662469986826181
30.0,0.007247318048030138
32.0,0.006823746021836996
36.0,0.006274751853197813
40.0,0.005743599496781826
44.0,0.005203433334827423
48.0,0.004726439248770475
52.0,0.004304016474634409
56.0,0.003980552311986685
60.0,0.0037245347630232573
64.0,0.0034994427114725113
72.0,0.0031160018406808376
80.0,0.003064048010855913
88.0,0.0030907709151506424
96.0,0.002925894223153591
104.0,0.002576681086793542
112.0,0.0021967091597616673
120.0,0.0019860302563756704
128.0,0.0017722961492836475
144.0,0.0011996367247775197
160.0,0.0008531907806172967
176.0,0.0005828451830893755
192.0,0.00037403719034045935
208.0,9.12277573661413e-06
224.0,0.0001141509783337824
240.0,0.0002824313414748758
256.0,0.0007820413447916508
288.0,0.0012210167478770018
320.0,0.0005495519726537168
352.0,0.001126596238464117
384.0,0.0011177147971466184
416.0,0.00023426873667631298
448.0,-0.0008634616388007998
480.0,-0.0013661100529134274
512.0,-0.0014605834148824215
576.0,-0.00062111287843436
640.0,-0.00017282947374042124
704.0,-8.104466542135924e-05
768.0,-0.0005720282788388431
832.0,-0.0003239731304347515
896.0,-0.00043117356835864484
960.0,-0.0004069402057211846
1024.0,-0.0006930810632184148
1152.0,-0.0006635616300627589
1280.0,-0.00029257492860779166
1408.0,-0.0009640085627324879
1536.0,-0.0013084516394883394
1664.0,-0.0006973558920435607
1792.0,-0.0009467441122978926
1920.0,0.00010187648877035826
2048.0,0.0019205359276384115
2304.0,0.0006906887283548713
2560.0,-9.831631177803501e-05
2816.0,-0.0006799263646826148
3072.0,-0.00031837058486416936
3328.0,-0.0006909240037202835
3584.0,0.00012639662600122392
3840.0,-7.83183058956638e-05
4096.0,-0.0001179887040052563
4608.0,-0.0007836914737708867
5120.0,-0.0004115537158213556
5632.0,0.00013095985923428088
6144.0,0.0010203281417489052
6656.0,-0.0011563339503481984
7168.0,0.00045921895070932806
7680.0,0.0003706177813000977
8192.0,0.0010474310256540775
end
