version,3.0
numOfCh,1
type,point
parent_name,34766_0dot6-0dot1
ch_type,1_1
kcount,1
numberNandB,1
brightnessNandB,1
carpet pos,0
pc,0
Time (ms),CH1 Auto-Correlation
1.0,0.02510816790163517
2.0,0.02391820214688778
3.0,0.022824512794613838
4.0,0.021824318915605545
5.0,0.020927757024765015
6.0,0.02012249082326889
7.0,0.019383346661925316
8.0,0.018710710108280182
9.0,0.018073121085762978
10.0,0.017478113994002342
11.0,0.01690088026225567
12.0,0.01635478250682354
13.0,0.015837248414754868
14.0,0.015362930484116077
15.0,0.014913758262991905
16.0,0.014519160613417625
18.0,0.013771687634289265
20.0,0.013105418533086777
22.0,0.01254234742373228
24.0,0.011987610720098019
26.0,0.011407310143113136
28.0,0.010958815924823284
30.0,0.010570820420980453
32.0,0.010248377919197083
36.0,0.009576346725225449
40.0,0.008786858059465885
44.0,0.008210689760744572
48.0,0.00789546500891447
52.0,0.007718746550381184
56.0,0.007444118615239859
60.0,0.007124978583306074
64.0,0.006750393658876419
72.0,0.006092957686632872
80.0,0.0054572164081037045
88.0,0.005011154338717461
96.0,0.004818188492208719
104.0,0.004753714893013239
112.0,0.004676148761063814
120.0,0.0044644977897405624
128.0,0.0039402213878929615
144.0,0.0031725005246698856
160.0,0.0026904745027422905
176.0,0.002515561645850539
192.0,0.002150312764570117
208.0,0.001708394498564303
224.0,0.0014887982979416847
240.0,0.0015789433382451534
256.0,0.002129791770130396
288.0,0.001410749857313931
320.0,5.372600571718067e-05
352.0,-0.0008512386120855808
384.0,-0.000819545064587146
416.0,-0.00031240071984939277
448.0,-0.0006821270217187703
480.0,-0.0009536807774566114
512.0,-0.0020074977073818445
576.0,-0.0019103054655715823
640.0,-0.001441730884835124
704.0,-0.0009819355327636003
768.0,-0.00046966091031208634
832.0,-0.0005399055662564933
896.0,-0.0010164392879232764
960.0,-0.001914384076371789
1024.0,-0.001723542925901711
1152.0,-0.00037763977888971567
1280.0,-0.00047977230860851705
1408.0,0.0023455736227333546
1536.0,0.0023359982296824455
1664.0,0.0023284838534891605
1792.0,-4.016129969386384e-05
1920.0,-0.0010531428270041943
2048.0,-0.0021476990077644587
2304.0,-0.0012583199422806501
2560.0,0.0009700767113827169
2816.0,0.0006283888942562044
3072.0,0.00028545476379804313
3328.0,-0.0001348794176010415
3584.0,-0.0004581022367347032
3840.0,0.0003947901714127511
4096.0,0.0016574370674788952
4608.0,-0.0024482961744070053
5120.0,0.0002401886013103649
5632.0,0.001206116285175085
6144.0,-0.0026045218110084534
6656.0,0.0017443968681618571
7168.0,0.0007945526740513742
7680.0,0.00016913824947550893
8192.0,-0.00038835228770039976
end
