version,3.0
numOfCh,1
type,point
parent_name,34766_0dot6-0dot1
ch_type,1_1
kcount,1
numberNandB,1
brightnessNandB,1
carpet pos,0
pc,0
Time (ms),CH1 Auto-Correlation
1.0,0.023195412009954453
2.0,0.022014394402503967
3.0,0.02099720761179924
4.0,0.02008468098938465
5.0,0.019260017201304436
6.0,0.018479039892554283
7.0,0.017744427546858788
8.0,0.01706995815038681
9.0,0.01646166481077671
10.0,0.015885578468441963
11.0,0.015308101661503315
12.0,0.014759154990315437
13.0,0.014270435087382793
14.0,0.013841471634805202
15.0,0.013441795483231544
16.0,0.013081436045467854
18.0,0.012342048808932304
20.0,0.011681360192596912
22.0,0.011117259040474892
24.0,0.01064436137676239
26.0,0.010135465301573277
28.0,0.009647914208471775
30.0,0.009260065853595734
32.0,0.008943315595388412
36.0,0.00835009291768074
40.0,0.007911925204098225
44.0,0.007559304125607014
48.0,0.007255141623318195
52.0,0.007058798335492611
56.0,0.006718273274600506
60.0,0.00629130145534873
64.0,0.00572745967656374
72.0,0.005148982163518667
80.0,0.0048714554868638515
88.0,0.004877946805208921
96.0,0.004718868061900139
104.0,0.004444941878318787
112.0,0.004319324158132076
120.0,0.004115303047001362
128.0,0.0040152957662940025
144.0,0.004307229071855545
160.0,0.004007913172245026
176.0,0.0030528821516782045
192.0,0.0021832166239619255
208.0,0.002299295039847493
224.0,0.0022663497366011143
240.0,0.001953140599653125
256.0,0.0018319470109418035
288.0,0.0018732837634161115
320.0,0.0016389001393690705
352.0,0.000969000393524766
384.0,0.0008330669952556491
416.0,0.0011233952827751637
448.0,0.001405621413141489
480.0,0.00030605559004470706
512.0,-8.71049051056616e-05
576.0,-0.0006976131116971374
640.0,-0.0017306949011981487
704.0,-0.0020294326823204756
768.0,-0.0015801637200638652
832.0,-0.001404748298227787
896.0,-0.0005727143725380301
960.0,-0.0006925461930222809
1024.0,-2.5661896870587952e-05
1152.0,0.000678763200994581
1280.0,0.0014222401659935713
1408.0,0.0020245013292878866
1536.0,0.0007363133481703699
1664.0,-0.00046233393368311226
1792.0,-0.0009683361859060824
1920.0,-0.0004128083528485149
2048.0,-0.0002645895292516798
2304.0,-0.0008073803619481623
2560.0,-0.0006728257285431027
2816.0,-0.0006116687436588109
3072.0,-0.0005013521877117455
3328.0,0.0002780829672701657
3584.0,0.0002580243453849107
3840.0,-0.00030083232559263706
4096.0,-0.001729651470668614
4608.0,-0.002145995618775487
5120.0,-0.0005999210407026112
5632.0,0.0001355388667434454
6144.0,0.0007734622922725976
6656.0,-0.000519602675922215
7168.0,0.0011489475145936012
7680.0,0.00250807567499578
8192.0,-0.0009344713180325925
end
