version,3.0
numOfCh,1
type,point
parent_name,34766_0dot6-0dot1
ch_type,1_1
kcount,1
numberNandB,1
brightnessNandB,1
carpet pos,0
pc,0
Time (ms),CH1 Auto-Correlation
1.0,0.02380792796611786
2.0,0.02264135703444481
3.0,0.021585026755928993
4.0,0.020610248669981956
5.0,0.019685164093971252
6.0,0.018855849280953407
7.0,0.018097316846251488
8.0,0.017428895458579063
9.0,0.01679287478327751
10.0,0.016170179471373558
11.0,0.015551880933344364
12.0,0.014968564733862877
13.0,0.014426881447434425
14.0,0.013909061439335346
15.0,0.013457464054226875
16.0,0.013050292618572712
18.0,0.012291241437196732
20.0,0.011556858196854591
22.0,0.010832468047738075
24.0,0.010153661482036114
26.0,0.009520183317363262
28.0,0.008960453793406487
30.0,0.008493592962622643
32.0,0.008121234364807606
36.0,0.007354824338108301
40.0,0.006664375774562359
44.0,0.006180013529956341
48.0,0.005637327674776316
52.0,0.005068137310445309
56.0,0.004559357184916735
60.0,0.004110629670321941
64.0,0.0037494765128940344
72.0,0.0030144245829433203
80.0,0.002224586671218276
88.0,0.0018166470108553767
96.0,0.0017661027377471328
104.0,0.0016914238221943378
112.0,0.001512262737378478
120.0,0.0010669229086488485
128.0,0.0003600527415983379
144.0,-0.00040393718518316746
160.0,-0.0004833850543946028
176.0,-0.00030823142151348293
192.0,-0.0003705625422298908
208.0,-0.0002404583792667836
224.0,0.00033376377541571856
240.0,0.00143322697840631
256.0,0.0020535916555672884
288.0,0.0018721503438428044
320.0,0.0005716257728636265
352.0,-0.00034933575079776347
384.0,-0.0020897563081234694
416.0,-0.0023641614243388176
448.0,-0.0019006073707714677
480.0,-0.00047531293239444494
512.0,0.0012394040822982788
576.0,0.0010916214669123292
640.0,0.0005261156475171447
704.0,-0.0003538539167493582
768.0,0.0014642486348748207
832.0,0.002703494392335415
896.0,0.0019917325116693974
960.0,0.0008409021538682282
1024.0,0.000282447348581627
1152.0,0.0002801733498927206
1280.0,-0.001470973715186119
1408.0,0.0007305766921490431
1536.0,0.0007230330375023186
1664.0,0.0008487182203680277
1792.0,-0.0006102821789681911
1920.0,-0.0008518478716723621
2048.0,-0.0013395319692790508
2304.0,-0.001054374035447836
2560.0,-0.00015123361663427204
2816.0,-0.001505496446043253
3072.0,-0.0009650966967456043
3328.0,-0.0005517334793694317
3584.0,-0.0012919907458126545
3840.0,-0.00016623798001091927
4096.0,0.0010532585438340902
4608.0,-5.6516910262871534e-05
5120.0,0.0007949439459480345
5632.0,0.0013591318856924772
6144.0,0.00016393078840337694
6656.0,0.0005470837350003421
7168.0,-0.0005750717245973647
7680.0,-0.0013829611707478762
8192.0,-0.000680984987411648
end
