version,3.0
numOfCh,1
type,point
parent_name,34766_0dot6-0dot1
ch_type,1_1
kcount,1
numberNandB,1
brightnessNandB,1
carpet pos,0
pc,0
Time (ms),CH1 Auto-Correlation
1.0,0.0262902844697237
2.0,0.025099780410528183
3.0,0.023998918011784554
4.0,0.022999711334705353
5.0,0.022096021100878716
6.0,0.021270565688610077
7.0,0.02046549879014492
8.0,0.01974933035671711
9.0,0.01909126155078411
10.0,0.018464505672454834
11.0,0.01787644438445568
12.0,0.01730823889374733
13.0,0.01678493432700634
14.0,0.016245495527982712
15.0,0.01567664183676243
16.0,0.015215660445392132
18.0,0.014459309168159962
20.0,0.013749521225690842
22.0,0.013108991086483002
24.0,0.012539814226329327
26.0,0.011973470449447632
28.0,0.011410640552639961
30.0,0.010935197584331036
32.0,0.010573401115834713
36.0,0.009927251376211643
40.0,0.0092558478936553
44.0,0.008671083487570286
48.0,0.00810261070728302
52.0,0.00758528895676136
56.0,0.007192413788288832
60.0,0.006945981178432703
64.0,0.006545449141412973
72.0,0.005355034489184618
80.0,0.004740534815937281
88.0,0.0045106178149580956
96.0,0.004454764537513256
104.0,0.004357131198048592
112.0,0.0040405732579529285
120.0,0.0036444803699851036
128.0,0.0034230470191687346
144.0,0.0031554086599498987
160.0,0.0030264442320913076
176.0,0.003304824698716402
192.0,0.003228560322895646
208.0,0.003478886093944311
224.0,0.003593955421820283
240.0,0.002828126074746251
256.0,0.00227605109103024
288.0,0.0016232901252806187
320.0,0.00046257913345471025
352.0,-0.00067305559059605
384.0,-0.0009981984039768577
416.0,-0.00021725990518461913
448.0,-0.0001166650908999145
480.0,-0.00023705883359070867
512.0,-0.0007374671404249966
576.0,-0.002583487192168832
640.0,-0.0016175191849470139
704.0,-0.0015212659491226077
768.0,-0.0016766281332820654
832.0,-0.0008842166280373931
896.0,0.0007897120667621493
960.0,0.0015101473545655608
1024.0,0.0006438656128011644
1152.0,0.00011888906738022342
1280.0,-0.0008290919358842075
1408.0,-0.000548859650734812
1536.0,-0.0012469867942854762
1664.0,-0.0004699008713942021
1792.0,-0.001467895694077015
1920.0,-0.00024853460490703583
2048.0,0.00016970938304439187
2304.0,0.001317179761826992
2560.0,0.0005209196824580431
2816.0,-0.0018554619746282697
3072.0,-0.0010196079965680838
3328.0,0.0012386797461658716
3584.0,-5.273235001368448e-05
3840.0,-0.0007536069606430829
4096.0,-0.0010609745513647795
4608.0,6.983815546846017e-05
5120.0,-0.000893773278221488
5632.0,0.0007905722013674676
6144.0,0.00036392014590092003
6656.0,0.000528053380548954
7168.0,-0.001765460125170648
7680.0,-2.889550887630321e-05
8192.0,0.0005802432424388826
end
