version,3.0
numOfCh,1
type,point
parent_name,34766_0dot6-0dot1
ch_type,1_1
kcount,1
numberNandB,1
brightnessNandB,1
carpet pos,0
pc,0
Time (ms),CH1 Auto-Correlation
1.0,0.028013497591018677
2.0,0.026790257543325424
3.0,0.025747457519173622
4.0,0.024812301620841026
5.0,0.02396608144044876
6.0,0.023190557956695557
7.0,0.022421028465032578
8.0,0.021754251793026924
9.0,0.021092694252729416
10.0,0.02048415318131447
11.0,0.019909674301743507
12.0,0.019338035956025124
13.0,0.01878444105386734
14.0,0.018276603892445564
15.0,0.017805270850658417
16.0,0.017386123538017273
18.0,0.01662501133978367
20.0,0.015895197167992592
22.0,0.015184094198048115
24.0,0.014597177505493164
26.0,0.014109259471297264
28.0,0.013574087992310524
30.0,0.013108506798744202
32.0,0.012752017937600613
36.0,0.012235670350492
40.0,0.011741133406758308
44.0,0.01130310446023941
48.0,0.011014341376721859
52.0,0.010536390356719494
56.0,0.010049627162516117
60.0,0.009631352499127388
64.0,0.00926253478974104
72.0,0.008613691665232182
80.0,0.008004863746464252
88.0,0.007983219809830189
96.0,0.007795270998030901
104.0,0.00725878169760108
112.0,0.0066259377636015415
120.0,0.005659275222569704
128.0,0.004812068771570921
144.0,0.004129024222493172
160.0,0.0038357668090611696
176.0,0.003192237112671137
192.0,0.00243440642952919
208.0,0.0017004654509946704
224.0,0.0015067167114466429
240.0,0.0016003730706870556
256.0,0.001767314039170742
288.0,0.001473729615099728
320.0,0.0027480595745146275
352.0,0.0026327637024223804
384.0,0.0015275422483682632
416.0,0.0012561373878270388
448.0,0.001014962326735258
480.0,0.0006932838005013764
512.0,0.0005632420652545989
576.0,0.0022710077464580536
640.0,0.0014482209226116538
704.0,0.0006691170856356621
768.0,0.0009783308487385511
832.0,0.0007490097195841372
896.0,0.0004720010329037905
960.0,0.0006487004575319588
1024.0,-0.0012489603832364082
1152.0,-0.0005000673118047416
1280.0,0.0011778243351727724
1408.0,-0.0001956093474291265
1536.0,0.0001808014785638079
1664.0,0.0016199114033952355
1792.0,0.0005212714313529432
1920.0,-0.000760737166274339
2048.0,0.0007360730669461191
2304.0,0.0017589699709787965
2560.0,0.001653767074458301
2816.0,-0.0009032995440065861
3072.0,0.00019067004905082285
3328.0,1.02708836493548e-05
3584.0,-0.0003225653781555593
3840.0,0.0019252017373219132
4096.0,0.00032620548154227436
4608.0,-0.0005514731747098267
5120.0,-0.0014209416694939137
5632.0,0.0005583231686614454
6144.0,-0.0009782067500054836
6656.0,-0.002027736511081457
7168.0,-0.0019090395653620362
7680.0,-0.0002273217833135277
8192.0,-0.0005261067417450249
end
