version,3.0
numOfCh,1
type,point
parent_name,34766_0dot6-0dot1
ch_type,1_1
kcount,1
numberNandB,1
brightnessNandB,1
carpet pos,0
pc,0
Time (ms),CH1 Auto-Correlation
1.0,0.02268487773835659
2.0,0.021492619067430496
3.0,0.02039024420082569
4.0,0.019375115633010864
5.0,0.018413426354527473
6.0,0.01754475198686123
7.0,0.01671586185693741
8.0,0.015960553660988808
9.0,0.015271848998963833
10.0,0.014642319642007351
11.0,0.014037351123988628
12.0,0.013414920307695866
13.0,0.012827534228563309
14.0,0.012258892878890038
15.0,0.011724160984158516
16.0,0.011221792548894882
18.0,0.010335489176213741
20.0,0.00961214117705822
22.0,0.008979732170701027
24.0,0.008422380313277245
26.0,0.007920518517494202
28.0,0.0074439216405153275
30.0,0.007001223973929882
32.0,0.006574889179319143
36.0,0.005869374610483646
40.0,0.005233424250036478
44.0,0.004750230815261602
48.0,0.0043680923990905285
52.0,0.004134210292249918
56.0,0.004065383225679398
60.0,0.0040410966612398624
64.0,0.00388172990642488
72.0,0.003491549286991358
80.0,0.0034367158077657223
88.0,0.0032316274009644985
96.0,0.002744800876826048
104.0,0.002777963411062956
112.0,0.002912388648837805
120.0,0.0030011232011020184
128.0,0.0027315684128552675
144.0,0.001457566162571311
160.0,0.0006861781585030258
176.0,0.00039007377927191556
192.0,0.0006633297889493406
208.0,0.0001663157599978149
224.0,-0.0003505529894027859
240.0,-0.0003729365416802466
256.0,4.0481121686752886e-05
288.0,0.001100155059248209
320.0,0.0018564296187832952
352.0,0.0014188549248501658
384.0,0.0011604982428252697
416.0,0.0009678525384515524
448.0,-5.4257718147709966e-05
480.0,-0.00029288866790011525
512.0,3.9015940274111927e-05
576.0,0.0008719359175302088
640.0,0.0017739288741722703
704.0,0.001756348181515932
768.0,0.0012080539017915726
832.0,0.0017831451259553432
896.0,0.0008774686721153557
960.0,1.976785461010877e-05
1024.0,0.0006116744480095804
1152.0,-0.0004179922107141465
1280.0,-0.0001774500124156475
1408.0,0.0007074699969962239
1536.0,0.0010877893073484302
1664.0,0.0012172135757282376
1792.0,0.000755461398512125
1920.0,0.0010352827375754714
2048.0,0.0010403227061033249
2304.0,0.00180746556725353
2560.0,0.0009914489928632975
2816.0,-0.00033392058685421944
3072.0,0.00011828888091258705
3328.0,-0.000559191859792918
3584.0,-0.0010816649300977588
3840.0,-0.00017847538401838392
4096.0,1.1462643669801764e-05
4608.0,0.0006829729536548257
5120.0,0.0007180285174399614
5632.0,-0.0013824306661263108
6144.0,-0.0008686147048138082
6656.0,0.0008982461877167225
7168.0,-0.0004770738596562296
7680.0,-0.0015066707273945212
8192.0,-0.0015531311510130763
end
