version,3.0
numOfCh,1
type,point
parent_name,34766_0dot6-0dot1
ch_type,1_1
kcount,1
numberNandB,1
brightnessNandB,1
carpet pos,0
pc,0
Time (ms),CH1 Auto-Correlation
1.0,0.023029999807476997
2.0,0.021826330572366714
3.0,0.020737577229738235
4.0,0.019731832668185234
5.0,0.01884487085044384
6.0,0.018054766580462456
7.0,0.017318950966000557
8.0,0.016673291102051735
9.0,0.016019128262996674
10.0,0.015420434065163136
11.0,0.014842754229903221
12.0,0.01434134691953659
13.0,0.013847041875123978
14.0,0.013352718204259872
15.0,0.012866434641182423
16.0,0.012402668595314026
18.0,0.011583756655454636
20.0,0.010896056890487671
22.0,0.010234867222607136
24.0,0.009545809589326382
26.0,0.008913502097129822
28.0,0.008304936811327934
30.0,0.0077575393952429295
32.0,0.0073874699883162975
36.0,0.006843107752501965
40.0,0.006285924464464188
44.0,0.005807164590805769
48.0,0.00550096994265914
52.0,0.0051979743875563145
56.0,0.005058981943875551
60.0,0.00475314911454916
64.0,0.004546759184449911
72.0,0.0042312266305089
80.0,0.003980111796408892
88.0,0.0037632391322404146
96.0,0.003509791335090995
104.0,0.0027512742672115564
112.0,0.0022371152881532907
120.0,0.002049434231594205
128.0,0.00210834969766438
144.0,0.0018081710441038013
160.0,0.0015962874749675393
176.0,0.0007346547208726406
192.0,-0.0002701827324926853
208.0,-0.0010720746358856559
224.0,-0.0021907875780016184
240.0,-0.0027110425289720297
256.0,-0.0015208825934678316
288.0,-0.0001155496938736178
320.0,-0.0003126352676190436
352.0,0.0007922296063043177
384.0,0.0011289857793599367
416.0,0.0010070640128105879
448.0,0.002174332505092025
480.0,0.0011489217868074775
512.0,-0.0003995500737801194
576.0,-0.0010050201090052724
640.0,0.000803265895228833
704.0,0.0004401276237331331
768.0,0.0007593795307911932
832.0,0.000427436811150983
896.0,-0.0008743595099076629
960.0,-0.0022485486697405577
1024.0,-0.00199980940669775
1152.0,-0.000522819347679615
1280.0,0.00034896290162578225
1408.0,-0.0006420662393793464
1536.0,-0.001634163549169898
1664.0,-0.0009597388561815023
1792.0,0.0016008891398087144
1920.0,0.001185928238555789
2048.0,-0.00012665607209783047
2304.0,0.0006443673628382385
2560.0,-0.00013413913256954402
2816.0,-0.0011592400260269642
3072.0,-0.000630996422842145
3328.0,-0.0020061437971889973
3584.0,0.00026300366153009236
3840.0,-0.00043341878335922956
4096.0,-0.0003314054920338094
4608.0,-0.00028456555446609855
5120.0,-0.000843760441057384
5632.0,-0.0005463173729367554
6144.0,0.0018317325739189982
6656.0,0.0009787185117602348
7168.0,-0.00025818063295446336
7680.0,-0.0006029102951288223
8192.0,-0.0002448365557938814
end
