version,3.0
numOfCh,1
type,point
parent_name,34766_0dot6-0dot1
ch_type,1_1
kcount,1
numberNandB,1
brightnessNandB,1
carpet pos,0
pc,0
Time (ms),CH1 Auto-Correlation
1.0,0.02452923357486725
2.0,0.023336755111813545
3.0,0.02226366475224495
4.0,0.02127409726381302
5.0,0.02037576586008072
6.0,0.019595542922616005
7.0,0.01885007694363594
8.0,0.018178828060626984
9.0,0.017586080357432365
10.0,0.017028355970978737
11.0,0.01650334522128105
12.0,0.016000952571630478
13.0,0.01550818420946598
14.0,0.015020301565527916
15.0,0.014541308395564556
16.0,0.01407236885279417
18.0,0.013325818814337254
20.0,0.012596501968801022
22.0,0.011905357241630554
24.0,0.011220641434192657
26.0,0.010615449398756027
28.0,0.010171701200306416
30.0,0.009792310185730457
32.0,0.009413929656147957
36.0,0.008451301604509354
40.0,0.007519289385527372
44.0,0.0068942164070904255
48.0,0.006389180198311806
52.0,0.005853498820215464
56.0,0.005402817856520414
60.0,0.004994279704988003
64.0,0.004702333826571703
72.0,0.004191546235233545
80.0,0.0035388816613703966
88.0,0.0029472121968865395
96.0,0.0026887250132858753
104.0,0.002349156653508544
112.0,0.0021811150945723057
120.0,0.0019735635723918676
128.0,0.0014529123436659575
144.0,0.001289484673179686
160.0,0.001861991942860186
176.0,0.0027230391278862953
192.0,0.00298640551045537
208.0,0.003209648421034217
224.0,0.0030333634931594133
240.0,0.0037377122789621353
256.0,0.004216975066810846
288.0,0.0038196442183107138
320.0,0.0030720506329089403
352.0,0.0029132787603884935
384.0,0.0022885981015861034
416.0,0.001549818436615169
448.0,0.0003059599839616567
480.0,0.0010876643937081099
512.0,0.0005509943002834916
576.0,0.0003867596387863159
640.0,1.0385570931248367e-05
704.0,-0.0003129853284917772
768.0,-0.0007489370182156563
832.0,-0.0016204735729843378
896.0,-0.0008395258919335902
960.0,0.00016541953664273024
1024.0,0.0008912462508305907
1152.0,-0.00034956951276399195
1280.0,-7.070576248224825e-05
1408.0,8.062976121436805e-05
1536.0,0.0009035100229084492
1664.0,0.0002898126549553126
1792.0,-2.3335626337939175e-06
1920.0,0.0003970038960687816
2048.0,0.00011389942665118724
2304.0,-0.0004640265251509845
2560.0,0.0007287861662916839
2816.0,0.0007093973690643907
3072.0,0.0014730338007211685
3328.0,0.00027680161292664707
3584.0,0.0008995880489237607
3840.0,-0.0012005175231024623
4096.0,-0.0013749287463724613
4608.0,-0.002350432798266411
5120.0,-0.0010246263118460774
5632.0,-0.00083918496966362
6144.0,0.00018134585116058588
6656.0,-0.0006022603483870625
7168.0,-0.002860419685021043
7680.0,-0.0011862230021506548
8192.0,0.0008539393311366439
end
