version,3.0
numOfCh,1
type,point
parent_name,34766_0dot6-0dot1
ch_type,1_1
kcount,1
numberNandB,1
brightnessNandB,1
carpet pos,0
pc,0
Time (ms),CH1 Auto-Correlation
1.0,0.021081289276480675
2.0,0.0199433546513319
3.0,0.018961023539304733
4.0,0.018055008724331856
5.0,0.01724330335855484
6.0,0.016516590490937233
7.0,0.015863366425037384
8.0,0.015264629386365414
9.0,0.014730304479598999
10.0,0.0142171960324049
11.0,0.013743164949119091
12.0,0.01326035801321268
13.0,0.012831374071538448
14.0,0.01243111863732338
15.0,0.012051799334585667
16.0,0.01170189119875431
18.0,0.010962242260575294
20.0,0.010288875550031662
22.0,0.009673339314758778
24.0,0.009015231393277645
26.0,0.008391221985220909
28.0,0.007827742025256157
30.0,0.007240454200655222
32.0,0.006711989641189575
36.0,0.00596661726012826
40.0,0.005273451562970877
44.0,0.00465244660153985
48.0,0.004169938620179892
52.0,0.0038314606063067913
56.0,0.003610051702708006
60.0,0.0033214264549314976
64.0,0.003082887502387166
72.0,0.0025176191702485085
80.0,0.0020300359465181828
88.0,0.0016687618335708976
96.0,0.0012099075829610229
104.0,0.0009131328552030027
112.0,0.0007627630257047713
120.0,0.0005087596946395934
128.0,0.0001497037592343986
144.0,-5.927233360125683e-05
160.0,0.0001300990697927773
176.0,-0.0002679209574125707
192.0,-0.0007251062779687345
208.0,-0.0009237223421223462
224.0,-0.001072762766852975
240.0,-0.0007629133178852499
256.0,-0.0007489576237276196
288.0,0.0005009046290069818
320.0,0.0008596362313255668
352.0,0.0007649299805052578
384.0,-0.0001458793703932315
416.0,-0.0002050886832876131
448.0,-0.0010323448805138469
480.0,-0.0015303612453863025
512.0,-0.0018192188581451774
576.0,-0.0008938628598116338
640.0,0.0003730835160240531
704.0,0.0012951309327036142
768.0,0.00034321079147048295
832.0,0.0003042275784537196
896.0,0.0007006289670243859
960.0,0.0012108379742130637
1024.0,0.001388485194183886
1152.0,0.0007437021122314036
1280.0,6.110905087552965e-05
1408.0,-0.0011454148916527629
1536.0,-0.0012837620452046394
1664.0,-0.0012161413906142116
1792.0,5.0073780585080385e-05
1920.0,0.0008488880703225732
2048.0,0.0015424216398969293
2304.0,-0.00020050103194080293
2560.0,-0.0004983731778338552
2816.0,0.0005373696330934763
3072.0,0.0001842433266574517
3328.0,-0.0009926223428919911
3584.0,-0.0013152103638276458
3840.0,-0.0008648132206872106
4096.0,0.00019796834385488182
4608.0,0.0003314550849609077
5120.0,0.000690570508595556
5632.0,0.0007952229934744537
6144.0,-0.000546886760275811
6656.0,0.0004897170583717525
7168.0,-0.00023737817537039518
7680.0,0.0006013800157234073
8192.0,-0.0003114457067567855
end
