version,3.0
numOfCh,1
type,point
parent_name,34766_0dot6-0dot1
ch_type,1_1
kcount,1
numberNandB,1
brightnessNandB,1
carpet pos,0
pc,0
Time (ms),CH1 Auto-Correlation
1.0,0.023671302944421768
2.0,0.02250877395272255
3.0,0.021480930969119072
4.0,0.020527781918644905
5.0,0.019660163670778275
6.0,0.018865972757339478
7.0,0.01812736876308918
8.0,0.01744683086872101
9.0,0.01679658517241478
10.0,0.016199104487895966
11.0,0.015662172809243202
12.0,0.01516228262335062
13.0,0.014689968898892403
14.0,0.014269123785197735
15.0,0.013828647322952747
16.0,0.013432318344712257
18.0,0.012731624767184258
20.0,0.012194664217531681
22.0,0.011645983904600143
24.0,0.011188494972884655
26.0,0.010783874429762363
28.0,0.010419921018183231
30.0,0.010005374439060688
32.0,0.009589525870978832
36.0,0.008847670629620552
40.0,0.00807727687060833
44.0,0.007295954506844282
48.0,0.006593731697648764
52.0,0.005963932257145643
56.0,0.005455510690808296
60.0,0.004991588648408651
64.0,0.004598105791956186
72.0,0.0041434490121901035
80.0,0.004000111483037472
88.0,0.0037855326663702726
96.0,0.0037392075173556805
104.0,0.003528815694153309
112.0,0.0032022467348724604
120.0,0.002789266873151064
128.0,0.0024394162464886904
144.0,0.002399507910013199
160.0,0.0023281858302652836
176.0,0.0020757869351655245
192.0,0.0021391957998275757
208.0,0.0020132751669734716
224.0,0.0018575345166027546
240.0,0.0019706625025719404
256.0,0.0028952884022146463
288.0,0.001713918405584991
320.0,0.000716248236130923
352.0,-3.058173751924187e-05
384.0,-0.0005807467387057841
416.0,0.00010336843115510419
448.0,0.0008064365247264504
480.0,0.0011024012928828597
512.0,0.0005380770307965577
576.0,0.0007814430282451212
640.0,0.0004954799078404903
704.0,6.191522697918117e-05
768.0,0.00010656194353941828
832.0,-0.0007854757132008672
896.0,-0.00214762263931334
960.0,-0.002114654751494527
1024.0,-0.001779787940904498
1152.0,-0.0011564570013433695
1280.0,-0.001182778738439083
1408.0,-0.0016526641556993127
1536.0,-0.0027668990660458803
1664.0,-0.0018054245738312602
1792.0,-0.0009585669031366706
1920.0,-0.00025392434326931834
2048.0,-0.0009429548517800868
2304.0,0.0011384605895727873
2560.0,0.0014816843904554844
2816.0,5.1374667236814275e-05
3072.0,-0.000738921167794615
3328.0,-0.0007714484236203134
3584.0,-0.0018376650987192988
3840.0,-0.002376749413087964
4096.0,-0.0015151073457673192
4608.0,0.0014439274091273546
5120.0,0.003618825925514102
5632.0,0.0005081097478978336
6144.0,-0.002357225166633725
6656.0,-0.0008918006788007915
7168.0,0.0005637294962070882
7680.0,0.0006268820143304765
8192.0,-0.0012262033997103572
end
