version,3.0
numOfCh,1
type,point
parent_name,34766_0dot6-0dot1
ch_type,1_1
kcount,1
numberNandB,1
brightnessNandB,1
carpet pos,0
pc,0
Time (ms),CH1 Auto-Correlation
1.0,0.024128507822752
2.0,0.02291756682097912
3.0,0.021815204992890358
4.0,0.020803093910217285
5.0,0.019906356930732727
6.0,0.01907562091946602
7.0,0.018293635919690132
8.0,0.017565608024597168
9.0,0.016944965347647667
10.0,0.01637210324406624
11.0,0.0158403217792511
12.0,0.015313934534788132
13.0,0.014795689843595028
14.0,0.014325790107250214
15.0,0.013925923965871334
16.0,0.01349775493144989
18.0,0.01264925580471754
20.0,0.01182516384869814
22.0,0.011129527352750301
24.0,0.010543416254222393
26.0,0.009999305941164494
28.0,0.009508856572210789
30.0,0.009077717550098896
32.0,0.008646535687148571
36.0,0.007951812818646431
40.0,0.00735113862901926
44.0,0.006817618850618601
48.0,0.006331523880362511
52.0,0.006066867150366306
56.0,0.005914193112403154
60.0,0.005832643248140812
64.0,0.005764766596257687
72.0,0.005420246627181768
80.0,0.004740637727081776
88.0,0.004074221011251211
96.0,0.0035353517159819603
104.0,0.0029600337147712708
112.0,0.0024618885945528746
120.0,0.0019158489303663373
128.0,0.0017623440362513065
144.0,0.0015152256237342954
160.0,0.0013096173061057925
176.0,0.0010239164112135768
192.0,0.00034730363404378295
208.0,0.00012249329301994294
224.0,0.0003279893717262894
240.0,-0.00020064142881892622
256.0,0.00048077324754558504
288.0,0.0011542332358658314
320.0,0.0006286391871981323
352.0,0.0005272658891044557
384.0,0.0004389545938465744
416.0,0.0007996923523023725
448.0,0.0011422778479754925
480.0,0.001155588892288506
512.0,0.00028665861464105546
576.0,0.00120345049072057
640.0,0.0009861458092927933
704.0,0.00016849504027049989
768.0,6.976771692279726e-05
832.0,-0.00013648827734868973
896.0,-0.0007150379824452102
960.0,0.0006282663089223206
1024.0,0.0006796839879825711
1152.0,0.0003736966464202851
1280.0,0.00040299867396242917
1408.0,-0.00021755651687271893
1536.0,-0.0006380758131854236
1664.0,0.001525631989352405
1792.0,0.0014900455716997385
1920.0,0.000953225651755929
2048.0,3.909362931153737e-05
2304.0,4.765259291161783e-05
2560.0,-0.001402319991029799
2816.0,-0.0008084807195700705
3072.0,-0.0010554916225373745
3328.0,-0.0009747791336849332
3584.0,0.0007337143761105835
3840.0,0.0005434979102574289
4096.0,0.0007559100049547851
4608.0,-0.0003251106245443225
5120.0,0.0004625351575668901
5632.0,0.0010651616612449288
6144.0,0.0003430358483456075
6656.0,-0.000342442566761747
7168.0,-1.4836274203844368e-05
7680.0,0.0007900837808847427
8192.0,-0.0015449505299329758
end
