version,3.0
numOfCh,1
type,point
parent_name,34766_0dot6-0dot1
ch_type,1_1
kcount,1
numberNandB,1
brightnessNandB,1
carpet pos,0
pc,0
Time (ms),CH1 Auto-Correlation
1.0,0.020998556166887283
2.0,0.01987842470407486
3.0,0.018844954669475555
4.0,0.017917219549417496
5.0,0.01705336757004261
6.0,0.016237150877714157
7.0,0.015497430227696896
8.0,0.014802317135035992
9.0,0.014155070297420025
10.0,0.013543847016990185
11.0,0.012978645972907543
12.0,0.012472531758248806
13.0,0.012002948671579361
14.0,0.011590419337153435
15.0,0.011193793267011642
16.0,0.010820271447300911
18.0,0.010114471428096294
20.0,0.009489979594945908
22.0,0.00897251721471548
24.0,0.00856462586671114
26.0,0.00814630463719368
28.0,0.007748041767627001
30.0,0.0074007511138916016
32.0,0.007086543831974268
36.0,0.006359728053212166
40.0,0.005646916106343269
44.0,0.004914724268019199
48.0,0.004449969157576561
52.0,0.004123029764741659
56.0,0.0038945632986724377
60.0,0.003686531214043498
64.0,0.0034601290244609118
72.0,0.0026833212468773127
80.0,0.0021823940332978964
88.0,0.002064027590677142
96.0,0.0022900959011167288
104.0,0.0023561774287372828
112.0,0.00222945399582386
120.0,0.0020327263046056032
128.0,0.0019332291558384895
144.0,0.0017325454391539097
160.0,0.0011571783106774092
176.0,0.001393818878568709
192.0,0.001807487802579999
208.0,0.001978924497961998
224.0,0.0016818365547806025
240.0,0.001327659236267209
256.0,0.0012548498343676329
288.0,0.0007535192416980863
320.0,0.0011948460014536977
352.0,0.0014916398795321584
384.0,0.0016985666006803513
416.0,0.002320267027243972
448.0,0.0008508516475558281
480.0,-0.00033739148057065904
512.0,-0.0009024764294736087
576.0,-0.0010280037531629205
640.0,0.001564162434078753
704.0,0.0006318050436675549
768.0,5.717945168726146e-05
832.0,0.0005663659540005028
896.0,1.545153463666793e-05
960.0,0.0011510823387652636
1024.0,0.0018398507963865995
1152.0,0.00010388426017016172
1280.0,0.00037417179555632174
1408.0,0.0007983623654581606
1536.0,-0.0006604256923310459
1664.0,-0.0007475370075553656
1792.0,-0.00013052548456471413
1920.0,-0.00014575068780686706
2048.0,-0.0007217451930046082
2304.0,-0.0011420308146625757
2560.0,-0.0006937870639376342
2816.0,0.00028511759592220187
3072.0,-0.0003075269632972777
3328.0,0.00012710214650724083
3584.0,0.00046517865848727524
3840.0,0.0010713225929066539
4096.0,-0.0003654907923191786
4608.0,-0.000769426638726145
5120.0,-0.0002948522742372006
5632.0,-0.0012372584315016866
6144.0,-6.507283978862688e-05
6656.0,0.0009922379394993186
7168.0,0.0002010736643569544
7680.0,0.0004188792372588068
8192.0,-0.0004539396322797984
end
