version,3.0
numOfCh,1
type,point
parent_name,34766_0dot6-0dot1
ch_type,1_1
kcount,1
numberNandB,1
brightnessNandB,1
carpet pos,0
pc,0
Time (ms),CH1 Auto-Correlation
1.0,0.021930666640400887
2.0,0.02077188529074192
3.0,0.01969856396317482
4.0,0.018726086243987083
5.0,0.017841149121522903
6.0,0.017023084685206413
7.0,0.01629927195608616
8.0,0.015611210837960243
9.0,0.015016441233456135
10.0,0.014489401131868362
11.0,0.0139858927577734
12.0,0.013502017594873905
13.0,0.013037719763815403
14.0,0.012600334361195564
15.0,0.012173213995993137
16.0,0.011775421909987926
18.0,0.011077308095991611
20.0,0.010501246899366379
22.0,0.01000491064041853
24.0,0.00952184945344925
26.0,0.009068925864994526
28.0,0.00871108379215002
30.0,0.008378838188946247
32.0,0.008033017627894878
36.0,0.007388572208583355
40.0,0.006647542119026184
44.0,0.006093352567404509
48.0,0.0056706080213189125
52.0,0.005367026198655367
56.0,0.005117053631693125
60.0,0.004902468528598547
64.0,0.004738766234368086
72.0,0.004393127281218767
80.0,0.004180691670626402
88.0,0.004005965311080217
96.0,0.0038137303199619055
104.0,0.003505954286083579
112.0,0.0034500102046877146
120.0,0.0036255288869142532
128.0,0.003747643204405904
144.0,0.0038204968441277742
160.0,0.003336799331009388
176.0,0.0024781294632703066
192.0,0.0019012684933841228
208.0,0.0021887149196118116
224.0,0.0019733943045139313
240.0,0.0015524887712672353
256.0,0.0018307858845219016
288.0,0.0015098012518137693
320.0,0.0007486838148906827
352.0,-0.00022085662931203842
384.0,-0.0008389431168325245
416.0,-0.0007966021657921374
448.0,-9.916179260471836e-05
480.0,-0.0002586322370916605
512.0,-0.0014029026497155428
576.0,-0.001715179649181664
640.0,-0.0012901407899335027
704.0,-0.0006922915927134454
768.0,-0.0010282715084031224
832.0,-0.0015840402338653803
896.0,-0.0008256245637312531
960.0,-0.00184511742554605
1024.0,-0.0009688812424428761
1152.0,-0.0005867630825378001
1280.0,-0.0004392011323943734
1408.0,-0.00032613021903671324
1536.0,0.0003876130504067987
1664.0,0.0019143368117511272
1792.0,0.0021278592757880688
1920.0,0.002096803393214941
2048.0,0.001372042577713728
2304.0,-0.0010189723689109087
2560.0,-0.0014203153550624847
2816.0,-0.0016965143149718642
3072.0,-0.001005648635327816
3328.0,6.697155913570896e-05
3584.0,0.0005960092530585825
3840.0,0.0014900848036631942
4096.0,0.00010235931404167786
4608.0,-0.0014091754565015435
5120.0,-0.0005079506663605571
5632.0,-0.0004902038490399718
6144.0,-0.00016771000809967518
6656.0,-0.0005721376510336995
7168.0,-0.0005866923602297902
7680.0,0.0006660766084678471
8192.0,0.00012408244947437197
end
