version,3.0
numOfCh,1
type,point
parent_name,34766_0dot6-0dot1
ch_type,1_1
kcount,1
numberNandB,1
brightnessNandB,1
carpet pos,0
pc,0
Time (ms),CH1 Auto-Correlation
1.0,0.026330599561333656
2.0,0.025099845603108406
3.0,0.02400420792400837
4.0,0.022979408502578735
5.0,0.022063108161091805
6.0,0.021229712292551994
7.0,0.020476970821619034
8.0,0.01976604387164116
9.0,0.019085532054305077
10.0,0.01849042810499668
11.0,0.01792304217815399
12.0,0.017396679148077965
13.0,0.01687866449356079
14.0,0.01636163331568241
15.0,0.015882030129432678
16.0,0.01540177222341299
18.0,0.014544661156833172
20.0,0.013799658976495266
22.0,0.013095986098051071
24.0,0.012461259961128235
26.0,0.011882761493325233
28.0,0.011380811221897602
30.0,0.010921671986579895
32.0,0.010578188113868237
36.0,0.010028173215687275
40.0,0.009457278996706009
44.0,0.00892831664532423
48.0,0.00840445514768362
52.0,0.007836036384105682
56.0,0.007491547614336014
60.0,0.007085329852998257
64.0,0.006727349013090134
72.0,0.006158326752483845
80.0,0.005853194277733564
88.0,0.0054299188777804375
96.0,0.005083086434751749
104.0,0.004749785177409649
112.0,0.004849687684327364
120.0,0.004681352525949478
128.0,0.0045991758815944195
144.0,0.004265238530933857
160.0,0.00396015215665102
176.0,0.003450678428635001
192.0,0.0032116544898599386
208.0,0.0026343318168073893
224.0,0.0023424162063747644
240.0,0.002903091022744775
256.0,0.003222285071387887
288.0,0.0023382038343697786
320.0,0.00197317055426538
352.0,0.0017804339295253158
384.0,0.0016677455278113484
416.0,0.0012973069678992033
448.0,0.0008098023827187717
480.0,0.001672370475716889
512.0,0.001539731165394187
576.0,0.0005821880768053234
640.0,0.0006568877142854035
704.0,0.0013151820749044418
768.0,0.0006518362206406891
832.0,-0.0008580775465816259
896.0,-0.00090511713642627
960.0,-0.0010725122410804033
1024.0,-0.001954583218321204
1152.0,-0.0006242163944989443
1280.0,0.0009878331329673529
1408.0,0.0015773714985698462
1536.0,-1.5945255654514767e-05
1664.0,0.00029423879459500313
1792.0,0.001410914002917707
1920.0,0.0011762356152758002
2048.0,0.0008440586971119046
2304.0,-0.002868632785975933
2560.0,-0.0020434586331248283
2816.0,-0.0014590605860576034
3072.0,-0.0017234906554222107
3328.0,0.0009554687421768904
3584.0,0.0006880611181259155
3840.0,-0.0015999936731532216
4096.0,1.3852790289092809e-05
4608.0,0.0004025273665320128
5120.0,-0.0007756533450447023
5632.0,-0.0004979840596206486
6144.0,0.0025939587503671646
6656.0,0.0007029363769106567
7168.0,-0.0007201800472103059
7680.0,-0.0019998480565845966
8192.0,-0.0006653505261056125
end
