version,3.0
numOfCh,1
type,point
parent_name,34766_0dot6-0dot1
ch_type,1_1
kcount,1
numberNandB,1
brightnessNandB,1
carpet pos,0
pc,0
Time (ms),CH1 Auto-Correlation
1.0,0.025300294160842896
2.0,0.02407575398683548
3.0,0.022937016561627388
4.0,0.02190214768052101
5.0,0.020963536575436592
6.0,0.02012595161795616
7.0,0.019361084327101707
8.0,0.018648697063326836
9.0,0.01792323775589466
10.0,0.017217546701431274
11.0,0.016555605456233025
12.0,0.015958957374095917
13.0,0.015386753715574741
14.0,0.014882899820804596
15.0,0.014430757611989975
16.0,0.014001663774251938
18.0,0.013223880901932716
20.0,0.0124775106087327
22.0,0.011762035079300404
24.0,0.011160344816744328
26.0,0.01062781922519207
28.0,0.010166347026824951
30.0,0.009795119054615498
32.0,0.009464152157306671
36.0,0.00882792379707098
40.0,0.008338280022144318
44.0,0.00773589126765728
48.0,0.007121285889297724
52.0,0.006603581830859184
56.0,0.0062303198501467705
60.0,0.00582561269402504
64.0,0.005381422583013773
72.0,0.004684119485318661
80.0,0.0044803982600569725
88.0,0.004138624295592308
96.0,0.00365890609100461
104.0,0.0031789361964911222
112.0,0.0027749785222113132
120.0,0.002400315599516034
128.0,0.001755359349772334
144.0,0.001440482446923852
160.0,0.0016482477076351643
176.0,0.001738453283905983
192.0,0.001739846426062286
208.0,0.002114676171913743
224.0,0.0017506229924038053
240.0,0.0016889722319319844
256.0,0.0016929158009588718
288.0,0.0011074841022491455
320.0,0.000968390901107341
352.0,0.00044396784505806863
384.0,0.00028133581508882344
416.0,0.0006041147862561047
448.0,0.0012637560721486807
480.0,0.0014188950881361961
512.0,0.00034399438300170004
576.0,-0.0019738117698580027
640.0,-0.002357771620154381
704.0,-0.0017714131390675902
768.0,-0.0016266417223960161
832.0,-0.0020486393477767706
896.0,-0.0017337993485853076
960.0,-0.0011454882333055139
1024.0,-0.0007776447455398738
1152.0,-0.0017343101790174842
1280.0,0.00012720392260234803
1408.0,-0.00047292819363065064
1536.0,0.00042786484118551016
1664.0,-0.0005210500676184893
1792.0,0.00021022029977757484
1920.0,-0.0008654769626446068
2048.0,0.00013074938033241779
2304.0,0.000876916921697557
2560.0,2.6370136765763164e-05
2816.0,-0.00043476963764987886
3072.0,4.925939720124006e-05
3328.0,-0.0003511083486955613
3584.0,-0.0017243552720174193
3840.0,3.6426616134122014e-05
4096.0,0.0015939984004944563
4608.0,0.0002781033981591463
5120.0,-0.0007223652210086584
5632.0,-7.005830411799252e-05
6144.0,0.0009255522745661438
6656.0,-0.00013669111649505794
7168.0,-0.00013509996642824262
7680.0,-0.0005258765304461122
8192.0,-0.0010566512355580926
end
