version,3.0
numOfCh,1
type,point
parent_name,34766_0dot6-0dot1
ch_type,1_1
kcount,1
numberNandB,1
brightnessNandB,1
carpet pos,0
pc,0
Time (ms),CH1 Auto-Correlation
1.0,0.020330574363470078
2.0,0.01918729580938816
3.0,0.018127644434571266
4.0,0.017136970534920692
5.0,0.01623464748263359
6.0,0.015415173023939133
7.0,0.01467810571193695
8.0,0.014009122736752033
9.0,0.013384453020989895
10.0,0.01279956754297018
11.0,0.012258072383701801
12.0,0.011738608591258526
13.0,0.011229993775486946
14.0,0.010762091726064682
15.0,0.010324780829250813
16.0,0.009936651214957237
18.0,0.009231065399944782
20.0,0.008590328507125378
22.0,0.007973786443471909
24.0,0.007435341365635395
26.0,0.006988834124058485
28.0,0.006584262475371361
30.0,0.0062670279294252396
32.0,0.005979316774755716
36.0,0.0053074657917022705
40.0,0.004728149622678757
44.0,0.004383118823170662
48.0,0.00409112311899662
52.0,0.0038623095024377108
56.0,0.003563337493687868
60.0,0.0034637770149856806
64.0,0.0033792457543313503
72.0,0.00317434873431921
80.0,0.003031464759260416
88.0,0.0028264306019991636
96.0,0.002190622268244624
104.0,0.001544186961837113
112.0,0.0012624770170077682
120.0,0.0013344052713364363
128.0,0.0016988673014566302
144.0,0.0016487569082528353
160.0,0.0008569053024984896
176.0,0.0005308114341460168
192.0,0.0002040281251538545
208.0,0.00023796435561962426
224.0,0.0007507068803533912
240.0,0.0004825869109481573
256.0,0.00018831958004739136
288.0,0.0007058413466438651
320.0,0.0003663462121039629
352.0,0.0004208444443065673
384.0,0.00037100541521795094
416.0,0.0004475510504562408
448.0,0.0001948744902620092
480.0,0.0011876593343913555
512.0,0.0013290918432176113
576.0,0.001570730353705585
640.0,0.001372528844512999
704.0,0.00047185405855998397
768.0,0.0005426692659966648
832.0,0.0012030958896502852
896.0,0.0005437273648567498
960.0,0.00013058408512733877
1024.0,-0.0010411018738523126
1152.0,0.0003273652691859752
1280.0,2.288083805979113e-06
1408.0,0.0010005853837355971
1536.0,0.001110443496145308
1664.0,0.0007428981480188668
1792.0,0.00034479214809834957
1920.0,0.0003330101608298719
2048.0,0.0006478553405031562
2304.0,-0.0006395578384399414
2560.0,0.000823484908323735
2816.0,-0.0006676856428384781
3072.0,-1.4774830560781993e-05
3328.0,-7.989942241692916e-05
3584.0,-0.0010150339221581817
3840.0,5.129750570631586e-05
4096.0,-0.0016214476199820638
4608.0,1.5364092178060673e-05
5120.0,0.0008150250650942326
5632.0,0.0005972900544293225
6144.0,-0.0002342861844226718
6656.0,-1.3205635696067475e-06
7168.0,0.00015294417971745133
7680.0,-0.0007577225333079696
8192.0,-0.000939863792154938
end
