version,3.0
numOfCh,1
type,point
parent_name,34766_0dot6-0dot1
ch_type,1_1
kcount,1
numberNandB,1
brightnessNandB,1
carpet pos,0
pc,0
Time (ms),CH1 Auto-Correlation
1.0,0.022294210270047188
2.0,0.021111607551574707
3.0,0.02002043090760708
4.0,0.019024699926376343
5.0,0.01810615509748459
6.0,0.017297429963946342
7.0,0.01656475104391575
8.0,0.015881743282079697
9.0,0.015230689197778702
10.0,0.014627846889197826
11.0,0.014036874286830425
12.0,0.013472095131874084
13.0,0.012902490794658661
14.0,0.012393600307404995
15.0,0.011966723017394543
16.0,0.011589106172323227
18.0,0.01090599037706852
20.0,0.010355917736887932
22.0,0.009908770211040974
24.0,0.009482000954449177
26.0,0.009046487510204315
28.0,0.008615834638476372
30.0,0.00825353991240263
32.0,0.007951022125780582
36.0,0.007368176244199276
40.0,0.006946992129087448
44.0,0.0066040982492268085
48.0,0.006197883281856775
52.0,0.005681679118424654
56.0,0.005105752032250166
60.0,0.004573270678520203
64.0,0.004294698126614094
72.0,0.004023655317723751
80.0,0.003925291821360588
88.0,0.003670754376798868
96.0,0.0035894582979381084
104.0,0.0036457693204283714
112.0,0.0035911239683628082
120.0,0.003250317182391882
128.0,0.002729868283495307
144.0,0.002441307995468378
160.0,0.002336920704692602
176.0,0.002244251314550638
192.0,0.0022972102742642164
208.0,0.002265885006636381
224.0,0.002024427056312561
240.0,0.0016762748127803206
256.0,0.0010780704906210303
288.0,0.0002952056238427758
320.0,0.0003471310483291745
352.0,-0.0006830960628576577
384.0,-0.0005910955951549113
416.0,-0.0008002838003449142
448.0,-0.00118024623952806
480.0,-0.0006330571486614645
512.0,-0.0007537701167166233
576.0,0.00025763531448319554
640.0,0.0011155781103298068
704.0,0.0006279309745877981
768.0,0.0007849303656257689
832.0,-0.00015400801203213632
896.0,0.0005085720331408083
960.0,0.0006779656396247447
1024.0,4.806434299098328e-05
1152.0,-0.00032128271413967013
1280.0,0.00027123279869556427
1408.0,-0.0006343791610561311
1536.0,1.3228530406195205e-05
1664.0,0.0009027006453834474
1792.0,0.0017917960649356246
1920.0,0.0012422200525179505
2048.0,0.0002751313440967351
2304.0,-0.0006383343716152012
2560.0,-0.0002822231035679579
2816.0,-0.0010755693074315786
3072.0,-0.0007978334906511009
3328.0,-0.0007489931886084378
3584.0,0.000575826910790056
3840.0,-0.00047195874503813684
4096.0,-0.000637296587228775
4608.0,0.000638941244687885
5120.0,-2.106689862557687e-05
5632.0,0.0008430329617112875
6144.0,-0.0005825939006172121
6656.0,0.00045097284601069987
7168.0,-0.0010263962903991342
7680.0,-0.0007070094579830766
8192.0,-0.0009678242495283484
end
