version,3.0
numOfCh,1
type,point
parent_name,34766_0dot6-0dot1
ch_type,1_1
kcount,1
numberNandB,1
brightnessNandB,1
carpet pos,0
pc,0
Time (ms),CH1 Auto-Correlation
1.0,0.021888427436351776
2.0,0.02071199379861355
3.0,0.019632436335086823
4.0,0.018686696887016296
5.0,0.01783040724694729
6.0,0.01702812872827053
7.0,0.016330618411302567
8.0,0.01567077450454235
9.0,0.015047146938741207
10.0,0.014473522081971169
11.0,0.013937778770923615
12.0,0.013437722809612751
13.0,0.012951922602951527
14.0,0.012494605034589767
15.0,0.012072836980223656
16.0,0.011700618080794811
18.0,0.01093451026827097
20.0,0.010186130180954933
22.0,0.009494185447692871
24.0,0.008924026973545551
26.0,0.008450182154774666
28.0,0.008026564493775368
30.0,0.007606145925819874
32.0,0.0072184838354587555
36.0,0.006434292532503605
40.0,0.005747151095420122
44.0,0.005282254423946142
48.0,0.004944204818457365
52.0,0.004577954299747944
56.0,0.004145216196775436
60.0,0.004092477727681398
64.0,0.0041222781874239445
72.0,0.004262143280357122
80.0,0.0042746770195662975
88.0,0.004323721397668123
96.0,0.004302334040403366
104.0,0.004096796736121178
112.0,0.003596143564209342
120.0,0.003416054882109165
128.0,0.003200962208211422
144.0,0.002760722767561674
160.0,0.0023627900518476963
176.0,0.002162749180570245
192.0,0.002608301118016243
208.0,0.002833344042301178
224.0,0.0027743217069655657
240.0,0.0016967281699180603
256.0,0.0006506115314550698
288.0,0.0012014362728223205
320.0,0.0015286133857443929
352.0,0.0008317350875586271
384.0,0.0007250321796163917
416.0,0.0008097095414996147
448.0,0.0011381516233086586
480.0,0.0011271729599684477
512.0,0.0010898932814598083
576.0,0.00116337847430259
640.0,-3.682582973851822e-05
704.0,-0.0005727280513383448
768.0,0.00020261303870938718
832.0,-0.00043421934242360294
896.0,0.001129578915424645
960.0,0.0005060014082118869
1024.0,-5.328852785169147e-05
1152.0,2.7319021683069877e-05
1280.0,-0.00030432542553171515
1408.0,0.0009311239700764418
1536.0,0.0015203449875116348
1664.0,0.0009563144412823021
1792.0,0.00021200401533860713
1920.0,-0.0001976214989554137
2048.0,-0.0003530391841195524
2304.0,-0.00033190377871505916
2560.0,-0.002309799659997225
2816.0,-0.0010840180329978466
3072.0,6.926292553544044e-05
3328.0,-0.0008128675981424749
3584.0,-0.0009080510935746133
3840.0,-0.00017176465189550072
4096.0,-0.0005338480114005506
4608.0,0.001603449578396976
5120.0,0.0007340831216424704
5632.0,-7.02335310052149e-05
6144.0,-0.00038121402030810714
6656.0,-0.00029809217085130513
7168.0,-0.0015472325030714273
7680.0,-0.0016624619020149112
8192.0,-0.002046825597062707
end
