version,3.0
numOfCh,1
type,point
parent_name,34766_0dot6-0dot1
ch_type,1_1
kcount,1
numberNandB,1
brightnessNandB,1
carpet pos,0
pc,0
Time (ms),CH1 Auto-Correlation
1.0,0.02461344562470913
2.0,0.023398304358124733
3.0,0.022293854504823685
4.0,0.02126348577439785
5.0,0.02038278616964817
6.0,0.01960061304271221
7.0,0.018824931234121323
8.0,0.01810779795050621
9.0,0.017466487362980843
10.0,0.016862493008375168
11.0,0.01629645563662052
12.0,0.01577567122876644
13.0,0.015290696173906326
14.0,0.014845514670014381
15.0,0.014433104544878006
16.0,0.014056040905416012
18.0,0.01350606232881546
20.0,0.013013484887778759
22.0,0.012559128925204277
24.0,0.012149959802627563
26.0,0.011783560737967491
28.0,0.01146930642426014
30.0,0.011165086179971695
32.0,0.010882515460252762
36.0,0.010281543247401714
40.0,0.009561557322740555
44.0,0.00881930161267519
48.0,0.007954603061079979
52.0,0.007056639529764652
56.0,0.006413772702217102
60.0,0.0060084168799221516
64.0,0.005732641089707613
72.0,0.0054167392663657665
80.0,0.004896778147667646
88.0,0.004385525360703468
96.0,0.0041556209325790405
104.0,0.004561651032418013
112.0,0.004580947570502758
120.0,0.004486994352191687
128.0,0.00405870983377099
144.0,0.0040096440352499485
160.0,0.004390884656459093
176.0,0.004550210200250149
192.0,0.00457116961479187
208.0,0.004573915619403124
224.0,0.004401123151183128
240.0,0.003504829714074731
256.0,0.003338034264743328
288.0,0.0019763426389545202
320.0,0.0015737756621092558
352.0,0.0014156994875520468
384.0,0.0017769723199307919
416.0,0.0028414642438292503
448.0,0.0025796287227422
480.0,0.001414752914570272
512.0,0.0014650283847004175
576.0,0.0023130595218390226
640.0,0.0010914241429418325
704.0,0.0017245960189029574
768.0,-0.00022042074124328792
832.0,-0.00010383539483882487
896.0,-0.00016171428433153778
960.0,0.0023422627709805965
1024.0,0.0012830934720113873
1152.0,0.0018522843020036817
1280.0,0.0008306778036057949
1408.0,0.0008576817926950753
1536.0,0.0019212831975892186
1664.0,0.0012002353323623538
1792.0,-0.0010121134109795094
1920.0,8.334583253599703e-05
2048.0,0.0017753050196915865
2304.0,0.001380794681608677
2560.0,0.0001049515776685439
2816.0,-0.0005356994806788862
3072.0,-0.0013036655727773905
3328.0,-0.0006890345248393714
3584.0,0.0004910044372081757
3840.0,-0.00035530218156054616
4096.0,-0.0007947779376991093
4608.0,-8.0341640568804e-05
5120.0,0.0020165080204606056
5632.0,-0.0003345395962242037
6144.0,-3.540726766004809e-06
6656.0,-0.0004924929235130548
7168.0,-0.0030107335187494755
7680.0,-0.00429501011967659
8192.0,-0.0026851659640669823
end
