version,3.0
numOfCh,1
type,point
parent_name,dirty_0dot6-0dot1
ch_type,1_1
kcount,1
numberNandB,1
brightnessNandB,1
carpet pos,0
pc,0
Time (ms),CH1 Auto-Correlation
1.0,0.20480769872665405
2.0,0.20203115046024323
3.0,0.19939512014389038
4.0,0.19691576063632965
5.0,0.19456902146339417
6.0,0.1921313852071762
7.0,0.18984845280647278
8.0,0.18790268898010254
9.0,0.1860184669494629
10.0,0.1842195838689804
11.0,0.18238429725170135
12.0,0.18063132464885712
13.0,0.17901325225830078
14.0,0.1773037314414978
15.0,0.1754673421382904
16.0,0.17365548014640808
18.0,0.1699080616235733
20.0,0.1658823937177658
22.0,0.16183364391326904
24.0,0.15776079893112183
26.0,0.15389084815979004
28.0,0.15067227184772491
30.0,0.14767730236053467
32.0,0.14501641690731049
36.0,0.1396043598651886
40.0,0.13471437990665436
44.0,0.1301094889640808
48.0,0.12613166868686676
52.0,0.1221134215593338
56.0,0.1181483045220375
60.0,0.11433843523263931
64.0,0.11113158613443375
72.0,0.10369022935628891
80.0,0.09674272686243057
88.0,0.08948267251253128
96.0,0.08287902921438217
104.0,0.07762208580970764
112.0,0.07168547064065933
120.0,0.06586910039186478
128.0,0.059314046055078506
144.0,0.04795930162072182
160.0,0.03886302560567856
176.0,0.029806222766637802
192.0,0.021990058943629265
208.0,0.016076793894171715
224.0,0.010490726679563522
240.0,0.0049493624828755856
256.0,0.0008749992703087628
288.0,0.0015433757798746228
320.0,0.0035499194636940956
352.0,0.007321113720536232
384.0,0.010336010716855526
416.0,0.013132564723491669
448.0,0.019605867564678192
480.0,0.0318487249314785
512.0,0.04315755143761635
576.0,0.03679867833852768
640.0,0.029228027909994125
704.0,0.01516993623226881
768.0,0.00544931273907423
832.0,0.002827542135491967
896.0,-0.001588019309565425
960.0,0.0003966528456658125
1024.0,0.00889879185706377
1152.0,0.003070151899009943
1280.0,0.019620105624198914
1408.0,0.014669807627797127
1536.0,0.014949764125049114
1664.0,0.03359374776482582
1792.0,0.05231024697422981
1920.0,0.032438043504953384
2048.0,0.007880594581365585
2304.0,0.011626463383436203
2560.0,-0.0009986258810386062
2816.0,0.00972595252096653
3072.0,0.015959370881319046
3328.0,0.015678975731134415
3584.0,0.03252112865447998
3840.0,0.016209980472922325
4096.0,0.0059163267724215984
4608.0,-0.00442985724657774
5120.0,-0.00549953943118453
5632.0,-0.005224171094596386
6144.0,-0.006966587156057358
6656.0,-0.011140617541968822
7168.0,-0.008095485158264637
7680.0,-0.013983327895402908
8192.0,-0.017777100205421448
9216.0,-0.016082540154457092
10240.0,-0.021969642490148544
11264.0,-0.034210242331027985
12288.0,-0.033942338079214096
13312.0,-0.02027585729956627
14336.0,-0.03772677108645439
end
