version,3.0
numOfCh,1
type,point
parent_name,dirty_0dot6-0dot1
ch_type,1_1
kcount,1
numberNandB,1
brightnessNandB,1
carpet pos,0
pc,0
Time (ms),CH1 Auto-Correlation
1.0,0.25725695490837097
2.0,0.25420626997947693
3.0,0.2511725127696991
4.0,0.24818089604377747
5.0,0.2451600730419159
6.0,0.24221709370613098
7.0,0.2392333298921585
8.0,0.23631542921066284
9.0,0.23350539803504944
10.0,0.2307121306657791
11.0,0.22797153890132904
12.0,0.22533506155014038
13.0,0.2227635681629181
14.0,0.220391646027565
15.0,0.21787938475608826
16.0,0.2153519243001938
18.0,0.21012058854103088
20.0,0.20493367314338684
22.0,0.19965046644210815
24.0,0.19521403312683105
26.0,0.19118425250053406
28.0,0.18761856853961945
30.0,0.18430426716804504
32.0,0.18123939633369446
36.0,0.17556814849376678
40.0,0.17021022737026215
44.0,0.16539649665355682
48.0,0.16151653230190277
52.0,0.1588488519191742
56.0,0.15664754807949066
60.0,0.15404458343982697
64.0,0.15157966315746307
72.0,0.1465170979499817
80.0,0.13970839977264404
88.0,0.13226304948329926
96.0,0.12410488724708557
104.0,0.11425638198852539
112.0,0.10576590150594711
120.0,0.09632420539855957
128.0,0.0884648934006691
144.0,0.07658502459526062
160.0,0.07024132460355759
176.0,0.06319496035575867
192.0,0.053619496524333954
208.0,0.0451868437230587
224.0,0.04185686632990837
240.0,0.04224437102675438
256.0,0.04311986640095711
288.0,0.04230508953332901
320.0,0.0402536503970623
352.0,0.03348269313573837
384.0,0.027057642117142677
416.0,0.02266870066523552
448.0,0.01841793768107891
480.0,0.015119045041501522
512.0,0.013530944474041462
576.0,0.009781601838767529
640.0,0.004814867861568928
704.0,0.0018629126716405153
768.0,0.006324361078441143
832.0,0.01754782907664776
896.0,0.022136330604553223
960.0,0.017935438081622124
1024.0,0.010146057233214378
1152.0,0.008141784928739071
1280.0,0.0008427364518865943
1408.0,-0.011202146299183369
1536.0,-0.016435498371720314
1664.0,-0.0179684367030859
1792.0,-0.016475632786750793
1920.0,-0.018192416056990623
2048.0,-0.00891841296106577
2304.0,-0.01446557603776455
2560.0,-0.018215632066130638
2816.0,-0.018204299733042717
3072.0,-0.008449082262814045
3328.0,-0.008145562373101711
3584.0,-0.02284395880997181
3840.0,-0.02377118356525898
4096.0,-0.02000504918396473
4608.0,-0.02267138473689556
5120.0,0.030288930982351303
5632.0,-0.0016469024121761322
6144.0,0.0004350974049884826
6656.0,-0.010810795240104198
7168.0,0.012776697985827923
7680.0,0.016968926414847374
8192.0,0.03040127083659172
9216.0,-0.028972415253520012
10240.0,-0.03338854759931564
11264.0,-0.029778651893138885
12288.0,0.0023936638608574867
13312.0,0.09381020814180374
14336.0,0.005419404245913029
end
