version,3.0
numOfCh,1
type,point
parent_name,dirty_0dot6-0dot1
ch_type,1_1
kcount,1
numberNandB,1
brightnessNandB,1
carpet pos,0
pc,0
Time (ms),CH1 Auto-Correlation
1.0,0.2597068250179291
2.0,0.25683102011680603
3.0,0.25400424003601074
4.0,0.2511996626853943
5.0,0.2484060376882553
6.0,0.24567686021327972
7.0,0.24296477437019348
8.0,0.2403382658958435
9.0,0.2377072125673294
10.0,0.23514601588249207
11.0,0.23270370066165924
12.0,0.23031263053417206
13.0,0.22815853357315063
14.0,0.22611857950687408
15.0,0.2240801304578781
16.0,0.22215788066387177
18.0,0.21824602782726288
20.0,0.21448546648025513
22.0,0.21089325845241547
24.0,0.20743349194526672
26.0,0.20385994017124176
28.0,0.20054328441619873
30.0,0.19734863936901093
32.0,0.19409611821174622
36.0,0.18803179264068604
40.0,0.18242892622947693
44.0,0.1773439645767212
48.0,0.17249295115470886
52.0,0.16794465482234955
56.0,0.16409024596214294
60.0,0.16069893538951874
64.0,0.1575651913881302
72.0,0.15139545500278473
80.0,0.14645344018936157
88.0,0.14250575006008148
96.0,0.1392163187265396
104.0,0.13566634058952332
112.0,0.13239407539367676
120.0,0.1294078230857849
128.0,0.12844474613666534
144.0,0.12321337312459946
160.0,0.11556398868560791
176.0,0.10840796679258347
192.0,0.1046983152627945
208.0,0.09863030910491943
224.0,0.09218012541532516
240.0,0.08773510903120041
256.0,0.08219808340072632
288.0,0.06849536299705505
320.0,0.05950261279940605
352.0,0.052626486867666245
384.0,0.045450951904058456
416.0,0.03431719169020653
448.0,0.024197211489081383
480.0,0.01996510848402977
512.0,0.015510517172515392
576.0,0.011529030278325081
640.0,0.020694902166724205
704.0,0.010042219422757626
768.0,0.011280867271125317
832.0,0.010056541301310062
896.0,0.004489075392484665
960.0,0.007335737347602844
1024.0,0.00017105333972722292
1152.0,0.0066646733321249485
1280.0,0.012935672886669636
1408.0,0.015678077936172485
1536.0,0.03313570097088814
1664.0,0.04795365035533905
1792.0,0.055748604238033295
1920.0,0.06647366285324097
2048.0,0.05267854034900665
2304.0,0.013974245637655258
2560.0,-0.01101046521216631
2816.0,-0.007024671882390976
3072.0,-0.007496421225368977
3328.0,0.006778327282518148
3584.0,0.010181447491049767
3840.0,0.016064776107668877
4096.0,0.015586268156766891
4608.0,-0.04197806864976883
5120.0,-0.015690341591835022
5632.0,-0.03516634553670883
6144.0,-0.05304402485489845
6656.0,-0.03165837749838829
7168.0,-0.03881022706627846
7680.0,-0.03714892268180847
8192.0,-0.02410283125936985
9216.0,-0.029201991856098175
10240.0,-0.02410644106566906
11264.0,0.0062307086773216724
12288.0,0.021655753254890442
13312.0,0.0315188467502594
14336.0,0.03618060424923897
end
