version,3.0
numOfCh,1
type,point
parent_name,dirty_0dot6-0dot1
ch_type,1_1
kcount,1
numberNandB,1
brightnessNandB,1
carpet pos,0
pc,0
Time (ms),CH1 Auto-Correlation
1.0,0.42222270369529724
2.0,0.41752561926841736
3.0,0.41269823908805847
4.0,0.40790632367134094
5.0,0.4034945070743561
6.0,0.3990921378135681
7.0,0.39473700523376465
8.0,0.3907521963119507
9.0,0.38724082708358765
10.0,0.3839612305164337
11.0,0.3807171881198883
12.0,0.37774544954299927
13.0,0.37467047572135925
14.0,0.3716157376766205
15.0,0.368615984916687
16.0,0.365762323141098
18.0,0.36019167304039
20.0,0.35479381680488586
22.0,0.35038426518440247
24.0,0.3459775745868683
26.0,0.34116581082344055
28.0,0.3362228274345398
30.0,0.33112967014312744
32.0,0.32558196783065796
36.0,0.3143656551837921
40.0,0.3029303252696991
44.0,0.2924160659313202
48.0,0.2820259928703308
52.0,0.2711588740348816
56.0,0.2614109218120575
60.0,0.2532188296318054
64.0,0.24467426538467407
72.0,0.22674508392810822
80.0,0.20866751670837402
88.0,0.1930503100156784
96.0,0.1792220026254654
104.0,0.1684248298406601
112.0,0.1589166522026062
120.0,0.14982911944389343
128.0,0.14143505692481995
144.0,0.12618333101272583
160.0,0.11159136891365051
176.0,0.10309451073408127
192.0,0.09489138424396515
208.0,0.08598653227090836
224.0,0.0790494754910469
240.0,0.07878148555755615
256.0,0.08063127100467682
288.0,0.0846506804227829
320.0,0.0811091810464859
352.0,0.07040941715240479
384.0,0.07122724503278732
416.0,0.07515067607164383
448.0,0.07597014307975769
480.0,0.06442567706108093
512.0,0.03497198596596718
576.0,-0.005180433392524719
640.0,-0.023325836285948753
704.0,-0.027798036113381386
768.0,-0.022839535027742386
832.0,-0.03353075683116913
896.0,-0.04308860003948212
960.0,-0.049188800156116486
1024.0,-0.05514785274863243
1152.0,-0.042124196887016296
1280.0,-0.03521529957652092
1408.0,-0.05194620043039322
1536.0,-0.05228060483932495
1664.0,-0.04804449900984764
1792.0,-0.052857618778944016
1920.0,-0.019767528399825096
2048.0,-0.0012143256608396769
2304.0,-0.013739550486207008
2560.0,-0.04832243174314499
2816.0,-0.05037433281540871
3072.0,-0.01319895964115858
3328.0,0.08194921910762787
3584.0,0.1401103287935257
3840.0,0.10032065212726593
4096.0,0.05912947654724121
4608.0,-0.014664172194898129
5120.0,-0.06652698665857315
5632.0,-0.04243906959891319
6144.0,-0.027436519041657448
6656.0,-0.01195042859762907
7168.0,0.03932223841547966
7680.0,0.04804427549242973
8192.0,-0.025969114154577255
9216.0,-0.038834478706121445
10240.0,0.029832307249307632
11264.0,0.004025083966553211
12288.0,-0.026913296431303024
13312.0,0.009088574908673763
14336.0,0.04925455152988434
end
