version,3.0
numOfCh,1
type,point
parent_name,dirty_0dot6-0dot1
ch_type,1_1
kcount,1
numberNandB,1
brightnessNandB,1
carpet pos,0
pc,0
Time (ms),CH1 Auto-Correlation
1.0,0.08601263165473938
2.0,0.08390802890062332
3.0,0.0819321945309639
4.0,0.08011534810066223
5.0,0.07827798277139664
6.0,0.07647990435361862
7.0,0.07488079369068146
8.0,0.0733792632818222
9.0,0.07190349698066711
10.0,0.07042724639177322
11.0,0.06902464479207993
12.0,0.06760211288928986
13.0,0.06615812331438065
14.0,0.0648704320192337
15.0,0.06371388584375381
16.0,0.06251134723424911
18.0,0.0602521151304245
20.0,0.05833735316991806
22.0,0.05654212832450867
24.0,0.05487586930394173
26.0,0.05338418856263161
28.0,0.0519440621137619
30.0,0.05076366290450096
32.0,0.04977226257324219
36.0,0.04763314127922058
40.0,0.045779161155223846
44.0,0.04399152845144272
48.0,0.04247191175818443
52.0,0.04117362201213837
56.0,0.03940582647919655
60.0,0.0371980257332325
64.0,0.03521674871444702
72.0,0.03217772766947746
80.0,0.029795875772833824
88.0,0.0288628451526165
96.0,0.029014945030212402
104.0,0.029610268771648407
112.0,0.029892567545175552
120.0,0.02997099794447422
128.0,0.02982822246849537
144.0,0.02751019597053528
160.0,0.026099229231476784
176.0,0.024457022547721863
192.0,0.02307985909283161
208.0,0.021291013807058334
224.0,0.01767684333026409
240.0,0.015097716823220253
256.0,0.013769489713013172
288.0,0.010715311393141747
320.0,0.009494056925177574
352.0,0.010285458527505398
384.0,0.011217126622796059
416.0,0.009804998524487019
448.0,0.009844549931585789
480.0,0.011687036603689194
512.0,0.011611736379563808
576.0,0.010099729523062706
640.0,0.006299431435763836
704.0,0.0018198136240243912
768.0,0.0014893404440954328
832.0,0.0006818033871240914
896.0,-0.0002144101308658719
960.0,-0.0001778869773261249
1024.0,-0.0007281405851244926
1152.0,-0.0051317838951945305
1280.0,-0.01058372762054205
1408.0,-0.010787195526063442
1536.0,-0.008628529496490955
1664.0,-0.00491360854357481
1792.0,-0.007355439942330122
1920.0,-0.008104057982563972
2048.0,-0.0053062643855810165
2304.0,0.0007431255071423948
2560.0,0.01008386630564928
2816.0,0.015516996383666992
3072.0,0.007654321845620871
3328.0,0.006387052591890097
3584.0,0.006676411721855402
3840.0,-0.0026926209684461355
4096.0,-0.009055077098309994
4608.0,-0.00016962894005700946
5120.0,-0.0019357760902494192
5632.0,0.0006984925712458789
6144.0,-0.0009008270571939647
6656.0,-0.0075706373900175095
7168.0,0.0007615081267431378
7680.0,0.0036893978249281645
8192.0,0.006270162761211395
9216.0,-0.006163890939205885
10240.0,-0.0020309791434556246
11264.0,-0.011285141110420227
12288.0,-0.008093838579952717
13312.0,-0.0005429114680737257
14336.0,-0.010666451416909695
end
