version,3.0
numOfCh,1
type,point
parent_name,dirty_0dot6-0dot1
ch_type,1_1
kcount,1
numberNandB,1
brightnessNandB,1
carpet pos,0
pc,0
Time (ms),CH1 Auto-Correlation
1.0,0.20898905396461487
2.0,0.20608115196228027
3.0,0.20313850045204163
4.0,0.20040613412857056
5.0,0.1976870745420456
6.0,0.19501937925815582
7.0,0.19267304241657257
8.0,0.19032932817935944
9.0,0.1880071759223938
10.0,0.1858147233724594
11.0,0.18380314111709595
12.0,0.1819232553243637
13.0,0.18011200428009033
14.0,0.17824579775333405
15.0,0.17644798755645752
16.0,0.17491601407527924
18.0,0.1717464029788971
20.0,0.16855187714099884
22.0,0.1659151017665863
24.0,0.16333021223545074
26.0,0.1602938026189804
28.0,0.1568608283996582
30.0,0.1532520055770874
32.0,0.1498471200466156
36.0,0.14327946305274963
40.0,0.13714104890823364
44.0,0.13101346790790558
48.0,0.12480705976486206
52.0,0.11875380575656891
56.0,0.11306366324424744
60.0,0.10797250270843506
64.0,0.10328135639429092
72.0,0.09406987577676773
80.0,0.08598794788122177
88.0,0.08184200525283813
96.0,0.07982020080089569
104.0,0.07892394810914993
112.0,0.08014900237321854
120.0,0.08261391520500183
128.0,0.08503568917512894
144.0,0.08568662405014038
160.0,0.0848783329129219
176.0,0.08152201026678085
192.0,0.07793412357568741
208.0,0.0727107897400856
224.0,0.06912059336900711
240.0,0.06801655888557434
256.0,0.06801452487707138
288.0,0.06388991326093674
320.0,0.049767397344112396
352.0,0.0302827600389719
384.0,0.015923282131552696
416.0,0.0147364791482687
448.0,0.023493507876992226
480.0,0.030435709282755852
512.0,0.025832682847976685
576.0,0.00934891402721405
640.0,0.004594904836267233
704.0,0.001992044970393181
768.0,0.003362551098689437
832.0,0.004914618097245693
896.0,0.00044365893700160086
960.0,0.0015685962280258536
1024.0,-0.00014630185614805669
1152.0,0.004184928722679615
1280.0,0.005234652664512396
1408.0,-0.00037653883919119835
1536.0,-0.0055306777358055115
1664.0,-0.00918939895927906
1792.0,-0.009844547137618065
1920.0,-0.012554371729493141
2048.0,-0.009919879026710987
2304.0,-0.007282600272446871
2560.0,-0.008987711742520332
2816.0,-0.014506738632917404
3072.0,-0.017037834972143173
3328.0,-0.01897692121565342
3584.0,-0.01983065903186798
3840.0,-0.014457414858043194
4096.0,-0.01209551002830267
4608.0,-5.4208885558182374e-05
5120.0,-0.004320365842431784
5632.0,-0.001422098372131586
6144.0,-0.007887140847742558
6656.0,-0.006293936166912317
7168.0,-0.009363049641251564
7680.0,-0.021885063499212265
8192.0,-0.015979599207639694
9216.0,-0.012582620605826378
10240.0,0.032106149941682816
11264.0,0.056413933634757996
12288.0,-0.009635829366743565
13312.0,-0.023974083364009857
14336.0,-0.037410587072372437
end
