version,3.0
numOfCh,1
type,point
parent_name,dirty_0dot6-0dot1
ch_type,1_1
kcount,1
numberNandB,1
brightnessNandB,1
carpet pos,0
pc,0
Time (ms),CH1 Auto-Correlation
1.0,0.18752476572990417
2.0,0.18479111790657043
3.0,0.1822194904088974
4.0,0.17969803512096405
5.0,0.1772809624671936
6.0,0.1749299168586731
7.0,0.17261557281017303
8.0,0.1705012321472168
9.0,0.16850271821022034
10.0,0.16648748517036438
11.0,0.16458147764205933
12.0,0.1627425104379654
13.0,0.16095076501369476
14.0,0.15918360650539398
15.0,0.15743739902973175
16.0,0.15575551986694336
18.0,0.1524146944284439
20.0,0.14924262464046478
22.0,0.14640595018863678
24.0,0.14377734065055847
26.0,0.14134982228279114
28.0,0.13891202211380005
30.0,0.13642485439777374
32.0,0.13377611339092255
36.0,0.12863515317440033
40.0,0.12400134652853012
44.0,0.11946655064821243
48.0,0.11507023870944977
52.0,0.11096249520778656
56.0,0.10661822557449341
60.0,0.10202424228191376
64.0,0.097680002450943
72.0,0.09067598730325699
80.0,0.08474776893854141
88.0,0.07847845554351807
96.0,0.07191739231348038
104.0,0.06685235351324081
112.0,0.06269146502017975
120.0,0.05954226851463318
128.0,0.05582628399133682
144.0,0.047608304768800735
160.0,0.0411401093006134
176.0,0.03371719270944595
192.0,0.027247322723269463
208.0,0.023582754656672478
224.0,0.020710017532110214
240.0,0.01871100440621376
256.0,0.016949927434325218
288.0,0.011254598386585712
320.0,0.006680049002170563
352.0,0.003597549395635724
384.0,0.0020784775260835886
416.0,-0.0035129606258124113
448.0,-0.008352731354534626
480.0,-0.007877868600189686
512.0,-0.00453550647944212
576.0,-0.0022322300355881453
640.0,-0.0010141588281840086
704.0,-0.0028290031477808952
768.0,-0.009270822629332542
832.0,-0.015936914831399918
896.0,-0.019063809886574745
960.0,-0.015017502941191196
1024.0,0.001854017609730363
1152.0,0.0039490289054811
1280.0,-0.013915013521909714
1408.0,-0.022977611050009727
1536.0,-0.024024957790970802
1664.0,0.0033966288901865482
1792.0,0.005464212037622929
1920.0,0.007852058857679367
2048.0,-0.004454207140952349
2304.0,0.021694226190447807
2560.0,0.00076850107870996
2816.0,-0.00273880478926003
3072.0,-0.014517812989652157
3328.0,-0.021307846531271935
3584.0,-0.017738264054059982
3840.0,-0.01753179542720318
4096.0,-0.0035647330805659294
4608.0,0.0018894930835813284
5120.0,0.0018153260461986065
5632.0,-0.004842999391257763
6144.0,0.0050113932229578495
6656.0,0.011783081106841564
7168.0,0.0048353467136621475
7680.0,0.007650868967175484
8192.0,-0.01364254578948021
9216.0,-0.003998117987066507
10240.0,-0.013580153696238995
11264.0,0.0009107535588555038
12288.0,0.009644504636526108
13312.0,-0.006495536305010319
14336.0,0.04188457503914833
end
