version,3.0
numOfCh,1
type,point
parent_name,dirty_0dot6-0dot1
ch_type,1_1
kcount,1
numberNandB,1
brightnessNandB,1
carpet pos,0
pc,0
Time (ms),CH1 Auto-Correlation
1.0,0.13385584950447083
2.0,0.1316889524459839
3.0,0.1296200454235077
4.0,0.1276099979877472
5.0,0.12574297189712524
6.0,0.12397868931293488
7.0,0.12223020941019058
8.0,0.12051108479499817
9.0,0.11876317858695984
10.0,0.11715862154960632
11.0,0.11559133976697922
12.0,0.1141309067606926
13.0,0.11268781870603561
14.0,0.11114963889122009
15.0,0.1094823107123375
16.0,0.10785648226737976
18.0,0.1046808734536171
20.0,0.10180595517158508
22.0,0.09904462099075317
24.0,0.0964590460062027
26.0,0.09395802021026611
28.0,0.09155959635972977
30.0,0.08928396552801132
32.0,0.08714001625776291
36.0,0.0828055590391159
40.0,0.07809022814035416
44.0,0.07379583269357681
48.0,0.06972131878137589
52.0,0.06593259423971176
56.0,0.06243233382701874
60.0,0.059077274054288864
64.0,0.05584974214434624
72.0,0.04991595074534416
80.0,0.044366203248500824
88.0,0.039906129240989685
96.0,0.03631303459405899
104.0,0.03211688622832298
112.0,0.02890205942094326
120.0,0.02672448381781578
128.0,0.024486184120178223
144.0,0.0213451087474823
160.0,0.019810516387224197
176.0,0.014752693474292755
192.0,0.010013377293944359
208.0,0.010816890746355057
224.0,0.013437245972454548
240.0,0.015060137026011944
256.0,0.015002996660768986
288.0,0.015953030437231064
320.0,0.02174362726509571
352.0,0.02622016705572605
384.0,0.02252187579870224
416.0,0.011731516569852829
448.0,0.0022274190559983253
480.0,-0.00372530915774405
512.0,-0.00939671415835619
576.0,-0.008592874743044376
640.0,-0.004306181333959103
704.0,0.003314090659841895
768.0,0.008576307445764542
832.0,0.0021921570878475904
896.0,0.00114185840357095
960.0,0.0034077430609613657
1024.0,0.005670377518981695
1152.0,0.011087414808571339
1280.0,0.010673688724637032
1408.0,-0.0001544294209452346
1536.0,0.011760505847632885
1664.0,0.025063037872314453
1792.0,0.014410876668989658
1920.0,0.024026138707995415
2048.0,0.008047463372349739
2304.0,0.0041818805038928986
2560.0,-0.005826068576425314
2816.0,-0.005890193860977888
3072.0,-0.0030660806223750114
3328.0,0.0036933801602572203
3584.0,0.010232565924525261
3840.0,-0.005254548508673906
4096.0,-0.012467482127249241
4608.0,-0.017214491963386536
5120.0,-0.010713544674217701
5632.0,-0.012030838057398796
6144.0,-0.017459822818636894
6656.0,-0.014236178249120712
7168.0,-0.004003793001174927
7680.0,-0.010848554782569408
8192.0,-0.006980586796998978
9216.0,0.0004070688446518034
10240.0,0.006221031304448843
11264.0,0.0075363400392234325
12288.0,0.007159237749874592
13312.0,0.005279763136059046
14336.0,0.00565501069650054
end
