version,3.0
numOfCh,1
type,point
parent_name,dirty_0dot6-0dot1
ch_type,1_1
kcount,1
numberNandB,1
brightnessNandB,1
carpet pos,0
pc,0
Time (ms),CH1 Auto-Correlation
1.0,0.2556772828102112
2.0,0.2527092695236206
3.0,0.24977418780326843
4.0,0.2469082474708557
5.0,0.2441435605287552
6.0,0.24146023392677307
7.0,0.2389211803674698
8.0,0.23641803860664368
9.0,0.23395143449306488
10.0,0.23147432506084442
11.0,0.2291262447834015
12.0,0.22683383524417877
13.0,0.22467562556266785
14.0,0.22266748547554016
15.0,0.22081030905246735
16.0,0.21905502676963806
18.0,0.21585246920585632
20.0,0.21286869049072266
22.0,0.21010732650756836
24.0,0.20744699239730835
26.0,0.20494191348552704
28.0,0.2025659829378128
30.0,0.20013339817523956
32.0,0.19795648753643036
36.0,0.19409488141536713
40.0,0.19058072566986084
44.0,0.18754655122756958
48.0,0.18400271236896515
52.0,0.18048298358917236
56.0,0.17659300565719604
60.0,0.17238971590995789
64.0,0.16832101345062256
72.0,0.16153636574745178
80.0,0.15333327651023865
88.0,0.1463811993598938
96.0,0.14012542366981506
104.0,0.1333339363336563
112.0,0.1266309767961502
120.0,0.1220112070441246
128.0,0.12015858292579651
144.0,0.11613558232784271
160.0,0.11055827885866165
176.0,0.10359205305576324
192.0,0.09990112483501434
208.0,0.09674728661775589
224.0,0.09074127674102783
240.0,0.08544820547103882
256.0,0.08180731534957886
288.0,0.07513923197984695
320.0,0.06822310388088226
352.0,0.06327537447214127
384.0,0.05470210313796997
416.0,0.0507781058549881
448.0,0.048808660358190536
480.0,0.04624325409531593
512.0,0.03811085969209671
576.0,0.024991072714328766
640.0,0.027449587360024452
704.0,0.018606649711728096
768.0,0.007563958875834942
832.0,0.008771763183176517
896.0,0.0160228181630373
960.0,0.00962745863944292
1024.0,-0.0013834552373737097
1152.0,-0.004153180401772261
1280.0,-0.01529741007834673
1408.0,-0.020118603482842445
1536.0,-0.016789155080914497
1664.0,-0.013902412727475166
1792.0,-0.020526258274912834
1920.0,-0.016176285222172737
2048.0,-0.00629151426255703
2304.0,0.014584041200578213
2560.0,0.004986331798136234
2816.0,-0.016296682879328728
3072.0,-0.0015203221701085567
3328.0,0.011379015631973743
3584.0,0.012556007131934166
3840.0,0.01881866529583931
4096.0,0.024540573358535767
4608.0,-0.011405493132770061
5120.0,-0.02866474911570549
5632.0,-0.041335731744766235
6144.0,-0.03194202110171318
6656.0,0.014422102831304073
7168.0,0.0030347139108926058
7680.0,0.0024791478645056486
8192.0,-0.014836830087006092
9216.0,-0.030771512538194656
10240.0,-0.03129355236887932
11264.0,-0.02622385136783123
12288.0,0.02295016683638096
13312.0,0.05174674838781357
14336.0,-0.0011971755884587765
end
