version,3.0
numOfCh,1
type,point
parent_name,dirty_0dot6-0dot1
ch_type,1_1
kcount,1
numberNandB,1
brightnessNandB,1
carpet pos,0
pc,0
Time (ms),CH1 Auto-Correlation
1.0,0.32867494225502014
2.0,0.32512545585632324
3.0,0.32138991355895996
4.0,0.31748825311660767
5.0,0.3137357234954834
6.0,0.309949666261673
7.0,0.3063255548477173
8.0,0.302938848733902
9.0,0.2997710406780243
10.0,0.29695090651512146
11.0,0.29431620240211487
12.0,0.2917660176753998
13.0,0.28916144371032715
14.0,0.2867535650730133
15.0,0.28439968824386597
16.0,0.28205937147140503
18.0,0.27759650349617004
20.0,0.27363499999046326
22.0,0.2701755464076996
24.0,0.26685768365859985
26.0,0.2639445960521698
28.0,0.26108238101005554
30.0,0.2581752836704254
32.0,0.2549971342086792
36.0,0.2486262023448944
40.0,0.2424914836883545
44.0,0.236328586935997
48.0,0.230911985039711
52.0,0.22728893160820007
56.0,0.2254968285560608
60.0,0.22405734658241272
64.0,0.22275452315807343
72.0,0.22221998870372772
80.0,0.22138698399066925
88.0,0.21784691512584686
96.0,0.21507899463176727
104.0,0.21044211089611053
112.0,0.2048908919095993
120.0,0.19830350577831268
128.0,0.18992429971694946
144.0,0.17604874074459076
160.0,0.17229825258255005
176.0,0.17176902294158936
192.0,0.16733098030090332
208.0,0.16071394085884094
224.0,0.1556340903043747
240.0,0.1546444296836853
256.0,0.15053747594356537
288.0,0.140636146068573
320.0,0.1316005140542984
352.0,0.12164400517940521
384.0,0.11358244717121124
416.0,0.11173176020383835
448.0,0.10230866074562073
480.0,0.09710698574781418
512.0,0.09331129491329193
576.0,0.07769852131605148
640.0,0.05572662502527237
704.0,0.04048220068216324
768.0,0.027403512969613075
832.0,0.022815244272351265
896.0,0.024288412183523178
960.0,0.019182587042450905
1024.0,0.005868273787200451
1152.0,-0.006877731066197157
1280.0,-0.003259325632825494
1408.0,-0.008306764997541904
1536.0,0.004367801360785961
1664.0,0.01551041379570961
1792.0,0.028505321592092514
1920.0,0.029608335345983505
2048.0,0.06043211743235588
2304.0,0.09504703432321548
2560.0,0.10142907500267029
2816.0,0.07542017847299576
3072.0,0.028118209913372993
3328.0,-0.014075606130063534
3584.0,-0.03262855485081673
3840.0,-0.024127226322889328
4096.0,-0.011942819692194462
4608.0,-0.002747883787378669
5120.0,-0.008390012197196484
5632.0,-0.025856690481305122
6144.0,-0.02545708790421486
6656.0,-0.023682275786995888
7168.0,-0.03230631351470947
7680.0,-0.03895646706223488
8192.0,-0.049663376063108444
9216.0,-0.02967328391969204
10240.0,-0.07568997144699097
11264.0,-0.06439505517482758
12288.0,-0.09450545907020569
13312.0,-0.032673921436071396
14336.0,-0.04450775310397148
end
