version,3.0
numOfCh,1
type,point
parent_name,dirty_0dot6-0dot1
ch_type,1_1
kcount,1
numberNandB,1
brightnessNandB,1
carpet pos,0
pc,0
Time (ms),CH1 Auto-Correlation
1.0,0.23083819448947906
2.0,0.22788584232330322
3.0,0.2250283807516098
4.0,0.22238348424434662
5.0,0.21977661550045013
6.0,0.21719102561473846
7.0,0.2147141546010971
8.0,0.21227946877479553
9.0,0.20983710885047913
10.0,0.20744052529335022
11.0,0.20512202382087708
12.0,0.2028193175792694
13.0,0.20066216588020325
14.0,0.19856011867523193
15.0,0.19657869637012482
16.0,0.19454938173294067
18.0,0.19050434231758118
20.0,0.18660594522953033
22.0,0.18286582827568054
24.0,0.17914575338363647
26.0,0.17557276785373688
28.0,0.17197459936141968
30.0,0.16851691901683807
32.0,0.16501213610172272
36.0,0.15833047032356262
40.0,0.1518872231245041
44.0,0.14593026041984558
48.0,0.1400999277830124
52.0,0.1343582719564438
56.0,0.12932205200195312
60.0,0.1254243552684784
64.0,0.12197555601596832
72.0,0.11504652351140976
80.0,0.10841117054224014
88.0,0.10329262167215347
96.0,0.09847486764192581
104.0,0.09353485703468323
112.0,0.08912676572799683
120.0,0.08405721932649612
128.0,0.0788443386554718
144.0,0.07021576911211014
160.0,0.06281573325395584
176.0,0.05438823625445366
192.0,0.046140335500240326
208.0,0.037569332867860794
224.0,0.028569981455802917
240.0,0.0215498935431242
256.0,0.01857205294072628
288.0,0.017126085236668587
320.0,0.007260443177074194
352.0,-0.00030623600468970835
384.0,-0.003971063066273928
416.0,-0.005002865567803383
448.0,-0.009697889909148216
480.0,-0.012798882089555264
512.0,-0.013850655406713486
576.0,-0.009746457450091839
640.0,-0.0031924687791615725
704.0,0.004403147846460342
768.0,-0.0015443090815097094
832.0,-0.008492201566696167
896.0,-0.011473758146166801
960.0,-0.008038287051022053
1024.0,-0.002706687431782484
1152.0,4.1971681639552116e-05
1280.0,-0.0011715496657416224
1408.0,0.0009560816688463092
1536.0,-0.0009042860474437475
1664.0,-0.0019123597303405404
1792.0,0.001306242193095386
1920.0,-0.010939723812043667
2048.0,-0.026182500645518303
2304.0,-0.015329449437558651
2560.0,-0.017554761841893196
2816.0,-0.006111417897045612
3072.0,0.019916215911507607
3328.0,0.012681565247476101
3584.0,0.018592189997434616
3840.0,-0.001983694266527891
4096.0,0.009445554576814175
4608.0,-0.026120372116565704
5120.0,0.01952454075217247
5632.0,-0.016151832416653633
6144.0,-0.03286399692296982
6656.0,-0.002801558468490839
7168.0,-0.013915657065808773
7680.0,0.009843778796494007
8192.0,-0.0051089138723909855
9216.0,-0.011562368832528591
10240.0,0.019409216940402985
11264.0,0.00032970853499136865
12288.0,-0.013790330849587917
13312.0,0.0004935073666274548
14336.0,0.0008643872570246458
end
