version,3.0
numOfCh,1
type,point
parent_name,dirty_0dot6-0dot1
ch_type,1_1
kcount,1
numberNandB,1
brightnessNandB,1
carpet pos,0
pc,0
Time (ms),CH1 Auto-Correlation
1.0,0.1132984533905983
2.0,0.11143241822719574
3.0,0.10963612794876099
4.0,0.10796798020601273
5.0,0.10646514594554901
6.0,0.10506567358970642
7.0,0.10370853543281555
8.0,0.10231514275074005
9.0,0.10112735629081726
10.0,0.0999913439154625
11.0,0.09887748211622238
12.0,0.09786301106214523
13.0,0.0968480110168457
14.0,0.09581560641527176
15.0,0.0948089137673378
16.0,0.09385745972394943
18.0,0.09206490963697433
20.0,0.09029232710599899
22.0,0.08859065175056458
24.0,0.08712716400623322
26.0,0.08583501726388931
28.0,0.08457988500595093
30.0,0.08343483507633209
32.0,0.08228352665901184
36.0,0.07956845313310623
40.0,0.07681447267532349
44.0,0.07407402247190475
48.0,0.07139381766319275
52.0,0.06862428039312363
56.0,0.06527690589427948
60.0,0.061753515154123306
64.0,0.05860346555709839
72.0,0.05293487757444382
80.0,0.04770674183964729
88.0,0.042701605707407
96.0,0.037546124309301376
104.0,0.03261999413371086
112.0,0.02898256666958332
120.0,0.026086213067173958
128.0,0.023367173969745636
144.0,0.01787649840116501
160.0,0.014483359642326832
176.0,0.012557084672152996
192.0,0.009907236322760582
208.0,0.007341999560594559
224.0,0.006398711819201708
240.0,0.005703335627913475
256.0,0.0040551647543907166
288.0,0.003062034957110882
320.0,0.003242052858695388
352.0,0.0016546081751585007
384.0,0.002199132926762104
416.0,0.004756533540785313
448.0,0.006356977391988039
480.0,0.008854376152157784
512.0,0.010129714384675026
576.0,0.005804357584565878
640.0,0.004258973058313131
704.0,0.00040029248339124024
768.0,-0.001311687403358519
832.0,0.004330917727202177
896.0,0.009035822935402393
960.0,0.004825284238904715
1024.0,-0.00047497631749138236
1152.0,-0.005711838137358427
1280.0,-0.0013310651993378997
1408.0,-0.0012299168156459928
1536.0,-0.0058649019338190556
1664.0,-0.005583691876381636
1792.0,-0.005006567109376192
1920.0,-0.00535342562943697
2048.0,0.001928125275298953
2304.0,0.0005251102265901864
2560.0,-0.006918113678693771
2816.0,-0.007395963650196791
3072.0,-0.016119632869958878
3328.0,-0.011945986188948154
3584.0,-0.011512146331369877
3840.0,-0.01223019603639841
4096.0,-0.008140896447002888
4608.0,0.0020322613418102264
5120.0,6.132214184617624e-05
5632.0,0.01871900074183941
6144.0,0.002363602165132761
6656.0,0.00987316481769085
7168.0,-0.0031492114067077637
7680.0,0.006961176637560129
8192.0,0.002682059071958065
9216.0,-0.009988943114876747
10240.0,-0.006273784674704075
11264.0,0.004904905334115028
12288.0,-0.008049344643950462
13312.0,0.01701032742857933
14336.0,-0.01975126750767231
end
