version,3.0
numOfCh,1
type,point
parent_name,dirty_0dot6-0dot1
ch_type,1_1
kcount,1
numberNandB,1
brightnessNandB,1
carpet pos,0
pc,0
Time (ms),CH1 Auto-Correlation
1.0,0.48464950919151306
2.0,0.480560839176178
3.0,0.4766688048839569
4.0,0.47305572032928467
5.0,0.4695635735988617
6.0,0.46607741713523865
7.0,0.46276727318763733
8.0,0.4595479369163513
9.0,0.45601555705070496
10.0,0.4527510404586792
11.0,0.44967585802078247
12.0,0.4465923607349396
13.0,0.44354531168937683
14.0,0.44051989912986755
15.0,0.4372677803039551
16.0,0.43409085273742676
18.0,0.4277695119380951
20.0,0.4217674136161804
22.0,0.4158654510974884
24.0,0.4104171395301819
26.0,0.4047328531742096
28.0,0.39930611848831177
30.0,0.3944825232028961
32.0,0.39054980874061584
36.0,0.3830471932888031
40.0,0.37615951895713806
44.0,0.3700299561023712
48.0,0.3643534183502197
52.0,0.35866349935531616
56.0,0.35316646099090576
60.0,0.34797874093055725
64.0,0.3415355682373047
72.0,0.33005619049072266
80.0,0.32007840275764465
88.0,0.310173362493515
96.0,0.2973502278327942
104.0,0.28373202681541443
112.0,0.27057188749313354
120.0,0.2608001232147217
128.0,0.2531135082244873
144.0,0.24041077494621277
160.0,0.22508837282657623
176.0,0.20919455587863922
192.0,0.1994386911392212
208.0,0.1920291930437088
224.0,0.18107792735099792
240.0,0.17083869874477386
256.0,0.16477707028388977
288.0,0.15528170764446259
320.0,0.13184913992881775
352.0,0.11228011548519135
384.0,0.08830650895833969
416.0,0.06372260302305222
448.0,0.047431301325559616
480.0,0.040057115256786346
512.0,0.03982148319482803
576.0,0.06087960675358772
640.0,0.07507959753274918
704.0,0.08226887136697769
768.0,0.08515165001153946
832.0,0.08340799063444138
896.0,0.09008786082267761
960.0,0.09001855552196503
1024.0,0.07300260663032532
1152.0,0.06016359105706215
1280.0,0.06398576498031616
1408.0,0.03564067557454109
1536.0,-0.001396266627125442
1664.0,-0.0206663366407156
1792.0,-0.05496063828468323
1920.0,-0.055074647068977356
2048.0,-0.04762844741344452
2304.0,-0.03743038326501846
2560.0,-0.034803520888090134
2816.0,-0.04200388491153717
3072.0,-0.04332821071147919
3328.0,-0.034094490110874176
3584.0,-0.03257270157337189
3840.0,-0.040705520659685135
4096.0,-0.048551999032497406
4608.0,-0.05033446103334427
5120.0,-0.01714346371591091
5632.0,0.00938893761485815
6144.0,0.04492759704589844
6656.0,0.10435634851455688
7168.0,0.0305667445063591
7680.0,-0.0734851136803627
8192.0,-0.08751394599676132
9216.0,-0.0795024111866951
10240.0,-0.06027090921998024
11264.0,0.009566712193191051
12288.0,0.0476401150226593
13312.0,0.095787413418293
14336.0,-0.08133211731910706
end
