version,3.0
numOfCh,1
type,point
parent_name,dirty_0dot6-0dot1
ch_type,1_1
kcount,1
numberNandB,1
brightnessNandB,1
carpet pos,0
pc,0
Time (ms),CH1 Auto-Correlation
1.0,0.10307621210813522
2.0,0.10137785971164703
3.0,0.09976988285779953
4.0,0.09828643500804901
5.0,0.09698516875505447
6.0,0.09568747878074646
7.0,0.0944288820028305
8.0,0.09330740571022034
9.0,0.09222813695669174
10.0,0.09119775891304016
11.0,0.09024118632078171
12.0,0.08932223170995712
13.0,0.08856526762247086
14.0,0.08776775747537613
15.0,0.08697786182165146
16.0,0.0862572193145752
18.0,0.08507516980171204
20.0,0.08399055898189545
22.0,0.08298017084598541
24.0,0.08198502659797668
26.0,0.08087052404880524
28.0,0.07975754886865616
30.0,0.0785551592707634
32.0,0.07756224274635315
36.0,0.07603155076503754
40.0,0.07425738126039505
44.0,0.0727185606956482
48.0,0.07188693434000015
52.0,0.07089176028966904
56.0,0.06984484195709229
60.0,0.06875665485858917
64.0,0.0676799863576889
72.0,0.06618568301200867
80.0,0.06506452709436417
88.0,0.06388655304908752
96.0,0.06246929615736008
104.0,0.0615791454911232
112.0,0.0595109798014164
120.0,0.05711493268609047
128.0,0.05429195240139961
144.0,0.04784413427114487
160.0,0.04353485628962517
176.0,0.04205501824617386
192.0,0.041124094277620316
208.0,0.03852467983961105
224.0,0.03639863803982735
240.0,0.033517494797706604
256.0,0.030171344056725502
288.0,0.025302540510892868
320.0,0.02075926586985588
352.0,0.014100708067417145
384.0,0.011354496702551842
416.0,0.01075117476284504
448.0,0.01137017272412777
480.0,0.010500566102564335
512.0,0.012774626724421978
576.0,0.012799317948520184
640.0,0.010167059488594532
704.0,0.010754450224339962
768.0,0.013859263621270657
832.0,0.01899108849465847
896.0,0.020651046186685562
960.0,0.02193155698478222
1024.0,0.019769033417105675
1152.0,0.010025568306446075
1280.0,0.002965809777379036
1408.0,-0.0005099974223412573
1536.0,-0.0002278182510053739
1664.0,-9.934835543390363e-05
1792.0,0.0013704892480745912
1920.0,0.0026885599363595247
2048.0,0.0014528927858918905
2304.0,0.00019095424795523286
2560.0,0.000346529355738312
2816.0,0.0009805556619539857
3072.0,-0.0007118068751879036
3328.0,-0.0024959116708487272
3584.0,-0.005175088532269001
3840.0,-0.002665189327672124
4096.0,-0.004902502987533808
4608.0,-0.007586938329041004
5120.0,-0.010169103741645813
5632.0,-0.007232927717268467
6144.0,-0.002854894381016493
6656.0,-0.0016773384995758533
7168.0,0.0012246848782524467
7680.0,-0.0016517105977982283
8192.0,0.0008061714470386505
9216.0,-0.0032865009270608425
10240.0,-0.0018673394806683064
11264.0,-0.002549718599766493
12288.0,-0.01772806979715824
13312.0,-0.019405635073781013
14336.0,-0.018202105537056923
end
