version,3.0
numOfCh,1
type,point
parent_name,dirty_0dot6-0dot1
ch_type,1_1
kcount,1
numberNandB,1
brightnessNandB,1
carpet pos,0
pc,0
Time (ms),CH1 Auto-Correlation
1.0,0.062454257160425186
2.0,0.06084442138671875
3.0,0.05934499576687813
4.0,0.057934559881687164
5.0,0.05659647658467293
6.0,0.05527197942137718
7.0,0.05404913052916527
8.0,0.052841681987047195
9.0,0.051643840968608856
10.0,0.05056802183389664
11.0,0.04949960112571716
12.0,0.04846249520778656
13.0,0.04743974283337593
14.0,0.04646957665681839
15.0,0.04554084688425064
16.0,0.04463261365890503
18.0,0.042879823595285416
20.0,0.04119936749339104
22.0,0.03967011347413063
24.0,0.03827369958162308
26.0,0.0369231291115284
28.0,0.03570622205734253
30.0,0.03459881246089935
32.0,0.033603571355342865
36.0,0.03204966336488724
40.0,0.030616898089647293
44.0,0.029304472729563713
48.0,0.0280939768999815
52.0,0.02679351717233658
56.0,0.025479480624198914
60.0,0.024320824071764946
64.0,0.0232706181704998
72.0,0.02121780812740326
80.0,0.019209811463952065
88.0,0.01791105605661869
96.0,0.01669645495712757
104.0,0.015750179067254066
112.0,0.015504507347941399
120.0,0.01534106582403183
128.0,0.01587652787566185
144.0,0.017728038132190704
160.0,0.016939135268330574
176.0,0.014402264729142189
192.0,0.012019491754472256
208.0,0.01093470212072134
224.0,0.010850497521460056
240.0,0.010079792700707912
256.0,0.009176865220069885
288.0,0.006282995454967022
320.0,0.005078094080090523
352.0,0.005627613049000502
384.0,0.0058722468093037605
416.0,0.004457172006368637
448.0,0.0029058316722512245
480.0,0.002421129262074828
512.0,0.004211768973618746
576.0,0.0028555707540363073
640.0,0.0005597343551926315
704.0,0.0012927550124004483
768.0,0.0008432051399722695
832.0,0.0022388030774891376
896.0,0.002282588742673397
960.0,0.0018168576061725616
1024.0,0.000913319003302604
1152.0,0.0021771322935819626
1280.0,-0.0022226234432309866
1408.0,-0.0038874931633472443
1536.0,-0.0021624581422656775
1664.0,0.0014640886802226305
1792.0,-0.00029243488097563386
1920.0,-0.0030011790804564953
2048.0,-0.0026139505207538605
2304.0,-0.002438571071252227
2560.0,-0.0037403625901788473
2816.0,-0.0006168801337480545
3072.0,-0.0001614476932445541
3328.0,-0.0011083385907113552
3584.0,0.0007737833075225353
3840.0,0.009971940889954567
4096.0,0.006456820759922266
4608.0,-3.437300256337039e-05
5120.0,-0.0023575436789542437
5632.0,0.0023497161455452442
6144.0,0.0023797720205038786
6656.0,0.00044494628673419356
7168.0,-0.00043556082528084517
7680.0,-0.0032777832821011543
8192.0,-0.005417776759713888
9216.0,0.0005791456205770373
10240.0,-0.0005398489884100854
11264.0,-0.008359214290976524
12288.0,-0.0047761849127709866
13312.0,-0.0011084830621257424
14336.0,-0.006323866546154022
end
