version,3.0
numOfCh,1
type,point
parent_name,dirty_0dot6-0dot1
ch_type,1_1
kcount,1
numberNandB,1
brightnessNandB,1
carpet pos,0
pc,0
Time (ms),CH1 Auto-Correlation
1.0,0.13104377686977386
2.0,0.12901939451694489
3.0,0.1271713674068451
4.0,0.1254427284002304
5.0,0.1236952394247055
6.0,0.12194418907165527
7.0,0.12025623768568039
8.0,0.11864511668682098
9.0,0.11708495765924454
10.0,0.11551391333341599
11.0,0.11411578208208084
12.0,0.11283183842897415
13.0,0.11159782111644745
14.0,0.11031898111104965
15.0,0.10904198884963989
16.0,0.10787376761436462
18.0,0.1057993695139885
20.0,0.1038990393280983
22.0,0.10207249224185944
24.0,0.10015956312417984
26.0,0.09832599759101868
28.0,0.09649742394685745
30.0,0.09483560919761658
32.0,0.0932215005159378
36.0,0.09004130214452744
40.0,0.08706653118133545
44.0,0.08410109579563141
48.0,0.08133961260318756
52.0,0.0788196548819542
56.0,0.07670093327760696
60.0,0.07458139210939407
64.0,0.07232332229614258
72.0,0.06766081601381302
80.0,0.06345275789499283
88.0,0.059743732213974
96.0,0.056392405182123184
104.0,0.053145118057727814
112.0,0.049871157854795456
120.0,0.04795823618769646
128.0,0.0462433323264122
144.0,0.04382746294140816
160.0,0.040680382400751114
176.0,0.03602750226855278
192.0,0.03243574872612953
208.0,0.030907530337572098
224.0,0.02991965226829052
240.0,0.029071418568491936
256.0,0.026719629764556885
288.0,0.018670490011572838
320.0,0.011995387263596058
352.0,0.007922859862446785
384.0,0.007808226626366377
416.0,0.00846154149621725
448.0,0.007360613904893398
480.0,0.0050897616893053055
512.0,0.002641746774315834
576.0,-0.0002957815595436841
640.0,0.0019412224646657705
704.0,0.0029182233847677708
768.0,0.005297942087054253
832.0,0.005857540760189295
896.0,0.0016320808790624142
960.0,-0.0021550587844103575
1024.0,0.00028534262673929334
1152.0,0.001995793543756008
1280.0,0.004761046264320612
1408.0,-0.004253298509865999
1536.0,-0.0010961821535602212
1664.0,0.0012980151223018765
1792.0,0.0007418844033963978
1920.0,0.006088575813919306
2048.0,0.0005934598157182336
2304.0,-0.008076649159193039
2560.0,-0.005937671754509211
2816.0,0.00032157040550373495
3072.0,-0.0022132094018161297
3328.0,-0.011102368123829365
3584.0,-0.011500253342092037
3840.0,-0.008946680463850498
4096.0,-0.01048003975301981
4608.0,-0.006772039923816919
5120.0,-0.009215965867042542
5632.0,-0.011796162463724613
6144.0,-0.006702254991978407
6656.0,-0.004274694714695215
7168.0,-0.011901806108653545
7680.0,0.004116397816687822
8192.0,0.005760178901255131
9216.0,0.02310367487370968
10240.0,0.009349972009658813
11264.0,0.010525093413889408
12288.0,-0.0030434904620051384
13312.0,-0.03150598704814911
14336.0,-0.0074767740443348885
end
