version,3.0
numOfCh,1
type,point
parent_name,dirty_0dot6-0dot1
ch_type,1_1
kcount,1
numberNandB,1
brightnessNandB,1
carpet pos,0
pc,0
Time (ms),CH1 Auto-Correlation
1.0,0.4355652630329132
2.0,0.4315466582775116
3.0,0.42756274342536926
4.0,0.4236573576927185
5.0,0.41972923278808594
6.0,0.4157811403274536
7.0,0.412043035030365
8.0,0.4083459675312042
9.0,0.4046001136302948
10.0,0.40106111764907837
11.0,0.3977433741092682
12.0,0.394410640001297
13.0,0.3912222981452942
14.0,0.38824087381362915
15.0,0.38550522923469543
16.0,0.382771372795105
18.0,0.37731990218162537
20.0,0.3724537193775177
22.0,0.3678815960884094
24.0,0.36306896805763245
26.0,0.35824620723724365
28.0,0.35368284583091736
30.0,0.34876447916030884
32.0,0.34403055906295776
36.0,0.33369696140289307
40.0,0.323195219039917
44.0,0.3139561414718628
48.0,0.3060602843761444
52.0,0.29878222942352295
56.0,0.2915196716785431
60.0,0.28358355164527893
64.0,0.27475783228874207
72.0,0.25638505816459656
80.0,0.23944805562496185
88.0,0.22511278092861176
96.0,0.2108834832906723
104.0,0.19791467487812042
112.0,0.18609584867954254
120.0,0.17447835206985474
128.0,0.16118879616260529
144.0,0.13823215663433075
160.0,0.11908883601427078
176.0,0.09786353260278702
192.0,0.08069617301225662
208.0,0.0727149248123169
224.0,0.07632856070995331
240.0,0.08489181101322174
256.0,0.09138204157352448
288.0,0.10315796732902527
320.0,0.10738585144281387
352.0,0.11124338954687119
384.0,0.11321743577718735
416.0,0.10387314856052399
448.0,0.08533254265785217
480.0,0.06944535672664642
512.0,0.06617463380098343
576.0,0.06674937158823013
640.0,0.0719841942191124
704.0,0.05995748192071915
768.0,0.03648653253912926
832.0,0.027544597163796425
896.0,0.03687240555882454
960.0,0.06307312101125717
1024.0,0.07750705629587173
1152.0,0.02581012062728405
1280.0,0.011351539753377438
1408.0,0.017436636611819267
1536.0,-0.0010412355186417699
1664.0,-0.014448910020291805
1792.0,-0.04425298050045967
1920.0,-0.048473749309778214
2048.0,-0.0435081385076046
2304.0,-0.042800310999155045
2560.0,-0.04052788391709328
2816.0,-0.017482450231909752
3072.0,0.01165175624191761
3328.0,0.006115269847214222
3584.0,-0.024553434923291206
3840.0,0.004206432029604912
4096.0,0.04871102049946785
4608.0,0.0563238300383091
5120.0,-0.0055972677655518055
5632.0,0.006358586251735687
6144.0,-0.04351101443171501
6656.0,-0.03580767661333084
7168.0,-0.017667215317487717
7680.0,-0.05065779760479927
8192.0,-0.06412074714899063
9216.0,-0.048497021198272705
10240.0,-0.04431810602545738
11264.0,0.0020862731616944075
12288.0,-0.01351623609662056
13312.0,-0.03900597617030144
14336.0,-0.057669851928949356
end
