version,3.0
numOfCh,1
type,point
parent_name,dirty_0dot6-0dot1
ch_type,1_1
kcount,1
numberNandB,1
brightnessNandB,1
carpet pos,0
pc,0
Time (ms),CH1 Auto-Correlation
1.0,0.09183520823717117
2.0,0.09004905074834824
3.0,0.08831042796373367
4.0,0.08661258965730667
5.0,0.08495338261127472
6.0,0.08329518139362335
7.0,0.08164741098880768
8.0,0.08010832220315933
9.0,0.07859236747026443
10.0,0.07719088345766068
11.0,0.07572866231203079
12.0,0.07428772747516632
13.0,0.07291875779628754
14.0,0.07156886905431747
15.0,0.07031714171171188
16.0,0.06916205585002899
18.0,0.06693750619888306
20.0,0.06483398377895355
22.0,0.06283161044120789
24.0,0.060906101018190384
26.0,0.05891023576259613
28.0,0.05707024410367012
30.0,0.055411919951438904
32.0,0.05395739898085594
36.0,0.05088294669985771
40.0,0.04793695732951164
44.0,0.045111674815416336
48.0,0.04248077794909477
52.0,0.040024902671575546
56.0,0.038017284125089645
60.0,0.03644585981965065
64.0,0.03484403342008591
72.0,0.03220628201961517
80.0,0.030478203669190407
88.0,0.02988991141319275
96.0,0.02959984540939331
104.0,0.02737835794687271
112.0,0.024858759716153145
120.0,0.022829290479421616
128.0,0.02083411067724228
144.0,0.018002349883317947
160.0,0.01663528010249138
176.0,0.01501336321234703
192.0,0.014380289241671562
208.0,0.012889005243778229
224.0,0.009617817588150501
240.0,0.006225363817065954
256.0,0.006744197104126215
288.0,0.00991050060838461
320.0,0.006630881689488888
352.0,0.002478664508089423
384.0,0.0027659391053020954
416.0,0.002933303825557232
448.0,0.0028297945391386747
480.0,0.004302439279854298
512.0,0.003615116933360696
576.0,0.006574171129614115
640.0,0.010005272924900055
704.0,0.01108259055763483
768.0,0.010183854959905148
832.0,0.013984011486172676
896.0,0.012761641293764114
960.0,0.008501026779413223
1024.0,0.002143357414752245
1152.0,0.0006580274784937501
1280.0,-0.00039629003731533885
1408.0,-0.0010976219782605767
1536.0,-0.0007471125572919846
1664.0,0.002198832808062434
1792.0,0.0014017298817634583
1920.0,0.002134938957169652
2048.0,0.0010356091661378741
2304.0,-0.0029689755756407976
2560.0,-0.0011464657727628946
2816.0,-0.0021268592681735754
3072.0,-0.0035847004037350416
3328.0,0.00024756891070865095
3584.0,-0.002696109237149358
3840.0,-0.004389981273561716
4096.0,-0.0055681378580629826
4608.0,-0.004968713968992233
5120.0,-0.0020985344890505075
5632.0,0.0009347749291919172
6144.0,-0.0012605093652382493
6656.0,-0.0007987944409251213
7168.0,-0.0036743036471307278
7680.0,-0.00714903837069869
8192.0,-0.007470234762877226
9216.0,-0.0037899608723819256
10240.0,-0.0021211944986134768
11264.0,0.002393420087173581
12288.0,0.009795824065804482
13312.0,0.0050360229797661304
14336.0,-0.01422636304050684
end
