version,3.0
numOfCh,1
type,point
parent_name,dirty_0dot6-0dot1
ch_type,1_1
kcount,1
numberNandB,1
brightnessNandB,1
carpet pos,0
pc,0
Time (ms),CH1 Auto-Correlation
1.0,0.28131532669067383
2.0,0.2788495123386383
3.0,0.2764406204223633
4.0,0.27419647574424744
5.0,0.2720142602920532
6.0,0.26993465423583984
7.0,0.26799216866493225
8.0,0.26603996753692627
9.0,0.2642064392566681
10.0,0.26223644614219666
11.0,0.2604178786277771
12.0,0.25866058468818665
13.0,0.2568977475166321
14.0,0.2551438510417938
15.0,0.25338807702064514
16.0,0.25170254707336426
18.0,0.24826115369796753
20.0,0.2449626624584198
22.0,0.24189656972885132
24.0,0.23893244564533234
26.0,0.23584160208702087
28.0,0.23271703720092773
30.0,0.22974693775177002
32.0,0.2268620729446411
36.0,0.22195565700531006
40.0,0.2178415209054947
44.0,0.21422192454338074
48.0,0.21064947545528412
52.0,0.20678511261940002
56.0,0.20290355384349823
60.0,0.19897590577602386
64.0,0.1956605762243271
72.0,0.18910463154315948
80.0,0.18279528617858887
88.0,0.17557360231876373
96.0,0.16828933358192444
104.0,0.16251082718372345
112.0,0.15836648643016815
120.0,0.15503805875778198
128.0,0.1522328406572342
144.0,0.1441001147031784
160.0,0.13370640575885773
176.0,0.12527114152908325
192.0,0.11632336676120758
208.0,0.10869385302066803
224.0,0.10132043808698654
240.0,0.0944998636841774
256.0,0.0894458219408989
288.0,0.07818340510129929
320.0,0.06681142002344131
352.0,0.05876149609684944
384.0,0.05684870481491089
416.0,0.054501138627529144
448.0,0.047628551721572876
480.0,0.037289950996637344
512.0,0.027500344440340996
576.0,0.011625291779637337
640.0,0.0018596125300973654
704.0,-0.001356004853732884
768.0,-0.006306723691523075
832.0,-0.011283649131655693
896.0,-0.00720249442383647
960.0,-0.002969841007143259
1024.0,-0.0011554316151887178
1152.0,0.01877201721072197
1280.0,0.03817363083362579
1408.0,0.051076315343379974
1536.0,0.04891565069556236
1664.0,0.05984034761786461
1792.0,0.06487755477428436
1920.0,0.05048620328307152
2048.0,0.021184517070651054
2304.0,0.008388145826756954
2560.0,-0.010958531871438026
2816.0,-0.011030245572328568
3072.0,-0.0033372181933373213
3328.0,0.02357885241508484
3584.0,0.0210405420511961
3840.0,-0.010130981914699078
4096.0,-0.025253361091017723
4608.0,-0.022962171584367752
5120.0,0.004350352566689253
5632.0,-0.0035485895350575447
6144.0,-0.01256769709289074
6656.0,-0.0151007529348135
7168.0,-0.034380845725536346
7680.0,-0.004152148496359587
8192.0,-0.04956689476966858
9216.0,-0.04627155140042305
10240.0,-0.07173793762922287
11264.0,0.02266576513648033
12288.0,-0.08058328926563263
13312.0,0.10557898133993149
14336.0,-0.00413644639775157
end
