version,3.0
numOfCh,1
type,point
parent_name,dirty_0dot6-0dot1
ch_type,1_1
kcount,1
numberNandB,1
brightnessNandB,1
carpet pos,0
pc,0
Time (ms),CH1 Auto-Correlation
1.0,0.29012712836265564
2.0,0.28618910908699036
3.0,0.28216585516929626
4.0,0.2782646417617798
5.0,0.27440038323402405
6.0,0.2705225944519043
7.0,0.2670382261276245
8.0,0.26375433802604675
9.0,0.2606576979160309
10.0,0.2575330138206482
11.0,0.2545444667339325
12.0,0.2516625225543976
13.0,0.24876531958580017
14.0,0.24593643844127655
15.0,0.2430058866739273
16.0,0.24018894135951996
18.0,0.23467722535133362
20.0,0.22979485988616943
22.0,0.22519680857658386
24.0,0.22082087397575378
26.0,0.21679404377937317
28.0,0.21283690631389618
30.0,0.20896585285663605
32.0,0.20499776303768158
36.0,0.19742102921009064
40.0,0.18967042863368988
44.0,0.1827584207057953
48.0,0.175720676779747
52.0,0.168053537607193
56.0,0.16120034456253052
60.0,0.15399840474128723
64.0,0.14747613668441772
72.0,0.1356113851070404
80.0,0.12602199614048004
88.0,0.1180521696805954
96.0,0.11055286973714828
104.0,0.10388290137052536
112.0,0.09843595325946808
120.0,0.09279453754425049
128.0,0.08771265298128128
144.0,0.07748417556285858
160.0,0.06543669104576111
176.0,0.05661899223923683
192.0,0.04635513946413994
208.0,0.03614860773086548
224.0,0.024402469396591187
240.0,0.01597249135375023
256.0,0.015146231278777122
288.0,0.023931017145514488
320.0,0.022810302674770355
352.0,0.0187141764909029
384.0,0.009454460814595222
416.0,0.0002678448217920959
448.0,-0.00812916923314333
480.0,-0.010219406336545944
512.0,-0.002567659830674529
576.0,0.015394940041005611
640.0,0.021283550187945366
704.0,0.027229351922869682
768.0,0.016772015020251274
832.0,-0.0031218992080539465
896.0,-0.0042953211814165115
960.0,0.0007670067134313285
1024.0,0.005509487818926573
1152.0,0.004515772685408592
1280.0,0.004035820718854666
1408.0,-0.007710711564868689
1536.0,-0.013852718286216259
1664.0,0.03404393419623375
1792.0,0.030741406604647636
1920.0,-0.008157803677022457
2048.0,-0.023121776059269905
2304.0,0.005671490449458361
2560.0,-0.009701922535896301
2816.0,-0.022233620285987854
3072.0,-0.009153067134320736
3328.0,0.026372136548161507
3584.0,0.0215283315628767
3840.0,0.021838748827576637
4096.0,0.01510408241301775
4608.0,-0.009841267950832844
5120.0,0.004110046662390232
5632.0,-0.02619331143796444
6144.0,-0.0370316356420517
6656.0,-0.020335953682661057
7168.0,-0.040695685893297195
7680.0,-0.042803481221199036
8192.0,0.0020469538867473602
9216.0,0.0008396519115194678
10240.0,-0.006825148593634367
11264.0,-0.012710019014775753
12288.0,0.0241556316614151
13312.0,0.02456311322748661
14336.0,0.02268555574119091
end
