version,3.0
numOfCh,1
type,point
parent_name,dirty_0dot6-0dot1
ch_type,1_1
kcount,1
numberNandB,1
brightnessNandB,1
carpet pos,0
pc,0
Time (ms),CH1 Auto-Correlation
1.0,0.14169298112392426
2.0,0.13949906826019287
3.0,0.1373361349105835
4.0,0.1353285163640976
5.0,0.13347670435905457
6.0,0.1318337619304657
7.0,0.13014711439609528
8.0,0.12852193415164948
9.0,0.1269233226776123
10.0,0.12531831860542297
11.0,0.12386606633663177
12.0,0.1225118488073349
13.0,0.12106630206108093
14.0,0.11972962319850922
15.0,0.11843506991863251
16.0,0.11704887449741364
18.0,0.11422965675592422
20.0,0.11138033121824265
22.0,0.108955979347229
24.0,0.1067996472120285
26.0,0.10460033267736435
28.0,0.10237349569797516
30.0,0.1001301035284996
32.0,0.09793606400489807
36.0,0.0934089720249176
40.0,0.08917538076639175
44.0,0.08517154306173325
48.0,0.08164184540510178
52.0,0.07838817685842514
56.0,0.0753810927271843
60.0,0.07293900847434998
64.0,0.07064779847860336
72.0,0.06497633457183838
80.0,0.059288933873176575
88.0,0.054089874029159546
96.0,0.05004943162202835
104.0,0.046514928340911865
112.0,0.04359259456396103
120.0,0.04197068139910698
128.0,0.041536882519721985
144.0,0.038150448352098465
160.0,0.0339895598590374
176.0,0.028567180037498474
192.0,0.02258918434381485
208.0,0.019387323409318924
224.0,0.01654808409512043
240.0,0.013524308800697327
256.0,0.010968232527375221
288.0,0.009506169706583023
320.0,0.006542720831930637
352.0,0.0028358828276395798
384.0,-0.0009283577091991901
416.0,-0.0022265068255364895
448.0,-0.00015880164573900402
480.0,0.003829449648037553
512.0,0.004233436193317175
576.0,0.01053574588149786
640.0,0.017285801470279694
704.0,0.019775837659835815
768.0,0.02977200411260128
832.0,0.029620030894875526
896.0,0.016540465876460075
960.0,0.008902949281036854
1024.0,0.001778267789632082
1152.0,-0.006024378351867199
1280.0,0.002808068413287401
1408.0,0.008680447936058044
1536.0,0.007399537600576878
1664.0,-0.0008469676831737161
1792.0,-0.009546151384711266
1920.0,-0.000897180347237736
2048.0,-0.002442107768729329
2304.0,-0.0027716264594346285
2560.0,-0.005849255248904228
2816.0,-0.00693185580894351
3072.0,0.0020911849569529295
3328.0,0.013292059302330017
3584.0,-0.007531303446739912
3840.0,-0.009004642255604267
4096.0,0.00128554820548743
4608.0,-0.005319247487932444
5120.0,-0.009988456033170223
5632.0,0.0003730033931788057
6144.0,-0.005435228813439608
6656.0,-0.0076628862880170345
7168.0,-0.005228462629020214
7680.0,-0.004624892491847277
8192.0,-0.005820111837238073
9216.0,-0.011058471165597439
10240.0,-0.015274577774107456
11264.0,-0.0028619342483580112
12288.0,0.007264199201017618
13312.0,0.010950691998004913
14336.0,0.017288554459810257
end
