version,3.0
numOfCh,1
type,point
parent_name,dirty_0dot6-0dot1
ch_type,1_1
kcount,1
numberNandB,1
brightnessNandB,1
carpet pos,0
pc,0
Time (ms),CH1 Auto-Correlation
1.0,0.17195118963718414
2.0,0.16958661377429962
3.0,0.16740435361862183
4.0,0.1651717722415924
5.0,0.16303293406963348
6.0,0.16087885200977325
7.0,0.15872566401958466
8.0,0.1567007452249527
9.0,0.1547386795282364
10.0,0.152852863073349
11.0,0.15103216469287872
12.0,0.149259552359581
13.0,0.14763511717319489
14.0,0.14613446593284607
15.0,0.14471076428890228
16.0,0.1432173252105713
18.0,0.1402807980775833
20.0,0.13741813600063324
22.0,0.13473345339298248
24.0,0.13220679759979248
26.0,0.13005809485912323
28.0,0.1282237023115158
30.0,0.12653087079524994
32.0,0.12496334314346313
36.0,0.12210812419652939
40.0,0.11962263286113739
44.0,0.11746985465288162
48.0,0.11551812291145325
52.0,0.11344350129365921
56.0,0.11165827512741089
60.0,0.10992411524057388
64.0,0.10789524763822556
72.0,0.10432663559913635
80.0,0.1008833646774292
88.0,0.09849168360233307
96.0,0.09760110080242157
104.0,0.09643170982599258
112.0,0.09289366006851196
120.0,0.0887504294514656
128.0,0.0840103030204773
144.0,0.07755888253450394
160.0,0.07311999797821045
176.0,0.0697343647480011
192.0,0.06791612505912781
208.0,0.06733692437410355
224.0,0.06520623713731766
240.0,0.06203668564558029
256.0,0.05822043865919113
288.0,0.0588374026119709
320.0,0.05587020143866539
352.0,0.0468335896730423
384.0,0.0404479019343853
416.0,0.038734402507543564
448.0,0.03633608669042587
480.0,0.03284972906112671
512.0,0.03421800583600998
576.0,0.02564176544547081
640.0,0.0202235858887434
704.0,0.01752554252743721
768.0,0.013506663031876087
832.0,0.0017916893120855093
896.0,-0.0068154106847941875
960.0,-0.0069509148597717285
1024.0,-0.005327587015926838
1152.0,-0.009184962138533592
1280.0,-0.01644948683679104
1408.0,-0.021098587661981583
1536.0,-0.02419954724609852
1664.0,-0.02474258653819561
1792.0,-0.023189162835478783
1920.0,-0.020224643871188164
2048.0,-0.0188047606498003
2304.0,-0.016276655718684196
2560.0,-0.02034459076821804
2816.0,-0.0003230114816688001
3072.0,0.020189164206385612
3328.0,0.026652315631508827
3584.0,0.02915807068347931
3840.0,0.015307584777474403
4096.0,0.0056065768003463745
4608.0,-0.00863152276724577
5120.0,-0.003385465359315276
5632.0,-0.007978608831763268
6144.0,-0.029655015096068382
6656.0,-0.031679417937994
7168.0,-0.030921539291739464
7680.0,-0.008728698827326298
8192.0,0.006862943060696125
9216.0,-0.006473873741924763
10240.0,-0.014028097502887249
11264.0,0.013082873076200485
12288.0,0.01516710501164198
13312.0,0.01904548704624176
14336.0,0.009589754976332188
end
