version,3.0
numOfCh,1
type,point
parent_name,dirty_0dot6-0dot1
ch_type,1_1
kcount,1
numberNandB,1
brightnessNandB,1
carpet pos,0
pc,0
Time (ms),CH1 Auto-Correlation
1.0,0.18355527520179749
2.0,0.18102312088012695
3.0,0.17867456376552582
4.0,0.17638114094734192
5.0,0.17419175803661346
6.0,0.17201796174049377
7.0,0.16988851130008698
8.0,0.1678781509399414
9.0,0.16582438349723816
10.0,0.16382978856563568
11.0,0.16190485656261444
12.0,0.15989653766155243
13.0,0.1581369787454605
14.0,0.15650001168251038
15.0,0.15479892492294312
16.0,0.15309128165245056
18.0,0.14973965287208557
20.0,0.14635202288627625
22.0,0.14294317364692688
24.0,0.13936397433280945
26.0,0.13594801723957062
28.0,0.13271880149841309
30.0,0.1297398805618286
32.0,0.12691214680671692
36.0,0.12215372174978256
40.0,0.11817363649606705
44.0,0.11506011337041855
48.0,0.11240961402654648
52.0,0.11036747694015503
56.0,0.10788331925868988
60.0,0.10481791943311691
64.0,0.1014580950140953
72.0,0.09501446783542633
80.0,0.08780942112207413
88.0,0.08014913648366928
96.0,0.07410944253206253
104.0,0.06976232677698135
112.0,0.06704407930374146
120.0,0.06392881274223328
128.0,0.06001011282205582
144.0,0.05143394321203232
160.0,0.04632125422358513
176.0,0.04528789967298508
192.0,0.04395904019474983
208.0,0.03962795063853264
224.0,0.03405207395553589
240.0,0.031045345589518547
256.0,0.02907642349600792
288.0,0.027105003595352173
320.0,0.02468334697186947
352.0,0.02371709793806076
384.0,0.031151626259088516
416.0,0.030237356200814247
448.0,0.029466116800904274
480.0,0.02242468297481537
512.0,0.012118401937186718
576.0,-0.0016518502961844206
640.0,-0.008968183770775795
704.0,-0.012159734033048153
768.0,-0.007403120864182711
832.0,-0.004416634328663349
896.0,-0.003805940505117178
960.0,-0.0017093424685299397
1024.0,0.006269441917538643
1152.0,0.007741771638393402
1280.0,-0.0036483891308307648
1408.0,-0.002518835011869669
1536.0,-0.0003683929971884936
1664.0,-0.007198536768555641
1792.0,-0.009686394594609737
1920.0,-0.002406553365290165
2048.0,0.00356187648139894
2304.0,-0.005880117416381836
2560.0,-0.0023650466464459896
2816.0,-0.011869898065924644
3072.0,-0.006094028241932392
3328.0,-0.0034785789903253317
3584.0,-0.002649991074576974
3840.0,-0.0056633492931723595
4096.0,-0.005549716763198376
4608.0,-0.010128886438906193
5120.0,-0.014845356345176697
5632.0,-0.00811772607266903
6144.0,0.009210173040628433
6656.0,-0.0016564915422350168
7168.0,0.006444766651839018
7680.0,0.019615015015006065
8192.0,0.01775873266160488
9216.0,-0.019569238647818565
10240.0,-0.015656059607863426
11264.0,-0.006726519670337439
12288.0,-0.03289017081260681
13312.0,-0.018854554742574692
14336.0,0.07739182561635971
end
