version,3.0
numOfCh,1
type,point
parent_name,dirty_0dot6-0dot1
ch_type,1_1
kcount,1
numberNandB,1
brightnessNandB,1
carpet pos,0
pc,0
Time (ms),CH1 Auto-Correlation
1.0,0.1359042376279831
2.0,0.13396519422531128
3.0,0.13210096955299377
4.0,0.13039761781692505
5.0,0.12866924703121185
6.0,0.1269964724779129
7.0,0.1253831684589386
8.0,0.12388160079717636
9.0,0.12243043631315231
10.0,0.12086331844329834
11.0,0.11934483051300049
12.0,0.11789772659540176
13.0,0.11659284681081772
14.0,0.11539734154939651
15.0,0.11414851248264313
16.0,0.1130044087767601
18.0,0.11073342710733414
20.0,0.10830293595790863
22.0,0.10603250563144684
24.0,0.10381172597408295
26.0,0.10150747001171112
28.0,0.09965392202138901
30.0,0.0977860763669014
32.0,0.0960359200835228
36.0,0.09305435419082642
40.0,0.09023544192314148
44.0,0.08706206828355789
48.0,0.08403387665748596
52.0,0.08128055930137634
56.0,0.07899946719408035
60.0,0.07707350701093674
64.0,0.07514958083629608
72.0,0.07255058735609055
80.0,0.0698428824543953
88.0,0.06693141162395477
96.0,0.06386740505695343
104.0,0.0595865324139595
112.0,0.055735547095537186
120.0,0.052399132400751114
128.0,0.04903653636574745
144.0,0.0444406233727932
160.0,0.041418883949518204
176.0,0.03785319626331329
192.0,0.032349828630685806
208.0,0.025457018986344337
224.0,0.019909195601940155
240.0,0.016482774168252945
256.0,0.013913272880017757
288.0,0.0075017246417701244
320.0,0.0015282445820048451
352.0,0.002715383656322956
384.0,0.001977314241230488
416.0,0.0018903897143900394
448.0,0.005209168419241905
480.0,0.007088235579431057
512.0,0.009805383160710335
576.0,0.006753804627805948
640.0,0.0008365777903236449
704.0,-0.0036299293860793114
768.0,-0.00839520338922739
832.0,-0.01138758473098278
896.0,-0.009834776632487774
960.0,-0.007727519143372774
1024.0,-0.008391104638576508
1152.0,-0.0088855205103755
1280.0,-0.007055789232254028
1408.0,-0.002684691222384572
1536.0,-0.004509791731834412
1664.0,-0.004492368083447218
1792.0,-0.007751429453492165
1920.0,-0.005400174763053656
2048.0,-0.002413517562672496
2304.0,-0.004071075934916735
2560.0,-0.00942473765462637
2816.0,-0.0064139277674257755
3072.0,0.012714115902781487
3328.0,0.026468992233276367
3584.0,0.024136366322636604
3840.0,-0.0006614371086470783
4096.0,-0.0016544873360544443
4608.0,-0.011611059308052063
5120.0,-0.011323963291943073
5632.0,-0.008364539593458176
6144.0,0.0013260464183986187
6656.0,0.002904167165979743
7168.0,-0.004095609299838543
7680.0,-0.004875280428677797
8192.0,-0.007904947735369205
9216.0,-0.00759637588635087
10240.0,-0.000488375429995358
11264.0,0.0011856358032673597
12288.0,0.002175356261432171
13312.0,0.005100710783153772
14336.0,0.008387472480535507
end
