version,3.0
numOfCh,1
type,point
parent_name,dirty_0dot6-0dot1
ch_type,1_1
kcount,1
numberNandB,1
brightnessNandB,1
carpet pos,0
pc,0
Time (ms),CH1 Auto-Correlation
1.0,0.24125611782073975
2.0,0.23861289024353027
3.0,0.23626285791397095
4.0,0.2339441329240799
5.0,0.23166294395923615
6.0,0.22958266735076904
7.0,0.2276129275560379
8.0,0.225466787815094
9.0,0.22347573935985565
10.0,0.22157111763954163
11.0,0.2196991741657257
12.0,0.2178790420293808
13.0,0.21619702875614166
14.0,0.21441996097564697
15.0,0.21270568668842316
16.0,0.21108338236808777
18.0,0.2079676240682602
20.0,0.2050706446170807
22.0,0.20232708752155304
24.0,0.1995236724615097
26.0,0.19689634442329407
28.0,0.1941377818584442
30.0,0.19147852063179016
32.0,0.18880528211593628
36.0,0.18307308852672577
40.0,0.17785590887069702
44.0,0.17271244525909424
48.0,0.16774675250053406
52.0,0.16326725482940674
56.0,0.15838782489299774
60.0,0.15310038626194
64.0,0.14770832657814026
72.0,0.13992546498775482
80.0,0.13468104600906372
88.0,0.12965531647205353
96.0,0.1248459666967392
104.0,0.12004993110895157
112.0,0.11470160633325577
120.0,0.10912418365478516
128.0,0.10534387081861496
144.0,0.09971051663160324
160.0,0.09014935046434402
176.0,0.0831289291381836
192.0,0.07973067462444305
208.0,0.07616933435201645
224.0,0.07502570003271103
240.0,0.07628080248832703
256.0,0.07466869056224823
288.0,0.06957188993692398
320.0,0.06801880896091461
352.0,0.06335318088531494
384.0,0.05668235942721367
416.0,0.05041239783167839
448.0,0.04660597816109657
480.0,0.04191359132528305
512.0,0.03504699468612671
576.0,0.023242764174938202
640.0,0.004647333640605211
704.0,-0.004036608152091503
768.0,-0.0018408294999971986
832.0,-0.0026547361630946398
896.0,-0.005916793830692768
960.0,-0.003392232349142432
1024.0,-0.015247670002281666
1152.0,-0.018720436841249466
1280.0,0.0004143532132729888
1408.0,0.012749653309583664
1536.0,0.009023270569741726
1664.0,-0.0020623516757041216
1792.0,0.012886852025985718
1920.0,-0.0028468191158026457
2048.0,-0.02078176662325859
2304.0,-0.02673865482211113
2560.0,-0.029460487887263298
2816.0,-0.03318824619054794
3072.0,-0.02277887985110283
3328.0,0.011211523786187172
3584.0,0.034271251410245895
3840.0,0.03378612920641899
4096.0,-0.002160482807084918
4608.0,-0.02046702243387699
5120.0,-0.005201521795243025
5632.0,-0.013103347271680832
6144.0,-0.013895818963646889
6656.0,-0.0032188063487410545
7168.0,0.051632437855005264
7680.0,0.01732347533106804
8192.0,-0.005772449541836977
9216.0,-0.0074331918731331825
10240.0,-0.03257351741194725
11264.0,-0.043450094759464264
12288.0,-0.016583656892180443
13312.0,0.0005459645763039589
14336.0,0.014141968451440334
end
