version,3.0
numOfCh,1
type,point
parent_name,dirty_0dot6-0dot1
ch_type,1_1
kcount,1
numberNandB,1
brightnessNandB,1
carpet pos,0
pc,0
Time (ms),CH1 Auto-Correlation
1.0,0.21002548933029175
2.0,0.2071189135313034
3.0,0.20427587628364563
4.0,0.2015514373779297
5.0,0.19905906915664673
6.0,0.19652891159057617
7.0,0.1941734105348587
8.0,0.19191119074821472
9.0,0.18971075117588043
10.0,0.18749773502349854
11.0,0.1852678656578064
12.0,0.18301978707313538
13.0,0.18082621693611145
14.0,0.17850494384765625
15.0,0.17630769312381744
16.0,0.17415186762809753
18.0,0.1695362627506256
20.0,0.16503432393074036
22.0,0.16060246527194977
24.0,0.1556231677532196
26.0,0.15073063969612122
28.0,0.14594629406929016
30.0,0.14120569825172424
32.0,0.1369403600692749
36.0,0.12957188487052917
40.0,0.12309492379426956
44.0,0.11767002195119858
48.0,0.1121293306350708
52.0,0.10621239244937897
56.0,0.10077162832021713
60.0,0.09574000537395477
64.0,0.09085331112146378
72.0,0.08039897680282593
80.0,0.06953059136867523
88.0,0.06031543388962746
96.0,0.05205829441547394
104.0,0.04554491490125656
112.0,0.04171708598732948
120.0,0.039712730795145035
128.0,0.037342850118875504
144.0,0.03346246853470802
160.0,0.030094075947999954
176.0,0.031190410256385803
192.0,0.03166475519537926
208.0,0.028232591226696968
224.0,0.025913281366229057
240.0,0.026975927874445915
256.0,0.03082842193543911
288.0,0.037851229310035706
320.0,0.04032820463180542
352.0,0.03653055056929588
384.0,0.029214810580015182
416.0,0.024965666234493256
448.0,0.03181071951985359
480.0,0.03368503227829933
512.0,0.030055059120059013
576.0,0.023663878440856934
640.0,0.02041672356426716
704.0,0.019845444709062576
768.0,0.01832624338567257
832.0,0.014130952768027782
896.0,0.019759612157940865
960.0,0.023993534967303276
1024.0,0.018374310806393623
1152.0,0.012401090934872627
1280.0,0.009464195929467678
1408.0,0.019230496138334274
1536.0,0.024285782128572464
1664.0,0.0387088768184185
1792.0,0.016451431438326836
1920.0,0.02824973128736019
2048.0,0.015547612681984901
2304.0,0.009872031398117542
2560.0,0.004318075254559517
2816.0,-0.006024037022143602
3072.0,-0.004831579048186541
3328.0,0.0018321307143196464
3584.0,0.003033711574971676
3840.0,-0.006235215347260237
4096.0,-0.0033360898960381746
4608.0,-0.006291615776717663
5120.0,-0.006992739625275135
5632.0,-0.007165773771703243
6144.0,-0.009789629839360714
6656.0,-0.011669378727674484
7168.0,-0.013429434970021248
7680.0,-0.014921896159648895
8192.0,-0.02205508202314377
9216.0,-0.023379085585474968
10240.0,-0.03540222719311714
11264.0,-0.014061921276152134
12288.0,-0.021782388910651207
13312.0,0.047355785965919495
14336.0,-0.016092337667942047
end
