version,3.0
numOfCh,1
type,point
parent_name,dirty_0dot6-0dot1
ch_type,1_1
kcount,1
numberNandB,1
brightnessNandB,1
carpet pos,0
pc,0
Time (ms),CH1 Auto-Correlation
1.0,0.3592339754104614
2.0,0.35474708676338196
3.0,0.35058268904685974
4.0,0.3467092514038086
5.0,0.3429327607154846
6.0,0.3390698730945587
7.0,0.33511990308761597
8.0,0.3311258852481842
9.0,0.3272196352481842
10.0,0.3234967291355133
11.0,0.3198307752609253
12.0,0.3163502514362335
13.0,0.3130590319633484
14.0,0.309937447309494
15.0,0.3067663609981537
16.0,0.303611695766449
18.0,0.29723837971687317
20.0,0.29103243350982666
22.0,0.2854321300983429
24.0,0.2805456519126892
26.0,0.27538472414016724
28.0,0.27047109603881836
30.0,0.26570984721183777
32.0,0.26196733117103577
36.0,0.25437021255493164
40.0,0.24737152457237244
44.0,0.2415815144777298
48.0,0.23697741329669952
52.0,0.23196351528167725
56.0,0.22733119130134583
60.0,0.22373072803020477
64.0,0.21969541907310486
72.0,0.2134018987417221
80.0,0.20725533366203308
88.0,0.20233607292175293
96.0,0.19520531594753265
104.0,0.18482646346092224
112.0,0.1740514189004898
120.0,0.16300059854984283
128.0,0.1536603718996048
144.0,0.13461360335350037
160.0,0.11391173303127289
176.0,0.0992979034781456
192.0,0.09191517531871796
208.0,0.08128718286752701
224.0,0.0692761018872261
240.0,0.05850430577993393
256.0,0.04985229671001434
288.0,0.03842276707291603
320.0,0.03125433623790741
352.0,0.02587592415511608
384.0,0.01925196684896946
416.0,0.015986494719982147
448.0,0.017265819013118744
480.0,0.012810780666768551
512.0,0.009673177264630795
576.0,0.014852241612970829
640.0,-0.000994683476164937
704.0,-0.01903931424021721
768.0,-0.0276850163936615
832.0,-0.027320606634020805
896.0,-0.025321008637547493
960.0,-0.026660364121198654
1024.0,-0.03274064511060715
1152.0,-0.04299545660614967
1280.0,-0.038574136793613434
1408.0,-0.026484699919819832
1536.0,0.002897057682275772
1664.0,0.018573211506009102
1792.0,0.016578219830989838
1920.0,0.029998399317264557
2048.0,0.0193345807492733
2304.0,-0.02776585891842842
2560.0,-0.005993383005261421
2816.0,-0.02596398815512657
3072.0,-0.030124207958579063
3328.0,-0.004680634010583162
3584.0,0.017096498981118202
3840.0,0.025377541780471802
4096.0,0.02808128297328949
4608.0,-0.002058181446045637
5120.0,0.002563991118222475
5632.0,0.0426434688270092
6144.0,-0.006225885357707739
6656.0,-0.0025734268128871918
7168.0,-0.016704101115465164
7680.0,-0.0010014739818871021
8192.0,-0.053435374051332474
9216.0,-0.0045171272940933704
10240.0,0.0018529697554185987
11264.0,-0.03468137979507446
12288.0,-0.009998388588428497
13312.0,-0.013086335733532906
14336.0,-0.012986819259822369
end
