version,3.0
numOfCh,1
type,point
parent_name,dirty_0dot6-0dot1
ch_type,1_1
kcount,1
numberNandB,1
brightnessNandB,1
carpet pos,0
pc,0
Time (ms),CH1 Auto-Correlation
1.0,0.2927532494068146
2.0,0.2897520959377289
3.0,0.2868877053260803
4.0,0.2842842936515808
5.0,0.28188467025756836
6.0,0.2797083258628845
7.0,0.2777591049671173
8.0,0.2757178843021393
9.0,0.27364128828048706
10.0,0.2715666592121124
11.0,0.26938533782958984
12.0,0.26721182465553284
13.0,0.265104204416275
14.0,0.26314353942871094
15.0,0.26118239760398865
16.0,0.259259968996048
18.0,0.25558531284332275
20.0,0.25218650698661804
22.0,0.249027281999588
24.0,0.24569930136203766
26.0,0.24250346422195435
28.0,0.23925034701824188
30.0,0.23636160790920258
32.0,0.2331160306930542
36.0,0.22688424587249756
40.0,0.2211153656244278
44.0,0.21589629352092743
48.0,0.2108064442873001
52.0,0.205763578414917
56.0,0.20066817104816437
60.0,0.19576989114284515
64.0,0.19178612530231476
72.0,0.18477824330329895
80.0,0.17860104143619537
88.0,0.17402134835720062
96.0,0.17133814096450806
104.0,0.16955073177814484
112.0,0.16729368269443512
120.0,0.16447381675243378
128.0,0.16083955764770508
144.0,0.15348561108112335
160.0,0.14543458819389343
176.0,0.1341601461172104
192.0,0.12516231834888458
208.0,0.11892607808113098
224.0,0.11301003396511078
240.0,0.1072692796587944
256.0,0.09937683492898941
288.0,0.07955417037010193
320.0,0.05567629635334015
352.0,0.03830288350582123
384.0,0.022212952375411987
416.0,0.006521459203213453
448.0,-0.0028896143194288015
480.0,-0.005147948395460844
512.0,-0.007058194372802973
576.0,-0.0036990127991884947
640.0,-0.005678398534655571
704.0,-0.0033947061747312546
768.0,0.009471076540648937
832.0,0.011220608837902546
896.0,0.008358978666365147
960.0,-0.00038528654840774834
1024.0,-0.00599411316215992
1152.0,-0.015265395864844322
1280.0,-0.019544171169400215
1408.0,-0.0049214670434594154
1536.0,0.018349429592490196
1664.0,0.03996266797184944
1792.0,0.039108045399188995
1920.0,0.020766079425811768
2048.0,-0.009721343405544758
2304.0,-0.031638581305742264
2560.0,-0.008090119808912277
2816.0,0.0170222707092762
3072.0,0.00716711999848485
3328.0,0.03484493866562843
3584.0,0.07615125179290771
3840.0,0.028044750913977623
4096.0,-0.016709085553884506
4608.0,-0.020680760964751244
5120.0,-0.013585465960204601
5632.0,-0.005417590960860252
6144.0,0.015514089725911617
6656.0,0.04208711162209511
7168.0,-0.005311640910804272
7680.0,-0.014200437813997269
8192.0,-0.007957695983350277
9216.0,-0.0200087521225214
10240.0,-0.027708735316991806
11264.0,-0.03647826239466667
12288.0,-0.058249883353710175
13312.0,-0.0723436027765274
14336.0,-0.009288182482123375
end
