version,3.0
numOfCh,1
type,point
parent_name,dirty_0dot6-0dot1
ch_type,1_1
kcount,1
numberNandB,1
brightnessNandB,1
carpet pos,0
pc,0
Time (ms),CH1 Auto-Correlation
1.0,0.26627057790756226
2.0,0.26297008991241455
3.0,0.2597299814224243
4.0,0.2567084729671478
5.0,0.25395557284355164
6.0,0.25123468041419983
7.0,0.2486473023891449
8.0,0.2460179477930069
9.0,0.24349641799926758
10.0,0.24113978445529938
11.0,0.23851752281188965
12.0,0.23588581383228302
13.0,0.23319965600967407
14.0,0.23063917458057404
15.0,0.2281862497329712
16.0,0.22606925666332245
18.0,0.22159552574157715
20.0,0.21768002212047577
22.0,0.21399571001529694
24.0,0.210296168923378
26.0,0.20703329145908356
28.0,0.20418386161327362
30.0,0.20145283639431
32.0,0.19877053797245026
36.0,0.19394993782043457
40.0,0.19009695947170258
44.0,0.18718849122524261
48.0,0.18456535041332245
52.0,0.1815125197172165
56.0,0.17811450362205505
60.0,0.17411422729492188
64.0,0.16888368129730225
72.0,0.15673980116844177
80.0,0.14608168601989746
88.0,0.14112670719623566
96.0,0.14213328063488007
104.0,0.1424589306116104
112.0,0.13943497836589813
120.0,0.13268545269966125
128.0,0.12252865731716156
144.0,0.10999426990747452
160.0,0.1043790876865387
176.0,0.098600372672081
192.0,0.09222839027643204
208.0,0.09015882015228271
224.0,0.08543720841407776
240.0,0.07504858076572418
256.0,0.06833325326442719
288.0,0.05847948044538498
320.0,0.04209523648023605
352.0,0.03326069563627243
384.0,0.03196175396442413
416.0,0.03297969698905945
448.0,0.025017457082867622
480.0,0.018372684717178345
512.0,0.016972079873085022
576.0,0.008346980437636375
640.0,-0.0001322942553088069
704.0,-0.009495510719716549
768.0,-0.01317693293094635
832.0,-0.012337171472609043
896.0,-0.010405109263956547
960.0,-0.009096579626202583
1024.0,-0.001893619541078806
1152.0,-0.0017104418948292732
1280.0,-0.00826289039105177
1408.0,-0.007888080552220345
1536.0,-0.010647515766322613
1664.0,-0.013687167316675186
1792.0,-0.013902912847697735
1920.0,-0.00802355632185936
2048.0,0.028616296127438545
2304.0,0.06150122731924057
2560.0,0.041090209037065506
2816.0,0.01831854321062565
3072.0,0.007512728683650494
3328.0,0.0007500108331441879
3584.0,0.004296692553907633
3840.0,-0.009756839834153652
4096.0,-0.018718931823968887
4608.0,-0.00951273925602436
5120.0,-0.00044877047184854746
5632.0,-0.007694329135119915
6144.0,-0.0023039013613015413
6656.0,0.004107548855245113
7168.0,0.0012284982949495316
7680.0,-0.017841707915067673
8192.0,-0.014096640050411224
9216.0,-0.0034566253889352083
10240.0,-0.03292325139045715
11264.0,-0.04407697543501854
12288.0,-0.03441394492983818
13312.0,-0.03937721252441406
14336.0,-0.03412511199712753
end
