version,3.0
numOfCh,1
type,point
parent_name,dirty_0dot6-0dot1
ch_type,1_1
kcount,1
numberNandB,1
brightnessNandB,1
carpet pos,0
pc,0
Time (ms),CH1 Auto-Correlation
1.0,0.3100675344467163
2.0,0.30572831630706787
3.0,0.30168798565864563
4.0,0.29789796471595764
5.0,0.2942664921283722
6.0,0.29087239503860474
7.0,0.28765201568603516
8.0,0.28452444076538086
9.0,0.28141048550605774
10.0,0.27830708026885986
11.0,0.27514925599098206
12.0,0.2720290422439575
13.0,0.2688429057598114
14.0,0.265778511762619
15.0,0.26263725757598877
16.0,0.2595673203468323
18.0,0.2542397975921631
20.0,0.24949181079864502
22.0,0.2449944019317627
24.0,0.24044863879680634
26.0,0.23610669374465942
28.0,0.23192082345485687
30.0,0.2279546856880188
32.0,0.22412723302841187
36.0,0.2167423516511917
40.0,0.21053342521190643
44.0,0.20509780943393707
48.0,0.19909179210662842
52.0,0.19157475233078003
56.0,0.18380016088485718
60.0,0.17584346234798431
64.0,0.16738677024841309
72.0,0.1510208249092102
80.0,0.1363515704870224
88.0,0.12304902821779251
96.0,0.11328689754009247
104.0,0.10463424026966095
112.0,0.09680753946304321
120.0,0.09013395011425018
128.0,0.08363975584506989
144.0,0.06923694908618927
160.0,0.05632362514734268
176.0,0.04568386450409889
192.0,0.036589186638593674
208.0,0.03267078101634979
224.0,0.03117368184030056
240.0,0.028523502871394157
256.0,0.0254483912140131
288.0,0.01917193830013275
320.0,0.02077137492597103
352.0,0.023201195523142815
384.0,0.03220469132065773
416.0,0.03606940805912018
448.0,0.037677325308322906
480.0,0.044064927846193314
512.0,0.047255195677280426
576.0,0.024852359667420387
640.0,-0.0023569189943373203
704.0,-0.017993828281760216
768.0,-0.010427470318973064
832.0,0.005502172280102968
896.0,0.015788104385137558
960.0,0.009988022036850452
1024.0,0.0024937461130321026
1152.0,-0.009326986037194729
1280.0,-0.011183817870914936
1408.0,0.003724334528669715
1536.0,-0.003009678330272436
1664.0,-0.0352182574570179
1792.0,-0.04204080253839493
1920.0,-0.03673481196165085
2048.0,-0.04172978177666664
2304.0,-0.04096798598766327
2560.0,-0.016853008419275284
2816.0,-0.021673686802387238
3072.0,-0.008943905122578144
3328.0,0.003710806602612138
3584.0,0.04815779998898506
3840.0,0.013516987673938274
4096.0,0.02310948632657528
4608.0,0.0178263820707798
5120.0,0.00391742680221796
5632.0,-0.027815483510494232
6144.0,-0.038189832121133804
6656.0,-0.03210225701332092
7168.0,0.0007542413077317178
7680.0,0.00615169620141387
8192.0,0.03328533470630646
9216.0,-0.01737026311457157
10240.0,-0.004252143669873476
11264.0,0.03169636428356171
12288.0,0.007209472823888063
13312.0,0.009033645503222942
14336.0,0.0001837484451243654
end
