version,3.0
numOfCh,1
type,point
parent_name,714af_50dot0-0dot01
ch_type,1_1
kcount,1
numberNandB,1
brightnessNandB,1
carpet pos,0
pc,0
Time (ms),CH1 Auto-Correlation
1.0,0.09840971231460571
2.0,0.09577226638793945
3.0,0.09480317682027817
4.0,0.09382012486457825
5.0,0.09245526045560837
6.0,0.09183111786842346
7.0,0.09092298150062561
8.0,0.09096609055995941
9.0,0.09042935073375702
10.0,0.09005673974752426
11.0,0.08973480015993118
12.0,0.08923818171024323
13.0,0.08834002166986465
14.0,0.08843915164470673
15.0,0.08766944706439972
16.0,0.08743016421794891
18.0,0.08580246567726135
20.0,0.0847676694393158
22.0,0.08356603980064392
24.0,0.08251527696847916
26.0,0.08150476962327957
28.0,0.08042150735855103
30.0,0.07926110178232193
32.0,0.07817694544792175
36.0,0.07591478526592255
40.0,0.07314340770244598
44.0,0.070930115878582
48.0,0.06826260685920715
52.0,0.06531253457069397
56.0,0.06237784028053284
60.0,0.05870001018047333
64.0,0.05550863966345787
72.0,0.048492226749658585
80.0,0.041041381657123566
88.0,0.03473776578903198
96.0,0.02972300723195076
104.0,0.02374378778040409
112.0,0.018900476396083832
120.0,0.014735434204339981
128.0,0.01015426218509674
144.0,0.004433643538504839
160.0,0.002430872991681099
176.0,0.001093089347705245
192.0,1.1725375770765822e-05
208.0,6.354899960570037e-05
224.0,0.0004295310645829886
240.0,0.0011916941730305552
256.0,0.001462855958379805
288.0,0.0026849834248423576
320.0,0.003866372862830758
352.0,0.004328625276684761
384.0,0.005308032035827637
416.0,0.005212129093706608
448.0,0.004174317233264446
480.0,0.002737367292866111
512.0,0.0012480219593271613
576.0,-0.0009963149204850197
640.0,-0.001364590018056333
704.0,-0.00039796376950107515
768.0,-0.0005782339721918106
832.0,-5.912589767831378e-05
896.0,0.0003835884272120893
960.0,3.6766370612895116e-05
1024.0,-0.00010817492147907615
1152.0,-0.00041043286910280585
1280.0,-0.0016094375168904662
1408.0,-0.0029439395293593407
1536.0,-0.0035745392087846994
1664.0,-0.003461925545707345
1792.0,-0.0029106135480105877
1920.0,-0.0028411410748958588
2048.0,-0.003175408346578479
2304.0,-0.0033002179116010666
2560.0,-0.0027518842834979296
2816.0,-0.0019482654752209783
3072.0,-0.002551446668803692
3328.0,-0.002851912984624505
3584.0,-0.0026095067150890827
3840.0,0.0004346973146311939
4096.0,0.0012607662938535213
end
