version,3.0
numOfCh,1
type,point
parent_name,8-cuts
ch_type,1_1
kcount,1
numberNandB,1
brightnessNandB,1
carpet pos,0
pc,0
Time (ms),CH1 Auto-Correlation
1.0,0.01638454757630825
2.0,0.013557285070419312
3.0,0.011503388173878193
4.0,0.009967532940208912
5.0,0.008832983672618866
6.0,0.007788149639964104
7.0,0.006898610852658749
8.0,0.006360695697367191
9.0,0.005717267282307148
10.0,0.00522576505318284
11.0,0.004821957089006901
12.0,0.004443875048309565
13.0,0.004161134362220764
14.0,0.003934346605092287
15.0,0.0036564823240041733
16.0,0.0034778574481606483
18.0,0.0032420193310827017
20.0,0.0029748203232884407
22.0,0.002899082377552986
24.0,0.0027132946997880936
26.0,0.002673056209459901
28.0,0.002493566134944558
30.0,0.0022207852452993393
32.0,0.0019753091037273407
36.0,0.0014771821442991495
40.0,0.0011831073788926005
44.0,0.0011624860344454646
48.0,0.0009714594343677163
52.0,0.0008272044360637665
56.0,0.0005898274830542505
60.0,0.0005019389791414142
64.0,0.0006738895317539573
72.0,0.000834852340631187
80.0,0.0006265111151151359
88.0,0.000282546563539654
96.0,0.0003260280063841492
104.0,-0.0001399663306074217
112.0,-0.0002514334046281874
120.0,-0.00020113847858738154
128.0,-0.00013564575056079775
144.0,-0.0004171455220784992
160.0,-0.0007407203083857894
176.0,-0.00039318270864896476
192.0,-0.0002601714222691953
208.0,-0.0001078059576684609
224.0,-5.084266740595922e-05
240.0,0.00016414973651990294
256.0,2.543916025388171e-06
288.0,-0.00011540947889443487
320.0,0.0005181003361940384
352.0,-4.4456435716710985e-05
384.0,3.8320402381941676e-05
416.0,-3.59540426870808e-05
448.0,-0.00022117650951258838
480.0,-0.00026559719117358327
512.0,-0.00034665977000258863
576.0,-0.0003929589001927525
640.0,-0.000225738956942223
704.0,-0.00018202658975496888
768.0,-0.00015364411228802055
832.0,0.00026088388403877616
896.0,-0.00025561655638739467
960.0,-0.00010283257870469242
1024.0,-4.1243321902584285e-05
1152.0,0.00021677918266505003
1280.0,-0.0004083577368874103
1408.0,8.222587348427624e-05
1536.0,-0.000134765388793312
1664.0,-0.00045434501953423023
1792.0,0.00026694414555095136
1920.0,5.011428947909735e-05
2048.0,0.00025918325991369784
2304.0,0.00026128636091016233
2560.0,-1.1096029084001202e-05
2816.0,-0.0005280437180772424
3072.0,-4.843969873036258e-05
3328.0,9.700116061139852e-05
3584.0,-8.386468834942207e-05
3840.0,-0.00022109851124696434
4096.0,0.0002739850024227053
4608.0,0.0001426619419362396
5120.0,-0.0001848838583100587
5632.0,6.920782470842823e-05
6144.0,4.066854671691544e-06
6656.0,-5.835960109834559e-05
7168.0,-0.00015281738888006657
7680.0,7.18867449904792e-05
8192.0,0.0001106129857362248
9216.0,-0.00018396717496216297
10240.0,0.00017497182125225663
11264.0,-0.0001694677339401096
12288.0,-0.00010623346315696836
13312.0,-0.00020253010734450072
14336.0,0.00042393759940750897
end
