version,3.0
numOfCh,1
type,point
parent_name,8-cuts
ch_type,1_1
kcount,1
numberNandB,1
brightnessNandB,1
carpet pos,0
pc,0
Time (ms),CH1 Auto-Correlation
1.0,0.016610004007816315
2.0,0.013720551505684853
3.0,0.011686979793012142
4.0,0.010216141119599342
5.0,0.009072993882000446
6.0,0.008273261599242687
7.0,0.007567062508314848
8.0,0.006910099647939205
9.0,0.0062899463810026646
10.0,0.005788667593151331
11.0,0.005333559587597847
12.0,0.005000964272767305
13.0,0.004704228136688471
14.0,0.004394488409161568
15.0,0.004008103162050247
16.0,0.003757128491997719
18.0,0.0035324327182024717
20.0,0.003313435474410653
22.0,0.003013518638908863
24.0,0.0027041719295084476
26.0,0.002559210639446974
28.0,0.002564068650826812
30.0,0.0023953961208462715
32.0,0.002261238871142268
36.0,0.0018531486857682467
40.0,0.001630630693398416
44.0,0.001447897171601653
48.0,0.0012187761021777987
52.0,0.0011681378819048405
56.0,0.0012801492121070623
60.0,0.001207812107168138
64.0,0.00103668961673975
72.0,0.0009093573316931725
80.0,0.0007453046855516732
88.0,0.0006103337509557605
96.0,0.0004964272957295179
104.0,0.0009541010949760675
112.0,0.0008580955909565091
120.0,0.0005338735645636916
128.0,0.0008189842919819057
144.0,0.0001553560432512313
160.0,-0.0002801504160743207
176.0,-0.00021659275807905942
192.0,-0.0001685206952970475
208.0,8.957445061241742e-07
224.0,0.0001251191715709865
240.0,0.00012054575199726969
256.0,7.860355253797024e-05
288.0,-6.459507130784914e-05
320.0,-0.000182369229150936
352.0,-0.0004320450243540108
384.0,-0.0005087335593998432
416.0,4.614207227859879e-06
448.0,-0.00041987141594290733
480.0,-0.0006370207411237061
512.0,-0.00012790656182914972
576.0,-1.2596754459082149e-05
640.0,-0.00036371403257362545
704.0,-9.556399891152978e-05
768.0,1.6473450159537606e-05
832.0,0.00045014696661382914
896.0,0.0005461237160488963
960.0,0.0002745511010289192
1024.0,-0.00022711146448273212
1152.0,-0.00017537099483888596
1280.0,7.779478437441867e-06
1408.0,-5.921063348068856e-05
1536.0,-0.0003674734034575522
1664.0,-0.0002363900566706434
1792.0,0.0002272554993396625
1920.0,0.00016691407654434443
2048.0,0.0003297225048299879
2304.0,-0.0002316764584975317
2560.0,-0.0003311186737846583
2816.0,0.00012338282249402255
3072.0,-0.0002635726996231824
3328.0,-0.0001410392578691244
3584.0,1.5621377315255813e-05
3840.0,0.00013311819930095226
4096.0,-0.00025243169511668384
4608.0,-0.0002239986788481474
5120.0,2.33885020861635e-05
5632.0,0.00037452703691087663
6144.0,-1.927282391989138e-05
6656.0,0.0002239806781290099
7168.0,6.97146388120018e-05
7680.0,-9.055978443939239e-05
8192.0,-0.00022883502242621034
9216.0,3.0548257200280204e-05
10240.0,-6.959425809327513e-05
11264.0,-0.00010752493108157068
12288.0,0.0004054965393152088
13312.0,-0.0005417021457105875
14336.0,9.941329335561022e-05
end
