version,3.0
numOfCh,1
type,point
parent_name,8-cuts
ch_type,1_1
kcount,1
numberNandB,1
brightnessNandB,1
carpet pos,0
pc,0
Time (ms),CH1 Auto-Correlation
1.0,0.02656162716448307
2.0,0.02178443782031536
3.0,0.018411865457892418
4.0,0.01625661365687847
5.0,0.014522921293973923
6.0,0.013046636246144772
7.0,0.01181147713214159
8.0,0.01050406601279974
9.0,0.009581689722836018
10.0,0.008573994040489197
11.0,0.007785710971802473
12.0,0.007081048097461462
13.0,0.006705810781568289
14.0,0.006293985992670059
15.0,0.005934577900916338
16.0,0.005637813825160265
18.0,0.005186362192034721
20.0,0.004860082175582647
22.0,0.004590215161442757
24.0,0.004471760708838701
26.0,0.004081290680915117
28.0,0.003909761551767588
30.0,0.0038009274285286665
32.0,0.0036423623096197844
36.0,0.0030372824985533953
40.0,0.002365999622270465
44.0,0.001951851649209857
48.0,0.002073746407404542
52.0,0.0016966179246082902
56.0,0.0014670497039332986
60.0,0.001036222791299224
64.0,0.000815979263279587
72.0,0.000978621537797153
80.0,0.0010405166540294886
88.0,0.0009385360172018409
96.0,0.0010406851070001721
104.0,0.0012822147691622376
112.0,0.0007560765370726585
120.0,0.0007976861670613289
128.0,0.0010062080109491944
144.0,0.0001662925787968561
160.0,-0.0003865946491714567
176.0,-0.0002288611140102148
192.0,0.0003634788445197046
208.0,0.000340220081852749
224.0,0.00010968917194986716
240.0,-0.00036184987402521074
256.0,-0.0009728851146064699
288.0,-0.0013581671519204974
320.0,-0.0012148807290941477
352.0,-0.0002638610021676868
384.0,-0.0007231107447296381
416.0,-0.0014408606803044677
448.0,-0.00046210185973905027
480.0,0.0004551387391984463
512.0,0.00011510401964187622
576.0,-0.0006409701309166849
640.0,-0.0010488119442015886
704.0,-0.00027679320191964507
768.0,-0.0009688338031992316
832.0,-5.305552258505486e-05
896.0,-0.00023723894264549017
960.0,-0.00035365676740184426
1024.0,6.328114068310242e-06
1152.0,0.00042080297134816647
1280.0,0.0002922879939433187
1408.0,0.0002530291676521301
1536.0,-0.00033039646223187447
1664.0,5.213427357375622e-05
1792.0,-3.402615402592346e-05
1920.0,0.00024170982942450792
2048.0,-0.00011813610035460442
2304.0,-0.00041144288843497634
2560.0,0.0007580419187434018
2816.0,-0.0005872182664461434
3072.0,0.00023784827499184757
3328.0,-0.00017733366985339671
3584.0,-0.00046160881174728274
3840.0,0.0006182885845191777
4096.0,-1.628950485610403e-05
4608.0,-0.0005027533043175936
5120.0,0.00012065377086400986
5632.0,-3.508912050165236e-05
6144.0,-0.0003869687207043171
6656.0,0.0006761198746971786
7168.0,-1.4047360309632495e-05
7680.0,-0.0004866822564508766
8192.0,0.00013947610568720847
9216.0,-7.274796371348202e-05
10240.0,0.00012694612087216228
11264.0,-0.0003500271704979241
12288.0,-6.439113349188119e-06
13312.0,0.0004075540055055171
14336.0,-0.0007282705046236515
end
