version,3.0
numOfCh,1
type,point
parent_name,8-cuts
ch_type,1_1
kcount,1
numberNandB,1
brightnessNandB,1
carpet pos,0
pc,0
Time (ms),CH1 Auto-Correlation
1.0,0.02828182466328144
2.0,0.023447619751095772
3.0,0.019975455477833748
4.0,0.01739904284477234
5.0,0.015379717573523521
6.0,0.013554410077631474
7.0,0.012078169733285904
8.0,0.010827756486833096
9.0,0.009725694544613361
10.0,0.009074480272829533
11.0,0.008463257923722267
12.0,0.007647223304957151
13.0,0.0069952537305653095
14.0,0.006258104462176561
15.0,0.005548358429223299
16.0,0.005086634308099747
18.0,0.004577859304845333
20.0,0.004236617125570774
22.0,0.0037100850604474545
24.0,0.0032309964299201965
26.0,0.0028352371882647276
28.0,0.0023501079995185137
30.0,0.0019634512718766928
32.0,0.0018430273048579693
36.0,0.001665966003201902
40.0,0.0017237295396625996
44.0,0.0017314099241048098
48.0,0.0015104388585314155
52.0,0.0014826052356511354
56.0,0.0015993877314031124
60.0,0.001499819103628397
64.0,0.0011714339489117265
72.0,0.0009820294799283147
80.0,0.0007394732674583793
88.0,0.0011245101923123002
96.0,0.0012074640253558755
104.0,0.0015595542499795556
112.0,0.0011575912358239293
120.0,0.0009354843641631305
128.0,0.001172408228740096
144.0,-3.151188502670266e-05
160.0,-3.77794676751364e-05
176.0,-0.00012498011346906424
192.0,-0.0005150306969881058
208.0,-0.0006399840931408107
224.0,-0.000697088660672307
240.0,-0.0004946828121319413
256.0,-0.0003723400004673749
288.0,-0.0009839291451498866
320.0,-0.0002613611286506057
352.0,-0.00012422155123203993
384.0,0.00026521793915890157
416.0,0.0009167768876068294
448.0,0.001129098585806787
480.0,0.0001451399439247325
512.0,-0.000558485568035394
576.0,0.0011940480908378959
640.0,0.0006009250064380467
704.0,-0.00034908822271972895
768.0,0.00031949920230545104
832.0,0.0001445757516194135
896.0,-7.11479879100807e-05
960.0,-0.0003088858211413026
1024.0,1.1790983990067616e-05
1152.0,-0.00016063939256127924
1280.0,0.00022204774722922593
1408.0,0.0005501964478753507
1536.0,-0.00030821445398032665
1664.0,-0.0007006920059211552
1792.0,1.4146510238788323e-06
1920.0,-0.00017514826322440058
2048.0,-0.00017154167289845645
2304.0,-0.00024193976423703134
2560.0,-0.0007250371854752302
2816.0,0.0005255421274341643
3072.0,-0.000321515224641189
3328.0,0.00031717639649286866
3584.0,0.0002423972327960655
3840.0,-0.000599331222474575
4096.0,0.0010941112414002419
4608.0,0.00014677975559607148
5120.0,8.916468686948065e-06
5632.0,-0.0002665508072823286
6144.0,0.0003826043976005167
6656.0,7.115417975001037e-05
7168.0,-0.0005041579715907574
7680.0,-0.0002430542663205415
8192.0,-0.0002533499209675938
9216.0,-0.0001993122132262215
10240.0,0.00032069478766061366
11264.0,-0.00012517742288764566
12288.0,-0.00046590311103500426
13312.0,-0.000449579005362466
14336.0,4.459899719222449e-05
end
