version,3.0
numOfCh,1
type,point
parent_name,8-cuts
ch_type,1_1
kcount,1
numberNandB,1
brightnessNandB,1
carpet pos,0
pc,0
Time (ms),CH1 Auto-Correlation
1.0,0.016213499009609222
2.0,0.013254045508801937
3.0,0.01111952867358923
4.0,0.009573427028954029
5.0,0.008371277712285519
6.0,0.0074744680896401405
7.0,0.00668655289337039
8.0,0.0060601625591516495
9.0,0.005490405950695276
10.0,0.005120276939123869
11.0,0.004857919178903103
12.0,0.0045766974799335
13.0,0.004322733264416456
14.0,0.00401352671906352
15.0,0.003793704556301236
16.0,0.0035448032431304455
18.0,0.0032009792048484087
20.0,0.0028332932852208614
22.0,0.0025774885434657335
24.0,0.0022648335434496403
26.0,0.0020246258936822414
28.0,0.0019340936560183764
30.0,0.0017716450383886695
32.0,0.0018028427148237824
36.0,0.0019349202048033476
40.0,0.0018783321138471365
44.0,0.0014606037875637412
48.0,0.0012008637422695756
52.0,0.0012495581759139895
56.0,0.0009845751337707043
60.0,0.000738193339202553
64.0,0.00041916410555131733
72.0,0.000414101843489334
80.0,0.0005744197987951338
88.0,0.0004547559074126184
96.0,0.0005957586690783501
104.0,0.0006199726485647261
112.0,0.0005422368994913995
120.0,0.0006143073551356792
128.0,0.0002223610645160079
144.0,-5.253294511931017e-05
160.0,-0.00035753799602389336
176.0,-0.00014283704513218254
192.0,-0.0003004708851221949
208.0,-0.00019893664284609258
224.0,-0.00014537108654621989
240.0,-0.0005625571357086301
256.0,-0.0005634212284348905
288.0,3.738930172403343e-05
320.0,0.0003678089124150574
352.0,0.0005007768631912768
384.0,0.00039178537554107606
416.0,-2.0024443074362352e-05
448.0,7.665887096663937e-05
480.0,-4.094402538612485e-05
512.0,1.1033923328795936e-05
576.0,3.113408092758618e-05
640.0,-3.3849344617919996e-05
704.0,0.00010121882223756984
768.0,-0.0005623713950626552
832.0,-0.0008635161793790758
896.0,-0.00036224350333213806
960.0,-0.00022825770429335535
1024.0,-0.00014043247210793197
1152.0,-0.00033180881291627884
1280.0,-0.0005445333081297576
1408.0,-0.0002065651206066832
1536.0,0.00044148857705295086
1664.0,0.00032342338818125427
1792.0,9.094209235627204e-05
1920.0,0.0002240531612187624
2048.0,0.00036350139998830855
2304.0,-0.0005205465713515878
2560.0,-9.72873458522372e-05
2816.0,-6.009362891745695e-07
3072.0,-0.00019156443886458874
3328.0,-3.5223310987930745e-05
3584.0,0.00014042425027582794
3840.0,-0.0002340930950595066
4096.0,-2.5621142413001508e-05
4608.0,-6.78897322359262e-06
5120.0,6.245187250897288e-05
5632.0,-1.9771878214669414e-05
6144.0,4.196847658022307e-05
6656.0,0.0001653791405260563
7168.0,-0.0001489588903496042
7680.0,1.7444792320020497e-05
8192.0,7.470405398635194e-05
9216.0,4.6600540372310206e-05
10240.0,1.1648414783849148e-06
11264.0,-0.00023401451471727341
12288.0,0.0004640029219444841
13312.0,-0.0006417924887500703
14336.0,0.00029555693618021905
end
