version,3.0
numOfCh,1
type,point
parent_name,8-cuts
ch_type,1_1
kcount,1
numberNandB,1
brightnessNandB,1
carpet pos,0
pc,0
Time (ms),CH1 Auto-Correlation
1.0,0.02684377320110798
2.0,0.022207949310541153
3.0,0.018925676122307777
4.0,0.01654120907187462
5.0,0.014647288247942924
6.0,0.013019242323935032
7.0,0.011609497480094433
8.0,0.01067078672349453
9.0,0.010002683848142624
10.0,0.009222016669809818
11.0,0.008513152599334717
12.0,0.007817640900611877
13.0,0.007202435750514269
14.0,0.0068799168802797794
15.0,0.006568341515958309
16.0,0.006089316681027412
18.0,0.005333757493644953
20.0,0.00471294391900301
22.0,0.004094280768185854
24.0,0.0036598958540707827
26.0,0.0033554367255419493
28.0,0.0030290621798485518
30.0,0.0027434751391410828
32.0,0.0025305466260761023
36.0,0.002022122498601675
40.0,0.0014532261993736029
44.0,0.0011350675486028194
48.0,0.0009040494333021343
52.0,0.0009085781057365239
56.0,0.0011535959783941507
60.0,0.000769362086430192
64.0,0.00041468971176072955
72.0,0.0008069234900176525
80.0,0.0002905555011238903
88.0,-2.1452511646202765e-05
96.0,-0.0005249049863778055
104.0,-0.0003403454611543566
112.0,-0.0006248366553336382
120.0,-0.00024348113220185041
128.0,-0.0007396164000965655
144.0,-0.0002874302736017853
160.0,-0.00020064135605935007
176.0,0.0006966657820157707
192.0,0.0008013718761503696
208.0,0.0008124865707941353
224.0,0.0008588059572502971
240.0,0.00010616871441015974
256.0,-0.00031034171115607023
288.0,-0.0006145551451481879
320.0,-0.00025469769025221467
352.0,-0.0002081533893942833
384.0,-0.00034818577114492655
416.0,-0.0002967946056742221
448.0,5.046695878263563e-05
480.0,-0.0006303643458522856
512.0,2.7477241019369103e-05
576.0,-0.0005429633893072605
640.0,-0.0003440912114456296
704.0,3.3628593882895075e-06
768.0,-0.00011235670535825193
832.0,0.0002697327872738242
896.0,-0.000615810917224735
960.0,-0.0009074315312318504
1024.0,-0.0009202706860378385
1152.0,-0.0004989116569049656
1280.0,-0.00010001249756896868
1408.0,-0.00044146738946437836
1536.0,0.0001788622175808996
1664.0,-0.00011072834604419768
1792.0,0.00017243770707864314
1920.0,0.0005424369010142982
2048.0,0.0005653908592648804
2304.0,-7.032956636976451e-05
2560.0,-0.00010039324115496129
2816.0,7.303857273655012e-05
3072.0,-0.0001396212901454419
3328.0,0.00021905204630456865
3584.0,0.0003425219329074025
3840.0,-0.00022258618264459074
4096.0,-0.0002797344059217721
4608.0,-0.0006510579260066152
5120.0,0.0005880843382328749
5632.0,0.0004968747962266207
6144.0,-0.00038310614763759077
6656.0,-0.000571523851249367
7168.0,0.0005434306222014129
7680.0,-8.714212162885815e-05
8192.0,-0.00037046021316200495
9216.0,0.0004186436126474291
10240.0,-0.0004035664314869791
11264.0,6.698239303659648e-05
12288.0,-2.7116507226310205e-06
13312.0,-0.00021721486700698733
14336.0,0.00021639378974214196
end
