version,3.0
numOfCh,1
type,point
parent_name,8-cuts
ch_type,1_1
kcount,1
numberNandB,1
brightnessNandB,1
carpet pos,0
pc,0
Time (ms),CH1 Auto-Correlation
1.0,0.016703912988305092
2.0,0.013795328326523304
3.0,0.011627424508333206
4.0,0.010071010328829288
5.0,0.008886966854333878
6.0,0.007905778475105762
7.0,0.007077548187226057
8.0,0.0064170509576797485
9.0,0.005912713706493378
10.0,0.0054514966905117035
11.0,0.005049979314208031
12.0,0.004646632820367813
13.0,0.004356741905212402
14.0,0.0039706057868897915
15.0,0.003710080636665225
16.0,0.0035389759577810764
18.0,0.0031359633430838585
20.0,0.002955235308036208
22.0,0.002827994991093874
24.0,0.0026062806136906147
26.0,0.0023317523300647736
28.0,0.0021770682651549578
30.0,0.002118829172104597
32.0,0.0022837533615529537
36.0,0.002258733846247196
40.0,0.0019854495767503977
44.0,0.0016436888836324215
48.0,0.0013878520112484694
52.0,0.0010788535000756383
56.0,0.0010171367321163416
60.0,0.0009440412395633757
64.0,0.0007567200809717178
72.0,0.0007584179402329028
80.0,0.0006187590188346803
88.0,0.0006514075794257224
96.0,0.0009493641555309296
104.0,0.001005802070721984
112.0,0.0008311310084536672
120.0,0.0002679647586774081
128.0,0.00018290973093826324
144.0,0.0003530172980390489
160.0,0.00038722570752725005
176.0,-0.00014673035184387118
192.0,-0.00022566327243112028
208.0,-0.0001262145087821409
224.0,-0.0003083630290348083
240.0,-0.00036394709604792297
256.0,-0.00014022868708707392
288.0,-6.22319130343385e-05
320.0,-0.0004698707489296794
352.0,-0.0009813974611461163
384.0,-0.00074020802276209
416.0,-0.0007386562647297978
448.0,-0.0007525106193497777
480.0,-0.0004238346009515226
512.0,-0.0003933302650693804
576.0,0.00023306439106818289
640.0,0.0003373200597707182
704.0,0.0005025077261961997
768.0,0.00047346812789328396
832.0,0.00017254169506486505
896.0,0.00013440893962979317
960.0,-0.0004641929699573666
1024.0,-0.0005383549723774195
1152.0,-0.00010044067312264815
1280.0,6.508477963507175e-05
1408.0,0.0004222816787660122
1536.0,0.0004073499876540154
1664.0,-0.00016644901188556105
1792.0,-0.00020039197988808155
1920.0,-0.000284097739495337
2048.0,0.00014289357932284474
2304.0,5.9147052525077015e-05
2560.0,-0.00012125857028877363
2816.0,0.00021784759883303195
3072.0,-0.00046326254960149527
3328.0,-0.00019762232841458172
3584.0,0.00032605358865112066
3840.0,-9.029640932567418e-05
4096.0,-0.000306585367070511
4608.0,6.426224717870355e-05
5120.0,0.00027918131672777236
5632.0,-0.0002566644106991589
6144.0,2.833837606885936e-05
6656.0,-4.18786185036879e-05
7168.0,0.00027975335251539946
7680.0,-0.00017708221275825053
8192.0,-6.60447112750262e-05
9216.0,-0.00013688637409359217
10240.0,0.00013645479339174926
11264.0,-0.00048059714026749134
12288.0,0.00014195992844179273
13312.0,-0.0004479227645788342
14336.0,0.0003467174537945539
end
