version,3.0
numOfCh,1
type,point
parent_name,8-cuts
ch_type,1_1
kcount,1
numberNandB,1
brightnessNandB,1
carpet pos,0
pc,0
Time (ms),CH1 Auto-Correlation
1.0,0.028894085437059402
2.0,0.023981934413313866
3.0,0.020623041316866875
4.0,0.01817396841943264
5.0,0.01618104800581932
6.0,0.014824827201664448
7.0,0.013642878271639347
8.0,0.012465378269553185
9.0,0.01139849703758955
10.0,0.010486560873687267
11.0,0.009572280570864677
12.0,0.008954308927059174
13.0,0.008415252901613712
14.0,0.00795324519276619
15.0,0.00744204968214035
16.0,0.007173238322138786
18.0,0.006747599691152573
20.0,0.00641431612893939
22.0,0.005833363626152277
24.0,0.005182639695703983
26.0,0.004648065660148859
28.0,0.004475974477827549
30.0,0.004291579592972994
32.0,0.004005737137049437
36.0,0.0035113017074763775
40.0,0.0033897494431585073
44.0,0.003329248633235693
48.0,0.0031389545183628798
52.0,0.0029144829604774714
56.0,0.0025008697994053364
60.0,0.0025118598714470863
64.0,0.001976905856281519
72.0,0.0014727357774972916
80.0,0.0010844692587852478
88.0,0.0011889574816450477
96.0,0.0021868697367608547
104.0,0.002707150997593999
112.0,0.0019983442034572363
120.0,0.0008352196891792119
128.0,0.0009266079869121313
144.0,0.0004471306165214628
160.0,-0.00022971602447796613
176.0,-0.0001978187501663342
192.0,0.0006105469656176865
208.0,0.0010432967683300376
224.0,0.00040790310595184565
240.0,0.0007116821361705661
256.0,0.0009924962650984526
288.0,0.0008128107292577624
320.0,-0.00021582958288490772
352.0,-0.0004785301862284541
384.0,0.0005864113336429
416.0,0.00045771102304570377
448.0,-0.0002545546740293503
480.0,1.608655475138221e-05
512.0,0.00022052688291296363
576.0,-0.0003272548783570528
640.0,0.00011836957128252834
704.0,-0.0013239646796137094
768.0,-0.0005894196219742298
832.0,4.8862257244763896e-05
896.0,-1.760651321092155e-05
960.0,-0.000298481376376003
1024.0,-8.397637429879978e-05
1152.0,5.201710882829502e-05
1280.0,0.0007106237462721765
1408.0,0.00010710089554777369
1536.0,-6.182560173328966e-05
1664.0,-0.0013415548019111156
1792.0,-0.0006401319988071918
1920.0,-0.0001256200048374012
2048.0,-0.00016685879381839186
2304.0,-0.0003260670928284526
2560.0,-0.00030219429754652083
2816.0,0.0006177254836075008
3072.0,-0.0002380535879638046
3328.0,0.00022799782163929194
3584.0,9.181684436043724e-05
3840.0,-0.000483642186736688
4096.0,0.0007616888615302742
4608.0,-0.00012448561028577387
5120.0,-0.00037141688517294824
5632.0,-2.051240880973637e-05
6144.0,0.000788320554420352
6656.0,-0.0005926534649915993
7168.0,-0.00031810387736186385
7680.0,0.0005950642516836524
8192.0,-0.0002146186016034335
9216.0,-0.0005333958542905748
10240.0,-0.00029040395747870207
11264.0,7.058008486637846e-05
12288.0,0.0008908450836315751
13312.0,-0.0008788328850641847
14336.0,0.0006412944057956338
end
