version,3.0
numOfCh,1
type,point
parent_name,8-cuts
ch_type,1_1
kcount,1
numberNandB,1
brightnessNandB,1
carpet pos,0
pc,0
Time (ms),CH1 Auto-Correlation
1.0,0.017174378037452698
2.0,0.014095923863351345
3.0,0.011850614100694656
4.0,0.010245469398796558
5.0,0.00898627657443285
6.0,0.007965647615492344
7.0,0.0071165356785058975
8.0,0.006503453943878412
9.0,0.005961225368082523
10.0,0.005478106904774904
11.0,0.005034411791712046
12.0,0.004687203094363213
13.0,0.00434554647654295
14.0,0.004142022226005793
15.0,0.003794335760176182
16.0,0.0035596732050180435
18.0,0.003297551069408655
20.0,0.00300624524243176
22.0,0.002663644030690193
24.0,0.0023332403507083654
26.0,0.0020580627024173737
28.0,0.001962063368409872
30.0,0.00189398811198771
32.0,0.0017918320372700691
36.0,0.0016054376028478146
40.0,0.0014383470406755805
44.0,0.0012224033707752824
48.0,0.0009826157474890351
52.0,0.0008858400979079306
56.0,0.0006846904871053994
60.0,0.0004890096024610102
64.0,0.0004407996602822095
72.0,0.0009423696901649237
80.0,0.0009758608648553491
88.0,0.0009483765461482108
96.0,0.0004803029296454042
104.0,0.000759845192078501
112.0,0.0008655141573399305
120.0,0.0004989482695236802
128.0,0.00022830168018117547
144.0,0.00026708378572948277
160.0,0.0001770525414030999
176.0,0.00026288125081919134
192.0,0.0005151723744347692
208.0,0.00014662544708698988
224.0,-0.00018320507660973817
240.0,-3.03918441204587e-05
256.0,7.371897663688287e-05
288.0,0.0003129347169306129
320.0,0.00016180243983399123
352.0,0.0004024269583169371
384.0,0.0002900918771047145
416.0,0.00034722103737294674
448.0,0.0003249162109568715
480.0,0.0007688698242418468
512.0,0.00041539163794368505
576.0,-0.0001735614350764081
640.0,0.00038036014302633703
704.0,5.161168519407511e-05
768.0,-0.00022826201166026294
832.0,0.0001798848679754883
896.0,1.2305273230595049e-05
960.0,-0.0003011547669302672
1024.0,0.00025146311963908374
1152.0,0.0004244981682859361
1280.0,0.0001607784506632015
1408.0,-0.00034538714680820704
1536.0,-0.0003455754485912621
1664.0,-0.00013128461432643235
1792.0,-0.0005416312487795949
1920.0,-0.0006487562204711139
2048.0,-0.00038858785410411656
2304.0,8.840490045258775e-05
2560.0,-5.7784633099799976e-05
2816.0,-9.977983609132934e-06
3072.0,-0.00038215870154090226
3328.0,0.0001245938619831577
3584.0,0.0002806840930134058
3840.0,0.0003213508753105998
4096.0,0.0001745875197229907
4608.0,0.00020438026695046574
5120.0,-0.0003420960856601596
5632.0,-0.0002912257914431393
6144.0,-0.0004797767905984074
6656.0,-0.00027482930454425514
7168.0,-2.387035965512041e-05
7680.0,0.0001062220471794717
8192.0,0.0004091259033884853
9216.0,-0.0002096904063364491
10240.0,-0.00027276945183984935
11264.0,0.00023304412025026977
12288.0,0.0005728380056098104
13312.0,-0.00015659895143471658
14336.0,-0.00029551476472988725
end
