version,3.0
numOfCh,1
type,point
parent_name,8-cuts
ch_type,1_1
kcount,1
numberNandB,1
brightnessNandB,1
carpet pos,0
pc,0
Time (ms),CH1 Auto-Correlation
1.0,0.016570888459682465
2.0,0.013715388253331184
3.0,0.011596392840147018
4.0,0.009970547631382942
5.0,0.00878097489476204
6.0,0.0077691590413451195
7.0,0.007123047951608896
8.0,0.006587197072803974
9.0,0.006136755924671888
10.0,0.005748702213168144
11.0,0.005248209461569786
12.0,0.004810473416000605
13.0,0.00445847911760211
14.0,0.0041215321980416775
15.0,0.0038758134469389915
16.0,0.0036632553674280643
18.0,0.0032967349980026484
20.0,0.0029537351801991463
22.0,0.002747248625382781
24.0,0.0026475193444639444
26.0,0.0024579924065619707
28.0,0.0021359622478485107
30.0,0.0018813208444043994
32.0,0.001896212575957179
36.0,0.0017189803766086698
40.0,0.0016107760602608323
44.0,0.001482745399698615
48.0,0.0013890237314626575
52.0,0.0012331351172178984
56.0,0.0009812097996473312
60.0,0.0008663312182761729
64.0,0.0010441779159009457
72.0,0.0007650894112884998
80.0,0.0011444402625784278
88.0,0.0009610144188627601
96.0,0.0007405139622278512
104.0,0.0004288667696528137
112.0,0.0005428831791505218
120.0,0.0003124350041616708
128.0,5.501431951415725e-05
144.0,7.913394074421376e-05
160.0,3.552137059159577e-05
176.0,-0.00012624786177184433
192.0,-0.0003273507463745773
208.0,-0.0007160604000091553
224.0,5.552655420615338e-05
240.0,-0.00010038469918072224
256.0,-0.0001288271596422419
288.0,-0.00026968095335178077
320.0,-0.00023856599000282586
352.0,-4.668047040468082e-06
384.0,0.00017670838860794902
416.0,0.00011056780931539834
448.0,8.247373625636101e-05
480.0,0.00010321562876924872
512.0,0.00018599911709316075
576.0,-0.00032027321867644787
640.0,-0.00035955640487372875
704.0,0.0004028292605653405
768.0,0.0004936782061122358
832.0,0.00012578642053995281
896.0,0.00020816810138057917
960.0,-5.25762043253053e-05
1024.0,-0.0003544831706676632
1152.0,0.00042590367957018316
1280.0,0.00042395538184791803
1408.0,-0.0002471081679686904
1536.0,-0.00021129434753675014
1664.0,-0.0007149270968511701
1792.0,-0.00023479863011743873
1920.0,0.0008012571488507092
2048.0,0.0003171475837007165
2304.0,0.00019572519522625953
2560.0,-8.926614827942103e-05
2816.0,-0.00020574034715536982
3072.0,0.000150250707520172
3328.0,0.00022084199008531868
3584.0,-0.00018758141959551722
3840.0,0.0002088486508000642
4096.0,-3.3525524486321956e-05
4608.0,-0.00021900417050346732
5120.0,0.0002558852138463408
5632.0,9.675259934738278e-05
6144.0,2.3285929273697548e-05
6656.0,-0.0005835911724716425
7168.0,-0.00010672761709429324
7680.0,-0.00018340993847232312
8192.0,0.00012620777124539018
9216.0,-0.000271035882178694
10240.0,-0.00017305693472735584
11264.0,-0.00013319187564775348
12288.0,-0.000149810774018988
13312.0,1.093009086616803e-05
14336.0,-2.133383350155782e-05
end
