version,3.0
numOfCh,1
type,point
parent_name,8-cuts
ch_type,1_1
kcount,1
numberNandB,1
brightnessNandB,1
carpet pos,0
pc,0
Time (ms),CH1 Auto-Correlation
1.0,0.027957232668995857
2.0,0.02295687049627304
3.0,0.019545849412679672
4.0,0.017115842550992966
5.0,0.015027865767478943
6.0,0.013392062857747078
7.0,0.011932256631553173
8.0,0.010655069723725319
9.0,0.009680021554231644
10.0,0.00875241681933403
11.0,0.008274076506495476
12.0,0.007759853266179562
13.0,0.0072609554044902325
14.0,0.0066231293603777885
15.0,0.006200050935149193
16.0,0.005814050789922476
18.0,0.005198156461119652
20.0,0.004730225540697575
22.0,0.004270951263606548
24.0,0.003992518410086632
26.0,0.003615514375269413
28.0,0.0031494400463998318
30.0,0.002767485100775957
32.0,0.0025733700022101402
36.0,0.0018550531240180135
40.0,0.0019008712843060493
44.0,0.00211193785071373
48.0,0.001793749281205237
52.0,0.0015164290089160204
56.0,0.0015669773565605283
60.0,0.0018078313441947103
64.0,0.0018256963230669498
72.0,0.0017283163033425808
80.0,0.0018264560494571924
88.0,0.001318843220360577
96.0,0.0006017248961143196
104.0,-0.0001577807415742427
112.0,-0.00031197775388136506
120.0,-0.00014736264711245894
128.0,5.8116871514357626e-05
144.0,0.00037637740024365485
160.0,-0.00018097452993970364
176.0,0.00033646670635789633
192.0,0.00028306737658567727
208.0,0.00012802501441910863
224.0,-2.1502051822608337e-05
240.0,-0.0002272208803333342
256.0,3.4490687539801e-05
288.0,-0.0002584194589871913
320.0,-0.0002913169446401298
352.0,-0.0006826393655501306
384.0,-0.0010916013270616531
416.0,-0.00027535672415979207
448.0,-0.00017937588563654572
480.0,0.0003542198392096907
512.0,0.0007857950986362994
576.0,0.0007175601786002517
640.0,0.00015522057947237045
704.0,-6.127007509348914e-05
768.0,-0.0007017009775154293
832.0,-0.0009039799915626645
896.0,-0.0006780634867027402
960.0,-0.00030521239386871457
1024.0,0.00029484109836630523
1152.0,-7.27431324776262e-05
1280.0,5.28520922671305e-06
1408.0,-2.9468408683896996e-05
1536.0,0.00010790756641654298
1664.0,0.00011193592217750847
1792.0,0.00026784971123561263
1920.0,-0.0004987712018191814
2048.0,0.0006146763917058706
2304.0,-0.00012093123223166913
2560.0,9.332900663139299e-05
2816.0,-0.0004368259396869689
3072.0,0.00028658745577558875
3328.0,0.00012621984933502972
3584.0,5.0396651204209775e-05
3840.0,-5.765121022704989e-05
4096.0,-0.00039634297718293965
4608.0,-8.877856453182176e-05
5120.0,1.420383523509372e-05
5632.0,-0.00020733564451802522
6144.0,0.0003637845511548221
6656.0,0.0001933880994329229
7168.0,-0.0002436886279610917
7680.0,5.0262053264304996e-05
8192.0,0.00011211750825168565
9216.0,8.241044997703284e-05
10240.0,0.0001915265165735036
11264.0,-0.00017766194650903344
12288.0,-0.0006192688597366214
13312.0,0.0002407676074653864
14336.0,-0.0008906174334697425
end
