version,3.0
numOfCh,1
type,point
parent_name,8-cuts
ch_type,1_1
kcount,1
numberNandB,1
brightnessNandB,1
carpet pos,0
pc,0
Time (ms),CH1 Auto-Correlation
1.0,0.01609685830771923
2.0,0.013307011686265469
3.0,0.011154060252010822
4.0,0.009717793203890324
5.0,0.008717073127627373
6.0,0.007889645174145699
7.0,0.007347919978201389
8.0,0.006724169012159109
9.0,0.006173707079142332
10.0,0.005624829791486263
11.0,0.00519950408488512
12.0,0.004796006716787815
13.0,0.004532855935394764
14.0,0.0042605348862707615
15.0,0.00400197971612215
16.0,0.003865113016217947
18.0,0.003565258113667369
20.0,0.003218753496184945
22.0,0.0029732780531048775
24.0,0.002780284034088254
26.0,0.002636711113154888
28.0,0.0024782000109553337
30.0,0.0021902674343436956
32.0,0.0020847111009061337
36.0,0.0019189085578545928
40.0,0.0018132939003407955
44.0,0.0016324351308867335
48.0,0.0016187125584110618
52.0,0.0018862521974369884
56.0,0.001941544353030622
60.0,0.0017367384862154722
64.0,0.001405271585099399
72.0,0.0012819261755794287
80.0,0.0011915179202333093
88.0,0.0008953544311225414
96.0,0.0006911910022608936
104.0,0.00036187630030326545
112.0,0.0003406672040000558
120.0,0.0005234415293671191
128.0,0.00048604750190861523
144.0,0.0005043590208515525
160.0,0.00024704515817575157
176.0,0.0005763915833085775
192.0,0.00046235171612352133
208.0,-0.0001351268874714151
224.0,8.250724931713194e-05
240.0,0.0002448773884680122
256.0,0.0002052933705272153
288.0,8.371980220545083e-05
320.0,0.00010626805305946618
352.0,-0.00019099852943327278
384.0,-0.00029458553763106465
416.0,-5.578694253927097e-05
448.0,0.00015563052147626877
480.0,-8.463220001431182e-05
512.0,-0.0006787114543840289
576.0,-0.0005311822169460356
640.0,0.00010587712313281372
704.0,-6.652908632531762e-05
768.0,0.0001213144714711234
832.0,0.00010522660886636004
896.0,0.00020237283024471253
960.0,-0.00017317688616458327
1024.0,-0.00034791469806805253
1152.0,-0.0005082993302494287
1280.0,6.224060780368745e-05
1408.0,-0.00039066796307452023
1536.0,0.00015542459732387215
1664.0,0.00017628940986469388
1792.0,-0.00010735519754234701
1920.0,-8.834988693706691e-05
2048.0,-0.0003058823640458286
2304.0,-9.966431389329955e-05
2560.0,0.0002893252531066537
2816.0,-7.42164411349222e-05
3072.0,0.00012732960749417543
3328.0,0.00019860973407048732
3584.0,-0.00014134285447653383
3840.0,9.596030577085912e-05
4096.0,8.94483964657411e-05
4608.0,-0.00039020724943839014
5120.0,-0.00022188897128216922
5632.0,-0.00026312179397791624
6144.0,7.725362956989557e-05
6656.0,0.00022761066793464124
7168.0,3.75786294171121e-05
7680.0,0.00023124586732592434
8192.0,-0.00012528694060165435
9216.0,0.0005560678546316922
10240.0,2.0598248738679104e-05
11264.0,-0.00020555866649374366
12288.0,-2.996711373270955e-05
13312.0,-0.0001422785862814635
14336.0,-0.00026285724015906453
end
