version,3.0
numOfCh,1
type,point
parent_name,8-cuts
ch_type,1_1
kcount,1
numberNandB,1
brightnessNandB,1
carpet pos,0
pc,0
Time (ms),CH1 Auto-Correlation
1.0,0.01674734242260456
2.0,0.013743522576987743
3.0,0.011669803410768509
4.0,0.010209497064352036
5.0,0.008967426605522633
6.0,0.007936724461615086
7.0,0.007146885618567467
8.0,0.006511449348181486
9.0,0.0058913035318255424
10.0,0.005352203734219074
11.0,0.004970913752913475
12.0,0.004526213742792606
13.0,0.004162767436355352
14.0,0.0038960555102676153
15.0,0.0035746213980019093
16.0,0.0033721430227160454
18.0,0.0029694712720811367
20.0,0.0025233973283320665
22.0,0.0022520083002746105
24.0,0.002092980546876788
26.0,0.0019830719102174044
28.0,0.0016430402174592018
30.0,0.0015215416206046939
32.0,0.0014259349554777145
36.0,0.0008940632687881589
40.0,0.0006835543899796903
44.0,0.0006939155282452703
48.0,0.0005152132944203913
52.0,0.00048552907537668943
56.0,0.00029344737413339317
60.0,0.00018234601884614676
64.0,0.00026989143225364387
72.0,0.0004701297148130834
80.0,0.0005822591483592987
88.0,0.0005570445791818202
96.0,0.0002458944800309837
104.0,0.00027298167697153986
112.0,0.00016579602379351854
120.0,-0.00014101326814852655
128.0,-0.00022950525453779846
144.0,-7.950615690788254e-05
160.0,0.00046011729864403605
176.0,0.00020732838311232626
192.0,0.00019655439245980233
208.0,0.00036818700027652085
224.0,0.0002506141609046608
240.0,0.0003951626713387668
256.0,0.0005833114846609533
288.0,0.0003110455290880054
320.0,0.0002922192797996104
352.0,-0.0004904217203147709
384.0,-8.679303573444486e-05
416.0,0.00021152652334421873
448.0,0.00023674595286138356
480.0,0.0005014268681406975
512.0,0.0006891621742397547
576.0,0.0003277726355008781
640.0,-0.0001666766038397327
704.0,0.00019493262516334653
768.0,4.429817181517137e-06
832.0,8.485573198413476e-05
896.0,-0.00027282556402496994
960.0,-0.00012780266115441918
1024.0,0.00015049398643895984
1152.0,-0.000623062951490283
1280.0,-0.00019492405408527702
1408.0,-0.00017268107330892235
1536.0,-6.042096720193513e-05
1664.0,-0.00045420799870043993
1792.0,-0.0008417065837420523
1920.0,-0.0005230349488556385
2048.0,-3.871559329127194e-06
2304.0,0.00011920951510546729
2560.0,-9.671871339378413e-06
2816.0,0.00015912132221274078
3072.0,0.00044464439270086586
3328.0,5.156212137080729e-05
3584.0,0.00019912405696231872
3840.0,0.00021982371981721371
4096.0,2.3409415007336065e-05
4608.0,-0.000298215018119663
5120.0,-0.0001926555560203269
5632.0,2.474111897754483e-05
6144.0,0.0002905256988015026
6656.0,0.00017394906899426132
7168.0,0.00010727433254942298
7680.0,-0.0002111248322762549
8192.0,-0.00030875104130245745
9216.0,0.00010658238170435652
10240.0,-0.00012915689148940146
11264.0,6.037831190042198e-05
12288.0,-4.7554905904689804e-05
13312.0,-0.00014304372598417103
14336.0,-0.00022801733575761318
end
