version,3.0
numOfCh,1
type,point
parent_name,8-cuts
ch_type,1_1
kcount,1
numberNandB,1
brightnessNandB,1
carpet pos,0
pc,0
Time (ms),CH1 Auto-Correlation
1.0,0.016963385045528412
2.0,0.014145402237772942
3.0,0.012121626175940037
4.0,0.010669087059795856
5.0,0.009502911940217018
6.0,0.008521996438503265
7.0,0.007752792909741402
8.0,0.007054838817566633
9.0,0.006506981793791056
10.0,0.006034451071172953
11.0,0.005537284538149834
12.0,0.00520111620426178
13.0,0.004901526030153036
14.0,0.004704837687313557
15.0,0.0043847388587892056
16.0,0.00412510521709919
18.0,0.0037298514507710934
20.0,0.003351991530507803
22.0,0.002968057757243514
24.0,0.0027900971472263336
26.0,0.002421458950266242
28.0,0.002177181886509061
30.0,0.00201964657753706
32.0,0.0018932067323476076
36.0,0.001520022051408887
40.0,0.0012217857874929905
44.0,0.0012118179583922029
48.0,0.0010056239552795887
52.0,0.0006982932682149112
56.0,0.0008114416850730777
60.0,0.0007633395143784583
64.0,0.0007392637198790908
72.0,0.0005914029316045344
80.0,0.0002255010767839849
88.0,0.00012650842836592346
96.0,0.0004702298028860241
104.0,0.0007025105878710747
112.0,0.0004397910088300705
120.0,0.0002523332950659096
128.0,0.00044904029346071184
144.0,0.00013492829748429358
160.0,0.00018091170932166278
176.0,0.0003810278431046754
192.0,0.0005430507590062916
208.0,0.00040366395842283964
224.0,0.00016881943156477064
240.0,0.0001118557047448121
256.0,6.59125144011341e-05
288.0,0.0003267936990596354
320.0,0.0004484629025682807
352.0,0.00013783888425678015
384.0,0.00028895732248201966
416.0,0.0006175743765197694
448.0,0.00034966025850735605
480.0,-0.00022537991753779352
512.0,-0.00031667883740738034
576.0,2.284919219164294e-06
640.0,-0.00036578060826286674
704.0,0.00025173029280267656
768.0,8.010362944332883e-05
832.0,-0.0005918490351177752
896.0,-0.0001395103317918256
960.0,-9.129418322117999e-05
1024.0,-0.00029062869725748897
1152.0,-0.0007809127564541996
1280.0,-0.00047263343003578484
1408.0,-0.00037017613067291677
1536.0,-0.0005402548122219741
1664.0,-0.0003264489641878754
1792.0,-0.00027421177946962416
1920.0,-0.0003559179895091802
2048.0,1.875227280834224e-05
2304.0,0.00012918119318783283
2560.0,0.00017896330973599106
2816.0,0.0001059362621163018
3072.0,5.8121600886806846e-05
3328.0,0.00021376823133323342
3584.0,-0.00011854305193992332
3840.0,-0.0002374716568738222
4096.0,0.00011515267397044227
4608.0,0.00014600659778807312
5120.0,0.00012140329636167735
5632.0,-0.00012243691890034825
6144.0,-0.00021968588407617062
6656.0,-9.083222539629787e-05
7168.0,0.00010136106720892712
7680.0,0.000370237190509215
8192.0,-3.642485535237938e-05
9216.0,6.097244749980746e-06
10240.0,5.6104923714883626e-05
11264.0,0.00011350090062478557
12288.0,-0.00012748295557685196
13312.0,3.2136449590325356e-05
14336.0,-0.00011517171515151858
end
