version,3.0
numOfCh,1
type,point
parent_name,8-cuts
ch_type,1_1
kcount,1
numberNandB,1
brightnessNandB,1
carpet pos,0
pc,0
Time (ms),CH1 Auto-Correlation
1.0,0.015703285112977028
2.0,0.012863664887845516
3.0,0.011012278497219086
4.0,0.009570220485329628
5.0,0.00840371660888195
6.0,0.007543379906564951
7.0,0.006728421896696091
8.0,0.006078717764467001
9.0,0.0055892919190227985
10.0,0.005099148955196142
11.0,0.004593880381435156
12.0,0.004163994919508696
13.0,0.0038153508212417364
14.0,0.0035163965076208115
15.0,0.003257435280829668
16.0,0.0030867981258779764
18.0,0.0027612086851149797
20.0,0.0023883504327386618
22.0,0.002111256355419755
24.0,0.0018734559416770935
26.0,0.001656164531596005
28.0,0.001430449658073485
30.0,0.0012139498721808195
32.0,0.0011134919477626681
36.0,0.0011175667168572545
40.0,0.0010492084547877312
44.0,0.001215251162648201
48.0,0.0008938770042732358
52.0,0.0009091407991945744
56.0,0.0008428763831034303
60.0,0.0008611528319306672
64.0,0.0007798414444550872
72.0,0.0004360207822173834
80.0,0.0004028035618830472
88.0,-3.717836079886183e-05
96.0,-0.00011195264960406348
104.0,8.867945871315897e-05
112.0,0.00025362122687511146
120.0,0.00043931420077569783
128.0,0.00045764335663989186
144.0,3.2340736652258784e-05
160.0,-0.0003836270479951054
176.0,-0.0002954510855488479
192.0,2.3031157979858108e-05
208.0,0.0007014353177510202
224.0,0.0008578987326472998
240.0,-3.8320293242577463e-05
256.0,-0.00021072391245979816
288.0,9.59861499723047e-05
320.0,0.00021614179422613233
352.0,0.0007554976036772132
384.0,0.0003241013328079134
416.0,0.00037519997567869723
448.0,-7.376137364190072e-05
480.0,9.651116670283955e-06
512.0,9.511198004474863e-05
576.0,9.700845112092793e-05
640.0,0.00010403686610516161
704.0,-0.00014049757737666368
768.0,8.336842256539967e-06
832.0,3.318429662613198e-05
896.0,0.00020843386300839484
960.0,-0.00017182911687996238
1024.0,7.161752000683919e-05
1152.0,7.359779556281865e-05
1280.0,0.00024178445164579898
1408.0,0.0002338978520128876
1536.0,-0.0005625619669444859
1664.0,-0.00029015165637247264
1792.0,-0.00032865090179257095
1920.0,-0.00039356801426038146
2048.0,-0.000523501425050199
2304.0,-4.9669764848658815e-05
2560.0,-0.00013386673526838422
2816.0,0.00014012488827574998
3072.0,-2.0654499166994356e-05
3328.0,0.00013508190750144422
3584.0,0.00011177190026501194
3840.0,0.00014842436939943582
4096.0,0.00017843037494458258
4608.0,-0.00012531160609796643
5120.0,-0.0002746884129010141
5632.0,-0.00013960419164504856
6144.0,-3.998679676442407e-05
6656.0,0.00023849040735512972
7168.0,0.0003077713481616229
7680.0,5.742196663049981e-05
8192.0,-0.0001074766696547158
9216.0,-0.0002640563470777124
10240.0,0.00016294089436996728
11264.0,4.978909055353142e-05
12288.0,-0.00020665988267865032
13312.0,0.00016044954827520996
14336.0,0.00017764292715582997
end
