version,3.0
numOfCh,1
type,point
parent_name,8-cuts
ch_type,1_1
kcount,1
numberNandB,1
brightnessNandB,1
carpet pos,0
pc,0
Time (ms),CH1 Auto-Correlation
1.0,0.015581740066409111
2.0,0.01276085153222084
3.0,0.010768163949251175
4.0,0.009370356798171997
5.0,0.008293209597468376
6.0,0.007398922462016344
7.0,0.006598248146474361
8.0,0.005955783184617758
9.0,0.005421899259090424
10.0,0.004986639134585857
11.0,0.004691217560321093
12.0,0.004386561922729015
13.0,0.004069930873811245
14.0,0.0038569143507629633
15.0,0.003537609474733472
16.0,0.0032329873647540808
18.0,0.002885020337998867
20.0,0.0025576725602149963
22.0,0.0022067083045840263
24.0,0.002203394426032901
26.0,0.0022201973479241133
28.0,0.0021244629751890898
30.0,0.0019921159837394953
32.0,0.0018358519300818443
36.0,0.0016630254685878754
40.0,0.001589874504134059
44.0,0.0016339580761268735
48.0,0.0014183538733050227
52.0,0.0011911530746147037
56.0,0.000889071321580559
60.0,0.0007538446807302535
64.0,0.000625545799266547
72.0,0.00031857987050898373
80.0,0.00012073657853761688
88.0,0.00018212477152701467
96.0,0.0002636091667227447
104.0,0.00014349250704981387
112.0,0.00022216229990590364
120.0,0.000398284726543352
128.0,0.0003895765985362232
144.0,0.0005984696326777339
160.0,5.925530058448203e-05
176.0,-0.00025154341710731387
192.0,-0.0005637402064166963
208.0,-0.0007017010357230902
224.0,-0.0008328460389748216
240.0,-0.00030559650622308254
256.0,-2.8893024136777967e-05
288.0,-7.175328209996223e-05
320.0,-8.705004438525066e-05
352.0,-2.4807124646031298e-05
384.0,-0.00019569769210647792
416.0,-0.0003583105863071978
448.0,-0.00038068467983976007
480.0,-0.0005957080284133554
512.0,-0.0002736853202804923
576.0,-0.0001400232722517103
640.0,-0.0003822769795078784
704.0,0.00024396899971179664
768.0,0.0003057373105548322
832.0,0.00021605452639050782
896.0,0.0003295761998742819
960.0,-0.00010821605974342674
1024.0,0.0001509888970758766
1152.0,0.00013122982636559755
1280.0,-0.00013963108358439058
1408.0,-5.8746252761920914e-05
1536.0,9.524028428131714e-06
1664.0,-8.731336856726557e-05
1792.0,-0.00027919845888391137
1920.0,-0.00023160898126661777
2048.0,1.1004860425600782e-05
2304.0,0.00023289385717362165
2560.0,8.556760440114886e-05
2816.0,-0.00011405218538129702
3072.0,4.851740868616616e-06
3328.0,0.00021609336545225233
3584.0,0.00016408719238825142
3840.0,0.0002734350273385644
4096.0,-0.00011327741231070831
4608.0,-0.0002719596086535603
5120.0,-4.692901347880252e-05
5632.0,0.00012668319686781615
6144.0,-4.581844768836163e-05
6656.0,8.37345578474924e-05
7168.0,3.97597614210099e-05
7680.0,-9.113310079555959e-05
8192.0,-0.00011143137089675292
9216.0,-0.00020876496273558587
10240.0,0.0001480126375099644
11264.0,-0.00018392421770840883
12288.0,-0.00021641877538058907
13312.0,0.00031263436540029943
14336.0,-0.000269992247922346
end
