version,3.0
numOfCh,1
type,point
parent_name,8-cuts
ch_type,1_1
kcount,1
numberNandB,1
brightnessNandB,1
carpet pos,0
pc,0
Time (ms),CH1 Auto-Correlation
1.0,0.02554994262754917
2.0,0.020940197631716728
3.0,0.01772908680140972
4.0,0.015195131301879883
5.0,0.013298224657773972
6.0,0.011848506517708302
7.0,0.010689753107726574
8.0,0.009560544975101948
9.0,0.00866352766752243
10.0,0.007855666801333427
11.0,0.007162401918321848
12.0,0.006627925205975771
13.0,0.006103789899498224
14.0,0.005676110740751028
15.0,0.005424653645604849
16.0,0.005256848409771919
18.0,0.004943054635077715
20.0,0.004543897695839405
22.0,0.004439303185790777
24.0,0.004056625999510288
26.0,0.0035488037392497063
28.0,0.003192506730556488
30.0,0.002698795171454549
32.0,0.002216787775978446
36.0,0.001851172768510878
40.0,0.0012268590508028865
44.0,0.0011562432628124952
48.0,0.0009761334513314068
52.0,0.0006191611173562706
56.0,0.00047816813457757235
60.0,0.00036574434489011765
64.0,0.0005034650093875825
72.0,0.0007440286572091281
80.0,0.00041442480869591236
88.0,-5.191027594264597e-05
96.0,-9.667609265306965e-05
104.0,-1.9247403542976826e-05
112.0,-0.0006223552627488971
120.0,-0.0008332233410328627
128.0,-0.00046577808097936213
144.0,-1.7867127098725177e-05
160.0,0.00021177338203415275
176.0,0.0008727413369342685
192.0,0.0011812427546828985
208.0,0.0006904524052515626
224.0,0.0011289201211184263
240.0,0.0014649750664830208
256.0,0.0005428673466667533
288.0,1.0813901099027134e-06
320.0,0.0004546723794192076
352.0,0.0004380342725198716
384.0,-0.00021976101561449468
416.0,-0.0009940287563949823
448.0,-0.0003774521464947611
480.0,-0.00036440620897337794
512.0,-0.00017624183965381235
576.0,0.00013083260273560882
640.0,-0.0005115970270708203
704.0,0.0001222899300046265
768.0,-0.0006619755295105278
832.0,-0.00040884330519475043
896.0,-4.581657412927598e-05
960.0,-0.00041340995812788606
1024.0,9.603680518921465e-05
1152.0,-0.0009136951994150877
1280.0,-0.00016856988077051938
1408.0,-0.00020337392925284803
1536.0,0.0006051788222976029
1664.0,-5.824692561873235e-05
1792.0,0.00026738469023257494
1920.0,-5.7165299949701875e-05
2048.0,-0.0005172874080017209
2304.0,-0.00017067650333046913
2560.0,1.8059095964417793e-05
2816.0,-4.262600850779563e-05
3072.0,-4.479244671529159e-05
3328.0,-0.00013544286775868386
3584.0,-0.0004832117410842329
3840.0,-0.00021598138846457005
4096.0,0.00011024883133359253
4608.0,0.0007068926352076232
5120.0,-8.170172804966569e-05
5632.0,-2.0730518372147344e-05
6144.0,0.00023206470359582454
6656.0,-0.0005744732334278524
7168.0,0.00013226582086645067
7680.0,0.00020962036796845496
8192.0,-0.0007118243956938386
9216.0,0.00017526751616969705
10240.0,0.00021393630595412105
11264.0,-1.8905462638940662e-05
12288.0,-0.0002827700227499008
13312.0,0.0002951851056423038
14336.0,6.13909141975455e-05
end
