version,3.0
numOfCh,1
type,point
parent_name,8-cuts
ch_type,1_1
kcount,1
numberNandB,1
brightnessNandB,1
carpet pos,0
pc,0
Time (ms),CH1 Auto-Correlation
1.0,0.016348157078027725
2.0,0.01332841906696558
3.0,0.011260057799518108
4.0,0.009681944735348225
5.0,0.008462526835501194
6.0,0.007472638506442308
7.0,0.006598588079214096
8.0,0.005917489528656006
9.0,0.005390662234276533
10.0,0.004882100038230419
11.0,0.004363310523331165
12.0,0.0039392211474478245
13.0,0.00341526186093688
14.0,0.003099922789260745
15.0,0.0027682208456099033
16.0,0.002575414255261421
18.0,0.002156645990908146
20.0,0.0017815338214859366
22.0,0.0015075508272275329
24.0,0.001330542261712253
26.0,0.0011242191540077329
28.0,0.0009914688998833299
30.0,0.0010397365549579263
32.0,0.0011274657445028424
36.0,0.001141082146205008
40.0,0.0010458719916641712
44.0,0.0008050303440541029
48.0,0.0005772654549218714
52.0,0.0007025537779554725
56.0,0.0005486960289999843
60.0,0.00036149853258393705
64.0,0.0002810891892295331
72.0,0.00016728066839277744
80.0,0.00046560040209442377
88.0,0.0002943122526630759
96.0,0.0003036122361663729
104.0,4.608037488651462e-05
112.0,-0.00024021900026127696
120.0,-0.00010536625632084906
128.0,0.00010533210297580808
144.0,4.16412040067371e-05
160.0,0.0003568559477571398
176.0,0.00050029979320243
192.0,0.00017486825527157634
208.0,-0.00021303298126440495
224.0,-0.00030269697890616953
240.0,-0.0007698516128584743
256.0,-0.0004754055116791278
288.0,0.0005455362843349576
320.0,0.0003331411280669272
352.0,-3.6481378629105166e-05
384.0,-2.4028742700465955e-05
416.0,0.0002855339553207159
448.0,0.00011348854604875669
480.0,0.000472635350888595
512.0,0.0003152257122565061
576.0,-0.000420942873461172
640.0,-0.00017838069470599294
704.0,0.0002751644642557949
768.0,-6.364160071825609e-05
832.0,0.00013628497254103422
896.0,-0.0001821670011850074
960.0,-0.00018790012109093368
1024.0,0.0002161115553462878
1152.0,-5.1913069910369813e-05
1280.0,-0.00015309802256524563
1408.0,-0.00040756381349638104
1536.0,-0.00034902969491668046
1664.0,-9.531562682241201e-06
1792.0,8.184272883227095e-05
1920.0,-0.00030176687869243324
2048.0,-0.00021897263650316745
2304.0,-0.0001331142266280949
2560.0,0.00015452157822437584
2816.0,0.00010075273166876286
3072.0,-0.000350818270817399
3328.0,-7.362934866250725e-07
3584.0,2.094729643431492e-05
3840.0,0.00021581549663096666
4096.0,7.814879791112617e-05
4608.0,0.00012621359201148152
5120.0,6.0576330724870786e-05
5632.0,2.3322971173911355e-05
6144.0,-9.918728028424084e-05
6656.0,-9.721004607854411e-05
7168.0,-4.5958517148392275e-05
7680.0,-5.5550652177771553e-05
8192.0,1.8450375137035735e-05
9216.0,6.390208000084385e-05
10240.0,-1.0441613994771615e-05
11264.0,-0.00023157747637014836
12288.0,2.5801118681556545e-05
13312.0,-2.9915356208221056e-05
14336.0,-2.2922935386304744e-05
end
