version,3.0
numOfCh,1
type,point
parent_name,8-cuts
ch_type,1_1
kcount,1
numberNandB,1
brightnessNandB,1
carpet pos,0
pc,0
Time (ms),CH1 Auto-Correlation
1.0,0.01615295745432377
2.0,0.013335851021111012
3.0,0.011270365677773952
4.0,0.009624208323657513
5.0,0.008460728451609612
6.0,0.007461817003786564
7.0,0.006658649072051048
8.0,0.006001692730933428
9.0,0.005464400164783001
10.0,0.004993473645299673
11.0,0.00464424304664135
12.0,0.004445982165634632
13.0,0.004195838235318661
14.0,0.003929466474801302
15.0,0.0036795202177017927
16.0,0.003459125990048051
18.0,0.0031632641330361366
20.0,0.0028295775409787893
22.0,0.0024211208801716566
24.0,0.0020580010022968054
26.0,0.0018716711783781648
28.0,0.0019044722430408
30.0,0.0017159993294626474
32.0,0.0015237533953040838
36.0,0.001279269577935338
40.0,0.0011825101682916284
44.0,0.0013092844747006893
48.0,0.0011643825564533472
52.0,0.0009641044307500124
56.0,0.0007208270253613591
60.0,0.00040579025517217815
64.0,0.000586204114370048
72.0,0.0005196096608415246
80.0,0.0005511981435120106
88.0,0.0002343207597732544
96.0,0.00033934152452275157
104.0,0.0005153118981979787
112.0,0.0010857224697247148
120.0,0.0009592099813744426
128.0,0.000852402881719172
144.0,-5.6637381931068376e-06
160.0,-0.00017439783550798893
176.0,0.0002147315099136904
192.0,0.0005179677973501384
208.0,0.000446819030912593
224.0,0.000387296051485464
240.0,0.00010765936895040795
256.0,0.0002570073411334306
288.0,0.000152680542669259
320.0,-0.00041715591214597225
352.0,-0.00023971534392330796
384.0,-1.909992533910554e-05
416.0,-0.0002762874064501375
448.0,5.78832405153662e-05
480.0,-9.021314326673746e-05
512.0,-0.0003411852230783552
576.0,2.6198131308774464e-05
640.0,-0.00020249662338756025
704.0,-0.00039321876829490066
768.0,-3.3868222089949995e-05
832.0,-0.00012223502562846988
896.0,-0.0002563140296842903
960.0,-0.000314706121571362
1024.0,0.00026844334206543863
1152.0,0.00047592195915058255
1280.0,0.0003304819983895868
1408.0,0.0004866690724156797
1536.0,0.00014080241089686751
1664.0,0.000138316405354999
1792.0,0.0005147820920683444
1920.0,-0.0005499232793226838
2048.0,-7.565083797089756e-05
2304.0,-6.828312325524166e-05
2560.0,-0.000328833149978891
2816.0,8.428389992332086e-05
3072.0,-6.707266493322095e-06
3328.0,-0.00018593021377455443
3584.0,-0.00010017420572694391
3840.0,8.5089159256313e-05
4096.0,-0.0003041307209059596
4608.0,-8.565433381590992e-05
5120.0,-0.00019066936511080712
5632.0,-0.00020074854546692222
6144.0,-2.771108120214194e-05
6656.0,-3.1427913199877366e-05
7168.0,-0.00017788336845114827
7680.0,2.5676861696410924e-05
8192.0,0.00022316402464639395
9216.0,0.0002020757965510711
10240.0,-3.934217966161668e-05
11264.0,-6.944554479559883e-05
12288.0,0.00028684717835858464
13312.0,-0.0001596203219378367
14336.0,2.8776603357982822e-05
end
