version,3.0
numOfCh,1
type,point
parent_name,8-cuts
ch_type,1_1
kcount,1
numberNandB,1
brightnessNandB,1
carpet pos,0
pc,0
Time (ms),CH1 Auto-Correlation
1.0,0.01463485136628151
2.0,0.011786050163209438
3.0,0.009862327948212624
4.0,0.008355860598385334
5.0,0.007250584661960602
6.0,0.006388171575963497
7.0,0.005673297680914402
8.0,0.005142080131918192
9.0,0.0045253983698785305
10.0,0.004011865239590406
11.0,0.003590202424675226
12.0,0.0033361734822392464
13.0,0.0031519574113190174
14.0,0.0028637712821364403
15.0,0.002669199602678418
16.0,0.002574886428192258
18.0,0.0022041129413992167
20.0,0.0019367261556908488
22.0,0.001753630000166595
24.0,0.0017016746569424868
26.0,0.0016413481207564473
28.0,0.0015132554108276963
30.0,0.0014503212878480554
32.0,0.0012921018060296774
36.0,0.000927274115383625
40.0,0.000915975368116051
44.0,0.0005267882370389998
48.0,0.0004784323973581195
52.0,0.00040944176726043224
56.0,0.00034454563865438104
60.0,0.0003744888526853174
64.0,0.00047905909013934433
72.0,0.0005394747713580728
80.0,0.0004300868895370513
88.0,0.0003377427055966109
96.0,0.0002541907306294888
104.0,0.00032209130586124957
112.0,0.0006337403319776058
120.0,0.0007693401421420276
128.0,0.00046952831326052547
144.0,0.0002869140007533133
160.0,-0.00010600516543490812
176.0,0.0001997608778765425
192.0,-8.762252400629222e-05
208.0,0.0002044757129624486
224.0,0.00010656839731382206
240.0,0.00028187513817101717
256.0,0.00035449632559902966
288.0,0.000278644758509472
320.0,-9.203134140989278e-06
352.0,-6.804725853726268e-05
384.0,-4.1327795770484954e-05
416.0,-0.0004074261523783207
448.0,-0.0005729022668674588
480.0,6.983623461565003e-05
512.0,0.0004501420189626515
576.0,7.059001654852182e-05
640.0,-0.0001204272557515651
704.0,-5.954024527454749e-05
768.0,-2.4983257389976643e-05
832.0,4.375783191790106e-06
896.0,0.0001778744626790285
960.0,-0.0003071418614126742
1024.0,-8.27250987640582e-05
1152.0,-0.00033361060195602477
1280.0,8.913863712223247e-05
1408.0,0.0001350289530819282
1536.0,-8.625690952612786e-07
1664.0,-0.00044226236059330404
1792.0,0.00018754742632154375
1920.0,-8.423935651080683e-05
2048.0,4.196617283014348e-06
2304.0,9.923295147018507e-05
2560.0,0.000189860220416449
2816.0,-0.00011561826977413148
3072.0,-7.758834544802085e-05
3328.0,-0.00010725858010118827
3584.0,-0.0003128850948996842
3840.0,0.00010127014684258029
4096.0,-0.0001302634336752817
4608.0,-2.593456520116888e-05
5120.0,-0.00012535456335172057
5632.0,-0.00023934767523314804
6144.0,-0.00019302632426843047
6656.0,0.00025210611056536436
7168.0,0.00037126909592188895
7680.0,-0.00019923617946915329
8192.0,4.540799272945151e-05
9216.0,0.00022937334142625332
10240.0,-2.757923721219413e-05
11264.0,4.705680112238042e-05
12288.0,-0.00010618477972457185
13312.0,-1.882933975139167e-05
14336.0,6.487954669864848e-05
end
