version,3.0
numOfCh,1
type,point
parent_name,8-cuts
ch_type,1_1
kcount,1
numberNandB,1
brightnessNandB,1
carpet pos,0
pc,0
Time (ms),CH1 Auto-Correlation
1.0,0.016368243843317032
2.0,0.013480281457304955
3.0,0.011372855864465237
4.0,0.009788734838366508
5.0,0.008608159609138966
6.0,0.007623191457241774
7.0,0.006799799855798483
8.0,0.006227816455066204
9.0,0.005743279121816158
10.0,0.005283397156745195
11.0,0.004982493817806244
12.0,0.004496830515563488
13.0,0.0041820029728114605
14.0,0.0038197531830519438
15.0,0.003464727196842432
16.0,0.0030328258872032166
18.0,0.00258092163130641
20.0,0.0021233863662928343
22.0,0.0019030236871913075
24.0,0.002019020263105631
26.0,0.0020384532399475574
28.0,0.001905036042444408
30.0,0.0019277309766039252
32.0,0.0019725661259144545
36.0,0.0017866453854367137
40.0,0.0016917623579502106
44.0,0.0015246211551129818
48.0,0.0012985302601009607
52.0,0.0010793589754030108
56.0,0.0010486796963959932
60.0,0.0009502175380475819
64.0,0.0010202355915680528
72.0,0.001372547005303204
80.0,0.001252687070518732
88.0,0.00047510649892501533
96.0,0.00014773303701076657
104.0,0.00029965268913656473
112.0,0.0005885957507416606
120.0,0.0005230324459262192
128.0,0.0005496293888427317
144.0,0.00036361339152790606
160.0,0.0002389845030847937
176.0,-0.00019101877114735544
192.0,-0.00026290598907507956
208.0,-0.0006954101845622063
224.0,-0.00046692238538526
240.0,-0.0010604651179164648
256.0,-0.0006944037158973515
288.0,-0.00033590313978493214
320.0,-0.00015713543689344078
352.0,-4.649595211958513e-05
384.0,6.567080708919093e-05
416.0,0.0003212254378013313
448.0,-9.449538629269227e-05
480.0,-0.00016792099631857127
512.0,2.7593316190177575e-05
576.0,0.00023359004990197718
640.0,0.0002942049177363515
704.0,0.00019407908257562667
768.0,-0.000242814960074611
832.0,-0.00021703264792449772
896.0,-0.00031703212880529463
960.0,-0.0003568638057913631
1024.0,0.00013046186359133571
1152.0,0.0002807686396408826
1280.0,0.00030957674607634544
1408.0,-0.0005236206343397498
1536.0,3.581946293707006e-05
1664.0,-6.945185305085033e-05
1792.0,-0.00028502813074737787
1920.0,9.833868534769863e-05
2048.0,-0.00015279941726475954
2304.0,-0.00012515275739133358
2560.0,9.111344843404368e-05
2816.0,0.00018928037025034428
3072.0,-9.852951188804582e-05
3328.0,0.00023393271840177476
3584.0,8.275286381831393e-05
3840.0,6.096921060816385e-05
4096.0,-0.00045660737669095397
4608.0,7.271909271366894e-05
5120.0,4.332962635089643e-05
5632.0,-0.000211523991310969
6144.0,-0.00013244668662082404
6656.0,-0.0003971608530264348
7168.0,4.952630843035877e-05
7680.0,-5.296301605994813e-05
8192.0,0.0003195935860276222
9216.0,-0.00023295423306990415
10240.0,-4.640363113139756e-05
11264.0,8.17484688013792e-05
12288.0,0.00016506075917277485
13312.0,1.1422068382671569e-05
14336.0,-6.940434832358733e-05
end
