version,3.0
numOfCh,1
type,point
parent_name,8-cuts
ch_type,1_1
kcount,1
numberNandB,1
brightnessNandB,1
carpet pos,0
pc,0
Time (ms),CH1 Auto-Correlation
1.0,0.02711937576532364
2.0,0.022392867133021355
3.0,0.019015779718756676
4.0,0.0165727436542511
5.0,0.014881194569170475
6.0,0.013394170440733433
7.0,0.01231815479695797
8.0,0.011334331706166267
9.0,0.010442123748362064
10.0,0.00965860765427351
11.0,0.008970433846116066
12.0,0.008507926017045975
13.0,0.007945185527205467
14.0,0.007493362762033939
15.0,0.006841723341494799
16.0,0.006451811175793409
18.0,0.0061092860996723175
20.0,0.00565084395930171
22.0,0.0052732378244400024
24.0,0.005073850043118
26.0,0.00480737816542387
28.0,0.004425614140927792
30.0,0.004223829600960016
32.0,0.004051434341818094
36.0,0.003984241280704737
40.0,0.0033368058502674103
44.0,0.0031726867891848087
48.0,0.002884960500523448
52.0,0.00312549015507102
56.0,0.0027405116707086563
60.0,0.002375194104388356
64.0,0.0023295602295547724
72.0,0.00247579300776124
80.0,0.0015894569223746657
88.0,0.001207843772135675
96.0,0.0012374920770525932
104.0,0.001517837168648839
112.0,0.0006493128021247685
120.0,0.00014851214655209333
128.0,-0.00024854973889887333
144.0,0.0003304423880763352
160.0,-4.6303477574838325e-05
176.0,-0.00022428702504839748
192.0,-0.0001997120853047818
208.0,0.00033679354237392545
224.0,-7.243859727168456e-05
240.0,-7.864090002840385e-05
256.0,-0.0002490574843250215
288.0,-9.27953533391701e-06
320.0,-6.679404759779572e-05
352.0,-0.0006745936698280275
384.0,-0.0004591475590132177
416.0,-0.0007457723841071129
448.0,-0.00041387014789506793
480.0,-0.0005484655848704278
512.0,0.00016959861386567354
576.0,2.4383798518101685e-05
640.0,-0.00030926891486160457
704.0,-0.0006373310461640358
768.0,9.015695104608312e-05
832.0,0.0012545527424663305
896.0,0.000667084997985512
960.0,-0.0008185943006537855
1024.0,-0.0005444305134005845
1152.0,-0.0001134412523242645
1280.0,-0.0002668291563168168
1408.0,0.000332982512190938
1536.0,0.00033950479701161385
1664.0,0.0008189046639017761
1792.0,0.0005491077317856252
1920.0,-3.9161546737886965e-05
2048.0,-0.00026916677597910166
2304.0,-0.00047911563888192177
2560.0,0.0003027749480679631
2816.0,0.0006955965654924512
3072.0,-0.0006727832951582968
3328.0,7.656776142539456e-05
3584.0,8.506146696163341e-05
3840.0,-0.00013361919263843447
4096.0,-0.0003463057510089129
4608.0,-9.48451561271213e-05
5120.0,-0.00013152672909200191
5632.0,6.286276766331866e-05
6144.0,-8.313736179843545e-05
6656.0,-0.00022519999765791
7168.0,-0.00037930996040813625
7680.0,-0.0005048993043601513
8192.0,-6.808124453527853e-05
9216.0,-0.00042120617581531405
10240.0,2.906375812017359e-05
11264.0,-0.0003879619762301445
12288.0,0.0003585755475796759
13312.0,-0.00029362805071286857
14336.0,0.0006807699101045728
end
