version,3.0
numOfCh,1
type,point
parent_name,8-cuts
ch_type,1_1
kcount,1
numberNandB,1
brightnessNandB,1
carpet pos,0
pc,0
Time (ms),CH1 Auto-Correlation
1.0,0.027179477736353874
2.0,0.02227352187037468
3.0,0.019015537574887276
4.0,0.016486383974552155
5.0,0.01437258068472147
6.0,0.012622210197150707
7.0,0.011146962642669678
8.0,0.010096477344632149
9.0,0.009342246688902378
10.0,0.008484827354550362
11.0,0.007657089736312628
12.0,0.006895903963595629
13.0,0.006396914832293987
14.0,0.006110986229032278
15.0,0.005918978713452816
16.0,0.005755753722041845
18.0,0.005434815771877766
20.0,0.005054963752627373
22.0,0.004710821434855461
24.0,0.004442608915269375
26.0,0.004462012555450201
28.0,0.004226204939186573
30.0,0.00395416934043169
32.0,0.00370297790504992
36.0,0.0031486554071307182
40.0,0.002689226996153593
44.0,0.002327209571376443
48.0,0.0024930103681981564
52.0,0.0023461743257939816
56.0,0.0022926684468984604
60.0,0.002356685232371092
64.0,0.002766988007351756
72.0,0.0024129212833940983
80.0,0.002257473533973098
88.0,0.0022525445092469454
96.0,0.0019145221449434757
104.0,0.0018242779187858105
112.0,0.0014307410456240177
120.0,0.0005986394244246185
128.0,0.0004110760346520692
144.0,0.00011431032180553302
160.0,-0.0006928915390744805
176.0,-0.0007729615899734199
192.0,-0.0009953021071851254
208.0,-0.0010705013992264867
224.0,-0.0005201577441766858
240.0,-0.00025179432122968137
256.0,-0.00043031893437728286
288.0,-0.0007459633052349091
320.0,-0.000620900362264365
352.0,-0.0002657376753631979
384.0,-0.00019798749417532235
416.0,0.0006391958449967206
448.0,0.00025747987092472613
480.0,-0.0005696479347534478
512.0,-8.874241029843688e-05
576.0,-0.0006357599631883204
640.0,0.00019886533846147358
704.0,0.0003436414699535817
768.0,0.00047867721877992153
832.0,4.826345684705302e-05
896.0,-0.0002894060453400016
960.0,-0.0008566571050323546
1024.0,-0.0002256672305520624
1152.0,7.981721864780411e-05
1280.0,0.0004850214463658631
1408.0,-1.6556985428906046e-05
1536.0,-0.0010775250848382711
1664.0,-0.0005174929392524064
1792.0,0.000260025990428403
1920.0,-0.0002845418348442763
2048.0,-0.0008317859028466046
2304.0,0.0007150464807637036
2560.0,0.0008049511816352606
2816.0,4.592337063513696e-05
3072.0,-0.00048046032316051424
3328.0,-1.2075655831722543e-05
3584.0,2.8071557608200237e-05
3840.0,0.00023807163233868778
4096.0,-0.0005861956742592156
4608.0,-0.0004205760487820953
5120.0,0.00047788978554308414
5632.0,-0.0007135848281905055
6144.0,6.529631355078891e-05
6656.0,-0.0002009130548685789
7168.0,5.723072536056861e-05
7680.0,0.0006102175102569163
8192.0,-0.00045028040767647326
9216.0,-0.00014810422726441175
10240.0,1.5137053196667694e-05
11264.0,5.300194243318401e-05
12288.0,-7.42808697395958e-05
13312.0,-2.0221215891069733e-05
14336.0,6.134029536042362e-05
end
