version,3.0
numOfCh,1
type,point
parent_name,8-cuts
ch_type,1_1
kcount,1
numberNandB,1
brightnessNandB,1
carpet pos,0
pc,0
Time (ms),CH1 Auto-Correlation
1.0,0.028469178825616837
2.0,0.023702872917056084
3.0,0.020317237824201584
4.0,0.017924169078469276
5.0,0.01603793166577816
6.0,0.014560883864760399
7.0,0.013457545079290867
8.0,0.01241366844624281
9.0,0.011376455426216125
10.0,0.010330554097890854
11.0,0.00960538350045681
12.0,0.008937224745750427
13.0,0.008483599871397018
14.0,0.008036399260163307
15.0,0.007677280809730291
16.0,0.007511196658015251
18.0,0.006596485618501902
20.0,0.0058586779050529
22.0,0.004994833841919899
24.0,0.004499382339417934
26.0,0.004369763191789389
28.0,0.003975477535277605
30.0,0.0036072784569114447
32.0,0.0032301698811352253
36.0,0.002850404242053628
40.0,0.0031508479733020067
44.0,0.00312073458917439
48.0,0.0030993949621915817
52.0,0.0028368569910526276
56.0,0.0023812432773411274
60.0,0.0017441438976675272
64.0,0.0016267257742583752
72.0,0.001777571626007557
80.0,0.0014035067288205028
88.0,0.0013965197140350938
96.0,0.0013071330031380057
104.0,0.0009865636238828301
112.0,0.0007744330796413124
120.0,0.001369379460811615
128.0,0.0012683157110586762
144.0,0.0006501612369902432
160.0,0.00026984550640918314
176.0,0.000575345300603658
192.0,0.0003270143351983279
208.0,-0.0003862741868942976
224.0,-0.00044016321771778166
240.0,-0.0009837059769779444
256.0,-0.0014224753249436617
288.0,-0.0009643377852626145
320.0,-0.000918976787943393
352.0,3.38126665155869e-05
384.0,-0.0012220494681969285
416.0,-0.0005037529044784606
448.0,-0.0004028308030683547
480.0,-0.00018616780289448798
512.0,-4.77238318126183e-05
576.0,9.456484258407727e-05
640.0,7.833448034944013e-05
704.0,-0.00012475020776037127
768.0,0.0006619973573833704
832.0,7.810282113496214e-05
896.0,-0.00046664802357554436
960.0,0.0002044999855570495
1024.0,-0.00044444462400861084
1152.0,0.00038348801899701357
1280.0,-0.0001781557803042233
1408.0,-0.0009589892579242587
1536.0,-0.00034490195685066283
1664.0,0.0009807362221181393
1792.0,0.0013261057902127504
1920.0,0.0002672850387170911
2048.0,-3.834249218925834e-05
2304.0,0.00019301440624985844
2560.0,4.104540130356327e-05
2816.0,-2.4607737941551022e-05
3072.0,-6.2703679759579245e-06
3328.0,0.00031482125632464886
3584.0,0.0004981636302545667
3840.0,-0.00010124569962499663
4096.0,0.0004154944035690278
4608.0,-0.0001097834829124622
5120.0,-4.513852036325261e-05
5632.0,0.00019257688836660236
6144.0,0.0001372298429487273
6656.0,-0.0001800290629034862
7168.0,-0.0003611019637901336
7680.0,2.1943360479781404e-05
8192.0,-0.00012352365592960268
9216.0,-0.0003395174571778625
10240.0,-0.0004377705918159336
11264.0,-0.0003788334724958986
12288.0,-7.900342461653054e-05
13312.0,-0.00028813700191676617
14336.0,-0.0008188365609385073
end
