version,3.0
numOfCh,1
type,point
parent_name,8-cuts
ch_type,1_1
kcount,1
numberNandB,1
brightnessNandB,1
carpet pos,0
pc,0
Time (ms),CH1 Auto-Correlation
1.0,0.026604896411299706
2.0,0.021725613623857498
3.0,0.018356526270508766
4.0,0.015804890543222427
5.0,0.014010421931743622
6.0,0.012706752866506577
7.0,0.011612765491008759
8.0,0.010510643944144249
9.0,0.009685278870165348
10.0,0.009177854284644127
11.0,0.00853608176112175
12.0,0.008063054643571377
13.0,0.007509421557188034
14.0,0.0071183149702847
15.0,0.0067357271909713745
16.0,0.006484507117420435
18.0,0.006129161920398474
20.0,0.005843047052621841
22.0,0.005663557443767786
24.0,0.005172759760171175
26.0,0.004695432260632515
28.0,0.004293218720704317
30.0,0.004085037857294083
32.0,0.003846031380817294
36.0,0.0033627478405833244
40.0,0.0032045000698417425
44.0,0.0032472731545567513
48.0,0.0029890527948737144
52.0,0.002930592279881239
56.0,0.002324681030586362
60.0,0.002423261757940054
64.0,0.0019281437853351235
72.0,0.0015717155765742064
80.0,0.0014064684510231018
88.0,0.000878385326359421
96.0,0.0007803647895343602
104.0,0.0005432519246824086
112.0,-1.4852038475510199e-05
120.0,-4.23229175794404e-05
128.0,7.938410271890461e-05
144.0,0.0006331347394734621
160.0,0.0007337912102229893
176.0,1.362509010505164e-06
192.0,-0.0007405320066027343
208.0,0.00013535202015191317
224.0,0.00032351945992559195
240.0,5.475882062455639e-05
256.0,-0.0008810842991806567
288.0,-0.00012203426740597934
320.0,0.0006188228144310415
352.0,0.000706817489117384
384.0,-3.36727753165178e-05
416.0,-0.0005149429198354483
448.0,-0.00044664525194093585
480.0,-0.0004729107895400375
512.0,-0.0007431826670654118
576.0,-0.00033432626514695585
640.0,-0.0003502930048853159
704.0,-0.00020359888731036335
768.0,-2.350050453969743e-05
832.0,-0.0005244226776994765
896.0,2.0182567823212594e-05
960.0,-8.11015888757538e-06
1024.0,0.0009130719699896872
1152.0,2.5107559849857353e-05
1280.0,-0.0001365037023788318
1408.0,-0.0002684872015379369
1536.0,0.0005452982732094824
1664.0,3.906562051270157e-05
1792.0,0.00043533550342544913
1920.0,0.00016186910215765238
2048.0,0.00048730833805166185
2304.0,-0.0007757031125947833
2560.0,0.0004240905400365591
2816.0,0.00039781336090527475
3072.0,0.0006018014391884208
3328.0,-0.0006803040159866214
3584.0,-0.0002206748176831752
3840.0,-0.00025961670326069
4096.0,1.3328733075468335e-05
4608.0,-0.0003426838375162333
5120.0,-0.0004031481221318245
5632.0,3.584288424463011e-05
6144.0,8.362453081645072e-05
6656.0,5.313714063959196e-05
7168.0,-0.00013803232286591083
7680.0,-0.0008171441149897873
8192.0,4.753176472149789e-05
9216.0,3.323780038044788e-05
10240.0,0.00021183361241128296
11264.0,-0.0005360456998459995
12288.0,0.0001836444134823978
13312.0,0.00036937324330210686
14336.0,-0.0008519658003933728
end
