version,3.0
numOfCh,1
type,point
parent_name,8-cuts
ch_type,1_1
kcount,1
numberNandB,1
brightnessNandB,1
carpet pos,0
pc,0
Time (ms),CH1 Auto-Correlation
1.0,0.015825215727090836
2.0,0.012926057912409306
3.0,0.010946654714643955
4.0,0.009406725876033306
5.0,0.008321288973093033
6.0,0.0073609137907624245
7.0,0.006534724961966276
8.0,0.005954923573881388
9.0,0.005404475145041943
10.0,0.004922898020595312
11.0,0.004517426714301109
12.0,0.004280564375221729
13.0,0.0040421923622488976
14.0,0.0038351761177182198
15.0,0.0036542494781315327
16.0,0.003470537718385458
18.0,0.003066647332161665
20.0,0.0026760073378682137
22.0,0.0024697622284293175
24.0,0.00223779259249568
26.0,0.0019401585450395942
28.0,0.0015954773407429457
30.0,0.0013673142530024052
32.0,0.0010291954968124628
36.0,0.0007231394411064684
40.0,0.0006334762438200414
44.0,0.0006561227492056787
48.0,0.0005524227162823081
52.0,0.0006485094781965017
56.0,0.0005584395839832723
60.0,0.0002623993204906583
64.0,0.00016970331489574164
72.0,-0.00020540949481073767
80.0,-7.603628910146654e-05
88.0,5.38466265425086e-05
96.0,-0.00030046861502341926
104.0,-0.0002040717808995396
112.0,-0.00021202479547355324
120.0,0.00016315202810801566
128.0,0.00024214861332438886
144.0,0.0005051001207903028
160.0,0.000780937378294766
176.0,0.0006518010050058365
192.0,0.00018166379595641047
208.0,-0.0001526251871837303
224.0,-0.0004518915375228971
240.0,-0.0006813937216065824
256.0,-0.0007781561580486596
288.0,0.00018566245853435248
320.0,0.000488518737256527
352.0,0.00040735749644227326
384.0,0.00041268474888056517
416.0,-3.7303521821741015e-05
448.0,0.00036302278749644756
480.0,0.0003071147366426885
512.0,2.2519576305057853e-05
576.0,-0.00047078359057195485
640.0,-0.0004873623256571591
704.0,7.637413364136592e-05
768.0,0.00029554293723776937
832.0,4.870183693128638e-05
896.0,-0.00019355368567630649
960.0,0.00021527121134568006
1024.0,0.00021105872292537242
1152.0,-5.582630183198489e-05
1280.0,-5.8519485719443765e-06
1408.0,-0.0002807880227919668
1536.0,8.224003977375105e-05
1664.0,1.2797290764865465e-05
1792.0,1.032912859955104e-05
1920.0,4.5609216613229364e-05
2048.0,0.00026599998818710446
2304.0,0.0001770492672221735
2560.0,6.562240741914138e-05
2816.0,-0.00020111336198169738
3072.0,-1.1818641723948531e-05
3328.0,6.714962364640087e-05
3584.0,-0.00017175434913951904
3840.0,-0.00029241200536489487
4096.0,2.7920290449401364e-05
4608.0,7.958229252835736e-05
5120.0,3.743029810721055e-05
5632.0,-7.758196443319321e-05
6144.0,-0.00014512294728774577
6656.0,0.00027848928584717214
7168.0,5.4617677960777655e-05
7680.0,1.6078067346825264e-05
8192.0,-4.3249565351288766e-05
9216.0,8.787333354121074e-05
10240.0,-0.00029140006517991424
11264.0,4.500650447880616e-06
12288.0,-0.0002686624648049474
13312.0,-0.0003309057792648673
14336.0,0.0001917762274388224
end
