version,3.0
numOfCh,1
type,point
parent_name,8-cuts
ch_type,1_1
kcount,1
numberNandB,1
brightnessNandB,1
carpet pos,0
pc,0
Time (ms),CH1 Auto-Correlation
1.0,0.02776104211807251
2.0,0.022985028102993965
3.0,0.0194768738001585
4.0,0.01685866340994835
5.0,0.014648664742708206
6.0,0.012850964441895485
7.0,0.011415103450417519
8.0,0.010286207310855389
9.0,0.009264503605663776
10.0,0.008319173939526081
11.0,0.007509275339543819
12.0,0.006917813792824745
13.0,0.0065603554248809814
14.0,0.006353080738335848
15.0,0.006036636885255575
16.0,0.005646013654768467
18.0,0.005175010766834021
20.0,0.004799795337021351
22.0,0.004550144076347351
24.0,0.004374877084046602
26.0,0.004205870442092419
28.0,0.0039911167696118355
30.0,0.003960251342505217
32.0,0.0036742256488651037
36.0,0.0032636194955557585
40.0,0.0032215320970863104
44.0,0.002648381981998682
48.0,0.0021918173879384995
52.0,0.0020316210575401783
56.0,0.0021467874757945538
60.0,0.0021873607765883207
64.0,0.0016162194078788161
72.0,0.0017387447878718376
80.0,0.001642953953705728
88.0,0.002115152543410659
96.0,0.0013067108811810613
104.0,0.0006586831295862794
112.0,-3.4566524846013635e-05
120.0,0.0004932224401272833
128.0,0.0010812670225277543
144.0,0.0007136606145650148
160.0,7.341345917666331e-05
176.0,0.000409553584177047
192.0,0.0007094629690982401
208.0,0.0007624417776241899
224.0,0.001321654417552054
240.0,0.0006072124815545976
256.0,0.0003344791766721755
288.0,0.0009668009006418288
320.0,0.000755458080675453
352.0,0.0008543301373720169
384.0,0.0008286668453365564
416.0,0.00013696063251700252
448.0,0.00021783853298984468
480.0,0.0004268841294106096
512.0,-0.00014130547060631216
576.0,1.960370718734339e-05
640.0,0.0003099984605796635
704.0,0.0004375447169877589
768.0,0.00018856636597774923
832.0,0.00011614010145422071
896.0,-0.0006458271527662873
960.0,0.0004531337763182819
1024.0,0.0004524810647126287
1152.0,0.00013941721408627927
1280.0,0.00023508084996137768
1408.0,-0.000287385075353086
1536.0,-0.0008660694002173841
1664.0,0.00044628704199567437
1792.0,0.001005995087325573
1920.0,0.00016503783990629017
2048.0,1.1456046195235103e-05
2304.0,5.914602297707461e-06
2560.0,9.389163460582495e-05
2816.0,-0.000265459151705727
3072.0,9.586450323695317e-05
3328.0,-0.0005816849879920483
3584.0,0.0005237385630607605
3840.0,-0.00033157403231598437
4096.0,0.00013576298078987747
4608.0,0.0003339662216603756
5120.0,0.0008300289628095925
5632.0,0.00033844393328763545
6144.0,0.00025114029995165765
6656.0,-0.000539399276021868
7168.0,8.01361893536523e-05
7680.0,-3.0051938665565103e-05
8192.0,-0.0009983681375160813
9216.0,-0.0007685619057156146
10240.0,1.5996824004105292e-05
11264.0,0.0002057996898656711
12288.0,-0.00038066672277636826
13312.0,-0.0014760532649233937
14336.0,-0.0019547820556908846
end
