version,3.0
numOfCh,1
type,point
parent_name,8-cuts
ch_type,1_1
kcount,1
numberNandB,1
brightnessNandB,1
carpet pos,0
pc,0
Time (ms),CH1 Auto-Correlation
1.0,0.027219833806157112
2.0,0.022453343495726585
3.0,0.01910318434238434
4.0,0.01663297973573208
5.0,0.014936588704586029
6.0,0.013494623824954033
7.0,0.012398440390825272
8.0,0.011397495865821838
9.0,0.010716215707361698
10.0,0.010076357051730156
11.0,0.009506963193416595
12.0,0.00894076470285654
13.0,0.008362241089344025
14.0,0.00792626477777958
15.0,0.007585388608276844
16.0,0.007186941336840391
18.0,0.006226303055882454
20.0,0.005525077227503061
22.0,0.005000054370611906
24.0,0.004470078274607658
26.0,0.004195510875433683
28.0,0.00379285984672606
30.0,0.0035537085495889187
32.0,0.0035143455024808645
36.0,0.003114650957286358
40.0,0.0029640004504472017
44.0,0.002925299806520343
48.0,0.002339141210541129
52.0,0.0019312736112624407
56.0,0.0016895041335374117
60.0,0.0014889332232996821
64.0,0.0013818674487993121
72.0,0.0018026322359219193
80.0,0.0023884631227701902
88.0,0.0023484262637794018
96.0,0.0015162337804213166
104.0,0.0012995533179491758
112.0,0.001289204228669405
120.0,0.0012836590176448226
128.0,0.0014305965742096305
144.0,0.00046817216207273304
160.0,-0.00024842977290973067
176.0,-0.0008058387320488691
192.0,-0.0009524970082566142
208.0,-0.00039540277794003487
224.0,-0.0005146308685652912
240.0,-0.0004999951925128698
256.0,-0.0003543951897881925
288.0,-0.00042097506229765713
320.0,-4.774914850713685e-05
352.0,0.00038982395199127495
384.0,-0.00012200340279377997
416.0,-0.00010130523151019588
448.0,-0.001231648144312203
480.0,-0.0007106104749254882
512.0,-0.000548304058611393
576.0,-0.0005994286620989442
640.0,-0.00011772500147344545
704.0,-0.0006440011202357709
768.0,-0.0005958605324849486
832.0,-0.0008728185785003006
896.0,-6.499028677353635e-05
960.0,-0.0001118478030548431
1024.0,0.0006357360980473459
1152.0,0.0005797654739581048
1280.0,0.00016951827274169773
1408.0,4.844984505325556e-05
1536.0,-0.00027091524680145085
1664.0,-0.0007597611984238029
1792.0,-0.00022876987350173295
1920.0,-4.821887705475092e-05
2048.0,-0.0006005933391861618
2304.0,0.0005361351650208235
2560.0,-0.00043719945824705064
2816.0,0.0007942057563923299
3072.0,6.727002619300038e-05
3328.0,0.0009890346555039287
3584.0,-0.00014523460413329303
3840.0,-0.0004226530436426401
4096.0,-0.0002397871285211295
4608.0,-0.00024113658582791686
5120.0,-0.0004373342089820653
5632.0,0.00019240911933593452
6144.0,0.0006059219012968242
6656.0,-3.064848351641558e-05
7168.0,-0.00045058163232170045
7680.0,0.00018051062943413854
8192.0,-0.00042594701517373323
9216.0,0.0005751195712946355
10240.0,-0.0003385074087418616
11264.0,-0.0006311919423751533
12288.0,0.0002692060952540487
13312.0,-0.00020550555200316012
14336.0,-0.0005644264165312052
end
