version,3.0
numOfCh,1
type,point
parent_name,8-cuts
ch_type,1_1
kcount,1
numberNandB,1
brightnessNandB,1
carpet pos,0
pc,0
Time (ms),CH1 Auto-Correlation
1.0,0.027431443333625793
2.0,0.022586962208151817
3.0,0.019132841378450394
4.0,0.01652143895626068
5.0,0.014362599700689316
6.0,0.01258514542132616
7.0,0.011181263253092766
8.0,0.01012023352086544
9.0,0.009308170527219772
10.0,0.008573121391236782
11.0,0.007829505018889904
12.0,0.00739694619551301
13.0,0.007118779234588146
14.0,0.006681275554001331
15.0,0.006239603739231825
16.0,0.005782490596175194
18.0,0.005121092312037945
20.0,0.0044734603725373745
22.0,0.004168763756752014
24.0,0.003784017637372017
26.0,0.0034884547349065542
28.0,0.0031091708224266768
30.0,0.0027810833416879177
32.0,0.0027231969870626926
36.0,0.002711253007873893
40.0,0.0024910541251301765
44.0,0.0025633915793150663
48.0,0.0029811931308358908
52.0,0.0034952033311128616
56.0,0.0032867914997041225
60.0,0.0027854072395712137
64.0,0.002661427017301321
72.0,0.002298868028447032
80.0,0.0015546181239187717
88.0,0.0015370558248832822
96.0,0.001557040261104703
104.0,0.0018348934827372432
112.0,0.0015934777911752462
120.0,0.0006732455804012716
128.0,0.0005267662927508354
144.0,0.000260869855992496
160.0,0.0006622620276175439
176.0,0.0012325451243668795
192.0,0.001172559568658471
208.0,0.0007198930834420025
224.0,0.00023020902881398797
240.0,0.0006534209824167192
256.0,7.272393122548237e-05
288.0,-8.831332525005564e-05
320.0,0.0005805286346003413
352.0,0.00036213191924616694
384.0,0.00012304481060709804
416.0,-0.0003348769969306886
448.0,-0.0001964119728654623
480.0,-0.00018838922551367432
512.0,-0.00013703155855182558
576.0,0.00018439680570736527
640.0,-4.9832156946649775e-05
704.0,-0.0008216077694669366
768.0,-8.487392915412784e-05
832.0,-0.000312174903228879
896.0,-0.00016109006537590176
960.0,-0.0005507324822247028
1024.0,-0.00013823570043314248
1152.0,-0.0001820511242840439
1280.0,0.0004827355151064694
1408.0,0.00020651360682677478
1536.0,-0.00013746235345024616
1664.0,0.0004883979563601315
1792.0,-9.72303532762453e-05
1920.0,-0.0002826595737133175
2048.0,0.0002638277073856443
2304.0,0.0006532608531415462
2560.0,-0.00011071567860199139
2816.0,-0.0004306178307160735
3072.0,4.791542232851498e-05
3328.0,0.0004543190589174628
3584.0,0.0005204261397011578
3840.0,-4.857115345657803e-05
4096.0,-0.00019679869001265615
4608.0,0.00027850954211317003
5120.0,-0.00024444700102321804
5632.0,-3.790625123656355e-05
6144.0,-0.0007392289699055254
6656.0,0.00047181788249872625
7168.0,-0.00017326239321846515
7680.0,-0.001119534601457417
8192.0,-0.00013799924636259675
9216.0,0.00016316435358021408
10240.0,-0.0006741126999258995
11264.0,0.0005927635356783867
12288.0,-0.0002520482230465859
13312.0,-6.931167445145547e-05
14336.0,-0.00022478097525890917
end
