version,3.0
numOfCh,1
type,point
parent_name,8-cuts
ch_type,1_1
kcount,1
numberNandB,1
brightnessNandB,1
carpet pos,0
pc,0
Time (ms),CH1 Auto-Correlation
1.0,0.027345187962055206
2.0,0.02252170443534851
3.0,0.019156096503138542
4.0,0.01655048504471779
5.0,0.014847376383841038
6.0,0.013242686167359352
7.0,0.011829396709799767
8.0,0.010773501358926296
9.0,0.010046768933534622
10.0,0.00936928577721119
11.0,0.00869766715914011
12.0,0.007970741018652916
13.0,0.0075365714728832245
14.0,0.007034667767584324
15.0,0.00664302334189415
16.0,0.006198365241289139
18.0,0.0053912983275949955
20.0,0.004857535939663649
22.0,0.004382310900837183
24.0,0.0040340726263821125
26.0,0.0038208570331335068
28.0,0.003438031766563654
30.0,0.0030971781816333532
32.0,0.0029991050250828266
36.0,0.002645174041390419
40.0,0.002084772801026702
44.0,0.0017691778484731913
48.0,0.0018582254415377975
52.0,0.0023772232234477997
56.0,0.002107063075527549
60.0,0.002070480724796653
64.0,0.0023718555457890034
72.0,0.001310665742494166
80.0,0.0012625637464225292
88.0,0.0011140642454847693
96.0,0.0011009337613359094
104.0,0.001200743718072772
112.0,0.0019761640578508377
120.0,0.0017188210040330887
128.0,0.0014636105624958873
144.0,0.0019531006691977382
160.0,0.0011402190430089831
176.0,0.0015337570803239942
192.0,0.0014381514629349113
208.0,0.0014332459541037679
224.0,0.0006283806869760156
240.0,0.00016295081877615303
256.0,0.0002206725039286539
288.0,0.0003371600469108671
320.0,6.050549927749671e-05
352.0,0.0003032170934602618
384.0,0.00015567580703645945
416.0,-0.0007370300008915365
448.0,-0.0009099398157559335
480.0,-0.0005366604891605675
512.0,-0.0008394927135668695
576.0,-0.0011430425802245736
640.0,-0.0009040819713845849
704.0,-0.0008109305636025965
768.0,-0.0006992852431721985
832.0,-0.001183044514618814
896.0,-0.0007387882214970887
960.0,-0.0005114958039484918
1024.0,4.0751005144556984e-05
1152.0,-0.0003359941183589399
1280.0,-0.00014117005048319697
1408.0,0.00033339395304210484
1536.0,0.0004991824389435351
1664.0,-0.0006202175281941891
1792.0,0.00018175167497247458
1920.0,-5.221506580710411e-05
2048.0,0.0002964313607662916
2304.0,0.000475288659799844
2560.0,-0.0002544880844652653
2816.0,-0.0004973979666829109
3072.0,-0.0007204827852547169
3328.0,-0.00028267622110433877
3584.0,0.0003683582763187587
3840.0,0.0006326482398435473
4096.0,0.000271240045549348
4608.0,-0.00022983648523222655
5120.0,0.00021711528825107962
5632.0,-0.0002366992994211614
6144.0,0.0005809670547023416
6656.0,-0.00043510139221325517
7168.0,-0.0002667887893039733
7680.0,0.00019767903722822666
8192.0,0.0003416786785237491
9216.0,-0.00011464053386589512
10240.0,-0.00044736755080521107
11264.0,-5.13398333623627e-07
12288.0,0.000634515832643956
13312.0,-0.00032029038993641734
14336.0,-0.0006702949176542461
end
