version,3.0
numOfCh,1
type,point
parent_name,8-cuts
ch_type,1_1
kcount,1
numberNandB,1
brightnessNandB,1
carpet pos,0
pc,0
Time (ms),CH1 Auto-Correlation
1.0,0.01577768288552761
2.0,0.012990680523216724
3.0,0.010954651981592178
4.0,0.009463757276535034
5.0,0.008260643109679222
6.0,0.007298469543457031
7.0,0.0064893728122115135
8.0,0.005864965729415417
9.0,0.005335583817213774
10.0,0.004885871894657612
11.0,0.004547645803540945
12.0,0.004252624232321978
13.0,0.003982550464570522
14.0,0.0037600419018417597
15.0,0.003407890209928155
16.0,0.003109223674982786
18.0,0.0027117596473544836
20.0,0.0022557610645890236
22.0,0.0018924425821751356
24.0,0.0016825094353407621
26.0,0.0016160019440576434
28.0,0.001470810268074274
30.0,0.0014047297881916165
32.0,0.0013141633244231343
36.0,0.0010180514072999358
40.0,0.0007578909280709922
44.0,0.0008708889945410192
48.0,0.0007155771600082517
52.0,0.0005332775763235986
56.0,0.0004404512874316424
60.0,0.0003044451295863837
64.0,0.0004418842145241797
72.0,0.00042150949593633413
80.0,0.00047226963215507567
88.0,0.0002792740415316075
96.0,0.000391321606002748
104.0,0.00028783423476852477
112.0,0.00015672259905841202
120.0,-4.88712867081631e-05
128.0,-0.0001237052056239918
144.0,0.00022185911075212061
160.0,-0.0004310126241762191
176.0,-0.00013549806317314506
192.0,-0.000519435852766037
208.0,-0.00024572148686274886
224.0,-0.00036598739097826183
240.0,-7.200209802249447e-05
256.0,-0.00016788672655820847
288.0,-0.0003486581554170698
320.0,2.3112541384762153e-05
352.0,-0.00021743396064266562
384.0,0.000454617285868153
416.0,2.2522648578160442e-05
448.0,0.00023482869437430054
480.0,-9.584065264789388e-05
512.0,7.300904690055177e-05
576.0,0.00042729623964987695
640.0,0.00017542681598570198
704.0,-0.00012103047629352659
768.0,-0.00033273379085585475
832.0,0.00026659126160666347
896.0,4.284395618014969e-05
960.0,6.303015106823295e-05
1024.0,0.00017941293481271714
1152.0,-0.000484019226860255
1280.0,-0.00046185796963982284
1408.0,0.00037783797597512603
1536.0,-0.000338579440722242
1664.0,-0.00034454322303645313
1792.0,0.00012330460594967008
1920.0,0.0001385989016853273
2048.0,0.00011035958596039563
2304.0,0.00013202389527577907
2560.0,0.00024554331321269274
2816.0,8.032831829041243e-05
3072.0,-9.461373701924458e-05
3328.0,-9.304011655331124e-06
3584.0,-0.00033726426772773266
3840.0,9.482965651841369e-06
4096.0,-0.000148406921653077
4608.0,-9.301194950239733e-06
5120.0,-3.916280184057541e-05
5632.0,4.216226443531923e-05
6144.0,-0.0002596755512058735
6656.0,-0.00018631952116265893
7168.0,0.00014548245235346258
7680.0,1.6579008388362126e-06
8192.0,8.778340270509943e-05
9216.0,-0.00013154245971236378
10240.0,6.239248614292592e-05
11264.0,-5.739558400819078e-05
12288.0,0.0001577814546180889
13312.0,-3.6020861443830654e-05
14336.0,-5.0451952120056376e-05
end
