version,3.0
numOfCh,1
type,point
parent_name,8-cuts
ch_type,1_1
kcount,1
numberNandB,1
brightnessNandB,1
carpet pos,0
pc,0
Time (ms),CH1 Auto-Correlation
1.0,0.024439681321382523
2.0,0.019522009417414665
3.0,0.016262948513031006
4.0,0.013687320984899998
5.0,0.01163202803581953
6.0,0.009912398643791676
7.0,0.008645813912153244
8.0,0.007644246332347393
9.0,0.0068802800960838795
10.0,0.006193445064127445
11.0,0.005502722226083279
12.0,0.005058396141976118
13.0,0.004745900630950928
14.0,0.004456976428627968
15.0,0.004321803338825703
16.0,0.004183890763670206
18.0,0.0038772583939135075
20.0,0.0035226820036768913
22.0,0.003150768345221877
24.0,0.0027337991632521152
26.0,0.0025890786200761795
28.0,0.0024610264226794243
30.0,0.002289497060701251
32.0,0.0022605801932513714
36.0,0.002088808221742511
40.0,0.001794717158190906
44.0,0.0010759105207398534
48.0,0.0006455722614191473
52.0,0.00044245069148018956
56.0,0.0007308628992177546
60.0,0.0007818603771738708
64.0,0.0006649813731200993
72.0,0.0002466771984472871
80.0,0.0001442759676137939
88.0,0.0009402222349308431
96.0,0.0016949325799942017
104.0,0.0021873973309993744
112.0,0.0023492351174354553
120.0,0.0021785032004117966
128.0,0.0016651878831908107
144.0,0.0007999821682460606
160.0,0.0004504664975684136
176.0,-0.0006921850144863129
192.0,0.0001067716148099862
208.0,0.00025392608949914575
224.0,0.00039757569902576506
240.0,7.289735367521644e-05
256.0,-0.00016003064229153097
288.0,-0.0006530495011247694
320.0,-0.0007733840611763299
352.0,-0.00023135292576625943
384.0,-0.0005036980728618801
416.0,-0.0005972489598207176
448.0,-5.749521278630709e-06
480.0,8.08760232757777e-05
512.0,-0.0005196310812607408
576.0,1.7771832062862813e-05
640.0,0.00019374369003344327
704.0,0.0008437864016741514
768.0,0.0010976131306961179
832.0,0.0005399027140811086
896.0,0.000405575439799577
960.0,0.000376777199562639
1024.0,-7.733933307463303e-05
1152.0,-0.00018205550441052765
1280.0,-0.0005825808621011674
1408.0,-6.124562787590548e-05
1536.0,0.0002111324283760041
1664.0,-0.0001698305131867528
1792.0,-0.0005197155987843871
1920.0,-0.0003964110801462084
2048.0,-0.0003667906275950372
2304.0,-6.79783770465292e-05
2560.0,-0.0007804787019267678
2816.0,0.00012998710735701025
3072.0,0.00025034532882273197
3328.0,2.3015714759822004e-05
3584.0,-0.00014645086775999516
3840.0,0.0006213121814653277
4096.0,-0.0004152038018219173
4608.0,6.611807475565001e-05
5120.0,-0.0004521014343481511
5632.0,-0.0004990543820895255
6144.0,-8.844881813274696e-05
6656.0,3.0677525501232594e-05
7168.0,0.00018258654745295644
7680.0,0.0006580344052053988
8192.0,-0.00016168846923392266
9216.0,-0.0001784965570550412
10240.0,-3.1631036108592525e-05
11264.0,0.0003853563976008445
12288.0,6.684715481242165e-05
13312.0,-0.00021337684302125126
14336.0,-0.0002801520167849958
end
