version,3.0
numOfCh,1
type,point
parent_name,8-cuts
ch_type,1_1
kcount,1
numberNandB,1
brightnessNandB,1
carpet pos,0
pc,0
Time (ms),CH1 Auto-Correlation
1.0,0.027664538472890854
2.0,0.02266528643667698
3.0,0.01915685459971428
4.0,0.016621071845293045
5.0,0.014551021158695221
6.0,0.012837172485888004
7.0,0.011344026774168015
8.0,0.01013183780014515
9.0,0.009094781242311
10.0,0.008282213471829891
11.0,0.007658881135284901
12.0,0.007101080380380154
13.0,0.006723036523908377
14.0,0.006296352483332157
15.0,0.005938081070780754
16.0,0.00560584245249629
18.0,0.0047615813091397285
20.0,0.0043249730952084064
22.0,0.0037215258926153183
24.0,0.0032314867712557316
26.0,0.0030200788751244545
28.0,0.0031142006628215313
30.0,0.003030301770195365
32.0,0.0027644208166748285
36.0,0.0027319854125380516
40.0,0.0027123496402055025
44.0,0.0028444002382457256
48.0,0.0030881843995302916
52.0,0.002936069155111909
56.0,0.002465392230078578
60.0,0.0022753863595426083
64.0,0.00223104958422482
72.0,0.0024404958821833134
80.0,0.0012350151082500815
88.0,0.0002901684201788157
96.0,0.0005520262639038265
104.0,0.0002476288645993918
112.0,0.00032334134448319674
120.0,0.0007646262529306114
128.0,0.0008130695205181837
144.0,8.670060196891427e-05
160.0,-0.000540373323019594
176.0,-0.000258814514381811
192.0,-0.0002493056235834956
208.0,-5.079557013232261e-06
224.0,-0.00040350164636038244
240.0,-0.0001814178831409663
256.0,-3.450063013588078e-05
288.0,-3.4285087167518213e-05
320.0,-0.00010510897118365392
352.0,-1.8555318092694506e-05
384.0,-0.0002162611490348354
416.0,-0.0001613458152860403
448.0,-0.00014123425353318453
480.0,-0.0002267589734401554
512.0,-0.00047116848872974515
576.0,0.0006121949991211295
640.0,0.0005700898473151028
704.0,0.00044306914787739515
768.0,0.0005483936984091997
832.0,0.0012888354249298573
896.0,0.0005806451081298292
960.0,0.0008814833709038794
1024.0,0.00012744571722578257
1152.0,-0.000378727592760697
1280.0,-0.0002969251072499901
1408.0,5.1453225751174614e-05
1536.0,0.0006201816722750664
1664.0,0.0002805223921313882
1792.0,-0.0005293750436976552
1920.0,-0.0005465595168061554
2048.0,-0.000531555968336761
2304.0,2.2013726265868172e-05
2560.0,0.00010416519216960296
2816.0,-0.00030670478008687496
3072.0,-0.00046391095384024084
3328.0,0.0005342653021216393
3584.0,-0.00016236718511208892
3840.0,-0.0001652017526794225
4096.0,5.272683119983412e-05
4608.0,-0.00013428145030047745
5120.0,-6.245233089430258e-05
5632.0,0.00034616526681929827
6144.0,9.304592822445557e-05
6656.0,0.0002639221493154764
7168.0,-0.00018998347513843328
7680.0,-0.0002602592867333442
8192.0,-0.00028476366424001753
9216.0,-0.00020048010628670454
10240.0,9.31404356379062e-05
11264.0,-3.217429548385553e-05
12288.0,-0.00017423425742890686
13312.0,-0.00033138610888272524
14336.0,-0.0008307578973472118
end
