version,3.0
numOfCh,1
type,point
parent_name,8-cuts
ch_type,1_1
kcount,1
numberNandB,1
brightnessNandB,1
carpet pos,0
pc,0
Time (ms),CH1 Auto-Correlation
1.0,0.02716667391359806
2.0,0.022247780114412308
3.0,0.01904110424220562
4.0,0.01660565845668316
5.0,0.014676800929009914
6.0,0.013283926993608475
7.0,0.011913008987903595
8.0,0.010802720673382282
9.0,0.009698386304080486
10.0,0.008769895881414413
11.0,0.00798986479640007
12.0,0.007240395527333021
13.0,0.006588924676179886
14.0,0.006202678196132183
15.0,0.005819826852530241
16.0,0.005465471185743809
18.0,0.005101262591779232
20.0,0.004897504113614559
22.0,0.004619101528078318
24.0,0.004007483366876841
26.0,0.003449431387707591
28.0,0.003397187450900674
30.0,0.003367945086210966
32.0,0.002951056230813265
36.0,0.002764818025752902
40.0,0.002660294994711876
44.0,0.0023695698473602533
48.0,0.0018610848346725106
52.0,0.0012875336688011885
56.0,0.0012306136777624488
60.0,0.0008978298283182085
64.0,0.0005304538062773645
72.0,0.0005133961676619947
80.0,0.00031668448355048895
88.0,0.00011164926399942487
96.0,-0.00045122424489818513
104.0,-2.7057842089561746e-05
112.0,0.00023840738867875189
120.0,0.00011168012133566663
128.0,-0.0003674935142043978
144.0,-0.0005262664053589106
160.0,-0.00013037222379352897
176.0,-0.00020450158626772463
192.0,0.000188372956472449
208.0,-0.000253095495281741
224.0,-0.0006736897630617023
240.0,0.00048623772454448044
256.0,-0.0002962490834761411
288.0,-0.0009172250865958631
320.0,-0.0007952064042910933
352.0,-0.00018859207921195775
384.0,-0.0001623885618755594
416.0,-0.00039605473284609616
448.0,-0.00030378191149793565
480.0,0.0005690807593055069
512.0,3.48733774444554e-05
576.0,6.587441021110862e-05
640.0,-0.0001813141570892185
704.0,-0.0003218977071810514
768.0,-1.0417498742754105e-05
832.0,0.0004503157688304782
896.0,0.00014794532035011798
960.0,-0.0003777272067964077
1024.0,0.0007304878090508282
1152.0,0.0005979335401207209
1280.0,-0.0009519956656731665
1408.0,-0.0011124401353299618
1536.0,7.507157988584368e-07
1664.0,-0.0005259838653728366
1792.0,0.0006846225005574524
1920.0,-0.0002629159716889262
2048.0,-2.926534943981096e-05
2304.0,-7.958669448271394e-05
2560.0,0.00029647594783455133
2816.0,-0.000439980358351022
3072.0,8.809310384094715e-05
3328.0,2.18644090637099e-05
3584.0,-0.00010187058069277555
3840.0,0.0004869992844760418
4096.0,0.00025820566224865615
4608.0,6.242086965357885e-05
5120.0,-0.0005086117307655513
5632.0,0.0001278084091609344
6144.0,-0.000275006634183228
6656.0,0.000434803863754496
7168.0,-0.00017331360140815377
7680.0,0.0005542043945752084
8192.0,-0.00020891583699267358
9216.0,-0.00031689999741502106
10240.0,0.00010091082367580384
11264.0,4.451285349205136e-05
12288.0,-0.00042798000504262745
13312.0,2.511070852051489e-05
14336.0,0.0004370128153823316
end
