version,3.0
numOfCh,1
type,point
parent_name,8-cuts
ch_type,1_1
kcount,1
numberNandB,1
brightnessNandB,1
carpet pos,0
pc,0
Time (ms),CH1 Auto-Correlation
1.0,0.015560549683868885
2.0,0.012523042969405651
3.0,0.010507272556424141
4.0,0.00898030400276184
5.0,0.00784712191671133
6.0,0.006958325393497944
7.0,0.006294724531471729
8.0,0.005676324479281902
9.0,0.005303515587002039
10.0,0.004924492910504341
11.0,0.004609014373272657
12.0,0.004289469216018915
13.0,0.00401026476174593
14.0,0.0038181717973202467
15.0,0.003541004378348589
16.0,0.0033521235454827547
18.0,0.002907196991145611
20.0,0.0027091861702501774
22.0,0.002509653801098466
24.0,0.00220997491851449
26.0,0.0020102772396057844
28.0,0.0018292652675881982
30.0,0.0017132447101175785
32.0,0.0016870220424607396
36.0,0.0017577727558091283
40.0,0.0017680065939202905
44.0,0.0016861518379300833
48.0,0.0016861112089827657
52.0,0.0014531208435073495
56.0,0.0014615145046263933
60.0,0.0016062259674072266
64.0,0.001567821716889739
72.0,0.0011121808784082532
80.0,0.0010826735524460673
88.0,0.0007331316592171788
96.0,0.0006143181235529482
104.0,0.0004182777483947575
112.0,-3.7675203202525154e-05
120.0,-4.259097113390453e-05
128.0,0.00028998745256103575
144.0,0.0008619726286269724
160.0,0.0007889556582085788
176.0,0.00043308353633619845
192.0,0.0005649594822898507
208.0,0.00037660470115952194
224.0,0.0007355845300480723
240.0,0.000261741311987862
256.0,8.6635111074429e-05
288.0,0.00013245643640402704
320.0,0.0002577914856374264
352.0,0.00014403015666175634
384.0,0.00040922145126387477
416.0,0.0004045712121296674
448.0,0.00012821606651414186
480.0,-6.454969116020948e-05
512.0,-0.0002396069758106023
576.0,-0.00024387193843722343
640.0,-7.15381174813956e-05
704.0,-0.0006260658265091479
768.0,-0.0003802466089837253
832.0,-0.0003721070534083992
896.0,-0.0006310738390311599
960.0,-0.0008136709220707417
1024.0,-0.0005080127739347517
1152.0,-0.000447858968982473
1280.0,-0.0003496426797937602
1408.0,-0.00014732796989846975
1536.0,0.00017305092478636652
1664.0,2.019542080233805e-05
1792.0,0.0005359663628041744
1920.0,0.00046927406219765544
2048.0,0.0005662210169248283
2304.0,0.00011681226169457659
2560.0,-0.0001813599665183574
2816.0,-0.00022217104560695589
3072.0,-0.0002153065288439393
3328.0,-0.0002456706715747714
3584.0,0.00017545130685903132
3840.0,0.00021689123241230845
4096.0,5.160148430150002e-05
4608.0,-0.0003799426485784352
5120.0,0.00027273205341771245
5632.0,3.0546580092050135e-05
6144.0,-0.00033016761881299317
6656.0,-0.00042733276495710015
7168.0,0.0004346802306827158
7680.0,0.00017028962611220777
8192.0,-0.00033264164812862873
9216.0,0.0005056211375631392
10240.0,-0.0004562270187307149
11264.0,0.00046093808487057686
12288.0,-0.00023289503587875515
13312.0,0.00020698580192402005
14336.0,-0.00032119121169671416
end
