version,3.0
numOfCh,1
type,point
parent_name,8-cuts
ch_type,1_1
kcount,1
numberNandB,1
brightnessNandB,1
carpet pos,0
pc,0
Time (ms),CH1 Auto-Correlation
1.0,0.015369721688330173
2.0,0.012584137730300426
3.0,0.010577968321740627
4.0,0.009092718362808228
5.0,0.007926896214485168
6.0,0.007053673733025789
7.0,0.006397996097803116
8.0,0.00571839977055788
9.0,0.005207497626543045
10.0,0.004776127636432648
11.0,0.004384833388030529
12.0,0.004006091970950365
13.0,0.0036476715467870235
14.0,0.0032785756047815084
15.0,0.002963962033390999
16.0,0.0027217187453061342
18.0,0.002570957876741886
20.0,0.002521057380363345
22.0,0.0022994603496044874
24.0,0.002089435001835227
26.0,0.001969818724319339
28.0,0.0018280564108863473
30.0,0.0016000547911971807
32.0,0.0015066914493218064
36.0,0.0013855603756383061
40.0,0.0013603676343336701
44.0,0.00118741556070745
48.0,0.0009381729760207236
52.0,0.0009369679028168321
56.0,0.0007513012969866395
60.0,0.000617516110651195
64.0,0.00046910502715036273
72.0,0.0003954462881665677
80.0,0.00028428362566046417
88.0,6.607003888348117e-05
96.0,-0.00018860957061406225
104.0,0.0001154309866251424
112.0,-7.523947715526447e-06
120.0,4.4813892600359395e-05
128.0,0.00025032192934304476
144.0,4.675956006394699e-05
160.0,-0.00033095956314355135
176.0,-0.00042206564103253186
192.0,-0.0003336783265694976
208.0,-0.00019017510931007564
224.0,-0.0003050303494092077
240.0,0.00011475877545308322
256.0,2.3593682271894068e-05
288.0,-0.0006994405412115157
320.0,-0.000467838894110173
352.0,0.00047543455730192363
384.0,0.00012066470662830397
416.0,2.6150466510443948e-05
448.0,-7.597693183925003e-05
480.0,-0.0003197014448232949
512.0,-0.0003830979694612324
576.0,0.00010435903095640242
640.0,-0.00017779218615032732
704.0,-0.00010434191062813625
768.0,-0.00037725214497186244
832.0,-0.000878824561368674
896.0,-0.0002372081216890365
960.0,5.444273483590223e-05
1024.0,6.340864638332278e-05
1152.0,-0.0006404352025128901
1280.0,-1.953710125235375e-05
1408.0,0.0004320716252550483
1536.0,0.00011821608495665714
1664.0,0.00023453644826076925
1792.0,-0.00041778560262173414
1920.0,0.0006781507981941104
2048.0,0.00013306032633408904
2304.0,-7.816404104232788e-05
2560.0,6.01847204961814e-05
2816.0,0.00014114746591076255
3072.0,-0.00027256604516878724
3328.0,4.665108644985594e-05
3584.0,-0.0001794519484974444
3840.0,-1.851936394814402e-05
4096.0,0.00021700546494685113
4608.0,-6.21756335021928e-05
5120.0,-7.999230729183182e-05
5632.0,3.900568844983354e-05
6144.0,6.484091045422247e-06
6656.0,-7.243181607918814e-05
7168.0,7.203939458122477e-05
7680.0,3.584347268770216e-06
8192.0,-7.590373570565134e-05
9216.0,3.6749897844856605e-05
10240.0,-7.138516230043024e-05
11264.0,6.365781155182049e-05
12288.0,-6.257339555304497e-05
13312.0,-5.039515235694125e-05
14336.0,3.483676482574083e-05
end
