version,3.0
numOfCh,1
type,point
parent_name,8-cuts
ch_type,1_1
kcount,1
numberNandB,1
brightnessNandB,1
carpet pos,0
pc,0
Time (ms),CH1 Auto-Correlation
1.0,0.016433240845799446
2.0,0.013482763431966305
3.0,0.01141871977597475
4.0,0.009840987622737885
5.0,0.008691826835274696
6.0,0.00776647636666894
7.0,0.00697487685829401
8.0,0.006314456928521395
9.0,0.0058131953701376915
10.0,0.005325833335518837
11.0,0.004908985923975706
12.0,0.004568540956825018
13.0,0.004270315635949373
14.0,0.003988559823483229
15.0,0.0037678114604204893
16.0,0.0035270985681563616
18.0,0.003079885384067893
20.0,0.0026791486889123917
22.0,0.0024259593337774277
24.0,0.0021206429228186607
26.0,0.001929760561324656
28.0,0.0018720877123996615
30.0,0.001813704613596201
32.0,0.0017501360271126032
36.0,0.001616044552065432
40.0,0.0012549542589113116
44.0,0.0012325233547016978
48.0,0.001061970484443009
52.0,0.0009010215289890766
56.0,0.0010005412623286247
60.0,0.0008885629358701408
64.0,0.0007904745871201158
72.0,0.0005814698524773121
80.0,0.0003717906365636736
88.0,0.0004151397733949125
96.0,0.0008168159984052181
104.0,0.0007525898981839418
112.0,0.0009380863048136234
120.0,0.0004217960231471807
128.0,0.00021975950221531093
144.0,7.988111065060366e-06
160.0,-0.00013387126091402024
176.0,-0.0003712331526912749
192.0,-0.0002619778970256448
208.0,-0.000194563006516546
224.0,-0.00020309015235397965
240.0,-0.0005349699640646577
256.0,-0.00015630041889380664
288.0,0.0005006918800063431
320.0,0.0002591631782706827
352.0,-0.00015098150470294058
384.0,0.0003176435420755297
416.0,-9.504354238742962e-05
448.0,-0.00010291997023159638
480.0,-0.0005321800126694143
512.0,-0.00041676033288240433
576.0,6.070418385206722e-05
640.0,-1.9347431589267217e-05
704.0,-1.9750015781028196e-05
768.0,-0.0005012197652831674
832.0,-0.0002545643656048924
896.0,-8.448828157270327e-05
960.0,0.0006803388823755085
1024.0,0.0007104561082087457
1152.0,-5.1359693316044286e-05
1280.0,9.61957539402647e-06
1408.0,0.0005167341441847384
1536.0,0.00036835059290751815
1664.0,0.0006418104167096317
1792.0,-0.00013521246728487313
1920.0,-6.637539627263322e-05
2048.0,-8.264973439509049e-05
2304.0,-0.00017231916717719287
2560.0,0.0003306455328129232
2816.0,9.692506864666939e-05
3072.0,0.00017541038687340915
3328.0,3.402592847123742e-05
3584.0,-0.0002273658028570935
3840.0,-0.0005318470648489892
4096.0,8.674569107824937e-05
4608.0,-0.00010830782412085682
5120.0,-0.0004204885335639119
5632.0,2.3084454369382e-05
6144.0,-0.00026828498812392354
6656.0,-0.00014142827421892434
7168.0,-3.7415491533465683e-05
7680.0,-0.00013125420082360506
8192.0,-0.00015588650421705097
9216.0,-6.608619514736347e-06
10240.0,1.3436084373097401e-05
11264.0,-1.3053677321295254e-06
12288.0,0.00011312359129078686
13312.0,4.214461569063133e-06
14336.0,-9.785467409528792e-05
end
