version,3.0
numOfCh,1
type,point
parent_name,8-cuts
ch_type,1_1
kcount,1
numberNandB,1
brightnessNandB,1
carpet pos,0
pc,0
Time (ms),CH1 Auto-Correlation
1.0,0.01740611530840397
2.0,0.014503910206258297
3.0,0.012307258322834969
4.0,0.010745919309556484
5.0,0.009454596787691116
6.0,0.008471294306218624
7.0,0.007651540916413069
8.0,0.007057027891278267
9.0,0.006441510748118162
10.0,0.005948464851826429
11.0,0.005559551529586315
12.0,0.005245854612439871
13.0,0.004866607952862978
14.0,0.0045522055588662624
15.0,0.004260851535946131
16.0,0.004102826118469238
18.0,0.0038247264456003904
20.0,0.0037611648440361023
22.0,0.0037784024607390165
24.0,0.0038184665609151125
26.0,0.003706439631059766
28.0,0.003598226699978113
30.0,0.003317928174510598
32.0,0.0030900302808731794
36.0,0.0027017637621611357
40.0,0.002323406981304288
44.0,0.0023610673379153013
48.0,0.0021250303834676743
52.0,0.0017047029687091708
56.0,0.0014241932658478618
60.0,0.0015463735908269882
64.0,0.0015595713630318642
72.0,0.0012358258245512843
80.0,0.001230487716384232
88.0,0.0012293118052184582
96.0,0.0011717424495145679
104.0,0.0010005324147641659
112.0,0.0010195218492299318
120.0,0.0008030075114220381
128.0,0.0006568741519004107
144.0,0.0001876764727057889
160.0,0.00022913486463949084
176.0,0.000608120346441865
192.0,0.0006108305533416569
208.0,0.0008716663578525186
224.0,0.0002532939543016255
240.0,0.0002837654610630125
256.0,0.0003994398866780102
288.0,0.00036174984415993094
320.0,-0.00015628800611011684
352.0,0.00012787773448508233
384.0,-0.0002418261719867587
416.0,-0.0004891303833574057
448.0,-0.0002676164440345019
480.0,-0.00037524470826610923
512.0,8.391275332542136e-05
576.0,-2.868554111046251e-05
640.0,-0.0002581574663054198
704.0,-0.000245157367317006
768.0,6.0429538280004635e-05
832.0,0.0002395541814621538
896.0,-0.0005970427300781012
960.0,-0.00014189182547852397
1024.0,6.472446693805978e-05
1152.0,-0.0002045086439466104
1280.0,0.0002864220004994422
1408.0,-0.00016638934903312474
1536.0,0.00015194145089481026
1664.0,-0.00038679203134961426
1792.0,-0.00043305312283337116
1920.0,-0.00021507423662114888
2048.0,0.00037287594750523567
2304.0,0.0003425428585615009
2560.0,-0.00036191276740282774
2816.0,0.00011293705028947443
3072.0,-7.459721382474527e-05
3328.0,-0.00017159432172775269
3584.0,0.0003850703651551157
3840.0,-0.00023675317061133683
4096.0,-3.3120384614448994e-05
4608.0,0.0005372209125198424
5120.0,-4.302526940591633e-05
5632.0,-0.000689488195348531
6144.0,0.00014701562759000808
6656.0,6.210206629475579e-05
7168.0,-0.00024345317797269672
7680.0,-0.00023432362650055438
8192.0,0.0001987529540201649
9216.0,0.00013617108925245702
10240.0,-0.0004624596331268549
11264.0,0.0001708676718408242
12288.0,0.0005244861240498722
13312.0,1.33652911245008e-05
14336.0,-0.001413445919752121
end
