version,3.0
numOfCh,1
type,point
parent_name,8-cuts
ch_type,1_1
kcount,1
numberNandB,1
brightnessNandB,1
carpet pos,0
pc,0
Time (ms),CH1 Auto-Correlation
1.0,0.01575429178774357
2.0,0.01295029278844595
3.0,0.010929223150014877
4.0,0.009562375955283642
5.0,0.008425166830420494
6.0,0.007526707835495472
7.0,0.006855161394923925
8.0,0.006245719268918037
9.0,0.005718802567571402
10.0,0.0052591487765312195
11.0,0.0049704560078680515
12.0,0.004667559638619423
13.0,0.00429450161755085
14.0,0.003912597894668579
15.0,0.003683893708512187
16.0,0.0035065237898379564
18.0,0.002993363421410322
20.0,0.0026198280975222588
22.0,0.0023004489485174417
24.0,0.002099505392834544
26.0,0.0019492774736136198
28.0,0.0018869185587391257
30.0,0.0016653102356940508
32.0,0.0014966496964916587
36.0,0.001441965694539249
40.0,0.0011948124738410115
44.0,0.0011418957728892565
48.0,0.0009669038699939847
52.0,0.0010644076392054558
56.0,0.0009620186756365001
60.0,0.0008768812986090779
64.0,0.0010338706197217107
72.0,0.0005299311014823616
80.0,0.0004987734137102962
88.0,0.0003162353241350502
96.0,0.0001317164715146646
104.0,-0.00023814434825908393
112.0,-0.0004942415398545563
120.0,-0.0004556320491246879
128.0,-0.00019494982552714646
144.0,-0.0003393839579075575
160.0,-0.00030119920847937465
176.0,1.8602318959892727e-05
192.0,-0.00012928497744724154
208.0,4.7778841690160334e-05
224.0,0.00031296227825805545
240.0,0.00020541821140795946
256.0,-5.506814704858698e-05
288.0,-9.171383862849325e-05
320.0,-0.0005524923908524215
352.0,-7.512376760132611e-05
384.0,-0.00044736999552696943
416.0,-3.666387783596292e-05
448.0,-0.0001582275435794145
480.0,-9.872293594526127e-05
512.0,-0.0002959725388791412
576.0,-0.0006145979859866202
640.0,-0.00010366555216023698
704.0,-0.00015832865028642118
768.0,-0.00036591358366422355
832.0,-0.000233844097238034
896.0,0.00040167212137021124
960.0,-0.00012179766781628132
1024.0,-0.00024268972629215568
1152.0,-2.9130900657037273e-05
1280.0,0.0002954423543997109
1408.0,-0.0001222901337314397
1536.0,-0.00018357574299443513
1664.0,7.090333383530378e-05
1792.0,0.00020161217253189534
1920.0,0.00029017601627856493
2048.0,0.00010683979780878872
2304.0,-0.0004305998736526817
2560.0,0.00015103041369002312
2816.0,-0.0006984518258832395
3072.0,0.00028463415219448507
3328.0,0.00037378803244791925
3584.0,-0.0003372155479155481
3840.0,0.00033631629776209593
4096.0,-0.00014864226977806538
4608.0,-0.00010279251728206873
5120.0,0.00017352156282868236
5632.0,-3.069665399380028e-05
6144.0,-0.00018242700025439262
6656.0,9.687984129413962e-05
7168.0,-0.00013053802831564099
7680.0,4.7569137677783147e-05
8192.0,-7.574701885459945e-05
9216.0,-2.3857886844780296e-05
10240.0,4.408785389387049e-05
11264.0,4.616223304765299e-05
12288.0,0.00011249141243752092
13312.0,-4.609836469171569e-05
14336.0,-7.502541120629758e-05
end
