version,3.0
numOfCh,1
type,point
parent_name,8-cuts
ch_type,1_1
kcount,1
numberNandB,1
brightnessNandB,1
carpet pos,0
pc,0
Time (ms),CH1 Auto-Correlation
1.0,0.01598547212779522
2.0,0.013008064590394497
3.0,0.010930047370493412
4.0,0.009382102638483047
5.0,0.008162702433764935
6.0,0.007258599624037743
7.0,0.006651838310062885
8.0,0.006150227505713701
9.0,0.005669104866683483
10.0,0.005197546444833279
11.0,0.004713034722954035
12.0,0.0042432621121406555
13.0,0.003849372500553727
14.0,0.003669660072773695
15.0,0.003444202011451125
16.0,0.0031962073408067226
18.0,0.0026075660716742277
20.0,0.002294252859428525
22.0,0.0021068421192467213
24.0,0.002071696100756526
26.0,0.002057796809822321
28.0,0.0020565292797982693
30.0,0.0020070760510861874
32.0,0.0019237889209762216
36.0,0.001614776672795415
40.0,0.0014219671720638871
44.0,0.0012099710293114185
48.0,0.0009097738075070083
52.0,0.00081494270125404
56.0,0.000860591244418174
60.0,0.0007289100904017687
64.0,0.0005543646984733641
72.0,0.0004320227890275419
80.0,0.0002947938919533044
88.0,0.00021809741156175733
96.0,0.00024728590506128967
104.0,0.00034553941804915667
112.0,0.00039196282159537077
120.0,0.0006167316460050642
128.0,0.0005414083716459572
144.0,-0.0001344268093816936
160.0,0.00015898952551651746
176.0,5.6124874390661716e-05
192.0,0.00025371211813762784
208.0,-0.00034134674933739007
224.0,-0.0004622048290912062
240.0,-0.0001589083403814584
256.0,0.0001779041049303487
288.0,0.00019829753728117794
320.0,7.656982779735699e-05
352.0,0.00015003800217527896
384.0,0.0006284991977736354
416.0,0.00039104127790778875
448.0,-0.00019141855591442436
480.0,7.066802936606109e-05
512.0,-0.0001887810358311981
576.0,-0.00020034641784150153
640.0,-0.00017775969172362238
704.0,0.0001976962375920266
768.0,0.00019406346837058663
832.0,-0.0005058260285295546
896.0,-0.00029617056134156883
960.0,-5.9639507526298985e-05
1024.0,0.0003448381321504712
1152.0,0.00016288210463244468
1280.0,-0.0002231188555015251
1408.0,0.00036619891761802137
1536.0,5.629860970657319e-05
1664.0,-0.00031989748822525144
1792.0,-0.00012963883636984974
1920.0,-0.0002136858820449561
2048.0,-0.00036116718547418714
2304.0,-0.00038044617394916713
2560.0,0.0002478158276062459
2816.0,1.646516284381505e-05
3072.0,-0.00011369297135388479
3328.0,-0.00031759851844981313
3584.0,-6.263780232984573e-05
3840.0,0.00043576268944889307
4096.0,0.00035772440605796874
4608.0,-0.00019092342699877918
5120.0,-0.00013950087304692715
5632.0,-0.00011627272760961205
6144.0,-0.00028837949503213167
6656.0,0.00012711604358628392
7168.0,0.00017651532834861428
7680.0,0.0003672389138955623
8192.0,0.0002750475541688502
9216.0,-1.5656596588087268e-05
10240.0,-0.0001791554386727512
11264.0,9.897234122036025e-05
12288.0,-0.00041949792648665607
13312.0,-0.00011629756772890687
14336.0,-8.546406752429903e-05
end
