version,3.0
numOfCh,1
type,point
parent_name,8-cuts
ch_type,1_1
kcount,1
numberNandB,1
brightnessNandB,1
carpet pos,0
pc,0
Time (ms),CH1 Auto-Correlation
1.0,0.015613322146236897
2.0,0.012709343805909157
3.0,0.01077952515333891
4.0,0.009242275729775429
5.0,0.008078421466052532
6.0,0.007199686020612717
7.0,0.006455020513385534
8.0,0.005858983378857374
9.0,0.005311504937708378
10.0,0.00485215475782752
11.0,0.004381060600280762
12.0,0.0040129064582288265
13.0,0.0037356987595558167
14.0,0.003578027244657278
15.0,0.003364395350217819
16.0,0.0032172391656786203
18.0,0.0028872014954686165
20.0,0.0026114992797374725
22.0,0.002345658838748932
24.0,0.002097711432725191
26.0,0.002000852022320032
28.0,0.001784292864613235
30.0,0.0016443642089143395
32.0,0.0016942337388172746
36.0,0.0015025261091068387
40.0,0.0014394758036360145
44.0,0.0012329410528764129
48.0,0.0011670355452224612
52.0,0.0010803162585943937
56.0,0.0012260449584573507
60.0,0.001349491416476667
64.0,0.0011132670333608985
72.0,0.0008342660148628056
80.0,0.0005640613380819559
88.0,0.0005834082257933915
96.0,0.00033343842369504273
104.0,0.000382783793611452
112.0,0.0002568656927905977
120.0,0.00012584189244080335
128.0,0.00024300944642163813
144.0,0.00026969576720148325
160.0,1.1126408935524523e-05
176.0,0.00014446457498706877
192.0,0.00048102211439982057
208.0,-5.653875632560812e-05
224.0,-0.00015033595263957977
240.0,0.00021686663967557251
256.0,0.0003174908924847841
288.0,0.00040759137482382357
320.0,0.00034483501804061234
352.0,-0.00030270026763901114
384.0,-0.00013863919593859464
416.0,-0.000694981892593205
448.0,-0.000814824306871742
480.0,-0.0006330952164717019
512.0,-3.329912260596757e-06
576.0,-0.00033825915306806564
640.0,-0.0002936983946710825
704.0,-0.000374937109882012
768.0,-0.0004756186390295625
832.0,-0.00021360385289881378
896.0,0.00010596250649541616
960.0,-0.0002757132751867175
1024.0,-0.0004815282009076327
1152.0,-0.00012181619968032464
1280.0,-2.7890158889931627e-05
1408.0,0.00027742289239540696
1536.0,0.00010964273678837344
1664.0,6.413255323423073e-05
1792.0,5.868218431714922e-05
1920.0,0.00012490106746554375
2048.0,0.0002899875689763576
2304.0,-1.2164029612904415e-05
2560.0,-4.8337806219933555e-05
2816.0,-6.048408249625936e-05
3072.0,-0.00020874547772109509
3328.0,-0.00020856954506598413
3584.0,-6.642066728090867e-05
3840.0,0.00042178446892648935
4096.0,0.00023753612185828388
4608.0,-3.888799619744532e-05
5120.0,-0.00022257996897678822
5632.0,-5.755075108027086e-05
6144.0,0.0003934639389626682
6656.0,-0.0001713162928353995
7168.0,-0.00020947826851624995
7680.0,4.887344766757451e-05
8192.0,0.00022150937002152205
9216.0,-4.958451972925104e-05
10240.0,-2.9675389669137076e-05
11264.0,-7.746634219074622e-05
12288.0,-9.78869793470949e-05
13312.0,-0.00016606155259069055
14336.0,1.97007193492027e-05
end
