version,3.0
numOfCh,1
type,point
parent_name,8-cuts
ch_type,1_1
kcount,1
numberNandB,1
brightnessNandB,1
carpet pos,0
pc,0
Time (ms),CH1 Auto-Correlation
1.0,0.016648026183247566
2.0,0.013558292761445045
3.0,0.011455017141997814
4.0,0.009916328825056553
5.0,0.008706905879080296
6.0,0.0077585787512362
7.0,0.006986797787249088
8.0,0.006291875150054693
9.0,0.005798397585749626
10.0,0.005297952797263861
11.0,0.00475950026884675
12.0,0.004264023154973984
13.0,0.0038620915729552507
14.0,0.003412647172808647
15.0,0.0031467846129089594
16.0,0.002895716577768326
18.0,0.0026476543862372637
20.0,0.00232612038962543
22.0,0.0020734930876642466
24.0,0.0019783787429332733
26.0,0.001883646589703858
28.0,0.001878434675745666
30.0,0.0016303849406540394
32.0,0.0014797644689679146
36.0,0.0012518985895439982
40.0,0.0011372778099030256
44.0,0.0011081420816481113
48.0,0.0009278460056520998
52.0,0.0005937858950346708
56.0,0.00018878458649851382
60.0,-0.00014711102994624525
64.0,-0.0005280775367282331
72.0,-0.0004250809142831713
80.0,-0.0001638756803004071
88.0,-0.0003053834952879697
96.0,-0.0003623550874181092
104.0,-0.00015579818864353
112.0,-0.0002799898502416909
120.0,-3.2924079278018326e-05
128.0,-3.431857294344809e-06
144.0,0.0003124949289485812
160.0,0.00022584148973692209
176.0,-4.146347782807425e-05
192.0,-0.0003987055388279259
208.0,-0.0007186711300164461
224.0,-6.445200415328145e-05
240.0,-0.00014286428631749004
256.0,-0.00043635020847432315
288.0,0.0002649686357472092
320.0,0.0001649994374020025
352.0,0.00017126905731856823
384.0,0.0007250573253259063
416.0,0.0003790559130720794
448.0,0.00010802736505866051
480.0,-0.0001942826056620106
512.0,-0.00012882899318356067
576.0,-0.00040670065209269524
640.0,-0.000583136803470552
704.0,5.3289822972146794e-05
768.0,0.000101360390544869
832.0,-0.00041336106369271874
896.0,0.0001844993093982339
960.0,-0.0001579731033416465
1024.0,-0.0004986726562492549
1152.0,-0.00011055761569878086
1280.0,0.00016862030315678567
1408.0,-0.00021930075308773667
1536.0,0.0001789544039638713
1664.0,-0.0002546777541283518
1792.0,-0.0002950756752397865
1920.0,0.00020593832596205175
2048.0,7.371867104666308e-05
2304.0,0.0003043929173145443
2560.0,0.00019351599621586502
2816.0,0.00010178025695495307
3072.0,7.513937453040853e-05
3328.0,-6.249194120755419e-05
3584.0,-3.708314397954382e-05
3840.0,-0.00031045032665133476
4096.0,-1.760192753863521e-05
4608.0,4.798670852323994e-05
5120.0,-2.3082106963556726e-06
5632.0,0.0002195621927967295
6144.0,-9.991825208999217e-05
6656.0,-0.00021872941579204053
7168.0,-4.046425601700321e-05
7680.0,0.00014744550571776927
8192.0,0.0001976418134290725
9216.0,-0.00011802135850302875
10240.0,-1.7041737010004e-05
11264.0,-0.0001262493315152824
12288.0,-0.00010835200373549014
13312.0,-4.6271779865492135e-05
14336.0,-9.72558991634287e-05
end
