version,3.0
numOfCh,1
type,point
parent_name,8-cuts
ch_type,1_1
kcount,1
numberNandB,1
brightnessNandB,1
carpet pos,0
pc,0
Time (ms),CH1 Auto-Correlation
1.0,0.02745824120938778
2.0,0.022590292617678642
3.0,0.019340910017490387
4.0,0.016886144876480103
5.0,0.015062408521771431
6.0,0.01349030900746584
7.0,0.012087970972061157
8.0,0.010867898352444172
9.0,0.009905889630317688
10.0,0.009169651195406914
11.0,0.00860643107444048
12.0,0.008237521164119244
13.0,0.007849971763789654
14.0,0.007423235569149256
15.0,0.006946039851754904
16.0,0.006702471524477005
18.0,0.006503117736428976
20.0,0.006059597246348858
22.0,0.005490610376000404
24.0,0.005198951810598373
26.0,0.00472157821059227
28.0,0.004352083895355463
30.0,0.0041124881245195866
32.0,0.0039330958388745785
36.0,0.003318312345072627
40.0,0.003255271352827549
44.0,0.003109041368588805
48.0,0.0028010245878249407
52.0,0.0026824483647942543
56.0,0.002300858497619629
60.0,0.002265025395900011
64.0,0.0019789470825344324
72.0,0.0016972256125882268
80.0,0.0010752943344414234
88.0,0.0011688387021422386
96.0,0.001013256493024528
104.0,0.0013068951666355133
112.0,0.0013442202471196651
120.0,0.0006524788332171738
128.0,0.0003505580825731158
144.0,0.0001743702159728855
160.0,-0.00029032464954070747
176.0,-3.946252036257647e-05
192.0,0.00041787498048506677
208.0,0.0005151127697899938
224.0,0.0009248433634638786
240.0,-4.514956526691094e-05
256.0,0.0003864456375595182
288.0,0.0007960209622979164
320.0,0.0009421978029422462
352.0,0.0007390073733404279
384.0,0.000711581960786134
416.0,-4.7008285037009045e-05
448.0,-0.000314706121571362
480.0,-0.0005476294900290668
512.0,-4.241823626216501e-05
576.0,6.70508379698731e-05
640.0,-0.0007630991167388856
704.0,0.00010284394375048578
768.0,-0.0002903109125327319
832.0,-0.00035166949965059757
896.0,-7.876945892348886e-05
960.0,-0.0009398394031450152
1024.0,-0.0019727349281311035
1152.0,-0.0010299792047590017
1280.0,-0.0006021410226821899
1408.0,-5.42714333278127e-05
1536.0,-0.00024294108152389526
1664.0,-0.00020411223522387445
1792.0,-0.0009654363384470344
1920.0,0.0009200872736983001
2048.0,0.00026057701325044036
2304.0,-0.0001623440330149606
2560.0,0.00013526584370993078
2816.0,0.00012935597624164075
3072.0,-0.0005204729968681931
3328.0,0.00011749276018235832
3584.0,0.0006012104568071663
3840.0,0.0002780247596092522
4096.0,-0.00032543292036280036
4608.0,0.000298414786811918
5120.0,0.00013004333595745265
5632.0,0.00039085643948055804
6144.0,-0.0002789304417092353
6656.0,-6.06128633080516e-05
7168.0,-0.0003959171590395272
7680.0,-0.00035987613955512643
8192.0,-8.020347740966827e-05
9216.0,8.142690057866275e-05
10240.0,-2.2401836758945137e-05
11264.0,0.0004172256449237466
12288.0,-0.0015625283122062683
13312.0,0.0014009972801432014
14336.0,-0.0002636740682646632
end
