version,3.0
numOfCh,1
type,point
parent_name,8-cuts
ch_type,1_1
kcount,1
numberNandB,1
brightnessNandB,1
carpet pos,0
pc,0
Time (ms),CH1 Auto-Correlation
1.0,0.01605573482811451
2.0,0.013124043121933937
3.0,0.011095738969743252
4.0,0.009520846419036388
5.0,0.008241589181125164
6.0,0.007349975407123566
7.0,0.006665118969976902
8.0,0.006056204903870821
9.0,0.005504024215042591
10.0,0.004920992534607649
11.0,0.004390871152281761
12.0,0.004064690787345171
13.0,0.003788200207054615
14.0,0.0035181278362870216
15.0,0.0032261076848953962
16.0,0.0029548134189099073
18.0,0.002489132806658745
20.0,0.002295801881700754
22.0,0.0019907543901354074
24.0,0.0015935623086988926
26.0,0.0011897383956238627
28.0,0.000842628360260278
30.0,0.0008358466438949108
32.0,0.0009274439071305096
36.0,0.0012921615270897746
40.0,0.0013740253634750843
44.0,0.001246181782335043
48.0,0.0011528368340805173
52.0,0.0010298696579411626
56.0,0.001080865622498095
60.0,0.0011700834147632122
64.0,0.001213366282172501
72.0,0.0011694803833961487
80.0,0.00090886588441208
88.0,0.0007516168989241123
96.0,0.0006264474359340966
104.0,0.0001494760363129899
112.0,0.00023512377811130136
120.0,0.0005344503442756832
128.0,0.0008484487771056592
144.0,0.00042936840327456594
160.0,-0.00010146172280656174
176.0,-0.0002572410157881677
192.0,0.00010752183152362704
208.0,-2.773289270407986e-05
224.0,-3.4313841752009466e-05
240.0,6.94931804900989e-05
256.0,-2.101557038258761e-05
288.0,2.561551627877634e-05
320.0,0.00023979030083864927
352.0,0.0003562078345566988
384.0,0.00012561418407130986
416.0,0.00026743646594695747
448.0,0.00015407308819703758
480.0,0.0001430605916539207
512.0,0.0001365155476378277
576.0,0.0005121334106661379
640.0,0.0005347207770682871
704.0,6.546003714902326e-05
768.0,7.499733328586444e-05
832.0,4.9059624871006235e-05
896.0,0.00036578174331225455
960.0,-0.000397518917452544
1024.0,-0.0001893558364827186
1152.0,2.8514805308077484e-05
1280.0,-0.0002748730476014316
1408.0,-0.00013890708214603364
1536.0,7.442794867529301e-06
1664.0,2.949601912405342e-05
1792.0,4.867630923399702e-05
1920.0,-4.978947981726378e-05
2048.0,6.860703433630988e-05
2304.0,-0.0001616083027329296
2560.0,-0.00023055131896398962
2816.0,-0.00027738549397327006
3072.0,-0.00044203491415828466
3328.0,-0.00015410289051942527
3584.0,6.892425881233066e-05
3840.0,-1.900461211334914e-05
4096.0,0.0005400875234045088
4608.0,0.0001655567903071642
5120.0,-3.206665860489011e-05
5632.0,8.032193727558479e-05
6144.0,0.0002611698000691831
6656.0,-7.619098323630169e-05
7168.0,-0.00039292610017582774
7680.0,-5.688043529517017e-05
8192.0,5.5338910897262394e-05
9216.0,-0.0001517419732408598
10240.0,0.00010857459710678086
11264.0,-0.0002316733734915033
12288.0,-0.00029136816738173366
13312.0,-0.00020588883489836007
14336.0,0.00020438471983652562
end
