version,3.0
numOfCh,1
type,point
parent_name,8-cuts
ch_type,1_1
kcount,1
numberNandB,1
brightnessNandB,1
carpet pos,0
pc,0
Time (ms),CH1 Auto-Correlation
1.0,0.01694367453455925
2.0,0.013951510190963745
3.0,0.01189532969146967
4.0,0.01025074440985918
5.0,0.009015245363116264
6.0,0.008060222491621971
7.0,0.00729480991140008
8.0,0.006685278378427029
9.0,0.006174991838634014
10.0,0.0056481254287064075
11.0,0.00534940417855978
12.0,0.005006098188459873
13.0,0.004764026030898094
14.0,0.0045566740445792675
15.0,0.004313321318477392
16.0,0.004043980035930872
18.0,0.003658395493403077
20.0,0.00333133595995605
22.0,0.0031252368353307247
24.0,0.002870318479835987
26.0,0.0027199997566640377
28.0,0.002711625536903739
30.0,0.0025751693174242973
32.0,0.002293901750817895
36.0,0.0020526733715087175
40.0,0.0019496111199259758
44.0,0.001701639499515295
48.0,0.0013960328651592135
52.0,0.0010616917861625552
56.0,0.0009052871027961373
60.0,0.000711269152816385
64.0,0.0006684073014184833
72.0,0.0005103917210362852
80.0,0.00045210818643681705
88.0,0.0004357451689429581
96.0,0.000503942952491343
104.0,0.0007993141189217567
112.0,0.000601127918343991
120.0,0.00047144130803644657
128.0,0.0004694877134170383
144.0,0.0009197176550514996
160.0,0.000337089819367975
176.0,0.00025509746046736836
192.0,0.0006518987356685102
208.0,0.0004926857654936612
224.0,0.00018608236860018224
240.0,-0.00013842617045156658
256.0,-0.0002888506278395653
288.0,-9.544030035613105e-05
320.0,-0.00021967293287161738
352.0,-0.00013376340211834759
384.0,0.0002665750216692686
416.0,0.0001907928381115198
448.0,-0.00033642264315858483
480.0,-0.0003363728174008429
512.0,0.0001191123592434451
576.0,0.00033630203688517213
640.0,0.0004940095823258162
704.0,0.00027761352248489857
768.0,-0.00013965769903734326
832.0,0.0004824276838917285
896.0,-0.0004731775261461735
960.0,-0.00015430258645210415
1024.0,0.00037914045969955623
1152.0,0.0006320718675851822
1280.0,-0.00023562593560200185
1408.0,-2.3233233150676824e-05
1536.0,-0.00011580848513403907
1664.0,7.105815893737599e-05
1792.0,4.229836122249253e-05
1920.0,-7.45371071388945e-05
2048.0,0.0002668083761818707
2304.0,0.0005083545693196356
2560.0,-5.82424363528844e-05
2816.0,0.0003544317150954157
3072.0,-0.0003687454154714942
3328.0,-0.00018347168224863708
3584.0,-0.00012221516226418316
3840.0,0.0005026060971431434
4096.0,5.997065727569861e-06
4608.0,0.00020273499831091613
5120.0,-0.000153247601701878
5632.0,-0.00039442419074475765
6144.0,-0.0005074869259260595
6656.0,-0.00025162764359265566
7168.0,-0.00032805936643853784
7680.0,-0.00037781306309625506
8192.0,-1.7880072846310213e-05
9216.0,-0.0002848609001375735
10240.0,-0.0002113170485245064
11264.0,-3.819952326011844e-05
12288.0,0.0003045088960789144
13312.0,0.000262339977780357
14336.0,0.00010603156260913238
end
