version,3.0
numOfCh,1
type,point
parent_name,8-cuts
ch_type,1_1
kcount,1
numberNandB,1
brightnessNandB,1
carpet pos,0
pc,0
Time (ms),CH1 Auto-Correlation
1.0,0.015992555767297745
2.0,0.013051860965788364
3.0,0.011081207543611526
4.0,0.009630267508327961
5.0,0.008525840938091278
6.0,0.007548908237367868
7.0,0.0067367241717875
8.0,0.006133207585662603
9.0,0.005567803047597408
10.0,0.005144928582012653
11.0,0.0047306581400334835
12.0,0.0044393050484359264
13.0,0.004297936335206032
14.0,0.004113078583031893
15.0,0.0039489977061748505
16.0,0.0038203352596610785
18.0,0.0035020553041249514
20.0,0.003237362252548337
22.0,0.002987585961818695
24.0,0.0028723576106131077
26.0,0.0028081415221095085
28.0,0.002713441150262952
30.0,0.0025613890029489994
32.0,0.002324053319171071
36.0,0.001826499355956912
40.0,0.0015435806708410382
44.0,0.0014704301720485091
48.0,0.0015798471868038177
52.0,0.0014845242258161306
56.0,0.0012974065029993653
60.0,0.0011078659445047379
64.0,0.0013073879526928067
72.0,0.0009929122170433402
80.0,0.0010127107379958034
88.0,0.0008057788363657892
96.0,0.0005165417096577585
104.0,0.0006434309179894626
112.0,0.000592038210015744
120.0,0.0006001692963764071
128.0,0.0002877701772376895
144.0,0.0001919256610563025
160.0,-0.00013414469140116125
176.0,-0.0001010244304779917
192.0,4.6987068344606087e-05
208.0,0.0001486843393649906
224.0,8.23709779069759e-05
240.0,-1.8574169189378154e-06
256.0,7.309264037758112e-05
288.0,0.0001404806098435074
320.0,1.3889706679037772e-05
352.0,-8.864434494171292e-05
384.0,-0.0001405406219419092
416.0,-4.4625012378674e-05
448.0,0.00012213268200866878
480.0,-9.651749132899567e-05
512.0,0.0001891239226097241
576.0,-0.00021336606005206704
640.0,0.00023094576317816973
704.0,0.0001865818485384807
768.0,0.0004596528597176075
832.0,-0.0002041575644398108
896.0,3.506566145006218e-06
960.0,-4.129456283408217e-05
1024.0,0.0002697747841011733
1152.0,1.0417776138638146e-05
1280.0,-0.0001963485119631514
1408.0,0.00032219840795733035
1536.0,-6.813572690589353e-05
1664.0,0.0003756317310035229
1792.0,0.0004627456655725837
1920.0,0.00023717110161669552
2048.0,-0.00019127532141283154
2304.0,-0.00014927753363735974
2560.0,-0.00016015025903470814
2816.0,0.00014737085439264774
3072.0,6.858094820927363e-06
3328.0,-0.0003423597081564367
3584.0,-0.000254654762102291
3840.0,-0.0004823511990252882
4096.0,-0.0005607096827588975
4608.0,5.166090431885095e-06
5120.0,-0.0003908440703526139
5632.0,-0.00033224979415535927
6144.0,4.701937359641306e-05
6656.0,0.00020288341329433024
7168.0,-1.1447001270425972e-05
7680.0,-1.2413733202265576e-05
8192.0,0.0005848679575137794
9216.0,4.713972521130927e-05
10240.0,0.00013543058594223112
11264.0,3.810309135587886e-05
12288.0,-0.00021560140885412693
13312.0,6.620265048695728e-05
14336.0,-0.00019927072571590543
end
