version,3.0
numOfCh,1
type,point
parent_name,8-cuts
ch_type,1_1
kcount,1
numberNandB,1
brightnessNandB,1
carpet pos,0
pc,0
Time (ms),CH1 Auto-Correlation
1.0,0.02916489914059639
2.0,0.024134961888194084
3.0,0.02052941918373108
4.0,0.01784590817987919
5.0,0.015956135466694832
6.0,0.014470591209828854
7.0,0.013297095894813538
8.0,0.012311181984841824
9.0,0.011278551071882248
10.0,0.01021513994783163
11.0,0.009333756752312183
12.0,0.008549803867936134
13.0,0.00802960991859436
14.0,0.00743726035580039
15.0,0.007032653782516718
16.0,0.006734578404575586
18.0,0.0061499569565057755
20.0,0.0056738886050879955
22.0,0.005284707061946392
24.0,0.0047540003433823586
26.0,0.004330428317189217
28.0,0.003845745464786887
30.0,0.0036035103257745504
32.0,0.003384081646800041
36.0,0.0032974702771753073
40.0,0.0032645685132592916
44.0,0.0031753231305629015
48.0,0.0033529349602758884
52.0,0.002968157408758998
56.0,0.002374130068346858
60.0,0.001849854364991188
64.0,0.0015783800045028329
72.0,0.001040230505168438
80.0,0.0008189145592041314
88.0,0.0011886724969372153
96.0,0.0007895500166341662
104.0,0.00023869860160630196
112.0,0.0002198740839958191
120.0,8.139026613207534e-05
128.0,-0.000276174396276474
144.0,-0.0006951649556867778
160.0,-0.001050266670063138
176.0,-0.00035425263922661543
192.0,6.465950718848035e-05
208.0,0.00024513775133527815
224.0,-0.0003082942857872695
240.0,-0.0004675342934206128
256.0,-2.8901391488034278e-05
288.0,-8.753432484809309e-05
320.0,-0.0007879447075538337
352.0,-0.0007894453010521829
384.0,-0.0011749309487640858
416.0,-0.00041247907211072743
448.0,0.0006205945392139256
480.0,0.0003285299753770232
512.0,0.0005776537582278252
576.0,0.0002949584450107068
640.0,0.0001988572475966066
704.0,0.00035293959081172943
768.0,-0.0001476138859288767
832.0,-0.00019656949734780937
896.0,3.3134219847852364e-05
960.0,-0.00023705979401711375
1024.0,0.0003832296933978796
1152.0,0.00025915238074958324
1280.0,-0.00023781169147696346
1408.0,-0.00013492305879481137
1536.0,-5.578143463935703e-05
1664.0,0.00023313757264986634
1792.0,0.0006870273500680923
1920.0,-0.0005998967099003494
2048.0,0.0004177862429060042
2304.0,6.419079727493227e-05
2560.0,-1.89515485544689e-05
2816.0,-0.0003451568481978029
3072.0,0.0003075911372434348
3328.0,-0.00023207113554235548
3584.0,-9.385752491652966e-06
3840.0,9.335684444522485e-05
4096.0,0.0004490732098929584
4608.0,-0.000600743165705353
5120.0,-0.0008882746915332973
5632.0,-0.00048758811317384243
6144.0,-0.0003078891313634813
6656.0,9.445039904676378e-05
7168.0,6.953103729756549e-05
7680.0,0.00033858331153169274
8192.0,2.3369564587483183e-05
9216.0,-0.00012379027612041682
10240.0,0.000606740708462894
11264.0,0.00023215053079184145
12288.0,-0.00018272660963702947
13312.0,0.00022383192845154554
14336.0,-0.00022095149324741215
end
