version,3.0
numOfCh,1
type,point
parent_name,8-cuts
ch_type,1_1
kcount,1
numberNandB,1
brightnessNandB,1
carpet pos,0
pc,0
Time (ms),CH1 Auto-Correlation
1.0,0.016070431098341942
2.0,0.013216261751949787
3.0,0.011131743900477886
4.0,0.009585175663232803
5.0,0.008487089537084103
6.0,0.007620575837790966
7.0,0.006775991525501013
8.0,0.006132120732218027
9.0,0.005659542977809906
10.0,0.005229148548096418
11.0,0.004907343536615372
12.0,0.00463747326284647
13.0,0.004333215765655041
14.0,0.004084132146090269
15.0,0.003842751495540142
16.0,0.003614469664171338
18.0,0.0032951582688838243
20.0,0.002998118055984378
22.0,0.0027817105874419212
24.0,0.0024083852767944336
26.0,0.001954869367182255
28.0,0.001745298388414085
30.0,0.0017327151726931334
32.0,0.0017938184319064021
36.0,0.0017946450971066952
40.0,0.0017806532559916377
44.0,0.0015029144706204534
48.0,0.001326248049736023
52.0,0.0015852812211960554
56.0,0.0012724053813144565
60.0,0.0010329314973205328
64.0,0.0009506765054538846
72.0,0.000575937912799418
80.0,0.00033479908597655594
88.0,0.0003470806695986539
96.0,0.00024952125386334956
104.0,0.0004026618553325534
112.0,4.714366150437854e-05
120.0,-0.00012672581942752004
128.0,0.00014571055362466723
144.0,0.00010956070036627352
160.0,-6.931485404493287e-05
176.0,-0.00012856880493927747
192.0,-0.0001631353807169944
208.0,-0.0004947977140545845
224.0,-6.621038482990116e-05
240.0,-0.0002850099408533424
256.0,-0.00016343139577656984
288.0,0.0001717704872135073
320.0,1.0650962394720409e-05
352.0,-0.00020205731561873108
384.0,-0.00032338121673092246
416.0,-0.0005931340274401009
448.0,-0.0004327939823269844
480.0,-0.0005070209736004472
512.0,-1.4784156519453973e-05
576.0,7.077569898683578e-05
640.0,0.0001963701070053503
704.0,2.433462032058742e-05
768.0,-0.00029752831324003637
832.0,-0.00022538528719451278
896.0,-4.8178917495533824e-05
960.0,0.0003253881586715579
1024.0,0.00013184295676182956
1152.0,4.8934239202935714e-06
1280.0,0.00013533909805119038
1408.0,-0.0002446193539071828
1536.0,-0.0001909589918795973
1664.0,-0.000478476460557431
1792.0,6.025611946824938e-05
1920.0,-8.874895138433203e-05
2048.0,-2.8870943424408324e-05
2304.0,-0.00017010139708872885
2560.0,-0.00046531701809726655
2816.0,-5.750453783548437e-05
3072.0,0.00029647041810676455
3328.0,-0.0001340018934570253
3584.0,-0.00028759895940311253
3840.0,-2.1912821466685273e-05
4096.0,0.0003117684682365507
4608.0,0.00018646763055585325
5120.0,-6.743649009877117e-06
5632.0,0.00012554359273053706
6144.0,5.688235614798032e-05
6656.0,-0.00021028623450547457
7168.0,6.590261909877881e-05
7680.0,-3.579076656023972e-05
8192.0,-7.732436642982066e-05
9216.0,-3.5824818951368798e-06
10240.0,4.02676232624799e-05
11264.0,0.00011984161392319947
12288.0,4.2982348531950265e-05
13312.0,4.6486358769470826e-05
14336.0,-0.00036064727464690804
end
