version,3.0
numOfCh,1
type,point
parent_name,8-cuts
ch_type,1_1
kcount,1
numberNandB,1
brightnessNandB,1
carpet pos,0
pc,0
Time (ms),CH1 Auto-Correlation
1.0,0.016394497826695442
2.0,0.013417652808129787
3.0,0.011333629488945007
4.0,0.009775343351066113
5.0,0.008600030094385147
6.0,0.0076329875737428665
7.0,0.0068650199100375175
8.0,0.0062837153673172
9.0,0.005706085357815027
10.0,0.005276234820485115
11.0,0.004934967961162329
12.0,0.004542588721960783
13.0,0.004285204689949751
14.0,0.0041526067070662975
15.0,0.0039674523286521435
16.0,0.0036883382126688957
18.0,0.003544899635016918
20.0,0.003091611433774233
22.0,0.002751664025709033
24.0,0.0026639176066964865
26.0,0.0026026898995041847
28.0,0.0024761732202023268
30.0,0.002358807250857353
32.0,0.0022204406559467316
36.0,0.002029652940109372
40.0,0.0016681504203006625
44.0,0.0014635681873187423
48.0,0.001406910945661366
52.0,0.001227558241225779
56.0,0.0011350353015586734
60.0,0.0012826267629861832
64.0,0.0012359439861029387
72.0,0.0008298167958855629
80.0,0.0006451586959883571
88.0,0.0005823810352012515
96.0,0.0007887439569458365
104.0,0.0003643899690359831
112.0,1.2282068382774014e-05
120.0,3.0277768019004725e-05
128.0,-0.00045509100891649723
144.0,-0.0002324340312043205
160.0,-0.00025094480952247977
176.0,0.0001311878440901637
192.0,-3.370191916474141e-05
208.0,-0.00021573127014562488
224.0,-0.00017251574900001287
240.0,-3.368092075106688e-05
256.0,-0.00023744710779283196
288.0,-0.0001936704502440989
320.0,-0.00019558955682441592
352.0,5.175750993657857e-05
384.0,-0.00029245862970128655
416.0,-0.0005316679598763585
448.0,-0.0009466520277783275
480.0,-0.0006133047863841057
512.0,-0.0006618073675781488
576.0,3.501468017930165e-05
640.0,2.8230171665200032e-05
704.0,-8.143070590449497e-05
768.0,5.9970556321786717e-05
832.0,0.0003975583240389824
896.0,0.0006617815815843642
960.0,0.0005580044817179441
1024.0,0.00010672817734302953
1152.0,-0.00036425775033421814
1280.0,-0.0003519558231346309
1408.0,-0.0003798098478000611
1536.0,8.115045784506947e-05
1664.0,-0.00018683407688513398
1792.0,-0.0002851759782060981
1920.0,-0.000200051988940686
2048.0,-0.000348833913449198
2304.0,1.2051850717398338e-05
2560.0,8.090338815236464e-05
2816.0,6.087641304475255e-05
3072.0,9.052709356183186e-05
3328.0,0.00016458348545711488
3584.0,0.00012642583169508725
3840.0,-0.00024687920813448727
4096.0,0.00025791412917897105
4608.0,-4.312604505685158e-05
5120.0,-1.5465870092157274e-05
5632.0,0.00025000330060720444
6144.0,-3.5325872886460274e-05
6656.0,-0.00010318956628907472
7168.0,-0.00016817418509162962
7680.0,-0.00023230777878779918
8192.0,0.0003338569076731801
9216.0,0.00011883184924954548
10240.0,-0.0002624139888212085
11264.0,-5.842818063683808e-05
12288.0,6.914203822816489e-06
13312.0,-0.00010963400563923642
14336.0,1.3917244814365404e-06
end
