version,3.0
numOfCh,1
type,point
parent_name,8-cuts
ch_type,1_1
kcount,1
numberNandB,1
brightnessNandB,1
carpet pos,0
pc,0
Time (ms),CH1 Auto-Correlation
1.0,0.026864761486649513
2.0,0.021915128454566002
3.0,0.018454603850841522
4.0,0.015829933807253838
5.0,0.013721517287194729
6.0,0.012014060281217098
7.0,0.010768293403089046
8.0,0.009709849022328854
9.0,0.00883489940315485
10.0,0.008240930736064911
11.0,0.007473297417163849
12.0,0.007019091863185167
13.0,0.006583335809409618
14.0,0.0061690122820436954
15.0,0.005924392957240343
16.0,0.0057057603262364864
18.0,0.004916283302009106
20.0,0.004183141514658928
22.0,0.00401121424511075
24.0,0.0038280875887721777
26.0,0.0035501210950315
28.0,0.0032808452378958464
30.0,0.0029594553634524345
32.0,0.0027992704417556524
36.0,0.002575009362772107
40.0,0.0022084154188632965
44.0,0.001934174681082368
48.0,0.0017316762823611498
52.0,0.0012009463971480727
56.0,0.0009937155991792679
60.0,0.0007695799577049911
64.0,0.0007880314951762557
72.0,0.0007741367444396019
80.0,0.0002576163096819073
88.0,0.0003374719526618719
96.0,0.0005479217506945133
104.0,0.0009710610611364245
112.0,0.0006868842174299061
120.0,0.00044127946603111923
128.0,0.000419730698922649
144.0,0.0002091588539769873
160.0,-4.444752630661242e-05
176.0,0.00013307726476341486
192.0,5.228191730566323e-05
208.0,-0.0003132234269287437
224.0,-0.0004592598124872893
240.0,-0.0005380099755711854
256.0,-0.0005825886619277298
288.0,-0.0007625402649864554
320.0,-0.0010427187662571669
352.0,-0.0012850373750552535
384.0,-0.0005095369997434318
416.0,5.0998532969970256e-05
448.0,3.96729628846515e-05
480.0,-0.00019870097457896918
512.0,-0.00028653113986365497
576.0,7.141683454392478e-05
640.0,3.0592600523959845e-05
704.0,-0.000578615756239742
768.0,-0.00048607843928039074
832.0,0.0009391536586917937
896.0,-6.413929804693907e-05
960.0,2.678807322809007e-05
1024.0,-0.0004724979226011783
1152.0,-0.00036815612111240625
1280.0,9.907755884341896e-05
1408.0,0.0006318317609839141
1536.0,0.00030549007351510227
1664.0,0.0002672923437785357
1792.0,0.00029593019280582666
1920.0,-0.0007152329781092703
2048.0,-0.00039356097113341093
2304.0,-0.0004410657857079059
2560.0,-1.7726057194522582e-05
2816.0,-0.0002504982112441212
3072.0,0.0005774485180154443
3328.0,-0.0004546322743408382
3584.0,0.00027448777109384537
3840.0,-0.0005625658668577671
4096.0,2.180544106522575e-05
4608.0,-0.0005313345463946462
5120.0,4.417751188157126e-05
5632.0,0.00027158414013683796
6144.0,1.765101114870049e-05
6656.0,-3.8606922316830605e-05
7168.0,-0.00016354348917957395
7680.0,0.00019594609329942614
8192.0,2.662124825292267e-05
9216.0,0.00042723133810795844
10240.0,-3.704967093653977e-05
11264.0,-2.1100609956192784e-05
12288.0,-0.0005220493767410517
13312.0,-0.00022178761719260365
14336.0,0.00042544634197838604
end
