version,3.0
numOfCh,1
type,point
parent_name,8-cuts
ch_type,1_1
kcount,1
numberNandB,1
brightnessNandB,1
carpet pos,0
pc,0
Time (ms),CH1 Auto-Correlation
1.0,0.01677369326353073
2.0,0.01371708232909441
3.0,0.011563560925424099
4.0,0.010029957629740238
5.0,0.008917611092329025
6.0,0.007938634604215622
7.0,0.007094147149473429
8.0,0.006409056019037962
9.0,0.005905641708523035
10.0,0.005427543539553881
11.0,0.0050872135907411575
12.0,0.004736235830932856
13.0,0.004390041343867779
14.0,0.0040972488932311535
15.0,0.003930265549570322
16.0,0.0037273159250617027
18.0,0.0033339469227939844
20.0,0.0030107104685157537
22.0,0.002882536733523011
24.0,0.0028056474402546883
26.0,0.0026076154317706823
28.0,0.0023506556171923876
30.0,0.0022571550216525793
32.0,0.002050076611340046
36.0,0.001469756243750453
40.0,0.0012375147780403495
44.0,0.0011301982449367642
48.0,0.0007970660226419568
52.0,0.00045461050467565656
56.0,0.0003387077013030648
60.0,0.00039464959991164505
64.0,0.0005736284656450152
72.0,0.0004733997047878802
80.0,0.0003221710794605315
88.0,0.0003681118250824511
96.0,0.0001991506724152714
104.0,9.242224041372538e-05
112.0,0.0003330955805722624
120.0,0.0003943209012504667
128.0,0.0005786711117252707
144.0,0.0006426750333048403
160.0,0.0001819900789996609
176.0,0.00013580154336523265
192.0,-0.00013401173055171967
208.0,0.00020408406271599233
224.0,-1.5291720046661794e-05
240.0,0.0003821861755568534
256.0,0.00017464239499531686
288.0,-0.0003559646720532328
320.0,-0.000750843551941216
352.0,-0.0005509441252797842
384.0,0.0004486922116484493
416.0,0.0004231263301335275
448.0,0.0003721123794093728
480.0,-0.0005197682767175138
512.0,-0.0001085156764020212
576.0,-2.6982097551808693e-05
640.0,-0.00039111924706958234
704.0,-0.00020392981241457164
768.0,-5.210016024648212e-05
832.0,-0.0007093596505001187
896.0,0.00022734724916517735
960.0,0.00035102080437354743
1024.0,0.0003883262106683105
1152.0,0.0003808421897701919
1280.0,-7.23953708074987e-05
1408.0,-0.0005472736665979028
1536.0,-0.00023434555623680353
1664.0,-3.039085413547582e-06
1792.0,-0.00013266764290165156
1920.0,0.00025684767751954496
2048.0,-7.116261986084282e-05
2304.0,-0.00030101992888376117
2560.0,-0.000471219711471349
2816.0,-6.239864887902513e-05
3072.0,-1.5124469427973963e-05
3328.0,8.113466901704669e-05
3584.0,-0.0003004909958690405
3840.0,0.00020050202147103846
4096.0,0.00028660983662121
4608.0,2.8643084078794345e-05
5120.0,-0.0001600268151378259
5632.0,-2.794635838654358e-05
6144.0,9.660560863267165e-06
6656.0,-0.00021528237266466022
7168.0,-5.0937676860485226e-05
7680.0,-1.0075784302898683e-05
8192.0,0.0004160994722042233
9216.0,0.00013616766955237836
10240.0,4.591450124280527e-05
11264.0,-9.353362838737667e-05
12288.0,-0.00013341645535547286
13312.0,-3.638933412730694e-05
14336.0,5.876363138668239e-05
end
