version,3.0
numOfCh,1
type,point
parent_name,8-cuts
ch_type,1_1
kcount,1
numberNandB,1
brightnessNandB,1
carpet pos,0
pc,0
Time (ms),CH1 Auto-Correlation
1.0,0.016483236104249954
2.0,0.013694769702851772
3.0,0.011580994352698326
4.0,0.010039953514933586
5.0,0.00885520689189434
6.0,0.007854034192860126
7.0,0.00719602731987834
8.0,0.006618293467909098
9.0,0.006218611728399992
10.0,0.005736259277909994
11.0,0.005426452029496431
12.0,0.0053086718544363976
13.0,0.00505564222112298
14.0,0.004740730859339237
15.0,0.004615711979568005
16.0,0.00437805475667119
18.0,0.0038580826949328184
20.0,0.003260635770857334
22.0,0.002975598443299532
24.0,0.0028642385732382536
26.0,0.002686329185962677
28.0,0.0026243224274367094
30.0,0.0026010957080870867
32.0,0.002481910167261958
36.0,0.0021831344347447157
40.0,0.0019566777627915144
44.0,0.0020367098040878773
48.0,0.002064402448013425
52.0,0.0019169867737218738
56.0,0.0017293767305091023
60.0,0.0016719161067157984
64.0,0.0013709381455555558
72.0,0.0008839513175189495
80.0,0.0009644801029935479
88.0,0.0010358673753216863
96.0,0.0009424269665032625
104.0,0.0011203987523913383
112.0,0.0011631742818281054
120.0,0.001168574788607657
128.0,0.0008542239083908498
144.0,0.0004676932585425675
160.0,0.000172968371771276
176.0,-0.0002351515431655571
192.0,-0.00016346672782674432
208.0,-0.00042046085582114756
224.0,-0.0005212496616877615
240.0,-0.0007006130763329566
256.0,-0.0005655468557961285
288.0,-0.00043354614172130823
320.0,-0.00014303156058304012
352.0,-0.000521073758136481
384.0,-0.000553132442291826
416.0,-0.0010605937568470836
448.0,-0.0006003773305565119
480.0,-0.0006923411856405437
512.0,-4.1132392652798444e-05
576.0,-0.00040510197868570685
640.0,0.00047478717169724405
704.0,0.00012798125681001693
768.0,-3.675392872537486e-05
832.0,-0.00012034640531055629
896.0,0.0005779824568890035
960.0,0.000504016934428364
1024.0,0.00033400062238797545
1152.0,-0.000386397005058825
1280.0,-0.00031303183641284704
1408.0,-5.743705332861282e-05
1536.0,5.835296178702265e-05
1664.0,0.00018599316535983235
1792.0,0.00011467091826489195
1920.0,0.0001229811750818044
2048.0,1.3870713701180648e-05
2304.0,-0.00044969897135160863
2560.0,0.0003226063272450119
2816.0,8.459818673145492e-06
3072.0,-0.0002690982655622065
3328.0,-0.00014795716560911387
3584.0,-0.00010285125608788803
3840.0,-0.00035621545976027846
4096.0,1.6916899767238647e-05
4608.0,-0.00018464498862158507
5120.0,0.000324936379911378
5632.0,-0.00017136341193690896
6144.0,0.00019594129116740078
6656.0,0.00032770316465757787
7168.0,-0.0005299950717017055
7680.0,0.00023371214047074318
8192.0,-0.00023643011809326708
9216.0,-4.0915223507909104e-05
10240.0,-0.0001994471240323037
11264.0,0.0001917980844154954
12288.0,0.00015160600014496595
13312.0,-8.607807831140235e-05
14336.0,-6.070240488043055e-06
end
