version,3.0
numOfCh,1
type,point
parent_name,8-cuts
ch_type,1_1
kcount,1
numberNandB,1
brightnessNandB,1
carpet pos,0
pc,0
Time (ms),CH1 Auto-Correlation
1.0,0.015190518461167812
2.0,0.012203259393572807
3.0,0.010103016160428524
4.0,0.008751201443374157
5.0,0.0075265043415129185
6.0,0.006566242314875126
7.0,0.005856378935277462
8.0,0.00520449411123991
9.0,0.004635145887732506
10.0,0.004154667258262634
11.0,0.0037346624303609133
12.0,0.00339721841737628
13.0,0.0031716700177639723
14.0,0.0030197433661669493
15.0,0.002902590436860919
16.0,0.0027696515899151564
18.0,0.0023347765672951937
20.0,0.0020509050227701664
22.0,0.0018707343842834234
24.0,0.0016756097320467234
26.0,0.0015846947208046913
28.0,0.0014279355527833104
30.0,0.001331463921815157
32.0,0.0010793001856654882
36.0,0.0010175335919484496
40.0,0.000896430341526866
44.0,0.0007513997261412442
48.0,0.0007644160650670528
52.0,0.0009107073419727385
56.0,0.0007009196560829878
60.0,0.0004842621274292469
64.0,0.00037043431075289845
72.0,6.335963553283364e-05
80.0,-0.000291329255560413
88.0,-0.0003824105369858444
96.0,5.018528099753894e-05
104.0,0.00020848040003329515
112.0,7.505191024392843e-05
120.0,0.000112588815682102
128.0,-0.00020072225015610456
144.0,9.781411790754646e-05
160.0,0.00037770779454149306
176.0,7.622924022143707e-05
192.0,-3.768655369640328e-05
208.0,-4.437156894709915e-05
224.0,0.00030839137616567314
240.0,-9.317566582467407e-05
256.0,-0.00026892864843830466
288.0,-0.00031465740175917745
320.0,3.511862087179907e-05
352.0,0.0003287610597908497
384.0,0.00020523207786027342
416.0,-0.0002887426526285708
448.0,0.00022697076201438904
480.0,0.0001051366634783335
512.0,0.0004650633782148361
576.0,0.00016142803360708058
640.0,0.0001128722433350049
704.0,-0.00013715184468310326
768.0,-0.00012855253589805216
832.0,7.629458559677005e-05
896.0,0.00016728696937207133
960.0,0.0002518746186979115
1024.0,0.00020641110313590616
1152.0,-3.792499774135649e-05
1280.0,3.483841283014044e-05
1408.0,0.00013433398271445185
1536.0,-4.300362343201414e-05
1664.0,-5.247728040558286e-05
1792.0,-0.0001267845364054665
1920.0,6.808291800552979e-05
2048.0,-8.67521739564836e-05
2304.0,-7.057929906295612e-05
2560.0,0.0001174442732008174
2816.0,4.496659676078707e-05
3072.0,-4.1064391552936286e-05
3328.0,8.432847607764415e-06
3584.0,-6.129892426542938e-05
3840.0,6.79094810038805e-05
4096.0,-7.888051914051175e-05
4608.0,-0.00013487454270944
5120.0,-0.0002025170688284561
5632.0,-7.431203994201496e-05
6144.0,-8.887494914233685e-05
6656.0,-0.00016793413669802248
7168.0,-4.236885433783755e-05
7680.0,-0.0002082000719383359
8192.0,0.0003494751872494817
9216.0,1.8433929653838277e-05
10240.0,-4.944470492773689e-05
11264.0,-2.504798976588063e-05
12288.0,0.00017611535440664738
13312.0,-0.00016142289678100497
14336.0,0.00010150395974051207
end
