version,3.0
numOfCh,1
type,point
parent_name,8-cuts
ch_type,1_1
kcount,1
numberNandB,1
brightnessNandB,1
carpet pos,0
pc,0
Time (ms),CH1 Auto-Correlation
1.0,0.01607518456876278
2.0,0.013006987050175667
3.0,0.010849999263882637
4.0,0.00939096324145794
5.0,0.008243677206337452
6.0,0.007342854980379343
7.0,0.006586978677660227
8.0,0.0058439490385353565
9.0,0.0053247022442519665
10.0,0.004853541497141123
11.0,0.004520988557487726
12.0,0.00429321825504303
13.0,0.0040768650360405445
14.0,0.0038655991666018963
15.0,0.0037206681445240974
16.0,0.00350580969825387
18.0,0.0030198919121176004
20.0,0.0025016285944730043
22.0,0.0021995047573000193
24.0,0.0019300380954518914
26.0,0.001782974461093545
28.0,0.001646024058572948
30.0,0.001440474996343255
32.0,0.0011556216049939394
36.0,0.0009809850016608834
40.0,0.0008683630148880184
44.0,0.0010018621105700731
48.0,0.001036659232340753
52.0,0.0006471090018749237
56.0,0.00044426036765798926
60.0,0.00023146223975345492
64.0,0.00011171419464517385
72.0,-0.00010965978435706347
80.0,-0.00026261364109814167
88.0,-8.94914919626899e-05
96.0,0.00032394923618994653
104.0,0.0004524785908870399
112.0,0.00025805021869018674
120.0,-1.2983733540750109e-05
128.0,-4.9632173613645136e-05
144.0,-0.00010094304889207706
160.0,-0.00027499403222464025
176.0,1.7024072803906165e-05
192.0,-0.0002478598617017269
208.0,-0.0002729413681663573
224.0,0.0003066285571549088
240.0,0.00019226930453442037
256.0,-0.00036402043770067394
288.0,-0.00036472303327172995
320.0,-9.168517863145098e-06
352.0,0.00020286643120925874
384.0,3.869032298098318e-05
416.0,0.0002889957104343921
448.0,-9.973924898076802e-05
480.0,0.0001653079380048439
512.0,6.13820375292562e-05
576.0,-0.00024172925623133779
640.0,0.00012624160444829613
704.0,0.0003186442772857845
768.0,-8.463592530461028e-05
832.0,-0.00014965454465709627
896.0,0.0003915868292097002
960.0,0.00021472897788044065
1024.0,-5.135457854521519e-07
1152.0,-7.854209979996085e-05
1280.0,-0.0004354568663984537
1408.0,-0.00018103813636116683
1536.0,7.855834701331332e-05
1664.0,-0.00012638236512430012
1792.0,-0.00025939790066331625
1920.0,9.947156286216341e-06
2048.0,-3.7502655914067873e-07
2304.0,-0.00019921132479794323
2560.0,-0.00017185829346999526
2816.0,-3.201772051397711e-05
3072.0,-4.887380782747641e-05
3328.0,0.0002726968377828598
3584.0,-6.223860691534355e-05
3840.0,-8.754023292567581e-05
4096.0,0.00026376807363703847
4608.0,-0.0001701342116575688
5120.0,-0.00011175188410561532
5632.0,-1.0953680430247914e-05
6144.0,-5.592598608927801e-05
6656.0,-0.00010228658356936648
7168.0,0.0003018160932697356
7680.0,0.00026458356296643615
8192.0,-6.111116817919537e-05
9216.0,-1.7816444142226828e-06
10240.0,9.904291800921783e-05
11264.0,3.519851452438161e-05
12288.0,-0.00028622933314181864
13312.0,0.00017143577861133963
14336.0,-0.00021019372798036784
end
