version,3.0
numOfCh,1
type,point
parent_name,8-cuts
ch_type,1_1
kcount,1
numberNandB,1
brightnessNandB,1
carpet pos,0
pc,0
Time (ms),CH1 Auto-Correlation
1.0,0.02674185484647751
2.0,0.021714815869927406
3.0,0.01818389818072319
4.0,0.015538457781076431
5.0,0.013712679967284203
6.0,0.012377445586025715
7.0,0.011136223562061787
8.0,0.010028548538684845
9.0,0.00919929426163435
10.0,0.008314557373523712
11.0,0.00761975534260273
12.0,0.0070573450066149235
13.0,0.006575420033186674
14.0,0.006130397319793701
15.0,0.005579098127782345
16.0,0.00525564793497324
18.0,0.004612690769135952
20.0,0.004289589356631041
22.0,0.004009852651506662
24.0,0.003545144572854042
26.0,0.003122457070276141
28.0,0.0026229070499539375
30.0,0.0023421060759574175
32.0,0.0022731830831617117
36.0,0.0019428895320743322
40.0,0.0016865236684679985
44.0,0.001401170389726758
48.0,0.0012293243780732155
52.0,0.0009635206661187112
56.0,0.0007232226780615747
60.0,0.0007806993671692908
64.0,0.000865836744196713
72.0,0.0009335451759397984
80.0,0.0008829841390252113
88.0,0.0006242601084522903
96.0,0.0004972840542905033
104.0,0.0006600104970857501
112.0,0.0006861318834125996
120.0,0.0004987408756278455
128.0,0.000523668248206377
144.0,1.2824495570384897e-05
160.0,0.00017074757488444448
176.0,-0.00011916429502889514
192.0,-0.0001507823180872947
208.0,0.0002980847784783691
224.0,-0.00036047969479113817
240.0,0.0003959189052693546
256.0,0.00012082881585229188
288.0,-0.00026947871083393693
320.0,-6.873152597108856e-05
352.0,0.0004912298754788935
384.0,0.0005995810497552156
416.0,0.0004465263045858592
448.0,0.0008228646474890411
480.0,0.0003480461018625647
512.0,0.0007092066225595772
576.0,-0.00018314685439690948
640.0,0.0005639303708449006
704.0,-0.0005737438914366066
768.0,0.00010339453729102388
832.0,-9.695552580524236e-05
896.0,0.0009088251972571015
960.0,0.00011369030107744038
1024.0,0.0010315446415916085
1152.0,-0.0004307432100176811
1280.0,0.0004652125062420964
1408.0,9.639216295909137e-05
1536.0,0.0011019735829904675
1664.0,-0.00040210617589764297
1792.0,-0.0008839849615469575
1920.0,-6.650918658124283e-05
2048.0,-0.0002984341117553413
2304.0,-0.0006044714828021824
2560.0,-0.00022920541232451797
2816.0,-0.00021525626652874053
3072.0,-0.0005891176406294107
3328.0,-0.0007067805272527039
3584.0,-0.000556343758944422
3840.0,-0.00011239158629905432
4096.0,0.000179986483999528
4608.0,0.00024301272060256451
5120.0,0.00035218268749304116
5632.0,0.0005429313168860972
6144.0,0.0002704666112549603
6656.0,0.00045884333667345345
7168.0,-0.0001525745028629899
7680.0,-0.00041050539584830403
8192.0,-0.0001496335316915065
9216.0,-0.0006711919559165835
10240.0,6.96106581017375e-05
11264.0,0.00015268754214048386
12288.0,2.4287493943120353e-05
13312.0,-1.2718613106699195e-05
14336.0,-0.0008750368724577129
end
