version,3.0
numOfCh,1
type,point
parent_name,8-cuts
ch_type,1_1
kcount,1
numberNandB,1
brightnessNandB,1
carpet pos,0
pc,0
Time (ms),CH1 Auto-Correlation
1.0,0.01668917015194893
2.0,0.013736434280872345
3.0,0.011620880104601383
4.0,0.00998980924487114
5.0,0.00866127572953701
6.0,0.007648087106645107
7.0,0.006850240286439657
8.0,0.006215913686901331
9.0,0.005710291210561991
10.0,0.005253618583083153
11.0,0.0049092937260866165
12.0,0.004620234947651625
13.0,0.004375733435153961
14.0,0.004148328676819801
15.0,0.003938435111194849
16.0,0.0037083877250552177
18.0,0.003166335402056575
20.0,0.0027322694659233093
22.0,0.002523580798879266
24.0,0.002338401973247528
26.0,0.0020377137698233128
28.0,0.0016317226691171527
30.0,0.0015497663989663124
32.0,0.0014393669553101063
36.0,0.0013116542249917984
40.0,0.0013227066956460476
44.0,0.0011912090703845024
48.0,0.0010349422227591276
52.0,0.0010922540677711368
56.0,0.0013157285284250975
60.0,0.0013116386253386736
64.0,0.0009597098687663674
72.0,0.00010806020873133093
80.0,7.84834410296753e-05
88.0,0.00027192491688765585
96.0,0.0004798179434146732
104.0,0.00026150845224037766
112.0,4.593309495248832e-05
120.0,0.0004981117672286928
128.0,0.00020357273751869798
144.0,7.017667667241767e-05
160.0,0.00011129998893011361
176.0,0.00024366661091335118
192.0,0.00015502258611377329
208.0,0.00022899491887073964
224.0,-0.00010378807201050222
240.0,-0.0003698662912938744
256.0,-0.0001670563215157017
288.0,-9.542046609567478e-05
320.0,-0.00032209180062636733
352.0,0.0002730746055021882
384.0,0.00016471106209792197
416.0,-5.5334818171104416e-05
448.0,-0.0001328943035332486
480.0,8.785347745288163e-05
512.0,0.00018780099344439805
576.0,-0.00029945842106826603
640.0,1.18757216114318e-05
704.0,9.171352758130524e-06
768.0,0.00016528929700143635
832.0,0.0002616761194076389
896.0,0.00010633169586071745
960.0,0.0004296266124583781
1024.0,0.00016015314031392336
1152.0,-0.0001782885374268517
1280.0,5.784403037978336e-05
1408.0,3.13745804305654e-05
1536.0,-0.00030412833439186215
1664.0,0.00033728574635460973
1792.0,0.0004037468752358109
1920.0,-0.0004120212106499821
2048.0,-0.000896792218554765
2304.0,-0.0005349498824216425
2560.0,0.00018155261932406574
2816.0,0.000134545611217618
3072.0,-0.00032845590612851083
3328.0,-0.0002618985599838197
3584.0,9.363432036479935e-05
3840.0,0.00021104351617395878
4096.0,-0.00015940199955366552
4608.0,-2.8724023650283925e-05
5120.0,-8.936566155171022e-05
5632.0,0.00021993550762999803
6144.0,-1.1012166396540124e-06
6656.0,2.8715539883705787e-06
7168.0,-0.0001362292532576248
7680.0,-0.00010468976688571274
8192.0,-0.00015509586955886334
9216.0,-0.00015532938414253294
10240.0,0.00011750334670068696
11264.0,0.0004814745916519314
12288.0,-1.1863254258059897e-05
13312.0,-0.00043208879651501775
14336.0,-0.0001884493831312284
end
