version,3.0
numOfCh,1
type,point
parent_name,8-cuts
ch_type,1_1
kcount,1
numberNandB,1
brightnessNandB,1
carpet pos,0
pc,0
Time (ms),CH1 Auto-Correlation
1.0,0.026995949447155
2.0,0.022008517757058144
3.0,0.018500052392482758
4.0,0.01595820114016533
5.0,0.013914531096816063
6.0,0.012409075163304806
7.0,0.011218825355172157
8.0,0.010120118968188763
9.0,0.009225059300661087
10.0,0.008247628808021545
11.0,0.007570433430373669
12.0,0.007060566451400518
13.0,0.006592275574803352
14.0,0.006246826611459255
15.0,0.005903244484215975
16.0,0.0055909608490765095
18.0,0.005147978663444519
20.0,0.00480458652600646
22.0,0.0047293538227677345
24.0,0.004500117618590593
26.0,0.004373202100396156
28.0,0.003802164923399687
30.0,0.003323914250358939
32.0,0.0028186060953885317
36.0,0.002166253514587879
40.0,0.002292301505804062
44.0,0.0019982208032160997
48.0,0.0014416443882510066
52.0,0.0012746879365295172
56.0,0.0013826233334839344
60.0,0.0016837695147842169
64.0,0.0012602292699739337
72.0,0.0011102957651019096
80.0,0.0016400243621319532
88.0,0.0013060327619314194
96.0,0.0009741832036525011
104.0,0.0007811388932168484
112.0,0.0007543659885413945
120.0,0.0008786924299784005
128.0,0.0003724119742400944
144.0,0.0004168424929957837
160.0,-0.00018220033962279558
176.0,0.00010978719365084544
192.0,0.0003066893550567329
208.0,0.00018395288498140872
224.0,-0.000245579780312255
240.0,0.0004820387111976743
256.0,0.000534393300767988
288.0,0.000691107998136431
320.0,0.0011692220577970147
352.0,0.0004156057839281857
384.0,0.0007988730794750154
416.0,0.0005483871209435165
448.0,0.00030463989241980016
480.0,1.032840464176843e-05
512.0,-0.00011773822188843042
576.0,0.0009728526347316802
640.0,0.0007767974166199565
704.0,0.00021542033937294036
768.0,-0.0005695862928405404
832.0,-0.00010476259922143072
896.0,4.065161192556843e-05
960.0,9.35489879339002e-06
1024.0,-0.0005487938178703189
1152.0,-0.000205245814868249
1280.0,-0.0004289796343073249
1408.0,-0.00019426990184001625
1536.0,-0.0006352502969093621
1664.0,-0.00010564310650806874
1792.0,0.00015423123841173947
1920.0,9.810534538701177e-05
2048.0,0.0002047304151346907
2304.0,3.0974977107689483e-06
2560.0,0.0005375824403017759
2816.0,0.0003819446137640625
3072.0,0.00044084159890189767
3328.0,0.0005152914091013372
3584.0,2.414558912278153e-05
3840.0,-9.956474241334945e-05
4096.0,8.248452650150284e-05
4608.0,0.00021090278460178524
5120.0,0.0001459316408727318
5632.0,-0.00023459045041818172
6144.0,-6.34853495284915e-05
6656.0,-0.0003974562860094011
7168.0,-0.00035291595850139856
7680.0,0.00018506347259972245
8192.0,0.0003267516440246254
9216.0,-0.000587421702221036
10240.0,-0.000589381845202297
11264.0,-0.0002610743686091155
12288.0,-6.49389112368226e-05
13312.0,-0.0006741012912243605
14336.0,-0.0008199191652238369
end
