version,3.0
numOfCh,1
type,point
parent_name,8-cuts
ch_type,1_1
kcount,1
numberNandB,1
brightnessNandB,1
carpet pos,0
pc,0
Time (ms),CH1 Auto-Correlation
1.0,0.01694781892001629
2.0,0.013887384906411171
3.0,0.011762710288167
4.0,0.010149464011192322
5.0,0.008888031356036663
6.0,0.007863572798669338
7.0,0.007001333869993687
8.0,0.006321900524199009
9.0,0.005727794021368027
10.0,0.005228597670793533
11.0,0.004748882260173559
12.0,0.00439393101260066
13.0,0.0041630626656115055
14.0,0.00392476562410593
15.0,0.0036752279847860336
16.0,0.003429761389270425
18.0,0.0030819426756352186
20.0,0.0030397598166018724
22.0,0.002981403609737754
24.0,0.0028717899695038795
26.0,0.0027655146550387144
28.0,0.002569196280092001
30.0,0.002587855327874422
32.0,0.0025267412420362234
36.0,0.0020345905795693398
40.0,0.0016467079985886812
44.0,0.0012260962976142764
48.0,0.0010835654102265835
52.0,0.0009891409426927567
56.0,0.0008381953230127692
60.0,0.0007297692936845124
64.0,0.0007919753552414477
72.0,0.0004274860839359462
80.0,0.0005274169379845262
88.0,0.0005359069327823818
96.0,0.00039142611785791814
104.0,0.00042389053851366043
112.0,0.0003599410119932145
120.0,0.0004565596464090049
128.0,0.0007845960790291429
144.0,0.000816435378510505
160.0,0.0004364342603366822
176.0,0.0003410700592212379
192.0,0.00013945809041615576
208.0,0.000291330274194479
224.0,6.24732711003162e-05
240.0,-0.0002478823880665004
256.0,-0.0003865495673380792
288.0,-0.0002936202799901366
320.0,-0.00021964679763186723
352.0,-0.00025809588260017335
384.0,-0.00012021968723274767
416.0,-0.00041061395313590765
448.0,-0.0005295054288581014
480.0,-0.0005838482175022364
512.0,-0.0004316687991376966
576.0,0.0002803401730488986
640.0,-7.126590207917616e-05
704.0,9.877800766844302e-05
768.0,0.000360842706868425
832.0,0.0006352950003929436
896.0,0.0006768975290469825
960.0,1.0863614988920745e-05
1024.0,0.00031940400367602706
1152.0,-7.855503645259887e-05
1280.0,-0.0004852071579080075
1408.0,-0.00037559642805717885
1536.0,0.00027475148090161383
1664.0,0.00018085558258462697
1792.0,0.00041935720946639776
1920.0,-2.2630869352724403e-05
2048.0,-0.0003904240147676319
2304.0,-0.00022490865376312286
2560.0,0.0001514726463938132
2816.0,-7.490786811104044e-05
3072.0,6.263902469072491e-05
3328.0,0.00042278028558939695
3584.0,5.637200956698507e-05
3840.0,6.98257572366856e-05
4096.0,0.0004006135568488389
4608.0,-4.370473834569566e-05
5120.0,-2.7230693376623094e-05
5632.0,-4.671548958867788e-05
6144.0,5.895347203477286e-05
6656.0,6.725650018779561e-05
7168.0,5.516891542356461e-05
7680.0,-5.694059655070305e-05
8192.0,-0.00033178445301018655
9216.0,-0.00022771266230847687
10240.0,-2.5990643734985497e-06
11264.0,-0.00017634783580433577
12288.0,-0.00022128119599074125
13312.0,-0.0003215043107047677
14336.0,-0.00019178962975274771
end
