version,3.0
numOfCh,1
type,point
parent_name,8-cuts
ch_type,1_1
kcount,1
numberNandB,1
brightnessNandB,1
carpet pos,0
pc,0
Time (ms),CH1 Auto-Correlation
1.0,0.015391581691801548
2.0,0.012537799775600433
3.0,0.010467391461133957
4.0,0.009043518453836441
5.0,0.008032393641769886
6.0,0.007031621411442757
7.0,0.006158828269690275
8.0,0.005551720969378948
9.0,0.004983457736670971
10.0,0.004520467948168516
11.0,0.004109347704797983
12.0,0.0036931652575731277
13.0,0.0033622714690864086
14.0,0.003065549535676837
15.0,0.002794766565784812
16.0,0.002558689331635833
18.0,0.0023600587155669928
20.0,0.0021882925648242235
22.0,0.00204396597109735
24.0,0.0018843641737475991
26.0,0.0016890062252059579
28.0,0.0013893122086301446
30.0,0.0011302061611786485
32.0,0.0008260930771939456
36.0,0.0007882024510763586
40.0,0.0010816260473802686
44.0,0.0009228409617207944
48.0,0.0005467841983772814
52.0,0.00038271312951110303
56.0,0.00038735082489438355
60.0,0.00015549181262031198
64.0,-2.9930046366644092e-05
72.0,-2.2506597815663554e-05
80.0,0.00010101351654157043
88.0,-0.00018945908232126385
96.0,-0.0005212888936512172
104.0,-0.0002938087855000049
112.0,0.0005468497984111309
120.0,0.0004987490829080343
128.0,0.0001789604575606063
144.0,-0.0003669658035505563
160.0,-0.00031454768031835556
176.0,0.00012096942373318598
192.0,-2.4886596293072216e-05
208.0,-0.00038570203469134867
224.0,-8.537692337995395e-05
240.0,-4.52619933639653e-05
256.0,-0.0004218439862597734
288.0,2.4831253995216684e-06
320.0,0.00028574769385159016
352.0,1.7856136764748953e-05
384.0,6.602436769753695e-05
416.0,-0.0006028165225870907
448.0,-0.00035520276287570596
480.0,-0.0006055839476175606
512.0,-0.0004645740264095366
576.0,0.0003545588697306812
640.0,0.0003458055725786835
704.0,3.08426606352441e-05
768.0,-1.0287327313562855e-05
832.0,-0.000612279400229454
896.0,-4.476296908251243e-06
960.0,0.00014819996431469917
1024.0,-0.00012232564040459692
1152.0,-8.641321619506925e-05
1280.0,-0.0001521880622021854
1408.0,-0.0004146067949477583
1536.0,-0.0003907512582372874
1664.0,6.26285036560148e-05
1792.0,4.517640627454966e-05
1920.0,7.363430631812662e-05
2048.0,0.0001499460486229509
2304.0,-6.720722012687474e-05
2560.0,9.028834756463766e-05
2816.0,0.00016494338342454284
3072.0,-0.00015735742636024952
3328.0,3.195945100742392e-05
3584.0,1.2518727999122348e-05
3840.0,0.000179815455339849
4096.0,-0.00022594264009967446
4608.0,-1.2549853636301123e-05
5120.0,3.891734013450332e-05
5632.0,9.175345621770248e-05
6144.0,6.8066714447923e-05
6656.0,-0.00011020206147804856
7168.0,-3.1960549677023664e-05
7680.0,-2.2395372070604935e-05
8192.0,-5.958928159088828e-05
9216.0,3.584147634683177e-05
10240.0,-0.00014031313185114413
11264.0,0.00022287180763669312
12288.0,-0.00018680554057937115
13312.0,-4.95637232234003e-06
14336.0,0.00010148871660931036
end
