version,3.0
numOfCh,1
type,point
parent_name,8-cuts
ch_type,1_1
kcount,1
numberNandB,1
brightnessNandB,1
carpet pos,0
pc,0
Time (ms),CH1 Auto-Correlation
1.0,0.016618700698018074
2.0,0.01362345740199089
3.0,0.011434245854616165
4.0,0.009728997014462948
5.0,0.008420459926128387
6.0,0.007426673546433449
7.0,0.006570866331458092
8.0,0.005879531614482403
9.0,0.005308595485985279
10.0,0.004954931326210499
11.0,0.0044332221150398254
12.0,0.004099153447896242
13.0,0.0038757752627134323
14.0,0.0036040712147951126
15.0,0.0034315427765250206
16.0,0.0031774314120411873
18.0,0.0027245627716183662
20.0,0.0023105686996132135
22.0,0.0019410824170336127
24.0,0.001756451209075749
26.0,0.001695791375823319
28.0,0.001605611527338624
30.0,0.0013562672538682818
32.0,0.001233349903486669
36.0,0.0011072014458477497
40.0,0.0010283878073096275
44.0,0.0008108543115667999
48.0,0.0007828056695871055
52.0,0.0007705345051363111
56.0,0.0006227560807019472
60.0,0.0007185183931142092
64.0,0.0009168839314952493
72.0,0.0004241722053848207
80.0,0.0004319653962738812
88.0,0.0005342467920854688
96.0,1.747045826050453e-05
104.0,-0.00025169385480694473
112.0,-6.0808197304140776e-05
120.0,0.00014349055709317327
128.0,0.00038660693098790944
144.0,0.0005205315537750721
160.0,0.0009636905742809176
176.0,0.0008012627367861569
192.0,-0.0002180499432142824
208.0,-0.00015467479533981532
224.0,-0.0005675540305674076
240.0,-0.0005239003803580999
256.0,-0.00017426437989342958
288.0,-0.0003643912496045232
320.0,-7.200390245998278e-05
352.0,-2.917839628935326e-05
384.0,-0.0003703734546434134
416.0,-0.00044320375309325755
448.0,-0.00038614950608462095
480.0,-0.00046135272714309394
512.0,-0.00011810495925601572
576.0,-0.00035124472924508154
640.0,-0.00017824990209192038
704.0,0.0001451691787224263
768.0,-0.0003017457784153521
832.0,-0.0004270428908057511
896.0,0.00015443474694620818
960.0,-6.979647150728852e-05
1024.0,1.0626027687976602e-05
1152.0,0.00019240108667872846
1280.0,0.00013677602692041546
1408.0,-8.719900506548584e-05
1536.0,9.944197518052533e-05
1664.0,-0.00014883041149005294
1792.0,-0.0002495126682333648
1920.0,-7.222492422442883e-05
2048.0,-0.000185792101547122
2304.0,7.214860670501366e-05
2560.0,-0.0002034077770076692
2816.0,-6.967373337829486e-05
3072.0,0.00015679746866226196
3328.0,-9.505405614618212e-05
3584.0,0.00017999362898990512
3840.0,-0.00026924448320642114
4096.0,-0.0001261706929653883
4608.0,0.00013745742035098374
5120.0,6.999626202741638e-05
5632.0,-0.0002212352555943653
6144.0,0.000290614552795887
6656.0,-0.00041734555270522833
7168.0,0.00037879409501329064
7680.0,-0.0005030161701142788
8192.0,0.0006379188853316009
9216.0,-4.533659011940472e-05
10240.0,-0.00013015158765483648
11264.0,0.00021378113888204098
12288.0,-0.0003441654553171247
13312.0,-2.607726855785586e-05
14336.0,0.00038217773544602096
end
