version,3.0
numOfCh,1
type,point
parent_name,8-cuts
ch_type,1_1
kcount,1
numberNandB,1
brightnessNandB,1
carpet pos,0
pc,0
Time (ms),CH1 Auto-Correlation
1.0,0.027836808934807777
2.0,0.022988418117165565
3.0,0.019615478813648224
4.0,0.017135698348283768
5.0,0.015154784545302391
6.0,0.01377148274332285
7.0,0.012459615245461464
8.0,0.011325037106871605
9.0,0.010291392914950848
10.0,0.009482726454734802
11.0,0.00873561855405569
12.0,0.008168567903339863
13.0,0.007548065856099129
14.0,0.0067654261365532875
15.0,0.006249100901186466
16.0,0.0058190175332129
18.0,0.005189602728933096
20.0,0.004739715717732906
22.0,0.004017948638647795
24.0,0.003734160214662552
26.0,0.0034010286908596754
28.0,0.0032656616531312466
30.0,0.0031759338453412056
32.0,0.0030118778813630342
36.0,0.00264593749307096
40.0,0.0024892690125852823
44.0,0.002386643784120679
48.0,0.002381404396146536
52.0,0.001981274224817753
56.0,0.001824266160838306
60.0,0.0016658849781379104
64.0,0.0017167017795145512
72.0,0.0008959381957538426
80.0,0.0009294064366258681
88.0,0.0012150875991210341
96.0,0.0013759405119344592
104.0,0.0013045633677393198
112.0,0.0009030302753672004
120.0,0.0008050412288866937
128.0,0.0011182960588485003
144.0,0.0001551213936181739
160.0,0.0006365731242112815
176.0,0.0006934175034984946
192.0,-6.496578407677589e-06
208.0,-0.0003025141777470708
224.0,0.00011397717025829479
240.0,-0.00011474949133116752
256.0,-0.0003893463872373104
288.0,-0.0002378712233621627
320.0,-4.977546268492006e-05
352.0,-0.000909928698092699
384.0,-0.0002556701947469264
416.0,-0.0002226361830253154
448.0,-0.0009742946131154895
480.0,-0.00030136099667288363
512.0,-0.00020788598340004683
576.0,5.2075221901759505e-05
640.0,4.9689228035276756e-05
704.0,0.00033617636654525995
768.0,0.0006686387350782752
832.0,0.0009187152027152479
896.0,0.0006905975169502199
960.0,3.0136598070384935e-05
1024.0,0.0002821377129293978
1152.0,-0.0003785178705584258
1280.0,-0.0010517488699406385
1408.0,-0.0009169270633719862
1536.0,-0.0002410447777947411
1664.0,0.00017606474284548312
1792.0,3.817973629338667e-05
1920.0,0.0006564423092640936
2048.0,-0.0002444692945573479
2304.0,-0.000665749073959887
2560.0,0.00044680849532596767
2816.0,0.00023994604998733848
3072.0,-0.0005117974360473454
3328.0,-0.0013578296639025211
3584.0,-0.00019416827126406133
3840.0,5.716899613616988e-05
4096.0,-0.00048520820564590394
4608.0,0.0007343793986365199
5120.0,0.00011978696420555934
5632.0,0.0003199774073436856
6144.0,-0.0003421848814468831
6656.0,-4.135034396313131e-05
7168.0,0.0006321358378045261
7680.0,-0.00016561629308853298
8192.0,-0.00044759956654161215
9216.0,-0.00013219189713709056
10240.0,0.0004481914802454412
11264.0,-2.3064460037858225e-05
12288.0,1.9449535102467053e-05
13312.0,-0.0011257511796429753
14336.0,0.0008043785928748548
end
