version,3.0
numOfCh,1
type,point
parent_name,8-cuts
ch_type,1_1
kcount,1
numberNandB,1
brightnessNandB,1
carpet pos,0
pc,0
Time (ms),CH1 Auto-Correlation
1.0,0.016531536355614662
2.0,0.013696706853806973
3.0,0.01166392583400011
4.0,0.01000212598592043
5.0,0.008755679242312908
6.0,0.00784116331487894
7.0,0.007105309050530195
8.0,0.00659054284915328
9.0,0.006046611350029707
10.0,0.00570570258423686
11.0,0.005453817080706358
12.0,0.005192815791815519
13.0,0.004991950001567602
14.0,0.004842893686145544
15.0,0.004626831505447626
16.0,0.004354079719632864
18.0,0.003791580442339182
20.0,0.003339634044095874
22.0,0.0030318768694996834
24.0,0.0028634429909288883
26.0,0.0028136095497757196
28.0,0.002669855486601591
30.0,0.0026682959869503975
32.0,0.0025141302030533552
36.0,0.0018871808424592018
40.0,0.0018830475164577365
44.0,0.0017134533263742924
48.0,0.0013588223373517394
52.0,0.0013565729605033994
56.0,0.0014343693619593978
60.0,0.0011534291552379727
64.0,0.0009578207973390818
72.0,0.0007812274270690978
80.0,0.0005601771408692002
88.0,7.490834104828537e-05
96.0,0.00010069812560686842
104.0,0.00018448723130859435
112.0,0.000349325651768595
120.0,0.00040022609755396843
128.0,0.0004718065611086786
144.0,-3.3211625122930855e-05
160.0,-0.0002820230438373983
176.0,1.3545653928304091e-05
192.0,0.0003904369950760156
208.0,9.54651550273411e-05
224.0,-9.72266134340316e-05
240.0,-0.00015295234334189445
256.0,0.00046171131543815136
288.0,6.554067658726126e-05
320.0,0.00026243002503179014
352.0,0.00017768196994438767
384.0,0.00015416408132296056
416.0,-0.0001658696128288284
448.0,0.00021581046166829765
480.0,5.185760528547689e-05
512.0,-4.544608236756176e-05
576.0,-0.0004427422536537051
640.0,-0.00026850905851460993
704.0,0.0001621366391191259
768.0,-2.9030274163233116e-05
832.0,0.0001936521875904873
896.0,-8.309405529871583e-05
960.0,-0.00018860131967812777
1024.0,-0.00027829475584439933
1152.0,5.7131052017211914e-05
1280.0,0.00037564930971711874
1408.0,0.000736970454454422
1536.0,-5.7097353419521824e-05
1664.0,-0.00019658637756947428
1792.0,-0.00042202413897030056
1920.0,1.9747141777770594e-05
2048.0,0.00036911448114551604
2304.0,0.00020226946799084544
2560.0,-0.00011396088666515425
2816.0,0.00023939488164614886
3072.0,0.00013085083628538996
3328.0,0.0004674701194744557
3584.0,0.00034543880610726774
3840.0,-0.0002343388769077137
4096.0,-0.0003764313878491521
4608.0,-8.488332969136536e-05
5120.0,-0.00018940059817396104
5632.0,0.00010804184421431273
6144.0,-0.00013426483201328665
6656.0,-5.6682991271372885e-05
7168.0,0.00014056096551939845
7680.0,1.1008338333340362e-05
8192.0,-0.0001614177308510989
9216.0,-7.090737926773727e-05
10240.0,-0.00019182077085133642
11264.0,-0.00022296041424851865
12288.0,-0.0004417073505464941
13312.0,-0.0004286817566026002
14336.0,-0.00023785945086274296
end
