version,3.0
numOfCh,1
type,point
parent_name,8-cuts
ch_type,1_1
kcount,1
numberNandB,1
brightnessNandB,1
carpet pos,0
pc,0
Time (ms),CH1 Auto-Correlation
1.0,0.026088042184710503
2.0,0.02116207405924797
3.0,0.017834046855568886
4.0,0.015236773528158665
5.0,0.013433225452899933
6.0,0.011946398764848709
7.0,0.010799744166433811
8.0,0.00980517826974392
9.0,0.008923483081161976
10.0,0.008200147189199924
11.0,0.007716048508882523
12.0,0.007352033164352179
13.0,0.007120106834918261
14.0,0.0068387482315301895
15.0,0.006389126647263765
16.0,0.005978039000183344
18.0,0.005206524860113859
20.0,0.004404593724757433
22.0,0.003713070647791028
24.0,0.0034498688764870167
26.0,0.0031871525570750237
28.0,0.0031036341097205877
30.0,0.0030814807396382093
32.0,0.0027445373125374317
36.0,0.0024528387002646923
40.0,0.002295255661010742
44.0,0.0021193609572947025
48.0,0.0018449177732691169
52.0,0.0014865606790408492
56.0,0.0011696028523147106
60.0,0.0010184572311118245
64.0,0.001011624583043158
72.0,0.0007055947207845747
80.0,0.0005009070155210793
88.0,0.0006526711513288319
96.0,0.00032281034509651363
104.0,0.0006763531127944589
112.0,0.0006113997660577297
120.0,0.0006992827402427793
128.0,0.00025927642127498984
144.0,-0.00023997487733140588
160.0,-0.0008145669125951827
176.0,-0.0013254036894068122
192.0,-0.0014394266763702035
208.0,-0.0011344071244820952
224.0,-0.0006502957548946142
240.0,0.0003156769380439073
256.0,0.0002730844425968826
288.0,0.00032810575794428587
320.0,0.0008478087256662548
352.0,9.615277667762712e-05
384.0,-0.00040160721982829273
416.0,0.0009453329257667065
448.0,0.00010736996046034619
480.0,0.00016658751701470464
512.0,-0.0001261197030544281
576.0,-0.0005508335307240486
640.0,-0.001023414428345859
704.0,0.00041883488302119076
768.0,0.00033068229095079005
832.0,0.0005412017926573753
896.0,-2.450411739118863e-05
960.0,-0.0009126223158091307
1024.0,0.00031783973099663854
1152.0,0.0004920204519294202
1280.0,-0.0005479002138599753
1408.0,-0.0007779860752634704
1536.0,0.00017293042037636042
1664.0,-0.00015765235002618283
1792.0,-0.00020112884521950036
1920.0,-9.378746472066268e-05
2048.0,-0.0008815358160063624
2304.0,0.000159292365424335
2560.0,-0.00033174720010720193
2816.0,-0.0002024194982368499
3072.0,4.844794239033945e-05
3328.0,5.582156518357806e-05
3584.0,-0.0005190622759982944
3840.0,0.00024461859720759094
4096.0,0.00022841989994049072
4608.0,-4.883852307102643e-05
5120.0,-0.0001322634780080989
5632.0,-0.0003950390382669866
6144.0,0.000455723813502118
6656.0,0.00030361319659277797
7168.0,0.00045219980529509485
7680.0,-7.178774831118062e-05
8192.0,-7.359891606029123e-05
9216.0,-0.00020855381444562227
10240.0,-8.718331082491204e-05
11264.0,-0.00012134041753597558
12288.0,1.3920349601903581e-06
13312.0,0.0009256638586521149
14336.0,-0.0005024512647651136
end
