version,3.0
numOfCh,1
type,point
parent_name,8-cuts
ch_type,1_1
kcount,1
numberNandB,1
brightnessNandB,1
carpet pos,0
pc,0
Time (ms),CH1 Auto-Correlation
1.0,0.026528380811214447
2.0,0.02178187668323517
3.0,0.01848565600812435
4.0,0.015873733907938004
5.0,0.013939984142780304
6.0,0.012374908663332462
7.0,0.01106364093720913
8.0,0.010003256611526012
9.0,0.008965596556663513
10.0,0.008173263631761074
11.0,0.007402569986879826
12.0,0.006950857117772102
13.0,0.006507299840450287
14.0,0.005918606650084257
15.0,0.005540636833757162
16.0,0.005206848960369825
18.0,0.004597808700054884
20.0,0.004080400336533785
22.0,0.003691580146551132
24.0,0.0033083127345889807
26.0,0.003109997371211648
28.0,0.002760334173217416
30.0,0.0024490614887326956
32.0,0.0021692703012377024
36.0,0.0019312165677547455
40.0,0.0016329713398590684
44.0,0.0012473927345126867
48.0,0.0012691889423877
52.0,0.0013155395863577724
56.0,0.0009490985539741814
60.0,0.000725489342585206
64.0,0.000904451182577759
72.0,0.0011356741888448596
80.0,0.0011158520355820656
88.0,0.0005749922129325569
96.0,-0.00022202434774953872
104.0,-0.0001566527207614854
112.0,0.0008249920210801065
120.0,0.0008059214451350272
128.0,0.0006692191818729043
144.0,0.0013014344731345773
160.0,0.0005868636071681976
176.0,0.0005025978898629546
192.0,-3.5937573557021096e-06
208.0,0.00030984790646471083
224.0,0.000740514718927443
240.0,0.0006434951792471111
256.0,0.0003735050850082189
288.0,0.0008810858125798404
320.0,0.0003619958006311208
352.0,1.1227944014535751e-05
384.0,7.818952144589275e-05
416.0,-0.00017347325047012419
448.0,-0.00025527042453177273
480.0,-0.0013062539510428905
512.0,-0.00023988790053408593
576.0,-0.00010178086813539267
640.0,-0.000603461463470012
704.0,-0.0007937799673527479
768.0,-0.0005841573001816869
832.0,0.00027662160573527217
896.0,-0.00014283251948654652
960.0,-0.0003193149750586599
1024.0,-0.0014180389698594809
1152.0,-0.00022765275207348168
1280.0,0.0002761494542937726
1408.0,-8.006070856936276e-05
1536.0,-0.00010460807243362069
1664.0,0.000736483430955559
1792.0,0.0004858838801737875
1920.0,5.543442603084259e-05
2048.0,-0.0002080304839182645
2304.0,-0.0002418136573396623
2560.0,-0.0002717782626859844
2816.0,9.910983862937428e-06
3072.0,6.344281428027898e-05
3328.0,-0.000257920561125502
3584.0,-9.839901031227782e-05
3840.0,-0.00013053811562713236
4096.0,0.00018120763706974685
4608.0,8.526438614353538e-05
5120.0,0.00022232077026274055
5632.0,-0.000516248750500381
6144.0,-0.0002234435232821852
6656.0,-5.3421692427946255e-05
7168.0,-0.0003581887576729059
7680.0,0.00014209802611730993
8192.0,4.7762980102561414e-05
9216.0,0.0001182203195639886
10240.0,0.00013799889711663127
11264.0,-0.000161272706463933
12288.0,0.0001733626559143886
13312.0,-3.9848004234954715e-05
14336.0,-0.00013261337880976498
end
