version,3.0
numOfCh,1
type,point
parent_name,8-cuts
ch_type,1_1
kcount,1
numberNandB,1
brightnessNandB,1
carpet pos,0
pc,0
Time (ms),CH1 Auto-Correlation
1.0,0.016049019992351532
2.0,0.013018776662647724
3.0,0.01104265172034502
4.0,0.00951050128787756
5.0,0.0084368996322155
6.0,0.007625010795891285
7.0,0.006848296616226435
8.0,0.00615605479106307
9.0,0.005582298617810011
10.0,0.00507052056491375
11.0,0.0045357998460531235
12.0,0.004208535421639681
13.0,0.0038656124379485846
14.0,0.0035885546822100878
15.0,0.003381352173164487
16.0,0.003151284297928214
18.0,0.0028269856702536345
20.0,0.0025544115342199802
22.0,0.0023705821949988604
24.0,0.002287935232743621
26.0,0.002259132917970419
28.0,0.0021080579608678818
30.0,0.0020072993356734514
32.0,0.0017935100477188826
36.0,0.0015723080141469836
40.0,0.0013953810557723045
44.0,0.0011641961755231023
48.0,0.0006191040156409144
52.0,0.0003722582187037915
56.0,0.0005416418425738811
60.0,0.0006839599227532744
64.0,0.0007078187190927565
72.0,0.0002324493252672255
80.0,2.475727887940593e-05
88.0,-0.00013391188986133784
96.0,-0.00032836481113918126
104.0,-0.00010765804472612217
112.0,-0.0002946940658148378
120.0,-0.00035214575473219156
128.0,-0.0005194746772758663
144.0,-0.0003593725268729031
160.0,-0.00023212668020278215
176.0,-0.00018925507902167737
192.0,-0.00019047915702685714
208.0,-0.00029578572139143944
224.0,-0.00012121702457079664
240.0,-0.00025121858925558627
256.0,-0.00014673915575258434
288.0,0.0003386675089132041
320.0,0.00041782617336139083
352.0,0.00022686268493998796
384.0,-0.00014224366168491542
416.0,6.684049731120467e-05
448.0,-5.824863364978228e-06
480.0,0.00037113059079274535
512.0,-8.820843504508957e-05
576.0,5.0738985009957105e-05
640.0,0.0005679722526110709
704.0,1.70385574165266e-05
768.0,0.0005667749210260808
832.0,5.244097701506689e-05
896.0,0.0002764731179922819
960.0,-3.679787550936453e-05
1024.0,-9.283678809879348e-05
1152.0,1.775030068529304e-05
1280.0,-0.00015687027189414948
1408.0,0.0002122080622939393
1536.0,0.00020765360386576504
1664.0,-0.00014354496670421213
1792.0,7.108110730769113e-05
1920.0,-4.3308722524670884e-05
2048.0,-4.038132101413794e-05
2304.0,-0.00011128169717267156
2560.0,-0.0003550165565684438
2816.0,-0.0001363211777061224
3072.0,-0.00027091678930446506
3328.0,-0.0002528356562834233
3584.0,-0.0002299940533703193
3840.0,0.0001001231576083228
4096.0,-7.370731327682734e-05
4608.0,1.1643017387541477e-05
5120.0,-0.0002713958383537829
5632.0,3.6444052966544405e-05
6144.0,0.00013057657633908093
6656.0,-3.8128953747218475e-05
7168.0,-0.00035587616730481386
7680.0,0.00033137586433440447
8192.0,0.00012839540431741625
9216.0,0.00020236376440152526
10240.0,0.00012057067942805588
11264.0,-7.011161505943164e-05
12288.0,-0.0001265186001546681
13312.0,-0.00010745349572971463
14336.0,9.114161366596818e-05
end
