version,3.0
numOfCh,1
type,point
parent_name,8-cuts
ch_type,1_1
kcount,1
numberNandB,1
brightnessNandB,1
carpet pos,0
pc,0
Time (ms),CH1 Auto-Correlation
1.0,0.027449797838926315
2.0,0.02247467078268528
3.0,0.019002703949809074
4.0,0.016312086954712868
5.0,0.014546995051205158
6.0,0.012987244874238968
7.0,0.011761218309402466
8.0,0.010698743164539337
9.0,0.00970947090536356
10.0,0.009061048738658428
11.0,0.008587727323174477
12.0,0.008227619342505932
13.0,0.007719690445810556
14.0,0.007320495788007975
15.0,0.006958507001399994
16.0,0.006626489106565714
18.0,0.005673504434525967
20.0,0.005214783828705549
22.0,0.005014077760279179
24.0,0.004746916703879833
26.0,0.0044425842352211475
28.0,0.003974305000156164
30.0,0.0036304707173258066
32.0,0.003298388794064522
36.0,0.00299033522605896
40.0,0.0025208310689777136
44.0,0.0022554080933332443
48.0,0.0017522585112601519
52.0,0.0015190048143267632
56.0,0.001228974899277091
60.0,0.0012521703029051423
64.0,0.0011837587226182222
72.0,0.0006248399731703103
80.0,0.0009256330667994916
88.0,0.0006535365828312933
96.0,0.000334206415573135
104.0,0.0003844195161946118
112.0,5.394139589043334e-05
120.0,-0.00038398787728510797
128.0,-0.0008188178180716932
144.0,-0.00026939567760564387
160.0,6.0312191635603085e-05
176.0,0.0011750772828236222
192.0,0.0008910998585633934
208.0,0.0007256334647536278
224.0,-6.410363130271435e-05
240.0,0.00045377298374660313
256.0,0.0006376091623678803
288.0,0.000592591124586761
320.0,0.00043789390474557877
352.0,-0.00010952624143101275
384.0,-9.145325748249888e-05
416.0,0.00014566183381248266
448.0,0.0002193895634263754
480.0,2.5665593057055958e-05
512.0,0.0007785489433445036
576.0,0.0003228637215215713
640.0,-0.0004275327664799988
704.0,-0.00019022930064238608
768.0,-0.0009699970250949264
832.0,-0.00035746314097195864
896.0,-0.00036832556361332536
960.0,-0.000832847086712718
1024.0,-0.0004201852425467223
1152.0,-0.0006370266200974584
1280.0,2.2795657059759833e-05
1408.0,0.000555326696485281
1536.0,9.155390580417588e-05
1664.0,0.0003351929481141269
1792.0,0.0003108405217062682
1920.0,0.0007817991427145898
2048.0,-0.0002420811797492206
2304.0,0.00011561296560103074
2560.0,-7.336490671150386e-05
2816.0,-0.0006223175441846251
3072.0,0.00015844903828110546
3328.0,-0.00023857830092310905
3584.0,0.00014645810006186366
3840.0,0.00034351233625784516
4096.0,-0.00024265256070066243
4608.0,0.00020143890287727118
5120.0,-0.00018254073802381754
5632.0,0.00024929558276198804
6144.0,0.00023745582439005375
6656.0,-0.00038356537697836757
7168.0,-0.0004481802461668849
7680.0,8.083710417849943e-05
8192.0,-0.00026418265770189464
9216.0,0.0001861677592387423
10240.0,-0.0006099371239542961
11264.0,0.00013640169345308095
12288.0,-0.00030589933157898486
13312.0,6.790318730054423e-05
14336.0,-0.00025288702454417944
end
