version,3.0
numOfCh,1
type,point
parent_name,8-cuts
ch_type,1_1
kcount,1
numberNandB,1
brightnessNandB,1
carpet pos,0
pc,0
Time (ms),CH1 Auto-Correlation
1.0,0.028619064018130302
2.0,0.023781094700098038
3.0,0.020223457366228104
4.0,0.017499271780252457
5.0,0.015356388874351978
6.0,0.013525704853236675
7.0,0.012181329540908337
8.0,0.011102556250989437
9.0,0.010256482288241386
10.0,0.009537727572023869
11.0,0.00897146575152874
12.0,0.008357580751180649
13.0,0.007935836911201477
14.0,0.007349721156060696
15.0,0.006945881526917219
16.0,0.006614789832383394
18.0,0.0060382564552128315
20.0,0.00549479341134429
22.0,0.004941525869071484
24.0,0.004609115421772003
26.0,0.00415162555873394
28.0,0.003874147543683648
30.0,0.0036532203666865826
32.0,0.003687212010845542
36.0,0.003568009240552783
40.0,0.003059214912354946
44.0,0.0026359749026596546
48.0,0.0024873705115169287
52.0,0.0022994850296527147
56.0,0.002003552159294486
60.0,0.0022097767796367407
64.0,0.0018145692301914096
72.0,0.001961394678801298
80.0,0.001920292736031115
88.0,0.0017516551306471229
96.0,0.0020141073036938906
104.0,0.001249853172339499
112.0,0.0003860309661831707
120.0,0.00010447006206959486
128.0,0.0004913113662041724
144.0,0.0007085217512212694
160.0,0.00022717738465871662
176.0,-0.00026105617871508
192.0,-0.0006745121791027486
208.0,-0.0003427582560107112
224.0,-0.00011599305435083807
240.0,-4.66916972072795e-05
256.0,-0.0004595964273903519
288.0,0.0006269835284911096
320.0,0.0004467039543669671
352.0,0.0005877404473721981
384.0,0.00044339775922708213
416.0,0.0003599124029278755
448.0,-0.00013928356929682195
480.0,0.00020254612900316715
512.0,0.0005779989878647029
576.0,0.0004905197420157492
640.0,-5.67616407352034e-05
704.0,-0.0009173106518574059
768.0,-0.0007011965499259531
832.0,-0.0007252966170199215
896.0,0.0004730450746137649
960.0,0.0008387105190195143
1024.0,-0.0002725490485318005
1152.0,0.000194996886420995
1280.0,0.00018119646119885147
1408.0,-0.00012321937538217753
1536.0,0.00037740482366643846
1664.0,0.00023072956537362188
1792.0,0.001144444104284048
1920.0,-0.00016382106696255505
2048.0,-0.0004446859529707581
2304.0,-0.0008439331431873143
2560.0,0.0007071706932038069
2816.0,-0.0008463163394480944
3072.0,0.000539730186574161
3328.0,-0.0001675365783739835
3584.0,0.0011796156177297235
3840.0,-0.0004084633255843073
4096.0,0.00022747053299099207
4608.0,0.00046778490650467575
5120.0,0.00015534769045189023
5632.0,-0.00016691320342943072
6144.0,0.00011505228030728176
6656.0,-0.00022704795992467552
7168.0,-0.00012166472879471257
7680.0,0.00036553508834913373
8192.0,-0.000393079302739352
9216.0,6.877649866510183e-05
10240.0,-0.0012615161249414086
11264.0,7.549642032245174e-05
12288.0,0.00028842160827480257
13312.0,-0.0013155649648979306
14336.0,-0.0006978409364819527
end
