version,3.0
numOfCh,1
type,point
parent_name,8-cuts
ch_type,1_1
kcount,1
numberNandB,1
brightnessNandB,1
carpet pos,0
pc,0
Time (ms),CH1 Auto-Correlation
1.0,0.016921285539865494
2.0,0.013902571983635426
3.0,0.011711294762790203
4.0,0.010280095040798187
5.0,0.009136517532169819
6.0,0.00822449754923582
7.0,0.007471092045307159
8.0,0.006775443907827139
9.0,0.0062081823125481606
10.0,0.00566151412203908
11.0,0.005272928159683943
12.0,0.0049341218546032906
13.0,0.004659073427319527
14.0,0.004523315466940403
15.0,0.004281093832105398
16.0,0.004111707676202059
18.0,0.003643181174993515
20.0,0.003092004219070077
22.0,0.002716535935178399
24.0,0.002374025294557214
26.0,0.002183337230235338
28.0,0.0020214279647916555
30.0,0.0018371590413153172
32.0,0.0015426897443830967
36.0,0.0012612679274752736
40.0,0.0011544463923200965
44.0,0.0010135681368410587
48.0,0.0008552325889468193
52.0,0.0005438915104605258
56.0,0.0003698817454278469
60.0,0.00025712422211654484
64.0,0.00025793418171815574
72.0,9.448319906368852e-05
80.0,0.00017217289132531732
88.0,6.930408562766388e-05
96.0,-9.654620225774124e-05
104.0,-0.00021656719036400318
112.0,-0.0002644445048645139
120.0,-0.0003742683620657772
128.0,-0.00015884049935266376
144.0,8.357805199921131e-05
160.0,0.0002789762511383742
176.0,6.26619003014639e-05
192.0,0.0002639849844854325
208.0,0.0004223038849886507
224.0,-0.0001214089643326588
240.0,0.00022947076649870723
256.0,0.0004063440428581089
288.0,6.090811893955106e-06
320.0,-0.00039287880645133555
352.0,-0.00010439060133649036
384.0,0.00016926245007198304
416.0,-0.00010477022442501038
448.0,9.52626796788536e-05
480.0,3.0546850666723913e-06
512.0,-0.00015153906133491546
576.0,-0.0003884638426825404
640.0,0.00021868819021619856
704.0,0.00043354291119612753
768.0,-7.297326374100521e-05
832.0,6.162928184494376e-05
896.0,-4.03926878789207e-06
960.0,-0.0003863008168991655
1024.0,0.0004103118262719363
1152.0,0.0002861511311493814
1280.0,-0.00020825811952818185
1408.0,-0.0005443507106974721
1536.0,-0.00013346543710213155
1664.0,-0.00013477986794896424
1792.0,0.00011484718561405316
1920.0,-0.0003908607177436352
2048.0,-8.40277862153016e-05
2304.0,-0.000293469667667523
2560.0,-0.00013917795149609447
2816.0,-0.0001337276480626315
3072.0,7.187094888649881e-05
3328.0,-2.6134850486414507e-05
3584.0,5.31676814716775e-05
3840.0,2.7095742552774027e-05
4096.0,-9.290078196499962e-06
4608.0,-0.00010558771464275196
5120.0,0.0001374013809254393
5632.0,8.372703450731933e-05
6144.0,-6.701757229166105e-05
6656.0,0.0002052194467978552
7168.0,-0.0003014807589352131
7680.0,-0.0002149969950551167
8192.0,-0.00010840628965524957
9216.0,0.00032113504130393267
10240.0,9.582875645719469e-05
11264.0,-0.0004422920465003699
12288.0,9.526049211672216e-07
13312.0,0.00025512161664664745
14336.0,-5.9985795815009624e-05
end
