version,3.0
numOfCh,1
type,point
parent_name,8-cuts
ch_type,1_1
kcount,1
numberNandB,1
brightnessNandB,1
carpet pos,0
pc,0
Time (ms),CH1 Auto-Correlation
1.0,0.027093682438135147
2.0,0.022092893719673157
3.0,0.018529821187257767
4.0,0.01583525352180004
5.0,0.013796482235193253
6.0,0.012180757708847523
7.0,0.01094041857868433
8.0,0.009859606623649597
9.0,0.008991631679236889
10.0,0.008275437168776989
11.0,0.007621691096574068
12.0,0.007065691519528627
13.0,0.006422504782676697
14.0,0.005926056299358606
15.0,0.005590429529547691
16.0,0.005317597184330225
18.0,0.005117911379784346
20.0,0.004957033786922693
22.0,0.004721835255622864
24.0,0.004721569828689098
26.0,0.004580643493682146
28.0,0.004448023159056902
30.0,0.004079701844602823
32.0,0.003508253488689661
36.0,0.00246182712726295
40.0,0.0018500944133847952
44.0,0.0016487232642248273
48.0,0.0014458411606028676
52.0,0.0015017749974504113
56.0,0.0015387015882879496
60.0,0.001437281258404255
64.0,0.0010107947746291757
72.0,0.001082644914276898
80.0,0.0012217555195093155
88.0,0.0015786028234288096
96.0,0.0009308777516707778
104.0,0.0009127876837737858
112.0,0.001383183291181922
120.0,0.0012835232773795724
128.0,0.0005927375750616193
144.0,0.00019896581943612546
160.0,0.00023971575137693435
176.0,-0.00043177808402106166
192.0,-0.0004720352008007467
208.0,-0.000469208782305941
224.0,-0.0002534936647862196
240.0,-0.0004272501973900944
256.0,-0.0004152437613811344
288.0,-0.0004471156280487776
320.0,-0.00019438067101873457
352.0,-0.0005968759651295841
384.0,-0.00048220911412499845
416.0,-0.0008232149994000793
448.0,-0.0002569143252912909
480.0,0.00022433791309595108
512.0,0.00036934175295755267
576.0,-0.0005566465551964939
640.0,0.0001349053782178089
704.0,-0.00025554007152095437
768.0,-2.3149643311626278e-05
832.0,0.0005648352671414614
896.0,0.00033289226121269166
960.0,0.0007826864020898938
1024.0,0.0003335357760079205
1152.0,-0.0004354419361334294
1280.0,-0.00027322134701535106
1408.0,0.0003675685147754848
1536.0,0.00010476799070602283
1664.0,7.192821067292243e-05
1792.0,0.00011225129856029525
1920.0,-0.0003626473480835557
2048.0,-0.00024125204072333872
2304.0,-0.00016186689026653767
2560.0,-0.00026808763504959643
2816.0,-0.00012085276830475777
3072.0,5.0479571655159816e-05
3328.0,-0.00040202587842941284
3584.0,-0.0002997568226419389
3840.0,-6.14211312495172e-05
4096.0,-0.0003570694534573704
4608.0,-0.00017399263742845505
5120.0,0.00020696372666861862
5632.0,-1.7938929886440746e-05
6144.0,2.384001163591165e-05
6656.0,-5.723080539610237e-05
7168.0,0.00011368821287760511
7680.0,0.000122141616884619
8192.0,0.0005119270063005388
9216.0,3.2325212941941572e-06
10240.0,-0.0002016661746893078
11264.0,-0.0002376396587351337
12288.0,0.00025817324058152735
13312.0,0.0003597741888370365
14336.0,0.00011768996046157554
end
