version,3.0
numOfCh,1
type,point
parent_name,8-cuts
ch_type,1_1
kcount,1
numberNandB,1
brightnessNandB,1
carpet pos,0
pc,0
Time (ms),CH1 Auto-Correlation
1.0,0.015997769311070442
2.0,0.013043157756328583
3.0,0.011023630388081074
4.0,0.009521783329546452
5.0,0.008447396568953991
6.0,0.007672399748116732
7.0,0.006993400864303112
8.0,0.00631876103579998
9.0,0.005805926863104105
10.0,0.005401200149208307
11.0,0.005012277979403734
12.0,0.004623251501470804
13.0,0.00419663917273283
14.0,0.003881243523210287
15.0,0.0035733706317842007
16.0,0.0032955652568489313
18.0,0.002843157621100545
20.0,0.0025819751899689436
22.0,0.0025268904864788055
24.0,0.0023322971537709236
26.0,0.00220451015047729
28.0,0.002233336213976145
30.0,0.0022560551296919584
32.0,0.002127633197233081
36.0,0.002135477028787136
40.0,0.002107430249452591
44.0,0.001825151965022087
48.0,0.0017629663925617933
52.0,0.0016232938505709171
56.0,0.0014767420943826437
60.0,0.0015256167389452457
64.0,0.001532643917016685
72.0,0.0009819907136261463
80.0,0.0003854953683912754
88.0,0.0005873095360584557
96.0,0.0005808986607007682
104.0,0.0009639388881623745
112.0,0.0008078343817032874
120.0,0.0007003230857662857
128.0,0.0006420788704417646
144.0,0.0006744734128005803
160.0,0.0008275714353658259
176.0,0.00044048589188605547
192.0,0.00043179685599170625
208.0,-8.021787652978674e-05
224.0,0.00016593201144132763
240.0,1.9701799828908406e-05
256.0,-8.548691403120756e-05
288.0,-0.0001052023217198439
320.0,-0.0004830288526136428
352.0,-0.0005753292352892458
384.0,-0.0008103605359792709
416.0,-0.0009878523414954543
448.0,-0.000489281490445137
480.0,-0.0007184540736488998
512.0,-0.00037388555938377976
576.0,7.2376005846308544e-06
640.0,0.00027939496794715524
704.0,-0.0002667702501639724
768.0,4.669213012675755e-06
832.0,0.000701272685546428
896.0,0.00021822411508765072
960.0,0.00022090759011916816
1024.0,0.0004339065053500235
1152.0,1.470249208068708e-05
1280.0,-0.00047180193359963596
1408.0,-0.00035074548213742673
1536.0,0.00017551342898514122
1664.0,0.0004187026934232563
1792.0,0.000267041934421286
1920.0,-0.00010672305506886914
2048.0,-0.00027814978966489434
2304.0,-0.00043701488175429404
2560.0,0.00015848611656110734
2816.0,1.1937760973523837e-05
3072.0,-0.00010294049570802599
3328.0,7.522020041506039e-06
3584.0,-4.1254777897847816e-05
3840.0,-0.00045422950643114746
4096.0,-0.00022469738905783743
4608.0,0.0007599490927532315
5120.0,-5.537849210668355e-05
5632.0,-7.144607661757618e-05
6144.0,0.0001490650320192799
6656.0,-0.0004102373495697975
7168.0,0.00034316463279537857
7680.0,-0.00022857316071167588
8192.0,-0.00032237221603281796
9216.0,0.00018421697313897312
10240.0,8.223355689551681e-05
11264.0,-9.640406642574817e-05
12288.0,8.223269833251834e-05
13312.0,-0.0007214249344542623
14336.0,-0.00012510520173236728
end
