version,3.0
numOfCh,1
type,point
parent_name,8-cuts
ch_type,1_1
kcount,1
numberNandB,1
brightnessNandB,1
carpet pos,0
pc,0
Time (ms),CH1 Auto-Correlation
1.0,0.01580207794904709
2.0,0.012916716746985912
3.0,0.010934041813015938
4.0,0.00942449551075697
5.0,0.008385371416807175
6.0,0.007560814265161753
7.0,0.006847530137747526
8.0,0.0060806358233094215
9.0,0.005516069941222668
10.0,0.004982651676982641
11.0,0.004604536574333906
12.0,0.004373270086944103
13.0,0.004112686961889267
14.0,0.0038655020762234926
15.0,0.003672495950013399
16.0,0.003520406549796462
18.0,0.003222503000870347
20.0,0.0028293682262301445
22.0,0.0026584044098854065
24.0,0.0024528957437723875
26.0,0.002286025322973728
28.0,0.0021230715792626143
30.0,0.0019629092421382666
32.0,0.0017411314183846116
36.0,0.001561013632453978
40.0,0.0013951457804068923
44.0,0.0013913424918428063
48.0,0.0015518323052674532
52.0,0.0013638754608109593
56.0,0.001269466825760901
60.0,0.0012440616264939308
64.0,0.0013455756707116961
72.0,0.0017310825642198324
80.0,0.0012855055974796414
88.0,0.0008048589807003736
96.0,0.0006920346058905125
104.0,0.0002713706053327769
112.0,0.0002769310085568577
120.0,0.0004822830087505281
128.0,0.00019090539717581123
144.0,0.000484416785184294
160.0,0.0002992766385432333
176.0,0.0006164139485917985
192.0,0.000530655961483717
208.0,0.0003100370231550187
224.0,0.0005595319089479744
240.0,0.0005120382993482053
256.0,0.0009397364337928593
288.0,0.0006636768812313676
320.0,0.0003766998997889459
352.0,5.906634760322049e-05
384.0,0.0002798492496367544
416.0,0.00034041254548355937
448.0,3.5840992495650426e-05
480.0,-7.473740697605535e-05
512.0,-0.0004928536945953965
576.0,-0.00042076731915585697
640.0,-9.869541099760681e-05
704.0,-9.809745824895799e-05
768.0,0.00017606087203603238
832.0,-0.0003679714573081583
896.0,-0.000705841404851526
960.0,-0.00011771242861868814
1024.0,0.0001491193106630817
1152.0,-0.0003795092925429344
1280.0,-0.0007495207246392965
1408.0,-0.0007201358093880117
1536.0,-0.00038825059891678393
1664.0,0.00022523035295307636
1792.0,5.754868470830843e-05
1920.0,-2.1962471237202408e-06
2048.0,4.0999082557391375e-05
2304.0,-1.6769723515608348e-05
2560.0,0.00021282598027028143
2816.0,0.00011693169653881341
3072.0,-0.00029763104976154864
3328.0,-0.00019066757522523403
3584.0,0.00014422574895434082
3840.0,0.00027368590235710144
4096.0,-8.444290142506361e-05
4608.0,3.73360380763188e-05
5120.0,-0.0001731890661176294
5632.0,0.00033479969715699553
6144.0,-4.800781243829988e-05
6656.0,0.00019606141722761095
7168.0,-0.0005995660903863609
7680.0,0.00017250629025511444
8192.0,0.0003333289932925254
9216.0,-0.0005712053971365094
10240.0,0.0004564772534649819
11264.0,-0.00014156002725940198
12288.0,0.00030318120843730867
13312.0,-0.0004602426488418132
14336.0,0.0004740799486171454
end
