version,3.0
numOfCh,1
type,point
parent_name,8-cuts
ch_type,1_1
kcount,1
numberNandB,1
brightnessNandB,1
carpet pos,0
pc,0
Time (ms),CH1 Auto-Correlation
1.0,0.016153521835803986
2.0,0.013212923891842365
3.0,0.011141698807477951
4.0,0.009551351889967918
5.0,0.00837724655866623
6.0,0.007355556357651949
7.0,0.006439295131713152
8.0,0.00566934235394001
9.0,0.005093153566122055
10.0,0.00465756980702281
11.0,0.004278418608009815
12.0,0.003812165930867195
13.0,0.003399432171136141
14.0,0.0030162865296006203
15.0,0.002851414494216442
16.0,0.0026910670567303896
18.0,0.002381211146712303
20.0,0.001971424790099263
22.0,0.0018361026886850595
24.0,0.0017636590637266636
26.0,0.0015818034298717976
28.0,0.001585550606250763
30.0,0.0015096813440322876
32.0,0.0015358644304797053
36.0,0.0014222717145457864
40.0,0.001207962748594582
44.0,0.000920759339351207
48.0,0.0006231531733646989
52.0,0.0005856069619767368
56.0,0.0006206464022397995
60.0,0.0007684024749323726
64.0,0.0008307253010571003
72.0,0.00034856513957493007
80.0,0.00010526541154831648
88.0,0.0002866374852601439
96.0,0.0004455005400814116
104.0,-2.9135066142771393e-05
112.0,-0.0005244080093689263
120.0,-0.0004752659588120878
128.0,-0.0003812852955888957
144.0,-0.0006259042420424521
160.0,-0.00026974009233526886
176.0,0.0002384729596087709
192.0,0.00041105938726104796
208.0,-0.0002884817367885262
224.0,-0.0004445682861842215
240.0,-0.0002659534802660346
256.0,0.0003024467150680721
288.0,-6.057956488803029e-05
320.0,-0.00036204481148160994
352.0,-0.000623928033746779
384.0,-0.0006120443576946855
416.0,-0.00045578720164485276
448.0,-0.0005197153077460825
480.0,8.795778558123857e-05
512.0,0.00017981173004955053
576.0,0.00016352999955415726
640.0,-8.702756895218045e-05
704.0,0.0002908775641117245
768.0,0.00031537035829387605
832.0,0.00027518824208527803
896.0,0.00014116964302957058
960.0,-0.00010571770690148696
1024.0,-0.00015969200467225164
1152.0,9.975145803764462e-05
1280.0,9.095088898902759e-06
1408.0,5.268329186947085e-05
1536.0,-0.00012734951451420784
1664.0,0.00022330056526698172
1792.0,-0.00010523513628868386
1920.0,0.000324093212839216
2048.0,-0.00012322765542194247
2304.0,0.00022074213484302163
2560.0,4.2668449168559164e-05
2816.0,-0.00014111321070231497
3072.0,0.00013630939065478742
3328.0,3.9175018173409626e-05
3584.0,1.7881575331557542e-05
3840.0,-3.746780930669047e-05
4096.0,-3.7570251151919365e-05
4608.0,-0.00020845745166298002
5120.0,7.719185668975115e-05
5632.0,9.886244515655562e-05
6144.0,-3.702368849189952e-05
6656.0,-7.274613744812086e-05
7168.0,-7.64700525905937e-05
7680.0,-0.00010598512744763866
8192.0,-0.00012321746908128262
9216.0,-5.9660571423592046e-05
10240.0,-8.561351569369435e-05
11264.0,-0.00017145194578915834
12288.0,0.00012112601689295843
13312.0,-0.0002584483881946653
14336.0,0.0003806950699072331
end
