version,3.0
numOfCh,1
type,point
parent_name,8-cuts
ch_type,1_1
kcount,1
numberNandB,1
brightnessNandB,1
carpet pos,0
pc,0
Time (ms),CH1 Auto-Correlation
1.0,0.02603396773338318
2.0,0.02115703746676445
3.0,0.0177095215767622
4.0,0.015134167857468128
5.0,0.01321090292185545
6.0,0.011642992496490479
7.0,0.010214169509708881
8.0,0.009116052649915218
9.0,0.008206178434193134
10.0,0.007525229826569557
11.0,0.006951697636395693
12.0,0.00658030528575182
13.0,0.006311165168881416
14.0,0.005943967029452324
15.0,0.005628896877169609
16.0,0.00537652475759387
18.0,0.004950573202222586
20.0,0.00448079826310277
22.0,0.004202057607471943
24.0,0.003813206683844328
26.0,0.003378440858796239
28.0,0.0032315074931830168
30.0,0.0029574523214250803
32.0,0.0026677390560507774
36.0,0.0023165966849774122
40.0,0.0023518074303865433
44.0,0.0019925048109143972
48.0,0.0017344396328553557
52.0,0.0015312253963202238
56.0,0.0013462911592796445
60.0,0.0010207920568063855
64.0,0.0008812617161311209
72.0,0.0010855995351448655
80.0,0.000633631250821054
88.0,0.0006060487357899547
96.0,0.0008316779276356101
104.0,0.0007816424476914108
112.0,-0.00031115865567699075
120.0,-1.130201417254284e-05
128.0,-0.0001191140545415692
144.0,-0.0005105888703837991
160.0,-0.000483400042867288
176.0,0.00041752084507606924
192.0,0.0001831758563639596
208.0,-0.0004683509760070592
224.0,0.00016037079330999404
240.0,6.648847920587286e-05
256.0,-0.0003210836439393461
288.0,-0.00013454353029374033
320.0,-0.0005257402081042528
352.0,-0.0006327648879960179
384.0,-0.00026115874061360955
416.0,-0.0004643337451852858
448.0,0.00017266705981455743
480.0,0.0012978024315088987
512.0,0.0003990396508015692
576.0,-3.995032329839887e-06
640.0,-0.0002958235563710332
704.0,4.654338408727199e-05
768.0,0.0006580222980119288
832.0,-2.5423592887818813e-05
896.0,0.0001983950933208689
960.0,-0.00031122140353545547
1024.0,-0.00016670797776896507
1152.0,-7.696762622799724e-05
1280.0,-0.00021612927957903594
1408.0,0.000490242091473192
1536.0,0.0008424960542470217
1664.0,9.510391828371212e-05
1792.0,-0.0005342171643860638
1920.0,-0.0004764209152199328
2048.0,0.00023390910064335912
2304.0,0.000352914328686893
2560.0,3.0197168143786257e-06
2816.0,-0.00033850606996566057
3072.0,-0.0004515727050602436
3328.0,-0.0004207194142509252
3584.0,-0.0001910136779770255
3840.0,-0.00035017376649193466
4096.0,-0.00016987997514661402
4608.0,-5.49270862393314e-06
5120.0,-0.0001689984928816557
5632.0,-5.224253254709765e-05
6144.0,-0.00015279198123607785
6656.0,5.8148993957729544e-06
7168.0,-9.193622099701315e-05
7680.0,-0.00052517099538818
8192.0,-8.147803600877523e-05
9216.0,5.589750435319729e-05
10240.0,0.0004468097467906773
11264.0,0.0005826685228385031
12288.0,0.00023370156122837216
13312.0,-0.00038280597073026
14336.0,-0.0005051605403423309
end
