version,3.0
numOfCh,1
type,point
parent_name,8-cuts
ch_type,1_1
kcount,1
numberNandB,1
brightnessNandB,1
carpet pos,0
pc,0
Time (ms),CH1 Auto-Correlation
1.0,0.016428910195827484
2.0,0.013468177989125252
3.0,0.011364252306520939
4.0,0.009749970398843288
5.0,0.008530868217349052
6.0,0.007557464763522148
7.0,0.006769120693206787
8.0,0.0061457897536456585
9.0,0.005619520787149668
10.0,0.0051950085908174515
11.0,0.00484122522175312
12.0,0.004591820295900106
13.0,0.0043191974982619286
14.0,0.0041303448379039764
15.0,0.0038925770204514265
16.0,0.003773484146222472
18.0,0.003547507571056485
20.0,0.003168876748532057
22.0,0.0028018548619002104
24.0,0.002498952206224203
26.0,0.002317966427654028
28.0,0.002142369281500578
30.0,0.002160528674721718
32.0,0.0022406624630093575
36.0,0.0024215306621044874
40.0,0.002312729600816965
44.0,0.00218790746293962
48.0,0.0021399713587015867
52.0,0.001911692670546472
56.0,0.0017121327109634876
60.0,0.001483428874053061
64.0,0.0013110596919432282
72.0,0.0010814523557201028
80.0,0.0005869384622201324
88.0,0.00034341562422923744
96.0,-0.0002298794424859807
104.0,-0.0005249531823210418
112.0,-0.0005023542325943708
120.0,-0.00032673031091690063
128.0,-0.0003779951366595924
144.0,-0.0009863500017672777
160.0,-0.0009201436769217253
176.0,-0.0007732733502052724
192.0,-0.00042029874748550355
208.0,-0.00046485138591378927
224.0,-0.0006232861196622252
240.0,-0.00011698207526933402
256.0,9.977314039133489e-05
288.0,-8.234911365434527e-05
320.0,-0.00044277351116761565
352.0,-0.0003099787572864443
384.0,-0.0005911652115173638
416.0,-0.0006958155427128077
448.0,-0.00036993384128436446
480.0,-0.0004235584056004882
512.0,-2.496201886970084e-05
576.0,3.9746919355820864e-05
640.0,0.0003174144367221743
704.0,0.00018774638010654598
768.0,0.0002745051169767976
832.0,-4.781966345035471e-05
896.0,-0.0007121051312424242
960.0,-0.000549738178960979
1024.0,-8.137758413795382e-05
1152.0,-0.0001119354710681364
1280.0,0.00023888023861218244
1408.0,0.00040149857522919774
1536.0,0.0002814233012031764
1664.0,-0.0004729976935777813
1792.0,-0.0007023254875093699
1920.0,3.9566475606989115e-06
2048.0,0.0002914407232310623
2304.0,-0.0003558719763532281
2560.0,4.068782800459303e-05
2816.0,0.00012816749222110957
3072.0,3.0187662559910677e-05
3328.0,0.0001640777918510139
3584.0,-0.00027401201077736914
3840.0,4.592578625306487e-05
4096.0,9.610579581931233e-05
4608.0,2.7884500013897195e-05
5120.0,1.9228433302487247e-05
5632.0,-7.588325388496742e-05
6144.0,0.00013275741366669536
6656.0,4.28651983384043e-05
7168.0,-0.0001464164670323953
7680.0,-7.789937512825418e-07
8192.0,7.113419269444421e-05
9216.0,1.2126992260164116e-05
10240.0,-0.00014967069728299975
11264.0,8.973653166322038e-05
12288.0,4.841687041334808e-05
13312.0,-4.34233334090095e-05
14336.0,-0.0003039854345843196
end
