version,3.0
numOfCh,1
type,point
parent_name,8-cuts
ch_type,1_1
kcount,1
numberNandB,1
brightnessNandB,1
carpet pos,0
pc,0
Time (ms),CH1 Auto-Correlation
1.0,0.01569201797246933
2.0,0.012850216589868069
3.0,0.01083147432655096
4.0,0.009306194260716438
5.0,0.008171412162482738
6.0,0.007210597861558199
7.0,0.006479605101048946
8.0,0.005909306928515434
9.0,0.005353735759854317
10.0,0.0049989004619419575
11.0,0.004632382187992334
12.0,0.004305916838347912
13.0,0.003978184424340725
14.0,0.0036883982829749584
15.0,0.0035038418136537075
16.0,0.003325234167277813
18.0,0.0028832859825342894
20.0,0.002503122203052044
22.0,0.002193637192249298
24.0,0.0020522307604551315
26.0,0.0019932894501835108
28.0,0.001850095228292048
30.0,0.001838379306718707
32.0,0.0017741556512191892
36.0,0.0014746417291462421
40.0,0.001486625405959785
44.0,0.0014750785194337368
48.0,0.0012412903597578406
52.0,0.0008647728827781975
56.0,0.00039686201489530504
60.0,0.00024072382075246423
64.0,0.00016263333964161575
72.0,0.00024655350716784596
80.0,0.0005755583406426013
88.0,0.00047649891348555684
96.0,-0.0001730219228193164
104.0,-0.0006152251735329628
112.0,-0.0003134161524940282
120.0,-0.00019766697369050235
128.0,-0.0005109980702400208
144.0,-2.684772880456876e-05
160.0,-0.0002888278104364872
176.0,0.0001426439412171021
192.0,-0.00017771749116946012
208.0,-0.00029145748703740537
224.0,-0.0006255240878090262
240.0,-0.0002852235920727253
256.0,0.00014938245294615626
288.0,0.0003199166094418615
320.0,0.00018687850388232619
352.0,0.00024868137552402914
384.0,0.0003032279491890222
416.0,4.0649654692970216e-05
448.0,-0.0004405022773426026
480.0,0.0001972446625586599
512.0,-0.00015063640603329986
576.0,-2.5386530978721566e-05
640.0,0.00018467442714609206
704.0,4.8355477701989e-06
768.0,8.809840437606908e-06
832.0,-0.00013490341370925307
896.0,1.041003724822076e-05
960.0,0.0006236368790268898
1024.0,3.3802949474193156e-05
1152.0,0.00017564459994900972
1280.0,6.461406883317977e-05
1408.0,-8.554530722904019e-06
1536.0,-4.721689037978649e-05
1664.0,0.0004798077279701829
1792.0,-0.0001545949635328725
1920.0,0.0003095852443948388
2048.0,-1.614194297872018e-05
2304.0,8.781971700955182e-05
2560.0,0.0001669573102844879
2816.0,0.00017902582476381212
3072.0,-8.96218916750513e-05
3328.0,3.594319935018575e-07
3584.0,0.0002118672418873757
3840.0,-0.0004179962270427495
4096.0,-0.00012673187302425504
4608.0,9.587025851942599e-05
5120.0,-2.024119021371007e-05
5632.0,-2.3823491574148647e-05
6144.0,0.0001846275554271415
6656.0,6.0192724049557e-05
7168.0,-0.0002126271283486858
7680.0,-5.3248641052050516e-05
8192.0,7.955959881655872e-05
9216.0,1.0662606655387208e-05
10240.0,-0.0003253531758673489
11264.0,-0.0001931371516548097
12288.0,-0.00022637253277935088
13312.0,-0.0005182900931686163
14336.0,-0.0002609998919069767
end
