version,3.0
numOfCh,1
type,point
parent_name,8-cuts
ch_type,1_1
kcount,1
numberNandB,1
brightnessNandB,1
carpet pos,0
pc,0
Time (ms),CH1 Auto-Correlation
1.0,0.016278311610221863
2.0,0.013397385366261005
3.0,0.0114132734015584
4.0,0.009964272379875183
5.0,0.008792910724878311
6.0,0.007821335457265377
7.0,0.007144461385905743
8.0,0.00655339052900672
9.0,0.006005256436765194
10.0,0.005598453804850578
11.0,0.005298303440213203
12.0,0.005074402317404747
13.0,0.004735580645501614
14.0,0.0044891126453876495
15.0,0.004273150581866503
16.0,0.004016946069896221
18.0,0.0035986455623060465
20.0,0.0031504870858043432
22.0,0.002841695910319686
24.0,0.002574780024588108
26.0,0.002248093020170927
28.0,0.0020158151164650917
30.0,0.0018548833904787898
32.0,0.0016785244224593043
36.0,0.0016974610043689609
40.0,0.001538231037557125
44.0,0.0011782292276620865
48.0,0.0009890994988381863
52.0,0.0006929972441866994
56.0,0.00051575229736045
60.0,0.0001907034748001024
64.0,0.00023405069077853113
72.0,0.0005810512229800224
80.0,0.0012023370945826173
88.0,0.0010188687592744827
96.0,0.0009993661660701036
104.0,0.0006543400231748819
112.0,0.0006110555841587484
120.0,0.0007106021512299776
128.0,0.00023803657677490264
144.0,-0.0005144037422724068
160.0,-0.00025244744028896093
176.0,-0.00026923901168629527
192.0,4.067631743964739e-05
208.0,-0.00022581277880817652
224.0,0.00014029923477210104
240.0,-6.03074295213446e-05
256.0,-8.084602450253442e-05
288.0,-4.909449489787221e-05
320.0,-0.00024609031970612705
352.0,-0.00026846115360967815
384.0,-0.00032014172757044435
416.0,-0.00016152624448295683
448.0,0.0005971541395410895
480.0,0.0005233841948211193
512.0,-8.070308103924617e-05
576.0,-1.9124920527247014e-06
640.0,-0.00022467940289061517
704.0,-0.0003731311298906803
768.0,4.292998346500099e-05
832.0,-0.00010839447350008413
896.0,-2.5949859264073893e-05
960.0,-0.0002095926902256906
1024.0,0.00017526316514704376
1152.0,-7.04375997884199e-05
1280.0,0.00014448784349951893
1408.0,-6.280926027102396e-05
1536.0,-0.0002602913009468466
1664.0,-0.0006021825247444212
1792.0,-0.00011578032717807218
1920.0,0.0002620919840410352
2048.0,0.00011270031245658174
2304.0,7.057649054331705e-05
2560.0,-0.00027520512230694294
2816.0,-0.0001936375192599371
3072.0,-0.0003211224975530058
3328.0,7.052545242913766e-06
3584.0,0.0002613762626424432
3840.0,0.0002801273949444294
4096.0,-0.00029953449848107994
4608.0,0.000368955748854205
5120.0,-0.00029080084641464055
5632.0,0.0003302421246189624
6144.0,-5.1003400585614145e-05
6656.0,4.828746386920102e-05
7168.0,-0.00015780840476509184
7680.0,-0.00030495060491375625
8192.0,-0.00012732140021398664
9216.0,-5.578573473030701e-05
10240.0,0.0001150866155512631
11264.0,-0.00010105116234626621
12288.0,-1.509198796156852e-06
13312.0,-6.878552085254341e-05
14336.0,0.00012282963143661618
end
