version,3.0
numOfCh,1
type,point
parent_name,8-cuts
ch_type,1_1
kcount,1
numberNandB,1
brightnessNandB,1
carpet pos,0
pc,0
Time (ms),CH1 Auto-Correlation
1.0,0.016328876838088036
2.0,0.013334544375538826
3.0,0.011147198267281055
4.0,0.009543731808662415
5.0,0.008366419933736324
6.0,0.007508039940148592
7.0,0.00690341554582119
8.0,0.0063374238088727
9.0,0.005849290639162064
10.0,0.005383748095482588
11.0,0.004977690987288952
12.0,0.004605417139828205
13.0,0.004221614915877581
14.0,0.0039316811598837376
15.0,0.003651038510724902
16.0,0.003374506952241063
18.0,0.002896753139793873
20.0,0.002565816044807434
22.0,0.002362088765949011
24.0,0.0021762957330793142
26.0,0.002232893370091915
28.0,0.002282350091263652
30.0,0.0019980664364993572
32.0,0.0017420430667698383
36.0,0.0013509239070117474
40.0,0.0011219403240829706
44.0,0.00098903919570148
48.0,0.0011072758352383971
52.0,0.0009228250710293651
56.0,0.0006154883303679526
60.0,0.0002478300011716783
64.0,2.9052223908365704e-05
72.0,-0.000468902726424858
80.0,-0.0003430997021496296
88.0,2.8504413421615027e-05
96.0,1.7127029423136264e-05
104.0,-0.0003147573734167963
112.0,-0.00036604818888008595
120.0,-0.0003585596277844161
128.0,-0.0004140539967920631
144.0,0.00014392951561603695
160.0,0.00038987078005447984
176.0,0.0006756806978955865
192.0,0.0005622989847324789
208.0,0.0005513539654202759
224.0,0.0003946716897189617
240.0,-0.00019313007942400873
256.0,-0.00042653214768506587
288.0,-0.0006535536958836019
320.0,0.00013359538570512086
352.0,0.0003153459692839533
384.0,0.0009016345720738173
416.0,0.0007663773139938712
448.0,0.000669345201458782
480.0,5.9021363995270804e-05
512.0,-0.0003480110317468643
576.0,0.00014347884280141443
640.0,-0.00028654938796535134
704.0,-0.00015545845963060856
768.0,-0.0006093748961575329
832.0,0.0005470282048918307
896.0,3.182883665431291e-05
960.0,-0.00018131849355995655
1024.0,-0.0003071597602684051
1152.0,3.2562107662670314e-05
1280.0,0.00016117692575789988
1408.0,-0.00010598250082693994
1536.0,0.00024093486717902124
1664.0,9.006043546833098e-05
1792.0,0.00014232355169951916
1920.0,9.849886555457488e-05
2048.0,0.0001449830160709098
2304.0,-0.0002628213260322809
2560.0,-0.00013037704047746956
2816.0,-0.00028489064425230026
3072.0,-5.097492248751223e-05
3328.0,-5.524829975911416e-05
3584.0,-0.0003115595318377018
3840.0,-0.00030674878507852554
4096.0,0.00018557283328846097
4608.0,0.0002844366244971752
5120.0,-9.085609781323001e-05
5632.0,-8.639968291390687e-05
6144.0,0.00018657920008990914
6656.0,7.323536556214094e-05
7168.0,-0.00032230408396571875
7680.0,-0.0003561039920896292
8192.0,-0.0002164091420127079
9216.0,0.00017330955597572029
10240.0,-8.529801561962813e-06
11264.0,0.00015512607933487743
12288.0,-0.0001792629627743736
13312.0,-8.649700612295419e-05
14336.0,-0.0005873738555237651
end
