version,3.0
numOfCh,1
type,point
parent_name,34a6d_0dot08-0dot01
ch_type,1_1
kcount,1
numberNandB,1
brightnessNandB,1
carpet pos,0
pc,0
Time (ms),CH1 Auto-Correlation
1.0,0.04223736375570297
2.0,0.041845906525850296
3.0,0.04148317128419876
4.0,0.041129469871520996
5.0,0.040756817907094955
6.0,0.040396686643362045
7.0,0.040068369358778
8.0,0.03977954760193825
9.0,0.03949007764458656
10.0,0.039205700159072876
11.0,0.03891856595873833
12.0,0.03862762078642845
13.0,0.03833981975913048
14.0,0.03807631880044937
15.0,0.03779684752225876
16.0,0.037463344633579254
18.0,0.03696923702955246
20.0,0.03649023547768593
22.0,0.03606891259551048
24.0,0.03567700833082199
26.0,0.035318776965141296
28.0,0.034948110580444336
30.0,0.0345630869269371
32.0,0.03417564928531647
36.0,0.0333850122988224
40.0,0.032681677490472794
44.0,0.0319279283285141
48.0,0.031087977811694145
52.0,0.030295200645923615
56.0,0.029432186856865883
60.0,0.028431342914700508
64.0,0.027630096301436424
72.0,0.02630942314863205
80.0,0.025013603270053864
88.0,0.02376054786145687
96.0,0.02246803045272827
104.0,0.02095481939613819
112.0,0.01962781697511673
120.0,0.01853657327592373
128.0,0.017635101452469826
144.0,0.015650063753128052
160.0,0.013143551535904408
176.0,0.01058991439640522
192.0,0.008337641134858131
208.0,0.006562374997884035
224.0,0.0055639189667999744
240.0,0.0050266208127141
256.0,0.0046266536228358746
288.0,0.0036667503882199526
320.0,0.002211660845205188
352.0,0.0012734499759972095
384.0,0.0008092817733995616
416.0,0.0008676114957779646
448.0,0.001066521042957902
480.0,0.0010935715399682522
512.0,0.0016748833004385233
576.0,0.0023100757971405983
640.0,0.0012436354300007224
704.0,-0.0009209609124809504
768.0,9.908335778163746e-05
832.0,0.003079730551689863
896.0,0.004532461054623127
960.0,0.005780864506959915
1024.0,0.007385735400021076
1152.0,0.009732089936733246
1280.0,0.009456493891775608
1408.0,0.010907036252319813
1536.0,0.006236498709768057
1664.0,0.0009074822883121669
1792.0,-0.002028338611125946
1920.0,-0.004374098964035511
2048.0,-0.001969527453184128
2304.0,0.0032862373627722263
2560.0,0.006801889277994633
2816.0,0.009671398438513279
3072.0,0.0026693365070968866
3328.0,-0.0059307049959897995
3584.0,-0.0015450760256499052
3840.0,0.0008650596719235182
4096.0,0.006503756623715162
4608.0,-0.0121420593932271
5120.0,-0.002251309109851718
5632.0,-0.009616144001483917
6144.0,-0.004660352598875761
6656.0,-0.009316015057265759
7168.0,-0.015195087529718876
7680.0,-0.0235221479088068
8192.0,-0.017153674736618996
end
