version,3.0
numOfCh,1
type,point
parent_name,34a6d_0dot08-0dot01
ch_type,1_1
kcount,1
numberNandB,1
brightnessNandB,1
carpet pos,0
pc,0
Time (ms),CH1 Auto-Correlation
1.0,0.0806756243109703
2.0,0.07809542864561081
3.0,0.0754384770989418
4.0,0.07283219695091248
5.0,0.07024545222520828
6.0,0.06767590343952179
7.0,0.06504110246896744
8.0,0.06246544048190117
9.0,0.05996372178196907
10.0,0.059524115175008774
11.0,0.05911308526992798
12.0,0.05870811268687248
13.0,0.05832589417695999
14.0,0.05792231857776642
15.0,0.0575285330414772
16.0,0.05714595317840576
18.0,0.056401487439870834
20.0,0.055813975632190704
22.0,0.05533168464899063
24.0,0.05491676926612854
26.0,0.054564882069826126
28.0,0.05414959415793419
30.0,0.053630780428647995
32.0,0.05299921706318855
36.0,0.051577240228652954
40.0,0.05043739452958107
44.0,0.04938448965549469
48.0,0.048298180103302
52.0,0.047430530190467834
56.0,0.04665891081094742
60.0,0.04586278274655342
64.0,0.04491011053323746
72.0,0.043087322264909744
80.0,0.04154583439230919
88.0,0.0399508960545063
96.0,0.03845237195491791
104.0,0.03707409277558327
112.0,0.03588143363595009
120.0,0.034850772470235825
128.0,0.03399084135890007
144.0,0.031876347959041595
160.0,0.030417732894420624
176.0,0.02857097052037716
192.0,0.02668575569987297
208.0,0.02532411925494671
224.0,0.02392205037176609
240.0,0.022724950686097145
256.0,0.021385155618190765
288.0,0.019340284168720245
320.0,0.017264829948544502
352.0,0.014451057650148869
384.0,0.011213862337172031
416.0,0.00861562229692936
448.0,0.006111862603574991
480.0,0.003808398963883519
512.0,0.001666608965024352
576.0,-0.0020338844042271376
640.0,-0.004094660747796297
704.0,-0.005189383868128061
768.0,-0.002833726815879345
832.0,-0.0005543478764593601
896.0,0.0023005944676697254
960.0,0.006605187896639109
1024.0,0.011566732078790665
1152.0,0.013701521791517735
1280.0,0.020834188908338547
1408.0,0.021826576441526413
1536.0,0.016108140349388123
1664.0,0.01182075496762991
1792.0,0.010313286446034908
1920.0,0.004083932377398014
2048.0,-0.003228700952604413
2304.0,-0.004474951885640621
2560.0,0.0008103531436063349
2816.0,0.011520356871187687
3072.0,0.010891392827033997
3328.0,0.004693012218922377
3584.0,-0.0037249696906656027
3840.0,-0.013533824123442173
4096.0,-0.008609870448708534
4608.0,0.010118069127202034
5120.0,-0.012331635691225529
5632.0,-0.01055679190903902
6144.0,-0.00767618278041482
6656.0,-0.027278319001197815
7168.0,-0.016886470839381218
7680.0,-0.008226378820836544
8192.0,-0.027852676808834076
end
