version,3.0
numOfCh,1
type,point
parent_name,34a6d_0dot08-0dot01
ch_type,1_1
kcount,1
numberNandB,1
brightnessNandB,1
carpet pos,0
pc,0
Time (ms),CH1 Auto-Correlation
1.0,0.04570869728922844
2.0,0.04464895278215408
3.0,0.043590009212493896
4.0,0.042483508586883545
5.0,0.041424479335546494
6.0,0.04038050025701523
7.0,0.03937476500868797
8.0,0.03911563754081726
9.0,0.03884416073560715
10.0,0.038564201444387436
11.0,0.038289718329906464
12.0,0.03803560510277748
13.0,0.03778006508946419
14.0,0.03753869980573654
15.0,0.0373016893863678
16.0,0.03707539662718773
18.0,0.03664477914571762
20.0,0.036287229508161545
22.0,0.03590422868728638
24.0,0.03546509891748428
26.0,0.035032644867897034
28.0,0.03460848331451416
30.0,0.03422121703624725
32.0,0.03386805206537247
36.0,0.03327960520982742
40.0,0.03272368013858795
44.0,0.0321844257414341
48.0,0.03169161453843117
52.0,0.031187115237116814
56.0,0.030706103891134262
60.0,0.030287163332104683
64.0,0.02980346791446209
72.0,0.02875499613583088
80.0,0.028111638501286507
88.0,0.02799283340573311
96.0,0.027263490483164787
104.0,0.02647775411605835
112.0,0.025956062600016594
120.0,0.025524741038680077
128.0,0.024961933493614197
144.0,0.02329333685338497
160.0,0.022473620250821114
176.0,0.02149910107254982
192.0,0.020358530804514885
208.0,0.019323045387864113
224.0,0.01841491274535656
240.0,0.017545271664857864
256.0,0.016604559496045113
288.0,0.014846102334558964
320.0,0.01322693470865488
352.0,0.011723291128873825
384.0,0.011269018985331059
416.0,0.011406747624278069
448.0,0.011632495559751987
480.0,0.01154591329395771
512.0,0.011514958925545216
576.0,0.012031624093651772
640.0,0.01132860966026783
704.0,0.012135613709688187
768.0,0.012004826217889786
832.0,0.012911762110888958
896.0,0.01325086411088705
960.0,0.013000326231122017
1024.0,0.011436358094215393
1152.0,0.010368557646870613
1280.0,0.008388896472752094
1408.0,0.008925349451601505
1536.0,0.008179917000234127
1664.0,0.007397904060781002
1792.0,0.004688425920903683
1920.0,0.004484696313738823
2048.0,0.005623920354992151
2304.0,0.006682159844785929
2560.0,0.0004791470419149846
2816.0,-0.005121887195855379
3072.0,-0.00029761952464468777
3328.0,0.0008344748057425022
3584.0,-0.0022865680512040854
3840.0,-0.0023488865699619055
4096.0,-0.001968567492440343
4608.0,-0.0007718548877164721
5120.0,-0.008794152177870274
5632.0,-0.003308036597445607
6144.0,-0.007250918075442314
6656.0,-0.01578669808804989
7168.0,-0.01426814403384924
7680.0,-0.01333240419626236
8192.0,-0.018896302208304405
end
