version,3.0
numOfCh,1
type,point
parent_name,34a6d_0dot08-0dot01
ch_type,1_1
kcount,1
numberNandB,1
brightnessNandB,1
carpet pos,0
pc,0
Time (ms),CH1 Auto-Correlation
1.0,0.031287290155887604
2.0,0.031025344505906105
3.0,0.030764803290367126
4.0,0.030512215569615364
5.0,0.03026459738612175
6.0,0.03002185747027397
7.0,0.029780050739645958
8.0,0.029541678726673126
9.0,0.029302896931767464
10.0,0.029064835980534554
11.0,0.02883690781891346
12.0,0.02860989235341549
13.0,0.028392642736434937
14.0,0.028182297945022583
15.0,0.027975279837846756
16.0,0.027775289490818977
18.0,0.027371389791369438
20.0,0.026987819001078606
22.0,0.02661091648042202
24.0,0.026242421939969063
26.0,0.025880295783281326
28.0,0.025523198768496513
30.0,0.025172077119350433
32.0,0.024833811447024345
36.0,0.024192942306399345
40.0,0.023593436926603317
44.0,0.02301507629454136
48.0,0.02246953174471855
52.0,0.021964633837342262
56.0,0.021486058831214905
60.0,0.02105734311044216
64.0,0.020708460360765457
72.0,0.019979609176516533
80.0,0.01924985833466053
88.0,0.018515171483159065
96.0,0.017853379249572754
104.0,0.01730404794216156
112.0,0.016928238794207573
120.0,0.01653902977705002
128.0,0.01614491082727909
144.0,0.015461708419024944
160.0,0.014598658308386803
176.0,0.013840695843100548
192.0,0.013182134367525578
208.0,0.012466032058000565
224.0,0.011517434380948544
240.0,0.01058252900838852
256.0,0.009686811827123165
288.0,0.008656580001115799
320.0,0.008182224817574024
352.0,0.007785123772919178
384.0,0.007160885259509087
416.0,0.006195773370563984
448.0,0.005514212884008884
480.0,0.004981101956218481
512.0,0.004336172714829445
576.0,0.0046392097137868404
640.0,0.005359365604817867
704.0,0.005534531082957983
768.0,0.005800454877316952
832.0,0.005584321916103363
896.0,0.006178701296448708
960.0,0.006383594125509262
1024.0,0.00613841786980629
1152.0,0.005159715656191111
1280.0,0.003990185912698507
1408.0,0.001066804165020585
1536.0,0.00012635848543141037
1664.0,0.001066184020601213
1792.0,0.002122502075508237
1920.0,0.001541848643682897
2048.0,0.0011155426036566496
2304.0,0.000668483495246619
2560.0,-0.0020371570717543364
2816.0,-0.0020381691865622997
3072.0,-0.0021831064950674772
3328.0,-0.0015320065431296825
3584.0,-0.000571981945540756
3840.0,-0.0017449110746383667
4096.0,-0.003292359644547105
4608.0,-0.007299369666725397
5120.0,-0.010311285965144634
5632.0,-0.009224927984178066
6144.0,-0.003963723313063383
6656.0,-0.002917333273217082
7168.0,0.003428303636610508
7680.0,0.005923341494053602
8192.0,0.005793551914393902
end
