version,3.0
numOfCh,1
type,point
parent_name,34a6d_0dot08-0dot01
ch_type,1_1
kcount,1
numberNandB,1
brightnessNandB,1
carpet pos,0
pc,0
Time (ms),CH1 Auto-Correlation
1.0,0.02806135080754757
2.0,0.02777107246220112
3.0,0.027489475905895233
4.0,0.027216307818889618
5.0,0.026941398158669472
6.0,0.026668788865208626
7.0,0.026403797790408134
8.0,0.026145681738853455
9.0,0.025897307321429253
10.0,0.025659862905740738
11.0,0.025409217923879623
12.0,0.025165952742099762
13.0,0.024915523827075958
14.0,0.0246681310236454
15.0,0.02442644163966179
16.0,0.024192018434405327
18.0,0.023740176111459732
20.0,0.023303598165512085
22.0,0.022869916632771492
24.0,0.0224582739174366
26.0,0.022059595212340355
28.0,0.02166847139596939
30.0,0.021287880837917328
32.0,0.020912954583764076
36.0,0.02021561563014984
40.0,0.019549399614334106
44.0,0.0188953448086977
48.0,0.018340764567255974
52.0,0.01784616895020008
56.0,0.017354344949126244
60.0,0.016843419522047043
64.0,0.016346340999007225
72.0,0.015421598218381405
80.0,0.014463824220001698
88.0,0.013484411872923374
96.0,0.01252665650099516
104.0,0.011739290319383144
112.0,0.011081008240580559
120.0,0.0104522118344903
128.0,0.009792966768145561
144.0,0.008363697677850723
160.0,0.007134017068892717
176.0,0.0061710793524980545
192.0,0.005467191804200411
208.0,0.004709722939878702
224.0,0.0041411868296563625
240.0,0.003636150388047099
256.0,0.003428491996601224
288.0,0.0027075838297605515
320.0,0.0020980925764888525
352.0,0.0016889034304767847
384.0,0.002423352561891079
416.0,0.0032546843867748976
448.0,0.00370826106518507
480.0,0.0036179597955197096
512.0,0.003913245629519224
576.0,0.002502705669030547
640.0,0.00014754731091670692
704.0,-0.0012443530140444636
768.0,-0.0005427238065749407
832.0,0.0007023964426480234
896.0,0.00011646393249975517
960.0,-0.0007870862609706819
1024.0,-0.0009647046681493521
1152.0,-0.0007469533011317253
1280.0,0.001430586213245988
1408.0,0.0024238647893071175
1536.0,0.0013974879402667284
1664.0,0.001985541544854641
1792.0,0.0037646074779331684
1920.0,0.0033056330867111683
2048.0,0.003180052386596799
2304.0,0.0014139148406684399
2560.0,-0.0032338143792003393
2816.0,-0.0015672312583774328
3072.0,-0.005931776016950607
3328.0,-0.007240953389555216
3584.0,-0.0025761625729501247
3840.0,-0.00036481049028225243
4096.0,-0.0018982270266860723
4608.0,-0.0022480494808405638
5120.0,-0.007482944987714291
5632.0,-0.0027430374175310135
6144.0,0.0023414376191794872
6656.0,0.0031357398256659508
7168.0,-0.002206859178841114
7680.0,0.002403663471341133
8192.0,0.007325620856136084
end
