version,3.0
numOfCh,1
type,point
parent_name,34a6d_0dot08-0dot01
ch_type,1_1
kcount,1
numberNandB,1
brightnessNandB,1
carpet pos,0
pc,0
Time (ms),CH1 Auto-Correlation
1.0,0.03588647022843361
2.0,0.03562774136662483
3.0,0.03536706045269966
4.0,0.03511140123009682
5.0,0.03485986962914467
6.0,0.034607935696840286
7.0,0.034362275153398514
8.0,0.03410894051194191
9.0,0.03386129438877106
10.0,0.033612776547670364
11.0,0.03336137905716896
12.0,0.03311992064118385
13.0,0.03287852555513382
14.0,0.03264663368463516
15.0,0.032417088747024536
16.0,0.03220218047499657
18.0,0.03176604211330414
20.0,0.03133925795555115
22.0,0.03093310073018074
24.0,0.030520273372530937
26.0,0.030093956738710403
28.0,0.02967219054698944
30.0,0.02926383540034294
32.0,0.028877438977360725
36.0,0.02809211239218712
40.0,0.02732236497104168
44.0,0.026576004922389984
48.0,0.025849536061286926
52.0,0.02514810301363468
56.0,0.02447262406349182
60.0,0.023824607953429222
64.0,0.02320926822721958
72.0,0.021978478878736496
80.0,0.020813897252082825
88.0,0.0196406040340662
96.0,0.01848858781158924
104.0,0.017356958240270615
112.0,0.016207316890358925
120.0,0.015178765170276165
128.0,0.014318330213427544
144.0,0.012926860712468624
160.0,0.011832027696073055
176.0,0.010883274488151073
192.0,0.009891774505376816
208.0,0.009370958432555199
224.0,0.009306828491389751
240.0,0.009515542536973953
256.0,0.00974237360060215
288.0,0.010155390948057175
320.0,0.010556228458881378
352.0,0.010529197752475739
384.0,0.01031037513166666
416.0,0.009521739557385445
448.0,0.008096878416836262
480.0,0.0072476863861083984
512.0,0.006583237089216709
576.0,0.004702972248196602
640.0,0.00456203380599618
704.0,0.0041250986978411674
768.0,0.0028386572375893593
832.0,0.0011370079591870308
896.0,2.057266465271823e-05
960.0,0.0013087920378893614
1024.0,0.0037601818330585957
1152.0,0.0036936153192073107
1280.0,-8.364854147657752e-05
1408.0,-0.0011876350035890937
1536.0,-2.4901944925659336e-05
1664.0,-0.0017540224362164736
1792.0,-0.0006280080997385085
1920.0,0.0031776076648384333
2048.0,0.0040717534720897675
2304.0,0.0013871433911845088
2560.0,-0.0025188433937728405
2816.0,-0.00466066924855113
3072.0,-0.00498658511787653
3328.0,-0.004740497563034296
3584.0,-0.00854508951306343
3840.0,-0.0068828570656478405
4096.0,-0.0051943594589829445
4608.0,-0.008367523550987244
5120.0,-0.0055656833574175835
5632.0,-0.0024806540459394455
6144.0,-0.0025795127730816603
6656.0,-0.0019377731950953603
7168.0,0.0039039088878780603
7680.0,0.006809245329350233
8192.0,0.008448437787592411
9216.0,0.0034092788118869066
10240.0,0.0022636756766587496
11264.0,-0.0042839511297643185
12288.0,-0.003847533604130149
13312.0,0.0013700769050046802
14336.0,-0.003101169364526868
end
