version,3.0
numOfCh,1
type,point
parent_name,34a6d_0dot08-0dot01
ch_type,1_1
kcount,1
numberNandB,1
brightnessNandB,1
carpet pos,0
pc,0
Time (ms),CH1 Auto-Correlation
1.0,0.04172920063138008
2.0,0.04140622168779373
3.0,0.041076913475990295
4.0,0.040755853056907654
5.0,0.04044260457158089
6.0,0.0401490218937397
7.0,0.0398549810051918
8.0,0.03957550972700119
9.0,0.03930149972438812
10.0,0.03903976082801819
11.0,0.03877668082714081
12.0,0.03851570561528206
13.0,0.03825634717941284
14.0,0.03800727427005768
15.0,0.037755075842142105
16.0,0.03750143200159073
18.0,0.037005193531513214
20.0,0.03654367849230766
22.0,0.03610433265566826
24.0,0.03570147231221199
26.0,0.035354435443878174
28.0,0.03502180427312851
30.0,0.03468761965632439
32.0,0.034383878111839294
36.0,0.033880457282066345
40.0,0.03339438885450363
44.0,0.032855696976184845
48.0,0.03232889249920845
52.0,0.031862031668424606
56.0,0.031485963612794876
60.0,0.031115541234612465
64.0,0.030693378299474716
72.0,0.02983905002474785
80.0,0.029047992080450058
88.0,0.028194284066557884
96.0,0.0273676086217165
104.0,0.02668115496635437
112.0,0.02593892067670822
120.0,0.02513229288160801
128.0,0.02427961491048336
144.0,0.02305762469768524
160.0,0.022398894652724266
176.0,0.021810494363307953
192.0,0.021006988361477852
208.0,0.01999138854444027
224.0,0.01931566186249256
240.0,0.018682343885302544
256.0,0.01826803758740425
288.0,0.016455648466944695
320.0,0.015187242068350315
352.0,0.014240468852221966
384.0,0.012482897378504276
416.0,0.011047792620956898
448.0,0.010273010469973087
480.0,0.009899178519845009
512.0,0.010111991316080093
576.0,0.0109872967004776
640.0,0.011190815828740597
704.0,0.012073569931089878
768.0,0.012667064554989338
832.0,0.011907336302101612
896.0,0.011009222827851772
960.0,0.009905741550028324
1024.0,0.009556163102388382
1152.0,0.010104142129421234
1280.0,0.010768448933959007
1408.0,0.009461983107030392
1536.0,0.005695671774446964
1664.0,0.0021554199047386646
1792.0,-0.0002605757035780698
1920.0,0.0011330440174788237
2048.0,0.0021547882352024317
2304.0,-0.00012182189675513655
2560.0,-0.003828673856332898
2816.0,-0.01152279693633318
3072.0,-0.014594024047255516
3328.0,-0.014305981807410717
3584.0,-0.01714414730668068
3840.0,-0.013870639726519585
4096.0,-0.01469750702381134
4608.0,-0.00993901677429676
5120.0,-0.009578793309628963
5632.0,-0.0063882917165756226
6144.0,-0.0026139526162296534
6656.0,-0.00510729243978858
7168.0,0.013350196182727814
7680.0,0.003699919208884239
8192.0,0.0015416707610711455
end
