version,3.0
numOfCh,1
type,point
parent_name,34a6d_0dot08-0dot01
ch_type,1_1
kcount,1
numberNandB,1
brightnessNandB,1
carpet pos,0
pc,0
Time (ms),CH1 Auto-Correlation
1.0,0.044033173471689224
2.0,0.043768689036369324
3.0,0.0435110479593277
4.0,0.04325784370303154
5.0,0.04301413148641586
6.0,0.04276975244283676
7.0,0.04252297058701515
8.0,0.04227340593934059
9.0,0.0420239083468914
10.0,0.041780032217502594
11.0,0.041534505784511566
12.0,0.04129411280155182
13.0,0.041064515709877014
14.0,0.040841687470674515
15.0,0.04061925411224365
16.0,0.04039100557565689
18.0,0.03994452580809593
20.0,0.03948240727186203
22.0,0.039018500596284866
24.0,0.038556136190891266
26.0,0.0380985401570797
28.0,0.03763885796070099
30.0,0.03719678893685341
32.0,0.0367722325026989
36.0,0.03593388572335243
40.0,0.03512955829501152
44.0,0.03439350053668022
48.0,0.033682093024253845
52.0,0.032981012016534805
56.0,0.032292190939188004
60.0,0.03164149448275566
64.0,0.03102424368262291
72.0,0.02979566715657711
80.0,0.028588397428393364
88.0,0.027362525463104248
96.0,0.026237700134515762
104.0,0.025201033800840378
112.0,0.024198487401008606
120.0,0.02333180233836174
128.0,0.022621389478445053
144.0,0.021412840113043785
160.0,0.020158573985099792
176.0,0.018891774117946625
192.0,0.017767207697033882
208.0,0.016801856458187103
224.0,0.015865715220570564
240.0,0.01486773882061243
256.0,0.013834490440785885
288.0,0.011801070533692837
320.0,0.010250048711895943
352.0,0.009234635159373283
384.0,0.00859951414167881
416.0,0.0083668427541852
448.0,0.008561689406633377
480.0,0.009287507273256779
512.0,0.010166678577661514
576.0,0.009778084233403206
640.0,0.009715485386550426
704.0,0.010145901702344418
768.0,0.009812676347792149
832.0,0.008220668882131577
896.0,0.008145776577293873
960.0,0.008127877488732338
1024.0,0.007376599125564098
1152.0,0.007625635247677565
1280.0,0.006000000052154064
1408.0,0.0025102170184254646
1536.0,0.0005669573438353837
1664.0,-0.0036406703293323517
1792.0,-0.004250728990882635
1920.0,-0.003136614104732871
2048.0,-0.0011160018621012568
2304.0,-0.0013811312383040786
2560.0,-0.006650319788604975
2816.0,-0.0019367345375940204
3072.0,0.0020006000995635986
3328.0,-0.0019042055355384946
3584.0,-0.001636926201172173
3840.0,-0.004423772916197777
4096.0,-0.0009391384664922953
4608.0,-0.008268271572887897
5120.0,-0.009673374705016613
5632.0,-0.01271760743111372
6144.0,-0.011888517998158932
6656.0,-0.0024255348835140467
7168.0,-0.0031089973635971546
7680.0,-0.0034404259640723467
8192.0,-0.004459927789866924
end
