version,3.0
numOfCh,1
type,point
parent_name,800-cuts
ch_type,1_1
kcount,1
numberNandB,1
brightnessNandB,1
carpet pos,0
pc,0
Time (ms),CH1 Auto-Correlation
1.0,0.015547456219792366
2.0,0.012161235325038433
3.0,0.009717511013150215
4.0,0.007890948094427586
5.0,0.006669027265161276
6.0,0.005665653385221958
7.0,0.004838432651013136
8.0,0.004165041726082563
9.0,0.0035569979809224606
10.0,0.0030658987816423178
11.0,0.002565001603215933
12.0,0.002230546437203884
13.0,0.001999353291466832
14.0,0.0017016123747453094
15.0,0.0013934969902038574
16.0,0.0012737734941765666
18.0,0.0009436967666260898
20.0,0.0005575618124566972
22.0,0.0004205626610200852
24.0,0.0003505346248857677
26.0,0.0002072877250611782
28.0,0.00010659490362741053
30.0,0.00019296981918159872
32.0,0.00024979969020932913
36.0,0.0001298419083468616
40.0,0.00015852951037231833
44.0,-9.871293150354177e-05
48.0,-0.000437359296483919
52.0,-0.0005114678060635924
56.0,-0.0004737040726467967
60.0,-0.0005893099005334079
64.0,-0.0004967352724634111
72.0,0.00015602685743942857
80.0,9.152997517958283e-05
88.0,0.0001271022774744779
96.0,0.00015593049465678632
104.0,0.00011454919149400666
112.0,0.0003136819286737591
120.0,0.00024356266658287495
128.0,4.076474215253256e-05
144.0,-0.0004386152431834489
160.0,-0.00040439845179207623
176.0,-0.00036027684109285474
192.0,0.0001239640696439892
208.0,-0.00011194805847480893
224.0,0.00031837099231779575
240.0,0.0001207976383739151
256.0,-4.948915375280194e-05
288.0,0.00015779359091538936
320.0,0.00022454161080531776
352.0,6.493314140243456e-05
384.0,-5.927157690166496e-05
416.0,0.0002912438358180225
448.0,-3.156784441671334e-05
480.0,0.0002801708469633013
512.0,0.00016802748723421246
576.0,-9.845155000220984e-05
640.0,-0.00023783231154084206
704.0,3.133780774078332e-05
768.0,-0.00016717503604013473
832.0,-0.00012501413584686816
896.0,-0.00023126006999518722
960.0,0.00028282066341489553
1024.0,-0.00029686049674637616
1152.0,0.00016310017963405699
1280.0,0.00016142218373715878
1408.0,-9.292322647524998e-05
1536.0,-3.8354039133992046e-05
1664.0,1.3802593457512558e-05
1792.0,-6.642498192377388e-05
1920.0,-7.915146852610633e-05
2048.0,-4.1595449147280306e-05
2304.0,-3.1525934900855646e-05
2560.0,7.885654486017302e-05
2816.0,3.905600169673562e-05
3072.0,-0.00014191806258168072
3328.0,-0.00014033526531420648
3584.0,-4.850694040214876e-06
3840.0,8.725234511075541e-05
4096.0,3.7775647797388956e-05
4608.0,8.977413381217048e-05
5120.0,6.130556812422583e-06
5632.0,-3.4621396480361e-05
6144.0,-0.00011851281306007877
6656.0,-4.63410651718732e-05
7168.0,-0.00010091750300489366
7680.0,0.00011154939420521259
8192.0,0.00012586366210598499
9216.0,1.9058015823247842e-05
10240.0,-4.404105311550666e-06
11264.0,-0.00012835918460041285
12288.0,-3.890843072440475e-05
13312.0,0.000103719939943403
14336.0,-0.00014089260366745293
end
