version,3.0
numOfCh,1
type,point
parent_name,800-cuts
ch_type,1_1
kcount,1
numberNandB,1
brightnessNandB,1
carpet pos,0
pc,0
Time (ms),CH1 Auto-Correlation
1.0,0.014980072155594826
2.0,0.011735673993825912
3.0,0.009552709758281708
4.0,0.007849493063986301
5.0,0.006586004514247179
6.0,0.005650775507092476
7.0,0.004904312547296286
8.0,0.004256049636751413
9.0,0.003702160669490695
10.0,0.003239189740270376
11.0,0.0028102025389671326
12.0,0.002366499276831746
13.0,0.0020090762991458178
14.0,0.0017729649553075433
15.0,0.0015822640853002667
16.0,0.0014665632043033838
18.0,0.0011652886169031262
20.0,0.0008416851633228362
22.0,0.0006127162487246096
24.0,0.00040711951442062855
26.0,0.0003553569840732962
28.0,0.00033055501990020275
30.0,0.00012328478624112904
32.0,0.00010414249118184671
36.0,1.5370289474958554e-05
40.0,1.2810491170966998e-05
44.0,-0.00015065989282447845
48.0,-0.00019582330423872918
52.0,-0.0002661944308783859
56.0,2.6181340217590332e-05
60.0,1.3230906006356236e-05
64.0,-0.0001483802479924634
72.0,-0.00021076852863188833
80.0,-0.000180504095624201
88.0,-2.796679109451361e-05
96.0,0.00025187444407492876
104.0,0.00015030089707579464
112.0,8.99407677934505e-05
120.0,1.9325925677549094e-05
128.0,-1.2930247976328246e-05
144.0,0.00034872625838033855
160.0,0.00032703063334338367
176.0,0.0004811289254575968
192.0,0.00018210764392279088
208.0,-0.0002787452540360391
224.0,-0.00020549680630210787
240.0,-0.00019850934040732682
256.0,4.3300991819705814e-05
288.0,-7.480507338186726e-05
320.0,0.00010103445674758404
352.0,0.00034663843689486384
384.0,0.0001966018753591925
416.0,-7.373788685072213e-05
448.0,-4.220545815769583e-05
480.0,7.00164309819229e-05
512.0,-0.0001459229679312557
576.0,0.00011718877067323774
640.0,-0.00028354767709970474
704.0,0.0003335332730785012
768.0,0.0001073280509444885
832.0,0.00031284644501283765
896.0,-0.00021758097864221781
960.0,-5.781459549325518e-05
1024.0,-0.00015793573402334005
1152.0,0.00017766420205589384
1280.0,-1.471997529733926e-05
1408.0,-5.3078896598890424e-05
1536.0,2.3621658328920603e-05
1664.0,-0.00015342060942202806
1792.0,-8.509919280186296e-05
1920.0,-5.358451380743645e-05
2048.0,-2.7552865503821522e-05
2304.0,-5.415579289547168e-05
2560.0,-0.0001784586493158713
2816.0,-5.830156442243606e-05
3072.0,-0.0001511938462499529
3328.0,2.035181751125492e-05
3584.0,-6.022530214977451e-05
3840.0,0.00019899567996617407
4096.0,6.5075873862952e-05
4608.0,9.162559581454843e-05
5120.0,0.0001416214508935809
5632.0,-5.1663813792401925e-05
6144.0,-4.734234607894905e-05
6656.0,-0.000232779435464181
7168.0,-2.2924674340174533e-05
7680.0,-0.00011467751755844802
8192.0,0.00011325376544846222
9216.0,0.00010486625251360238
10240.0,1.881425123428926e-05
11264.0,-8.12529688118957e-05
12288.0,-0.0001703139569144696
13312.0,5.5705775594105944e-05
14336.0,-0.00012225071259308606
end
