version,3.0
numOfCh,1
type,point
parent_name,800-cuts
ch_type,1_1
kcount,1
numberNandB,1
brightnessNandB,1
carpet pos,0
pc,0
Time (ms),CH1 Auto-Correlation
1.0,0.015046672895550728
2.0,0.011880184523761272
3.0,0.009685066528618336
4.0,0.008013613522052765
5.0,0.006718603894114494
6.0,0.0057189203798770905
7.0,0.004888015333563089
8.0,0.0042303334921598434
9.0,0.003669188590720296
10.0,0.003132059471681714
11.0,0.002684739651158452
12.0,0.0022438419982790947
13.0,0.002020498039200902
14.0,0.0017999885603785515
15.0,0.0015454853419214487
16.0,0.0014033704064786434
18.0,0.0008719118777662516
20.0,0.0006135876174084842
22.0,0.0006449446664191782
24.0,0.0006033729878254235
26.0,0.000578007020521909
28.0,0.0004992648027837276
30.0,0.00038395507726818323
32.0,0.0002400552766630426
36.0,4.814999192603864e-05
40.0,-0.00010019836918218061
44.0,-0.00010577958892099559
48.0,-0.0002780864015221596
52.0,-0.0001069357676897198
56.0,-0.00011926903971470892
60.0,-0.00016877840971574187
64.0,-0.00027656281599774957
72.0,-0.0004520134534686804
80.0,-0.00040294433711096644
88.0,0.0003939423768315464
96.0,0.00031135580502450466
104.0,0.0004621668194886297
112.0,0.0004550036392174661
120.0,0.00022431538673117757
128.0,-3.6096651456318796e-05
144.0,-0.00012438473640941083
160.0,9.686549310572445e-05
176.0,0.00042287586256861687
192.0,1.7042282706825063e-05
208.0,0.0002519027329981327
224.0,0.00028713379288092256
240.0,-0.0005166624905541539
256.0,-0.0007821046165190637
288.0,-0.00038957054493948817
320.0,1.1573104529816192e-05
352.0,8.124540909193456e-05
384.0,-0.0002415367926005274
416.0,-0.0002892031043302268
448.0,-6.908336217748001e-05
480.0,-0.00010687145550036803
512.0,-0.0002939451369456947
576.0,1.614515349501744e-05
640.0,0.0001340432500001043
704.0,-0.0002709223481360823
768.0,0.0004298044368624687
832.0,-0.0003404592862352729
896.0,-9.144141949946061e-05
960.0,-0.0002912630152422935
1024.0,-2.798577224893961e-05
1152.0,0.00015073186659719795
1280.0,-7.448631095030578e-06
1408.0,-1.4335354535432998e-05
1536.0,8.814244210952893e-05
1664.0,-0.00033036756212823093
1792.0,0.00010887924145208672
1920.0,0.0001884925295598805
2048.0,0.00011624723993008956
2304.0,-1.0248574653815012e-05
2560.0,1.2475122275645845e-05
2816.0,-6.144183134892955e-05
3072.0,4.720091055787634e-06
3328.0,-0.00015713665925431997
3584.0,-6.083179323468357e-05
3840.0,7.725505565758795e-05
4096.0,6.587401730939746e-05
4608.0,-0.0001118205618695356
5120.0,-2.9034445105935447e-05
5632.0,8.866599819157273e-05
6144.0,-2.4034037778619677e-05
6656.0,9.273316391045228e-05
7168.0,-5.8548397646518424e-05
7680.0,-5.451323158922605e-05
8192.0,0.0001628521567909047
9216.0,5.500814495462691e-06
10240.0,-4.106424967176281e-05
11264.0,-4.150009044678882e-05
12288.0,-2.062445128103718e-05
13312.0,-1.3208179552748334e-05
14336.0,3.6421681670617545e-07
end
