version,3.0
numOfCh,1
type,point
parent_name,800-cuts
ch_type,1_1
kcount,1
numberNandB,1
brightnessNandB,1
carpet pos,0
pc,0
Time (ms),CH1 Auto-Correlation
1.0,0.015658408403396606
2.0,0.012319833971560001
3.0,0.009880815632641315
4.0,0.008101399056613445
5.0,0.00692827720195055
6.0,0.005948352627456188
7.0,0.005063576623797417
8.0,0.004365531727671623
9.0,0.0038478549104183912
10.0,0.00343089597299695
11.0,0.002943593543022871
12.0,0.002562758047133684
13.0,0.002120478078722954
14.0,0.0018814512295648456
15.0,0.0016932577127590775
16.0,0.0013953890884295106
18.0,0.0010694091906771064
20.0,0.0007696242537349463
22.0,0.0006341102416627109
24.0,0.0005635970737785101
26.0,0.0005087096360512078
28.0,0.0005305758095346391
30.0,0.0005182235036045313
32.0,0.0003698243817780167
36.0,0.0002773726300802082
40.0,2.8093829314457253e-05
44.0,8.586282638134435e-05
48.0,0.00040432167588733137
52.0,0.0003026160120498389
56.0,0.00017366006795782596
60.0,0.00021967518841847777
64.0,2.411844616290182e-05
72.0,8.408439316553995e-05
80.0,0.0004220679693389684
88.0,0.0004707314074039459
96.0,0.0005391284939832985
104.0,0.0006478552240878344
112.0,0.000427330523962155
120.0,9.76362862274982e-05
128.0,0.0002443482808303088
144.0,0.0004355811106506735
160.0,0.0004048367263749242
176.0,0.0003442377783358097
192.0,-2.4100956579786725e-05
208.0,-0.00012198826880194247
224.0,7.24178462405689e-05
240.0,0.0003804554289672524
256.0,-8.48692943691276e-05
288.0,-0.0006189706618897617
320.0,-0.00016086525283753872
352.0,-0.0004899062914773822
384.0,-3.3226559025933966e-05
416.0,0.0004916838952340186
448.0,-0.0004265451862011105
480.0,-0.0003224887477699667
512.0,-0.00029627582989633083
576.0,-0.0001815838331822306
640.0,0.0001194970027427189
704.0,-0.00011501073458930477
768.0,3.49189322150778e-05
832.0,0.0001408746320521459
896.0,0.0003300169773865491
960.0,0.0004957232740707695
1024.0,0.0002898360835388303
1152.0,5.8678015193436295e-05
1280.0,-2.4220375053118914e-05
1408.0,-3.737573206308298e-05
1536.0,-0.00016508808766957372
1664.0,-0.0002291451091878116
1792.0,0.00025942057254724205
1920.0,9.111208055401221e-05
2048.0,3.472490425338037e-05
2304.0,-8.178730786312371e-05
2560.0,-5.819043144583702e-05
2816.0,0.0001242557045770809
3072.0,-1.8408560208627023e-05
3328.0,-0.0003092550323344767
3584.0,0.0001942027738550678
3840.0,0.0001829539251048118
4096.0,-0.00011172957601957023
4608.0,-1.3577652680396568e-05
5120.0,-5.771998985437676e-05
5632.0,-9.687973943073303e-05
6144.0,-5.01763861393556e-05
6656.0,-8.565989992348477e-05
7168.0,-1.0945766916847788e-05
7680.0,-2.4174098143703304e-05
8192.0,-0.00023986940504983068
9216.0,-2.3762408090988174e-05
10240.0,8.456235082121566e-05
11264.0,2.6048743166029453e-05
12288.0,-4.701714715338312e-05
13312.0,-2.925937224063091e-05
14336.0,0.00018120137974619865
end
