version,3.0
numOfCh,1
type,point
parent_name,800-cuts
ch_type,1_1
kcount,1
numberNandB,1
brightnessNandB,1
carpet pos,0
pc,0
Time (ms),CH1 Auto-Correlation
1.0,0.01558426022529602
2.0,0.012094459496438503
3.0,0.009704340249300003
4.0,0.00792605895549059
5.0,0.0065813614055514336
6.0,0.0056000263430178165
7.0,0.004796755500137806
8.0,0.004143862519413233
9.0,0.003555509028956294
10.0,0.0032395427115261555
11.0,0.0028341941069811583
12.0,0.002470874460414052
13.0,0.002131865592673421
14.0,0.0018656007014214993
15.0,0.0017524667782709002
16.0,0.001727430266328156
18.0,0.001356231514364481
20.0,0.0008888746378943324
22.0,0.0006272249156609178
24.0,0.0003211072471458465
26.0,0.0002466180012561381
28.0,3.1096577004063874e-05
30.0,-7.809219096088782e-05
32.0,-8.930971671361476e-05
36.0,-2.590732037788257e-05
40.0,-1.6509533452335745e-05
44.0,-0.00017785571981221437
48.0,-6.528718949994072e-05
52.0,0.00024210530682466924
56.0,0.0003775351506192237
60.0,0.00018367392476648092
64.0,-0.00027897130348719656
72.0,-4.049162453156896e-05
80.0,-0.00010617965745041147
88.0,-0.0001678903354331851
96.0,-6.499011942651123e-05
104.0,0.00020801433129236102
112.0,6.179641786729917e-05
120.0,9.497284918325022e-05
128.0,-0.0002803351962938905
144.0,-0.00033904987503774464
160.0,-0.0005348859704099596
176.0,3.347136589582078e-05
192.0,-0.0001281650911550969
208.0,-0.00032890684087760746
224.0,8.598830027040094e-05
240.0,-0.00034339018748141825
256.0,-0.00011567587353056297
288.0,3.5583521821536124e-05
320.0,-0.00016484693333040923
352.0,-0.0003399248525965959
384.0,-0.00037894019624218345
416.0,-0.0002079872356262058
448.0,0.00026623925077728927
480.0,0.00013371910608839244
512.0,-2.17049710045103e-05
576.0,-1.000404154183343e-05
640.0,-2.1284413378452882e-05
704.0,-5.8915888075716794e-05
768.0,0.0001315202098339796
832.0,-0.00014890922466292977
896.0,-0.0002125546452589333
960.0,0.00019502437498886138
1024.0,0.0005983223090879619
1152.0,-0.00011345076200086623
1280.0,-2.0428844436537474e-05
1408.0,9.532341209705919e-05
1536.0,0.00011227670620428398
1664.0,-4.797158180736005e-05
1792.0,2.560104985604994e-05
1920.0,-0.00031277452944777906
2048.0,0.00011059013922931626
2304.0,1.134521335188765e-05
2560.0,3.7641613744199276e-05
2816.0,-0.00010022206697613001
3072.0,-5.7969355111708865e-05
3328.0,-6.254258187254891e-05
3584.0,0.00010640008258633316
3840.0,0.00010107709385920316
4096.0,-1.1508525858516805e-05
4608.0,-4.465606980375014e-05
5120.0,-1.4623561582993716e-05
5632.0,-1.4251872016757261e-05
6144.0,-8.56230326462537e-06
6656.0,1.9292860088171437e-05
7168.0,3.898343493347056e-06
7680.0,-3.0217126550269313e-05
8192.0,5.072127532912418e-05
9216.0,-9.566525477566756e-06
10240.0,-0.00014378059131558985
11264.0,-3.3672833524178714e-05
12288.0,8.534450171282515e-05
13312.0,-3.716378705576062e-05
14336.0,-2.5714263756526634e-05
end
