version,3.0
numOfCh,1
type,point
parent_name,800-cuts
ch_type,1_1
kcount,1
numberNandB,1
brightnessNandB,1
carpet pos,0
pc,0
Time (ms),CH1 Auto-Correlation
1.0,0.025262651965022087
2.0,0.01947607658803463
3.0,0.0154259679839015
4.0,0.012599033303558826
5.0,0.010454487055540085
6.0,0.008744217455387115
7.0,0.0075998567044734955
8.0,0.00668915593996644
9.0,0.0058713797479867935
10.0,0.005038835108280182
11.0,0.004496526438742876
12.0,0.0038824742659926414
13.0,0.0033643855713307858
14.0,0.0029691073577851057
15.0,0.0026484006084501743
16.0,0.002318867016583681
18.0,0.0018911027582362294
20.0,0.0014902305556461215
22.0,0.0016167721478268504
24.0,0.0017658687429502606
26.0,0.0017261197790503502
28.0,0.0014780211495235562
30.0,0.0013835420832037926
32.0,0.0008737463504076004
36.0,0.0007209921604953706
40.0,0.0004813825071323663
44.0,0.00048352318117395043
48.0,0.0004011557612102479
52.0,0.0001120597735280171
56.0,0.00021203169308137149
60.0,-6.0227081121411175e-05
64.0,-5.5545482609886676e-05
72.0,-0.0004961034865118563
80.0,-0.00045802423846907914
88.0,-0.00016069661069195718
96.0,-0.0007211394258774817
104.0,-0.0008235459099523723
112.0,-0.0008478843374177814
120.0,-0.0008465601713396609
128.0,-0.0009690249571576715
144.0,-0.00012242757657077163
160.0,-0.00017088302411139011
176.0,0.00027931155636906624
192.0,0.0008876720676198602
208.0,0.0004257838591001928
224.0,0.0006395934033207595
240.0,0.0004680865094996989
256.0,-7.314266258617863e-05
288.0,-0.0003475657431408763
320.0,-0.00023386099201161414
352.0,-8.70594012667425e-05
384.0,0.00033343356335535645
416.0,-0.0004484408418647945
448.0,-0.0003281627141404897
480.0,0.00028025664505548775
512.0,9.92349669104442e-05
576.0,-6.221224612090737e-05
640.0,2.6411036742501892e-05
704.0,-0.0004097219789400697
768.0,0.00014471962640527636
832.0,0.0009096218855120242
896.0,-0.0003645481774583459
960.0,-4.857518433709629e-05
1024.0,0.00081767572555691
1152.0,-0.00014870395534671843
1280.0,6.486166967079043e-05
1408.0,-2.989061249536462e-05
1536.0,0.00028411822859197855
1664.0,-8.018349763005972e-05
1792.0,-9.418821719009429e-05
1920.0,-0.00020478888473007828
2048.0,-6.38911806163378e-05
2304.0,0.00016053233412094414
2560.0,0.00022399089357350022
2816.0,-7.544511754531413e-05
3072.0,-0.0001114588521886617
3328.0,-3.9186954381875694e-05
3584.0,9.097371366806328e-05
3840.0,-0.0002611851959954947
4096.0,-0.00029419103520922363
4608.0,0.0001079383582691662
5120.0,-0.00017932151968125254
5632.0,-1.1140523383801337e-05
6144.0,2.5200613890774548e-05
6656.0,-0.00023209098435472697
7168.0,-8.389179856749251e-05
7680.0,-0.0002390102163190022
8192.0,0.0002766306570265442
9216.0,-0.00014147274487186223
10240.0,-0.00011239691230002791
11264.0,0.000115001923404634
12288.0,4.6487159124808386e-05
13312.0,0.00011906348663615063
14336.0,0.00011412046296754852
end
