version,3.0
numOfCh,1
type,point
parent_name,800-cuts
ch_type,1_1
kcount,1
numberNandB,1
brightnessNandB,1
carpet pos,0
pc,0
Time (ms),CH1 Auto-Correlation
1.0,0.026067206636071205
2.0,0.020379960536956787
3.0,0.016257552430033684
4.0,0.013284529559314251
5.0,0.010920459404587746
6.0,0.009094578213989735
7.0,0.007640946190804243
8.0,0.006432403810322285
9.0,0.005425973329693079
10.0,0.004661174491047859
11.0,0.004008402116596699
12.0,0.0035239632707089186
13.0,0.0029143306892365217
14.0,0.002478600712493062
15.0,0.0020723368506878614
16.0,0.001986188581213355
18.0,0.0014318351168185472
20.0,0.0011458598310127854
22.0,0.0007479520863853395
24.0,0.00013723716256208718
26.0,-6.417089753085747e-05
28.0,-0.00026524500572122633
30.0,-0.00019002168846782297
32.0,0.00030268283444456756
36.0,0.0005565073806792498
40.0,0.0004572237376123667
44.0,0.0003521718317642808
48.0,0.0002864234847947955
52.0,-2.7871525162481703e-05
56.0,-0.00036445341538637877
60.0,-0.00045531021896749735
64.0,0.00013681137352250516
72.0,-0.00014750850095879287
80.0,-0.00032340045436285436
88.0,-0.00021847395692020655
96.0,3.8754365959903225e-05
104.0,-0.00010529899009270594
112.0,-0.00020631481311284006
120.0,-0.000401942030293867
128.0,-0.0006673175375908613
144.0,-3.5084860428469256e-05
160.0,-0.0009606274543330073
176.0,-0.0003460173320490867
192.0,1.4007484423927963e-05
208.0,0.0005840297089889646
224.0,0.0008500628755427897
240.0,0.00018829888722393662
256.0,0.0006018634303472936
288.0,0.00017723134078551084
320.0,0.00010205730359302834
352.0,0.00020491164468694478
384.0,-0.0003691398014780134
416.0,-0.00026508799055591226
448.0,0.00012354629870969802
480.0,0.00022339110728353262
512.0,0.0006643827073276043
576.0,-0.0001244809100171551
640.0,-0.0005704704090021551
704.0,7.49520113458857e-05
768.0,7.511292642448097e-05
832.0,-0.0003304751589894295
896.0,-0.0003239080833736807
960.0,0.0001251952489838004
1024.0,0.00023838736524339765
1152.0,9.536699508316815e-05
1280.0,-0.00022763134620618075
1408.0,0.00029353160061873496
1536.0,-2.296979073435068e-05
1664.0,-6.562976341228932e-05
1792.0,0.00011891694884980097
1920.0,-3.755899342650082e-06
2048.0,0.0002470944309607148
2304.0,-0.00026692813844420016
2560.0,-0.0001681676512816921
2816.0,-0.00020409483113326132
3072.0,-0.0001357792061753571
3328.0,-0.00028266318258829415
3584.0,5.059631075710058e-05
3840.0,8.755034286878072e-06
4096.0,-5.85757261433173e-05
4608.0,4.30067848355975e-05
5120.0,3.442360321059823e-05
5632.0,0.00016022454656194896
6144.0,0.00014195946278050542
6656.0,-0.00011953766079386696
7168.0,-8.669327144161798e-06
7680.0,6.936644786037505e-05
8192.0,-5.240664177108556e-05
9216.0,-2.6486020942684263e-05
10240.0,-0.00010269130871165544
11264.0,-8.351229917025194e-05
12288.0,0.0002627311332616955
13312.0,0.00013163064431864768
14336.0,-0.00017184542957693338
end
