version,3.0
numOfCh,1
type,point
parent_name,800-cuts
ch_type,1_1
kcount,1
numberNandB,1
brightnessNandB,1
carpet pos,0
pc,0
Time (ms),CH1 Auto-Correlation
1.0,0.015336661599576473
2.0,0.011835058219730854
3.0,0.009473484009504318
4.0,0.007818993180990219
5.0,0.006488323211669922
6.0,0.005480094347149134
7.0,0.0046741110272705555
8.0,0.004015328828245401
9.0,0.0034953823778778315
10.0,0.003117604414001107
11.0,0.003004936734214425
12.0,0.0027094718534499407
13.0,0.002414498943835497
14.0,0.002175993751734495
15.0,0.0019638773519545794
16.0,0.0017355004092678428
18.0,0.0013497773325070739
20.0,0.000997173716314137
22.0,0.0008899561362341046
24.0,0.0006872704834677279
26.0,0.0005791780422441661
28.0,0.0003548288077581674
30.0,0.00022445188369601965
32.0,0.0001469455601181835
36.0,0.0002383530227234587
40.0,-1.3097987903165631e-05
44.0,-1.7316649973508902e-05
48.0,-0.00023956282529979944
52.0,-0.000384361861506477
56.0,-0.00048628426156938076
60.0,-0.00046109422692097723
64.0,-0.000620363571215421
72.0,-0.000600942992605269
80.0,-0.0002897715603467077
88.0,-0.0004185250145383179
96.0,5.4232477850746363e-05
104.0,-2.2237612938624807e-05
112.0,0.00012210894783493131
120.0,0.00011391119187464938
128.0,0.00038783205673098564
144.0,0.00046506960643455386
160.0,-0.00010670537449186668
176.0,-4.821808397537097e-05
192.0,-0.0003482002066448331
208.0,-0.0003756775986403227
224.0,-0.0003244035178795457
240.0,0.00012211795547045767
256.0,0.0003069208760280162
288.0,0.00020655860134866089
320.0,-1.397839605488116e-05
352.0,0.0003773312200792134
384.0,1.4276041838456877e-05
416.0,0.00024299249344039708
448.0,-0.0001590124302310869
480.0,4.16960428992752e-05
512.0,-0.0001622532872715965
576.0,-6.843156006652862e-05
640.0,-0.00018272957822773606
704.0,-0.0003786868473980576
768.0,9.065662015927956e-05
832.0,-7.187334176705917e-06
896.0,-0.00041660049464553595
960.0,0.00015197643369901925
1024.0,4.709053973783739e-05
1152.0,2.0106937881791964e-05
1280.0,3.6146488127997145e-05
1408.0,-3.9231210394063964e-05
1536.0,-6.213703454704955e-05
1664.0,-0.00014636402192991227
1792.0,-0.00016609054000582546
1920.0,-1.349460580968298e-05
2048.0,-4.8360598157159984e-05
2304.0,-3.138251122436486e-05
2560.0,-2.279597902088426e-05
2816.0,-0.00011514529614942148
3072.0,0.0001220756967086345
3328.0,0.00011706266377586871
3584.0,1.760005579853896e-05
3840.0,-4.228356556268409e-05
4096.0,-8.207909559132531e-05
4608.0,-5.112145117891487e-06
5120.0,-6.429422501241788e-05
5632.0,-2.846845382009633e-05
6144.0,0.0001313363027293235
6656.0,-3.8983318518148735e-05
7168.0,5.131054422236048e-05
7680.0,3.659905632957816e-05
8192.0,-0.0001776712597347796
9216.0,-3.139050750178285e-05
10240.0,-2.52339341386687e-05
11264.0,-4.402761624078266e-05
12288.0,7.097802154021338e-05
13312.0,-1.2135467841289937e-05
14336.0,4.547286152956076e-05
end
