version,3.0
numOfCh,1
type,point
parent_name,800-cuts
ch_type,1_1
kcount,1
numberNandB,1
brightnessNandB,1
carpet pos,0
pc,0
Time (ms),CH1 Auto-Correlation
1.0,0.015773525461554527
2.0,0.012356702238321304
3.0,0.00995627511292696
4.0,0.008132053539156914
5.0,0.006843544077128172
6.0,0.005977897439152002
7.0,0.0051676738075912
8.0,0.004637622740119696
9.0,0.004226177930831909
10.0,0.0037219489458948374
11.0,0.003236382268369198
12.0,0.002866893308237195
13.0,0.002533980878069997
14.0,0.0022878607269376516
15.0,0.0021923668682575226
16.0,0.002031792188063264
18.0,0.0016229472821578383
20.0,0.0012249081628397107
22.0,0.000987448962405324
24.0,0.0008245926001109183
26.0,0.0006900556036271155
28.0,0.000614483084063977
30.0,0.0007737069972790778
32.0,0.0008964110165834427
36.0,0.0007176875951699913
40.0,0.0006938761798664927
44.0,0.00044377107406035066
48.0,0.0003114052815362811
52.0,0.00016626852448098361
56.0,0.0002126819163095206
60.0,0.0004066184046678245
64.0,0.0005714495200663805
72.0,0.00020947327720932662
80.0,-5.874378985026851e-05
88.0,-0.0001236700773006305
96.0,-7.176353392424062e-05
104.0,4.43195276602637e-05
112.0,5.6787703215377405e-05
120.0,-0.0002105947642121464
128.0,-0.00046682736137881875
144.0,-0.0003860636497847736
160.0,-0.0004656181263271719
176.0,-0.00035461445804685354
192.0,-0.00014213318354450166
208.0,-0.00033529289066791534
224.0,-0.00018231647845823318
240.0,-0.00010677317914087325
256.0,-0.0003096142318099737
288.0,-5.9436963056214154e-05
320.0,0.0004530251317191869
352.0,-0.00014053797349333763
384.0,-0.0002650143869686872
416.0,-0.0002787811099551618
448.0,-0.00019110630091745406
480.0,0.000243339134613052
512.0,0.0007548824069090188
576.0,4.182636985206045e-05
640.0,0.0008045306312851608
704.0,-0.00020691024838015437
768.0,8.600720320828259e-05
832.0,-0.0003661826776806265
896.0,-0.0003322314587421715
960.0,-0.0004945107502862811
1024.0,-0.0001725870097288862
1152.0,8.609084034105763e-05
1280.0,0.00013896747259423137
1408.0,-0.00012426894681993872
1536.0,-0.00016201412654481828
1664.0,-3.651537190307863e-05
1792.0,-0.00014202421880327165
1920.0,0.00038537319051101804
2048.0,-7.918544724816456e-05
2304.0,6.150980334496126e-05
2560.0,8.01290079834871e-05
2816.0,-1.2631183381017763e-05
3072.0,-0.00017724600911606103
3328.0,6.933027907507494e-05
3584.0,-2.8326552637736313e-05
3840.0,-0.000106937310192734
4096.0,0.00020817988843191415
4608.0,-1.27818157125148e-06
5120.0,-5.4760406783316284e-05
5632.0,3.664521500468254e-05
6144.0,2.7285768737783656e-05
6656.0,-0.00014802940131630749
7168.0,-0.00020235372358001769
7680.0,-9.462434536544606e-05
8192.0,-4.983204053132795e-05
9216.0,-9.819278056966141e-05
10240.0,7.815616118023172e-05
11264.0,-2.0650262740673497e-05
12288.0,-4.809739766642451e-05
13312.0,9.549628157401457e-05
14336.0,-9.505371963314246e-06
end
