version,3.0
numOfCh,1
type,point
parent_name,800-cuts
ch_type,1_1
kcount,1
numberNandB,1
brightnessNandB,1
carpet pos,0
pc,0
Time (ms),CH1 Auto-Correlation
1.0,0.01563960313796997
2.0,0.012269477359950542
3.0,0.009987201541662216
4.0,0.008318143896758556
5.0,0.007000400684773922
6.0,0.006029179785400629
7.0,0.005310677457600832
8.0,0.004724252037703991
9.0,0.004132623318582773
10.0,0.003726981347426772
11.0,0.0033837382216006517
12.0,0.003139405744150281
13.0,0.0028481793124228716
14.0,0.0025201861280947924
15.0,0.0022945618256926537
16.0,0.0020941083785146475
18.0,0.0016743303276598454
20.0,0.0012151537230238318
22.0,0.0008373509626835585
24.0,0.0007866034284234047
26.0,0.0007115534390322864
28.0,0.0005810994771309197
30.0,0.00027501804288476706
32.0,0.00010964686225634068
36.0,-4.4703019739245065e-06
40.0,-9.30608730413951e-05
44.0,-0.0001560769887873903
48.0,-3.546735388226807e-05
52.0,-0.00013230455806478858
56.0,-8.42986919451505e-05
60.0,-0.00013108273560646921
64.0,-0.0003963364870287478
72.0,-0.00011316337622702122
80.0,-0.0001484813983552158
88.0,-1.0640112122928258e-05
96.0,7.936402835184708e-05
104.0,6.501463212771341e-05
112.0,-0.00012353008787613362
120.0,0.00025245992583222687
128.0,0.0002550251956563443
144.0,-7.593767804792151e-05
160.0,1.5978207557054702e-06
176.0,-0.0003241483645979315
192.0,-0.0003667898417916149
208.0,0.00043992127757519484
224.0,0.00012132032861700282
240.0,0.00030168573721311986
256.0,4.639565304387361e-05
288.0,5.927717666054377e-06
320.0,0.00010481724893907085
352.0,-0.00046414535609073937
384.0,0.00010789592488436028
416.0,0.00047137521323747933
448.0,-0.00018678634660318494
480.0,0.00033600066672079265
512.0,-3.5827095416607335e-05
576.0,2.110335299221333e-05
640.0,1.1495494618429802e-05
704.0,0.0003213220334146172
768.0,3.3702428481774405e-05
832.0,0.0002415935305180028
896.0,-0.00017479869711678475
960.0,-0.000218340297578834
1024.0,5.622568278340623e-05
1152.0,0.00027828646125271916
1280.0,8.08186232461594e-05
1408.0,-3.133445716230199e-05
1536.0,0.0001430386328138411
1664.0,0.0001665687741478905
1792.0,-2.2637492293142714e-05
1920.0,1.4668548828922212e-05
2048.0,-1.7674621631158516e-05
2304.0,7.3322739808645565e-06
2560.0,-2.2466061636805534e-05
2816.0,-7.91009224485606e-05
3072.0,-7.690412894589826e-05
3328.0,-0.0001663185394136235
3584.0,-0.00019859903841279447
3840.0,-0.00010740256402641535
4096.0,-3.095372812822461e-05
4608.0,-8.106738096103072e-05
5120.0,-0.00015771682956255972
5632.0,-5.4047992307459936e-05
6144.0,-7.64679498388432e-05
6656.0,-2.828174183377996e-05
7168.0,-1.4021860806678887e-05
7680.0,-4.119940786040388e-05
8192.0,-7.428610842907801e-05
9216.0,3.534555435180664e-05
10240.0,6.666116678388789e-05
11264.0,5.7077075325651094e-05
12288.0,-6.98356525390409e-05
13312.0,5.8572051784722134e-05
14336.0,2.9821985663147643e-05
end
