version,3.0
numOfCh,1
type,point
parent_name,800-cuts
ch_type,1_1
kcount,1
numberNandB,1
brightnessNandB,1
carpet pos,0
pc,0
Time (ms),CH1 Auto-Correlation
1.0,0.01794317550957203
2.0,0.01449774019420147
3.0,0.01198485866189003
4.0,0.009963082149624825
5.0,0.008551538921892643
6.0,0.007410578895360231
7.0,0.006460340693593025
8.0,0.005718151107430458
9.0,0.0050528827123343945
10.0,0.004536889959126711
11.0,0.004166524391621351
12.0,0.003704298287630081
13.0,0.003275022143498063
14.0,0.0029547871090471745
15.0,0.002514674561098218
16.0,0.0021459036506712437
18.0,0.001848640269599855
20.0,0.0016400519525632262
22.0,0.0015696844784542918
24.0,0.0013581309467554092
26.0,0.000975840084720403
28.0,0.0006145175429992378
30.0,0.0006057738792151213
32.0,0.0005640820600092411
36.0,0.00044137408258393407
40.0,0.0006554632564075291
44.0,0.0002894757781177759
48.0,5.921162482991349e-06
52.0,0.0001704363094177097
56.0,0.00024670950369909406
60.0,0.00023765287187416106
64.0,0.0005963778821751475
72.0,0.0009385711746290326
80.0,0.0010114306351169944
88.0,0.0005532167269848287
96.0,0.0003425447503104806
104.0,-7.147394853745936e-07
112.0,5.279895049170591e-05
120.0,-0.0001910455757752061
128.0,-0.0005872153560630977
144.0,-0.00013221462722867727
160.0,-0.0001490305585321039
176.0,-0.00040149755659513175
192.0,-0.0002243519847979769
208.0,-9.890959336189553e-05
224.0,-2.6051407985505648e-05
240.0,-0.00037749731563962996
256.0,-0.0004041971988044679
288.0,-0.0001165028297691606
320.0,-0.00011653517867671326
352.0,3.993749851360917e-05
384.0,0.0001100288427551277
416.0,-3.461850428720936e-05
448.0,-5.835802585352212e-05
480.0,0.00012602335482370108
512.0,-0.0002282501955050975
576.0,-3.328816092107445e-06
640.0,3.2167561585083604e-05
704.0,-1.56992427946534e-05
768.0,0.00014302958152256906
832.0,0.000395742041291669
896.0,0.0004282717127352953
960.0,-8.987283217720687e-05
1024.0,-0.00018350689788348973
1152.0,-9.345095895696431e-05
1280.0,0.0001222162536578253
1408.0,-0.00021125779312569648
1536.0,4.087015986442566e-05
1664.0,0.00028682974516414106
1792.0,9.43022096180357e-05
1920.0,-1.315143617830472e-05
2048.0,-6.0911123000551015e-05
2304.0,-5.7197536079911515e-05
2560.0,-9.628874249756336e-05
2816.0,-0.00017910631140694022
3072.0,1.930489088408649e-05
3328.0,-0.00017439898510929197
3584.0,2.8925813239766285e-05
3840.0,-5.357214376999764e-06
4096.0,8.360635547433048e-05
4608.0,8.951205381890759e-05
5120.0,-4.320447987993248e-05
5632.0,2.770365244941786e-05
6144.0,9.891120134852827e-05
6656.0,5.333309673005715e-06
7168.0,8.841283124638721e-05
7680.0,-8.055081707425416e-05
8192.0,-0.00017853967437986284
9216.0,-0.00013573213072959334
10240.0,-5.514937583939172e-05
11264.0,8.25648385216482e-05
12288.0,0.00012480274017434567
13312.0,4.3065734644187614e-05
14336.0,-1.263780450244667e-05
end
