version,3.0
numOfCh,1
type,point
parent_name,800-cuts
ch_type,1_1
kcount,1
numberNandB,1
brightnessNandB,1
carpet pos,0
pc,0
Time (ms),CH1 Auto-Correlation
1.0,0.016420584172010422
2.0,0.013110116124153137
3.0,0.010750416666269302
4.0,0.009086963720619678
5.0,0.007727864198386669
6.0,0.0065198722295463085
7.0,0.005415812600404024
8.0,0.004647800698876381
9.0,0.004070712719112635
10.0,0.00354976300150156
11.0,0.0030495254322886467
12.0,0.002698673168197274
13.0,0.0024501257576048374
14.0,0.0021910073701292276
15.0,0.0019951171707361937
16.0,0.0017842527013272047
18.0,0.0015591150149703026
20.0,0.0013563086977228522
22.0,0.0011388069251552224
24.0,0.0011587718036025763
26.0,0.00106711161788553
28.0,0.000919955491553992
30.0,0.0007989706355147064
32.0,0.0004911925061605871
36.0,0.00027241415227763355
40.0,-5.197809514356777e-05
44.0,0.0001629865582799539
48.0,0.00025196740170940757
52.0,0.00028212295728735626
56.0,0.00021577959705609828
60.0,-4.356723002274521e-05
64.0,-2.95256086246809e-05
72.0,8.984289888758212e-05
80.0,6.785625737393275e-05
88.0,0.0003287761937826872
96.0,0.00011758897744584829
104.0,-0.00013956442126072943
112.0,-0.00026705791242420673
120.0,-0.0001855259615695104
128.0,0.0002413941256236285
144.0,-2.929104994109366e-05
160.0,-0.00013200876128394157
176.0,0.00011903686390724033
192.0,0.0003476759302429855
208.0,0.0003446736081968993
224.0,-6.0076585214119405e-05
240.0,-0.0003375709056854248
256.0,-0.00048107566544786096
288.0,-0.0003720710228662938
320.0,0.00019690245972014964
352.0,2.3548747776658274e-05
384.0,7.891231507528573e-05
416.0,3.8730173400836065e-05
448.0,0.00016020039038266987
480.0,-8.718220669834409e-06
512.0,-0.000409708300139755
576.0,-0.00033068787888623774
640.0,7.613434718223289e-06
704.0,0.00043548495159484446
768.0,-0.00012718747893813998
832.0,-0.0002861505781766027
896.0,0.00010837499576155096
960.0,-5.182360837352462e-05
1024.0,0.00013575126649811864
1152.0,-0.00024079246213659644
1280.0,0.000139479961944744
1408.0,0.0003100826870650053
1536.0,-6.362533167703077e-05
1664.0,0.00015773884661030024
1792.0,-0.0002484607684891671
1920.0,0.0002117191324941814
2048.0,0.0001817950833356008
2304.0,6.903311441419646e-05
2560.0,-0.00014370713324751705
2816.0,0.0002525453455746174
3072.0,-0.0001696019753580913
3328.0,-8.751621498959139e-05
3584.0,0.00011893984628841281
3840.0,-0.00024719201610423625
4096.0,3.291485700174235e-05
4608.0,7.61402552598156e-05
5120.0,-0.00023704953491687775
5632.0,-0.00011397663911338896
6144.0,0.00010418408055556938
6656.0,-8.92548487172462e-05
7168.0,-0.00018926271877717227
7680.0,1.6772561366451555e-06
8192.0,6.060266605345532e-05
9216.0,5.149600838194601e-06
10240.0,-4.313753015594557e-05
11264.0,1.710976539470721e-05
12288.0,0.00011182296293554828
13312.0,-1.2405685083649587e-05
14336.0,-0.00017919929814524949
end
