version,3.0
numOfCh,1
type,point
parent_name,800-cuts
ch_type,1_1
kcount,1
numberNandB,1
brightnessNandB,1
carpet pos,0
pc,0
Time (ms),CH1 Auto-Correlation
1.0,0.015722166746854782
2.0,0.012381024658679962
3.0,0.010132969357073307
4.0,0.008381440304219723
5.0,0.006931364070624113
6.0,0.005912525113672018
7.0,0.005078722257167101
8.0,0.004455483518540859
9.0,0.0039028956089168787
10.0,0.0033623874187469482
11.0,0.002971047768369317
12.0,0.0026467100251466036
13.0,0.002402688842266798
14.0,0.0021248944103717804
15.0,0.0018870137864723802
16.0,0.0017285551875829697
18.0,0.0013957275077700615
20.0,0.0011877808719873428
22.0,0.0010305080795660615
24.0,0.0009370590560138226
26.0,0.0007936988258734345
28.0,0.0007604528800584376
30.0,0.0007897744653746486
32.0,0.0007832557894289494
36.0,0.0003447293711360544
40.0,3.718402876984328e-05
44.0,9.889588545775041e-05
48.0,0.0001256761170225218
52.0,0.00013406435027718544
56.0,0.00021436030510812998
60.0,0.00016253878129646182
64.0,8.675396384205669e-05
72.0,-0.0002786045952234417
80.0,-0.0008303153445012867
88.0,-0.0007662556599825621
96.0,-0.0005365301040001214
104.0,-0.0004408989625517279
112.0,-0.0006633639568462968
120.0,-0.000529211072716862
128.0,-0.0004211979976389557
144.0,-0.0005656417924910784
160.0,-0.0003096894652117044
176.0,0.00011852674651890993
192.0,0.00012739712838083506
208.0,-0.0004562365065794438
224.0,-0.0006388588226400316
240.0,-6.449714419431984e-05
256.0,-2.597675847937353e-05
288.0,0.0003352886997163296
320.0,0.00023232103558257222
352.0,0.0001904628734337166
384.0,1.8201735656475648e-05
416.0,-0.0005189355579204857
448.0,-0.0003278423973824829
480.0,-0.0001686433533905074
512.0,1.2463431630749255e-05
576.0,1.921943658089731e-05
640.0,3.946383731090464e-05
704.0,-0.00021164945792406797
768.0,0.0001532368769403547
832.0,-0.0001036358080455102
896.0,-9.647604883866734e-07
960.0,0.00016988733841571957
1024.0,0.00046069518430158496
1152.0,9.65533618000336e-05
1280.0,0.0002722936333157122
1408.0,-9.58171222009696e-05
1536.0,-6.534728890983388e-05
1664.0,1.494842490501469e-05
1792.0,8.869308658177033e-05
1920.0,0.00015167280798777938
2048.0,-6.792879867134616e-05
2304.0,-4.4872649596072733e-05
2560.0,1.3999570001033135e-05
2816.0,-3.1102506909519434e-05
3072.0,0.00017216589185409248
3328.0,-0.00016454311844427139
3584.0,-0.00011565417662495747
3840.0,2.9609424018417485e-05
4096.0,0.00010544711403781548
4608.0,-9.51166293816641e-05
5120.0,-7.114688924048096e-05
5632.0,4.9169640988111496e-05
6144.0,-9.10982271307148e-05
6656.0,-5.3551084420178086e-05
7168.0,8.635865378892049e-05
7680.0,-0.00011999970593024045
8192.0,-1.954444269358646e-05
9216.0,-1.2985146895516664e-05
10240.0,-4.875752892985474e-06
11264.0,-5.3167213991400786e-06
12288.0,2.7301117370370775e-05
13312.0,3.158040271955542e-05
14336.0,7.006794930930482e-06
end
