version,3.0
numOfCh,1
type,point
parent_name,800-cuts
ch_type,1_1
kcount,1
numberNandB,1
brightnessNandB,1
carpet pos,0
pc,0
Time (ms),CH1 Auto-Correlation
1.0,0.015047955326735973
2.0,0.01181227620691061
3.0,0.009477279148995876
4.0,0.007828978821635246
5.0,0.006522951181977987
6.0,0.005467759910970926
7.0,0.004615100100636482
8.0,0.0039975522086024284
9.0,0.003462098306044936
10.0,0.0029999169055372477
11.0,0.002580673899501562
12.0,0.002272974932566285
13.0,0.002056425902992487
14.0,0.0018277139170095325
15.0,0.0016534898895770311
16.0,0.0013974583707749844
18.0,0.0010136086493730545
20.0,0.000825589697342366
22.0,0.000666720443405211
24.0,0.0005786982364952564
26.0,0.0005015055066905916
28.0,0.00021963228937238455
30.0,0.00024122830654960126
32.0,0.00028986972756683826
36.0,2.3581405912409537e-05
40.0,-0.00010777336137834936
44.0,-8.630060619907454e-05
48.0,-0.0001184710199595429
52.0,-0.00019164232071489096
56.0,-0.00022057726164348423
60.0,-0.00030463337316177785
64.0,5.6808945373632014e-05
72.0,-0.00013834747369401157
80.0,-0.00018375407671555877
88.0,-0.00030565934139303863
96.0,-0.0004474410670809448
104.0,-0.00017431663582101464
112.0,0.00012645551760215312
120.0,-1.8269473002874292e-05
128.0,-0.00018148230446968228
144.0,-0.00029709309455938637
160.0,-9.384409349877387e-05
176.0,0.0005227914662100375
192.0,-0.00012623857764992863
208.0,3.0948220228310674e-05
224.0,0.00014835924957878888
240.0,-0.00022803265892434865
256.0,-0.0002218596637248993
288.0,0.00013885523367207497
320.0,2.895323450502474e-05
352.0,2.7553605832508765e-05
384.0,9.148884419118986e-05
416.0,0.0004320143780205399
448.0,0.0005487349699251354
480.0,-8.554226951673627e-05
512.0,0.0002578763524070382
576.0,0.0001461574574932456
640.0,0.00030747047276236117
704.0,4.2060095438500866e-05
768.0,0.0001127417417592369
832.0,0.00019721688295248896
896.0,-0.00023703539045527577
960.0,8.012250873434823e-06
1024.0,3.584433579817414e-05
1152.0,7.132366590667516e-05
1280.0,-0.0002213836705777794
1408.0,0.0001929574937094003
1536.0,1.092249840439763e-05
1664.0,-0.0001332432439085096
1792.0,0.00015827080642338842
1920.0,6.522608600789681e-05
2048.0,-0.00011199946311535314
2304.0,-1.9640025129774585e-05
2560.0,-1.3900365047447849e-05
2816.0,-0.0002092553913826123
3072.0,2.1333133190637454e-05
3328.0,1.5052094568090979e-05
3584.0,-4.9811165808932856e-05
3840.0,8.7321488535963e-05
4096.0,-0.00014807182014919817
4608.0,-0.00011556468234630302
5120.0,-0.00010274312808178365
5632.0,-7.595556962769479e-05
6144.0,-0.00011380651994841173
6656.0,-1.1645438462437596e-05
7168.0,0.00015940738376230001
7680.0,0.00012957518629264086
8192.0,1.616571898921393e-05
9216.0,3.287627623649314e-05
10240.0,-4.8653982958057895e-05
11264.0,3.250121881137602e-05
12288.0,-2.410019988019485e-05
13312.0,-0.000135338501422666
14336.0,0.00010685959568945691
end
