version,3.0
numOfCh,1
type,point
parent_name,800-cuts
ch_type,1_1
kcount,1
numberNandB,1
brightnessNandB,1
carpet pos,0
pc,0
Time (ms),CH1 Auto-Correlation
1.0,0.02719765156507492
2.0,0.021493252366781235
3.0,0.017575956881046295
4.0,0.014788910746574402
5.0,0.01244419626891613
6.0,0.010741537436842918
7.0,0.009599032811820507
8.0,0.008456626906991005
9.0,0.007422272115945816
10.0,0.006455313879996538
11.0,0.005706149619072676
12.0,0.004955863114446402
13.0,0.004522482864558697
14.0,0.004191608168184757
15.0,0.0039106025360524654
16.0,0.003659364301711321
18.0,0.0028244941495358944
20.0,0.002221978735178709
22.0,0.001530159148387611
24.0,0.0011728380341082811
26.0,0.0008578702108934522
28.0,0.0008596997940912843
30.0,0.0008874470368027687
32.0,0.0008162492886185646
36.0,0.0005017632502131164
40.0,4.290901779313572e-05
44.0,-0.00019238983804825693
48.0,-2.647535438882187e-05
52.0,-0.0002908687456510961
56.0,-0.0006423929007723927
60.0,-0.0008193865651264787
64.0,-0.00040533061837777495
72.0,-0.00016828111256472766
80.0,-0.0002729961706791073
88.0,0.00018862485012505203
96.0,0.0007329583750106394
104.0,0.001593130873516202
112.0,0.001150408643297851
120.0,0.0006188669358380139
128.0,-0.00011563832231331617
144.0,0.00020903124823234975
160.0,-0.0003948692756239325
176.0,0.0003513327392283827
192.0,8.655905548948795e-05
208.0,-0.00013110559666529298
224.0,-0.0007098555797711015
240.0,-1.4042082057130756e-06
256.0,0.000720739015378058
288.0,-0.0001318523136433214
320.0,0.0006877787527628243
352.0,6.414279050659388e-05
384.0,-0.0007669984479434788
416.0,0.00014452847244683653
448.0,0.0008250292157754302
480.0,0.0003754541976377368
512.0,0.0002028170565608889
576.0,-0.0005020253011025488
640.0,0.00039210199611261487
704.0,-0.0007709577912464738
768.0,-7.703106530243531e-05
832.0,-0.00039603380719199777
896.0,0.0006132689886726439
960.0,-0.00015393535431940109
1024.0,0.00022551370784640312
1152.0,0.0005827941931784153
1280.0,0.00028460126486606896
1408.0,0.00039431851473636925
1536.0,0.0003065277705900371
1664.0,0.00045140873407945037
1792.0,-0.00012224212696310133
1920.0,-0.00033596158027648926
2048.0,0.00046286790166050196
2304.0,-4.4445150706451386e-05
2560.0,0.00022745761089026928
2816.0,-3.4135002351831645e-05
3072.0,-2.237300213892013e-05
3328.0,0.0002165310870623216
3584.0,4.3631880544126034e-05
3840.0,2.9391028874670155e-05
4096.0,-9.504085028311238e-05
4608.0,4.7037956392159685e-05
5120.0,-0.00010273134103044868
5632.0,3.829311390290968e-05
6144.0,5.827745917486027e-05
6656.0,-0.0002369372232351452
7168.0,-0.00021750082669313997
7680.0,0.00010080441279569641
8192.0,-0.000479438022011891
9216.0,-0.0003433894889894873
10240.0,-0.0002693653805181384
11264.0,-3.0327313652378507e-05
12288.0,-7.261004066094756e-05
13312.0,-3.9683113755017985e-06
14336.0,-0.00039900015690363944
end
