version,3.0
numOfCh,1
type,point
parent_name,800-cuts
ch_type,1_1
kcount,1
numberNandB,1
brightnessNandB,1
carpet pos,0
pc,0
Time (ms),CH1 Auto-Correlation
1.0,0.015365947037935257
2.0,0.011931476183235645
3.0,0.009520451538264751
4.0,0.007819508202373981
5.0,0.006547556724399328
6.0,0.005500214174389839
7.0,0.004763340577483177
8.0,0.004144967067986727
9.0,0.003660635557025671
10.0,0.0033283287193626165
11.0,0.0030934589449316263
12.0,0.0028137986082583666
13.0,0.002570143900811672
14.0,0.0022174788173288107
15.0,0.0018857893301174045
16.0,0.0016882129712030292
18.0,0.0012300197267904878
20.0,0.0009750164463184774
22.0,0.0008450865279883146
24.0,0.000733820372261107
26.0,0.0005011129542253911
28.0,0.00018102356989402324
30.0,-9.404779848409817e-05
32.0,-0.00016235098883043975
36.0,-9.518887236481532e-05
40.0,-6.648963608313352e-05
44.0,6.920504529261962e-05
48.0,2.9426739274640568e-05
52.0,4.367224028101191e-05
56.0,8.548871119273826e-05
60.0,2.604416067697457e-06
64.0,-0.000386461935704574
72.0,-0.0005036427755840123
80.0,-0.0006037830607965589
88.0,-0.00025153520982712507
96.0,5.97403704887256e-05
104.0,9.987939847633243e-05
112.0,-0.00017031896277330816
120.0,4.5863773266319185e-05
128.0,-0.0001930364960571751
144.0,-0.00046945700887590647
160.0,-0.0001422046625521034
176.0,5.090309423394501e-05
192.0,-8.920600521378219e-05
208.0,0.00019890205294359475
224.0,0.0003546550578903407
240.0,-0.00029898816137574613
256.0,-0.0002569094067439437
288.0,-0.0002727089449763298
320.0,3.2322146580554545e-05
352.0,-0.00018467697373125702
384.0,-4.9740880058379844e-05
416.0,-6.000198027322767e-06
448.0,3.529198875185102e-05
480.0,-6.652438605669886e-05
512.0,-0.00021933935931883752
576.0,0.00047717627603560686
640.0,0.0002647194196470082
704.0,-1.4603271665691864e-05
768.0,0.00027452546055428684
832.0,-0.00013704044977203012
896.0,0.00018072244711220264
960.0,-9.973951091524214e-05
1024.0,-0.00016414177662227303
1152.0,-9.056161798071116e-05
1280.0,0.00015511515084654093
1408.0,-7.750296936137602e-05
1536.0,0.0002007590519497171
1664.0,4.586621798807755e-05
1792.0,5.0980146625079215e-05
1920.0,-6.231448060134426e-05
2048.0,2.4544968255213462e-05
2304.0,-1.4609124264097773e-05
2560.0,-7.695599924772978e-05
2816.0,-7.701802678639069e-05
3072.0,-6.497216963907704e-05
3328.0,-6.684993422823027e-05
3584.0,-9.26081120269373e-05
3840.0,-0.0001112498648581095
4096.0,-0.0001209360416396521
4608.0,2.383539867878426e-05
5120.0,9.581282938597724e-05
5632.0,3.056422883673804e-06
6144.0,6.818913971073925e-05
6656.0,6.872599624330178e-05
7168.0,-4.7532827011309564e-05
7680.0,-9.617101750336587e-05
8192.0,-8.465582504868507e-05
9216.0,-6.321165710687637e-05
10240.0,-1.015954876493197e-05
11264.0,8.657771832076833e-05
12288.0,6.997065065661445e-05
13312.0,-1.7768458064892911e-06
14336.0,4.7605739382561296e-05
end
