version,3.0
numOfCh,1
type,point
parent_name,800-cuts
ch_type,1_1
kcount,1
numberNandB,1
brightnessNandB,1
carpet pos,0
pc,0
Time (ms),CH1 Auto-Correlation
1.0,0.015594529919326305
2.0,0.012121251784265041
3.0,0.009536143392324448
4.0,0.007703719194978476
5.0,0.00640813447535038
6.0,0.005347352009266615
7.0,0.004633982665836811
8.0,0.004038440529257059
9.0,0.003467754228040576
10.0,0.0030948142521083355
11.0,0.0026876754127442837
12.0,0.002315421821549535
13.0,0.0020018736831843853
14.0,0.0017616673139855266
15.0,0.0015618907054886222
16.0,0.0013906065141782165
18.0,0.00111632130574435
20.0,0.0008093059295788407
22.0,0.0007710123900324106
24.0,0.0008320664637722075
26.0,0.0009119941387325525
28.0,0.0007236787932924926
30.0,0.000792607432231307
32.0,0.00093941978411749
36.0,0.0010080109350383282
40.0,0.0006644204258918762
44.0,0.0006245000404305756
48.0,0.000576526450458914
52.0,0.0006478871800936759
56.0,0.0003814662341028452
60.0,0.00019207397417631
64.0,5.9299087297404185e-05
72.0,-9.176986350212246e-05
80.0,0.00011736592568922788
88.0,0.0005525659653358161
96.0,0.0003767570306081325
104.0,6.949864473426715e-05
112.0,0.0001752953976392746
120.0,0.00020013307221233845
128.0,-9.178688196698204e-05
144.0,-7.554679177701473e-05
160.0,-6.657013000221923e-05
176.0,-0.000495558837428689
192.0,-4.0576189348939806e-05
208.0,-0.00013602558465208858
224.0,-0.0002153740351786837
240.0,-0.00030298688216134906
256.0,-0.00022943595831748098
288.0,-0.00010820725583471358
320.0,-0.0002769427956081927
352.0,8.130846981657669e-05
384.0,-9.971678082365543e-05
416.0,8.630912634544075e-05
448.0,8.54429672472179e-05
480.0,0.00012303644325584173
512.0,8.42775116325356e-05
576.0,0.00015178548346739262
640.0,-0.00019676335796248168
704.0,-9.170094563160092e-05
768.0,-8.713817078387365e-05
832.0,9.707652498036623e-05
896.0,-0.00030398229137063026
960.0,1.845804217737168e-05
1024.0,0.0001781914324965328
1152.0,-4.561109744827263e-05
1280.0,0.00025944210938178003
1408.0,0.00010743483289843425
1536.0,0.00019360378792043775
1664.0,1.6296045941999182e-05
1792.0,1.4058102351555135e-05
1920.0,-9.144101204583421e-05
2048.0,0.00021272785670589656
2304.0,-0.00021413945069070905
2560.0,7.975335756782442e-05
2816.0,-0.00017687353829387575
3072.0,-3.471718082437292e-05
3328.0,-5.794325625174679e-05
3584.0,-7.678002293687314e-05
3840.0,-0.00014607248886022717
4096.0,-8.208450162783265e-05
4608.0,8.815777982817963e-05
5120.0,-5.542885992326774e-05
5632.0,-8.607387280790135e-05
6144.0,-7.4386312007845845e-06
6656.0,3.748175367945805e-05
7168.0,9.583555947756395e-05
7680.0,-5.262554168439237e-06
8192.0,-1.493512263550656e-05
9216.0,8.811043517198414e-05
10240.0,-7.276690303115174e-05
11264.0,-6.732519250363111e-05
12288.0,-0.00015260462532751262
13312.0,-4.4821637857239693e-05
14336.0,0.00010949495481327176
end
