version,3.0
numOfCh,1
type,point
parent_name,800-cuts
ch_type,1_1
kcount,1
numberNandB,1
brightnessNandB,1
carpet pos,0
pc,0
Time (ms),CH1 Auto-Correlation
1.0,0.016594255343079567
2.0,0.013210189528763294
3.0,0.010843237861990929
4.0,0.008943645283579826
5.0,0.007365824189037085
6.0,0.006223015487194061
7.0,0.005411510821431875
8.0,0.004821921698749065
9.0,0.004185348749160767
10.0,0.0036330041475594044
11.0,0.0031369575299322605
12.0,0.0027551124803721905
13.0,0.0025026164948940277
14.0,0.002252727746963501
15.0,0.0021335615310817957
16.0,0.0020373687148094177
18.0,0.0018902324372902513
20.0,0.0016785388579592109
22.0,0.0014191367663443089
24.0,0.00107005110476166
26.0,0.0009183984948322177
28.0,0.0008981148130260408
30.0,0.0008762128418311477
32.0,0.0008207009523175657
36.0,0.0007182495319284499
40.0,0.0005196386482566595
44.0,0.00019146478734910488
48.0,9.544717613607645e-05
52.0,1.5463927411474288e-05
56.0,0.000312790391035378
60.0,0.0006199767231009901
64.0,0.00043099053436890244
72.0,0.0004126434214413166
80.0,5.5995974435063545e-06
88.0,0.00025823130272328854
96.0,0.0005460148677229881
104.0,0.00041671437793411314
112.0,0.0002241388283437118
120.0,0.0008884216076694429
128.0,0.0007529762224294245
144.0,0.0004397663869895041
160.0,3.821526115643792e-05
176.0,-0.00016321834118571132
192.0,0.0001454372250009328
208.0,0.000273384153842926
224.0,-1.0226513950328808e-05
240.0,0.00022044085199013352
256.0,8.845022966852412e-05
288.0,-0.00031103118089959025
320.0,-0.0002738654147833586
352.0,-0.00022078650363255292
384.0,0.0003299623786006123
416.0,-0.0002171329833799973
448.0,-0.00033513817470520735
480.0,-0.0005214661941863596
512.0,0.0004001509805675596
576.0,-3.582446515792981e-05
640.0,9.850620699580759e-05
704.0,-0.00047517623170278966
768.0,-0.0007994305924512446
832.0,0.0001060032591340132
896.0,-0.0003252365277148783
960.0,0.00035799003671854734
1024.0,0.0002929223992396146
1152.0,9.248631613445468e-06
1280.0,-4.5910659537184983e-05
1408.0,3.1887921068118885e-05
1536.0,-0.00020828016567975283
1664.0,-0.00019449852698016912
1792.0,-0.00010271097562508658
1920.0,9.875966497929767e-05
2048.0,0.00021110853413119912
2304.0,0.00017844847752712667
2560.0,-0.00010145111446036026
2816.0,-0.00011967291356995702
3072.0,0.0001639129186514765
3328.0,-0.00023704122577328235
3584.0,-7.231572817545384e-05
3840.0,9.473357204115018e-05
4096.0,0.0001661168789723888
4608.0,2.8769325581379235e-05
5120.0,-7.621844270033762e-05
5632.0,-1.4308886420622002e-05
6144.0,7.972029561642557e-05
6656.0,-0.00010108271817443892
7168.0,-0.00013376375136431307
7680.0,0.00011658042785711586
8192.0,0.00010241619747830555
9216.0,3.088212906732224e-05
10240.0,-6.62698585074395e-05
11264.0,6.350625335471705e-05
12288.0,1.8128070223610848e-05
13312.0,-0.000409944070270285
14336.0,5.676940781995654e-05
end
