version,3.0
numOfCh,1
type,point
parent_name,800-cuts
ch_type,1_1
kcount,1
numberNandB,1
brightnessNandB,1
carpet pos,0
pc,0
Time (ms),CH1 Auto-Correlation
1.0,0.02670300379395485
2.0,0.020971139892935753
3.0,0.017010433599352837
4.0,0.014083690010011196
5.0,0.01163974404335022
6.0,0.009916312992572784
7.0,0.008639654144644737
8.0,0.00763928284868598
9.0,0.006718308199197054
10.0,0.005978478584438562
11.0,0.005459861364215612
12.0,0.004945630673319101
13.0,0.0045463708229362965
14.0,0.0043882811442017555
15.0,0.0038776667788624763
16.0,0.0036026083398610353
18.0,0.0030175268184393644
20.0,0.002458535134792328
22.0,0.0022687120363116264
24.0,0.0018970170058310032
26.0,0.0013821234460920095
28.0,0.0007313807145692408
30.0,0.0005968616460449994
32.0,0.0006502142641693354
36.0,0.00016885643708519638
40.0,8.4499224612955e-06
44.0,-9.97937677311711e-05
48.0,1.466130470362259e-05
52.0,-0.00010706173634389415
56.0,-0.00014567485777661204
60.0,8.929549949243665e-05
64.0,0.00024671544088050723
72.0,-5.9495905588846654e-05
80.0,0.0005676457658410072
88.0,0.0006257757777348161
96.0,0.0006027874769642949
104.0,0.0002646122011356056
112.0,-0.00022709717450197786
120.0,-0.0008123121224343777
128.0,-0.0010517146438360214
144.0,-0.0006738845841027796
160.0,9.498082363279536e-05
176.0,0.0015822200803086162
192.0,0.0010693561052903533
208.0,-0.00037536246236413717
224.0,0.0006133203860372305
240.0,0.0006475656409747899
256.0,0.0002763671218417585
288.0,-0.00013313685485627502
320.0,-0.00017678311269264668
352.0,0.00022020678443368524
384.0,0.00035412205033935606
416.0,0.0006303458358161151
448.0,0.00037901269388385117
480.0,0.0002748022379819304
512.0,-0.00023372228315565735
576.0,0.00020676084386650473
640.0,0.00021991408721078187
704.0,0.00016910978592932224
768.0,0.000256190774962306
832.0,-6.3391009462066e-05
896.0,0.00014699107850901783
960.0,0.00029882226954214275
1024.0,0.0005585874896496534
1152.0,0.00017679724260233343
1280.0,0.0001139095111284405
1408.0,0.0002698600001167506
1536.0,6.0630609368672594e-05
1664.0,-3.510119131533429e-05
1792.0,2.5121589715126902e-05
1920.0,-7.3292751039844e-05
2048.0,0.0002573140955064446
2304.0,0.00015273719327524304
2560.0,-8.530815102858469e-05
2816.0,-0.00010558032226981595
3072.0,-0.00016114201571326703
3328.0,-0.0003812065697275102
3584.0,-0.00030704165692441165
3840.0,-0.00022529387206304818
4096.0,-0.00039504008600488305
4608.0,-0.00013797031715512276
5120.0,-0.00036804325645789504
5632.0,-0.00016939619672484696
6144.0,-3.3732198062352836e-05
6656.0,0.00013536725600715727
7168.0,-1.000851989374496e-05
7680.0,2.4846094675012864e-05
8192.0,0.0003381966089364141
9216.0,0.0002347354165976867
10240.0,3.0793045880272985e-05
11264.0,-3.562657002476044e-05
12288.0,-0.0003028637729585171
13312.0,-0.00043547325185500085
14336.0,-0.0002594587276689708
end
