version,3.0
numOfCh,1
type,point
parent_name,800-cuts
ch_type,1_1
kcount,1
numberNandB,1
brightnessNandB,1
carpet pos,0
pc,0
Time (ms),CH1 Auto-Correlation
1.0,0.024296611547470093
2.0,0.01875467412173748
3.0,0.014945887960493565
4.0,0.012150285765528679
5.0,0.010230681858956814
6.0,0.008600538596510887
7.0,0.007287102751433849
8.0,0.006272227503359318
9.0,0.0058205947279930115
10.0,0.005358065478503704
11.0,0.004876401741057634
12.0,0.004424308426678181
13.0,0.004015951417386532
14.0,0.0036650770343840122
15.0,0.003279133467003703
16.0,0.0031712851487100124
18.0,0.0030015406664460897
20.0,0.00249257474206388
22.0,0.0018129762029275298
24.0,0.0015250607393682003
26.0,0.0010409945389255881
28.0,0.0007831024122424424
30.0,0.0007456237799488008
32.0,0.0004560243687592447
36.0,7.02080869814381e-05
40.0,0.00017131581262219697
44.0,1.0640004802553449e-05
48.0,0.0001771866373019293
52.0,0.00039280817145481706
56.0,0.00016109940770547837
60.0,0.00034336280077695847
64.0,-0.0001843795762397349
72.0,0.0004420202749315649
80.0,-0.00011605277541093528
88.0,-0.0006804785807617009
96.0,-0.00032297830330207944
104.0,-0.00030181644251570106
112.0,-0.0001191188785014674
120.0,-0.00035768403904512525
128.0,-0.00016607512952759862
144.0,0.00011107204045401886
160.0,0.00023949061869643629
176.0,0.0002613704709801823
192.0,-0.0002259403991047293
208.0,-0.0006239592912606895
224.0,-7.307674241019413e-05
240.0,0.0002871360629796982
256.0,-7.306264160433784e-05
288.0,7.736741099506617e-05
320.0,0.00029476091731339693
352.0,-0.00024941429728642106
384.0,-0.00015182864444795996
416.0,-0.00020128866890445352
448.0,-0.00033156920108012855
480.0,2.5692637791507877e-05
512.0,0.0005192019743844867
576.0,-7.165551505750045e-05
640.0,0.00016365312330890447
704.0,-2.603363327580155e-06
768.0,-8.636921847937629e-05
832.0,-0.0005018797237426043
896.0,-0.0003710209857672453
960.0,0.00020815814787056297
1024.0,0.00024146177747752517
1152.0,-0.0003517155710142106
1280.0,3.049312363145873e-05
1408.0,0.00030094903195276856
1536.0,-1.3748327546636574e-05
1664.0,0.0003783888532780111
1792.0,0.00027755051269195974
1920.0,0.0003056448476854712
2048.0,-0.0002167068305425346
2304.0,0.00011997536785202101
2560.0,-4.512134182732552e-05
2816.0,0.00019849782984238118
3072.0,-0.00038637884426862
3328.0,-0.00011835490295197815
3584.0,-0.00019208478624932468
3840.0,0.0001041357681970112
4096.0,0.00015588347741868347
4608.0,-0.00011039668606827036
5120.0,-0.00039669705438427627
5632.0,5.798905112897046e-05
6144.0,-0.0001796650030883029
6656.0,3.880095755448565e-05
7168.0,-6.323416164377704e-05
7680.0,-0.0003995154984295368
8192.0,0.00041614187648519874
9216.0,-2.7632939236355014e-05
10240.0,-4.54175315098837e-05
11264.0,9.1390116722323e-05
12288.0,9.278475044993684e-05
13312.0,-9.268015128327534e-05
14336.0,-9.947368380380794e-05
end
