version,3.0
numOfCh,1
type,point
parent_name,800-cuts
ch_type,1_1
kcount,1
numberNandB,1
brightnessNandB,1
carpet pos,0
pc,0
Time (ms),CH1 Auto-Correlation
1.0,0.01592865027487278
2.0,0.012429737485945225
3.0,0.010070458985865116
4.0,0.00815209187567234
5.0,0.006764751393347979
6.0,0.005779283586889505
7.0,0.004969543777406216
8.0,0.004267418757081032
9.0,0.0036070130299776793
10.0,0.0030499882996082306
11.0,0.0025162752717733383
12.0,0.002140279160812497
13.0,0.0019273473881185055
14.0,0.001784059451892972
15.0,0.0016911352286115289
16.0,0.001446485985070467
18.0,0.0009322386467829347
20.0,0.0007071850704960525
22.0,0.0006660643848590553
24.0,0.0006906110211275518
26.0,0.0007698605768382549
28.0,0.0006688310531899333
30.0,0.0004110338049940765
32.0,0.0005388795398175716
36.0,0.0004708357446361333
40.0,2.5154181457764935e-06
44.0,-0.0003747472073882818
48.0,-0.0006736782961525023
52.0,-0.0008716163574717939
56.0,-0.0007360539748333395
60.0,-0.0007363602053374052
64.0,-0.0006610692362301052
72.0,-0.0005860083037987351
80.0,-3.258409196860157e-05
88.0,0.00013443584612105042
96.0,-2.8359851057757623e-05
104.0,-4.153040936216712e-05
112.0,8.51258373586461e-05
120.0,0.0001223863655468449
128.0,0.0003767442249227315
144.0,0.001017492963001132
160.0,0.00037645400152541697
176.0,4.0154998714569956e-05
192.0,0.00018390209879726171
208.0,-0.00012396395322866738
224.0,0.00037225993582978845
240.0,-0.0003271521127317101
256.0,-0.0001735259429551661
288.0,0.00035567974555306137
320.0,-0.00020371313439682126
352.0,-9.634315938455984e-05
384.0,0.0003280881210230291
416.0,-6.467341881943867e-05
448.0,-0.0001043802039930597
480.0,-7.853841816540807e-05
512.0,-0.0003678622597362846
576.0,0.00020299792231526226
640.0,2.258299537061248e-05
704.0,-0.00013839958410244435
768.0,0.0002468257152941078
832.0,0.0001271490182261914
896.0,2.0642688468797132e-05
960.0,0.00021875579841434956
1024.0,-7.011689740465954e-05
1152.0,-7.875815208535641e-05
1280.0,-1.96224373212317e-05
1408.0,-1.9905188310076483e-05
1536.0,8.325678209075704e-05
1664.0,5.747152681578882e-05
1792.0,7.894554437370971e-05
1920.0,0.0001747026399243623
2048.0,-5.035882713855244e-05
2304.0,-0.00012954470003023744
2560.0,-0.00020907667931169271
2816.0,-0.00012278910435270518
3072.0,-0.00010084538371302187
3328.0,-0.00019275194790679961
3584.0,0.0001013569490169175
3840.0,1.9640896425698884e-05
4096.0,-9.519726881990209e-05
4608.0,-0.00021949867368675768
5120.0,-9.849146590568125e-05
5632.0,0.00012066756607964635
6144.0,-0.00010447232489241287
6656.0,-0.0001353911793557927
7168.0,7.091768929967657e-05
7680.0,0.00014379025378730148
8192.0,2.8927588573424146e-05
9216.0,0.00011936478404095396
10240.0,8.569587953388691e-05
11264.0,5.769123526988551e-05
12288.0,-0.00018561146862339228
13312.0,-0.00023965389118529856
14336.0,-1.4721161278430372e-05
end
