version,3.0
numOfCh,1
type,point
parent_name,800-cuts
ch_type,1_1
kcount,1
numberNandB,1
brightnessNandB,1
carpet pos,0
pc,0
Time (ms),CH1 Auto-Correlation
1.0,0.02636280283331871
2.0,0.02060491032898426
3.0,0.01637805812060833
4.0,0.013303189538419247
5.0,0.010955188423395157
6.0,0.009207249619066715
7.0,0.007882138714194298
8.0,0.006819474045187235
9.0,0.005768385715782642
10.0,0.005041228141635656
11.0,0.0043709492310881615
12.0,0.003867235966026783
13.0,0.0032855046447366476
14.0,0.0028513020370155573
15.0,0.002394454088062048
16.0,0.0020452295430004597
18.0,0.0016074486775323749
20.0,0.00114558101631701
22.0,0.0007999565568752587
24.0,0.000632286595646292
26.0,0.0008515022927895188
28.0,0.0008903706911951303
30.0,0.000906320521607995
32.0,0.0003886160848196596
36.0,3.473211472737603e-05
40.0,0.00016053931904025376
44.0,-3.482099054963328e-05
48.0,-0.00016673935169819742
52.0,-0.0003773068019654602
56.0,-6.267490971367806e-05
60.0,-0.0005848955479450524
64.0,-0.0010891893180087209
72.0,-0.00018836061644833535
80.0,8.724404324311763e-05
88.0,-0.00028171850135549903
96.0,-0.00042648811358958483
104.0,-5.1502371206879616e-05
112.0,-7.938290218589827e-05
120.0,-0.00034691402106545866
128.0,-0.00018593143613543361
144.0,-0.0007044713129289448
160.0,-0.0007878667674958706
176.0,3.5450811992632225e-05
192.0,0.00018118839943781495
208.0,-0.00043935058056376874
224.0,-0.0002389242290519178
240.0,-0.0005266520311124623
256.0,-0.000965069339144975
288.0,-8.751376299187541e-06
320.0,-5.188149225432426e-05
352.0,-0.0005302365170791745
384.0,-0.00016559807409066707
416.0,0.000208905286854133
448.0,0.00023829357814975083
480.0,0.0004201502597425133
512.0,-0.00014471012400463223
576.0,-4.9951380788115785e-05
640.0,0.0002799255307763815
704.0,-2.461390795360785e-05
768.0,0.000338966230629012
832.0,-0.00022507573885377496
896.0,-0.0002478445239830762
960.0,-0.0003396674001123756
1024.0,-0.00025793275563046336
1152.0,0.00038840918568894267
1280.0,-0.00013696978567168117
1408.0,-0.00017376996402163059
1536.0,-1.1157854714838322e-05
1664.0,-8.537708345102146e-05
1792.0,0.00028589522116817534
1920.0,-0.00010806602222146466
2048.0,-8.498602255713195e-05
2304.0,-2.1569212549366057e-06
2560.0,3.0516723654727684e-06
2816.0,0.0002630533999763429
3072.0,8.45347749418579e-05
3328.0,8.913536294130608e-05
3584.0,-0.00014422413369175047
3840.0,3.1170515285339206e-05
4096.0,-0.0001797628792701289
4608.0,-3.584661681088619e-05
5120.0,9.323468475486152e-06
5632.0,9.037779091158882e-05
6144.0,-4.096236079931259e-05
6656.0,-9.275332558900118e-05
7168.0,-8.556961256545037e-05
7680.0,-4.642737621907145e-06
8192.0,3.773028220166452e-05
9216.0,-8.032756159082055e-05
10240.0,-0.00012732254981528968
11264.0,5.9859385146410204e-06
12288.0,-8.145972969941795e-05
13312.0,9.719848094391637e-06
14336.0,0.00011095452646259218
end
