version,3.0
numOfCh,1
type,point
parent_name,800-cuts
ch_type,1_1
kcount,1
numberNandB,1
brightnessNandB,1
carpet pos,0
pc,0
Time (ms),CH1 Auto-Correlation
1.0,0.015227633528411388
2.0,0.011718773283064365
3.0,0.009411976672708988
4.0,0.007677575573325157
5.0,0.006448506843298674
6.0,0.005447322968393564
7.0,0.004587988369166851
8.0,0.003905526828020811
9.0,0.0032789476681500673
10.0,0.0028811851516366005
11.0,0.0024492109660059214
12.0,0.0020850158762186766
13.0,0.0017263825284317136
14.0,0.001580062205903232
15.0,0.001419505919329822
16.0,0.0013457481982186437
18.0,0.0009694286272861063
20.0,0.0007036750903353095
22.0,0.0006815554224886
24.0,0.0004348405636847019
26.0,0.0004396048607304692
28.0,0.0003719389205798507
30.0,0.00022113978047855198
32.0,3.263153485022485e-05
36.0,-2.5295545128756203e-05
40.0,0.00017823123198468238
44.0,0.00013759869034402072
48.0,-7.41420517442748e-05
52.0,-6.817370012868196e-05
56.0,-7.446079689543694e-05
60.0,-0.0001238543336512521
64.0,-2.3073182092048228e-05
72.0,0.00022539157362189144
80.0,0.0006271697347983718
88.0,0.0007489665877074003
96.0,0.0004171008476987481
104.0,0.00031755887903273106
112.0,0.000717037939466536
120.0,0.0007208735914900899
128.0,0.00014522515994030982
144.0,0.00036434069625101984
160.0,0.00033039937261492014
176.0,-0.000212339757126756
192.0,9.064274490810931e-05
208.0,-7.124924013623968e-05
224.0,-0.000582327542360872
240.0,-0.00022228540910873562
256.0,0.0001442831999156624
288.0,-0.00010994858894264325
320.0,-0.00029962926055304706
352.0,-3.653284511528909e-05
384.0,0.0002768289123196155
416.0,8.535055530956015e-05
448.0,-0.00032772670965641737
480.0,-0.0002689948887564242
512.0,0.0001818692107917741
576.0,0.00033029416226781905
640.0,0.00015546298527624458
704.0,0.0003565859224181622
768.0,0.0004279587010387331
832.0,4.246959724696353e-05
896.0,2.5508899852866307e-05
960.0,-0.0001366624201182276
1024.0,-7.070329502312234e-06
1152.0,-9.336118819192052e-05
1280.0,0.00010736513650044799
1408.0,2.6952957341563888e-05
1536.0,-0.00017035732162185013
1664.0,-3.0341296223923564e-05
1792.0,-0.00016974749451037496
1920.0,-0.00011493352212710306
2048.0,5.300622069626115e-05
2304.0,7.236744568217546e-05
2560.0,-0.0001270647335331887
2816.0,7.740117143839598e-05
3072.0,6.854468665551394e-05
3328.0,-6.693659088341519e-06
3584.0,7.624643330927938e-05
3840.0,0.00010240670235361904
4096.0,7.62372583267279e-05
4608.0,1.1408779755583964e-05
5120.0,-9.437272819923237e-05
5632.0,-0.00013771632802672684
6144.0,-4.047178663313389e-05
6656.0,-3.3036947570508346e-05
7168.0,-6.683405808871612e-05
7680.0,-0.00011267726222286001
8192.0,-0.0001157820806838572
9216.0,3.190870847902261e-05
10240.0,-0.00013049454719293863
11264.0,-1.8339680536882952e-05
12288.0,5.210457311477512e-05
13312.0,0.00018613669089972973
14336.0,-0.00015829227049835026
end
