version,3.0
numOfCh,1
type,point
parent_name,800-cuts
ch_type,1_1
kcount,1
numberNandB,1
brightnessNandB,1
carpet pos,0
pc,0
Time (ms),CH1 Auto-Correlation
1.0,0.01586897112429142
2.0,0.012532960623502731
3.0,0.01017864141613245
4.0,0.00849850568920374
5.0,0.007310446351766586
6.0,0.006381927989423275
7.0,0.005559742916375399
8.0,0.0048189121298491955
9.0,0.004127912689000368
10.0,0.003709132084622979
11.0,0.0034153794404119253
12.0,0.003146759234368801
13.0,0.0028443888295441866
14.0,0.002545709488913417
15.0,0.0022113716695457697
16.0,0.0017999052070081234
18.0,0.0013183427508920431
20.0,0.001056093955412507
22.0,0.000943997292779386
24.0,0.0006468942738138139
26.0,0.0006121014594100416
28.0,0.0005511666531674564
30.0,0.0005991746438667178
32.0,0.0004236383247189224
36.0,0.00031291713821701705
40.0,0.0004196090158075094
44.0,0.000667163054458797
48.0,0.0006750545580871403
52.0,0.0005490013863891363
56.0,0.00033867795718833804
60.0,0.0001245658058905974
64.0,0.00011655032722046599
72.0,-0.0003521703474689275
80.0,-0.00019274668011348695
88.0,-5.322515426087193e-05
96.0,-1.1901101970579475e-05
104.0,1.0925619790214114e-05
112.0,-0.0001024559824145399
120.0,-0.00034349283669143915
128.0,-0.00037006509955972433
144.0,-0.0004965111147612333
160.0,-0.00044408629764802754
176.0,-0.00018087602802552283
192.0,-0.00024772383039817214
208.0,-0.00026180947315879166
224.0,0.0005812430172227323
240.0,0.0005554751260206103
256.0,0.00036139567964710295
288.0,-3.2913346785790054e-06
320.0,0.00011832829477498308
352.0,-0.0002899636165238917
384.0,-0.00017699020099826157
416.0,3.3152242394862697e-05
448.0,0.0006166418897919357
480.0,0.0004004571819677949
512.0,0.0004109820583835244
576.0,-4.4539057853398845e-05
640.0,-0.00024383245909120888
704.0,1.9061402781517245e-05
768.0,-0.00030768930446356535
832.0,-7.504175300709903e-05
896.0,-9.893361129797995e-05
960.0,0.00023908127332106233
1024.0,-0.00021231018763501197
1152.0,6.104554631747305e-05
1280.0,-0.00043263944098725915
1408.0,-3.1285926525015384e-05
1536.0,-0.00012420806160662323
1664.0,3.5085948184132576e-05
1792.0,-0.00022752222139388323
1920.0,2.7771016902988777e-05
2048.0,9.842039435170591e-05
2304.0,1.0285639291396365e-05
2560.0,-3.806914537562989e-05
2816.0,-9.555210272083059e-05
3072.0,-2.9864564567105845e-05
3328.0,-2.6213685487164184e-05
3584.0,-4.1399682231713086e-05
3840.0,-2.7507612685440108e-05
4096.0,6.848699558759108e-05
4608.0,-1.3905411833547987e-05
5120.0,1.2715853699774016e-05
5632.0,-1.3831272553943563e-05
6144.0,0.00014839693903923035
6656.0,6.553976709255949e-05
7168.0,7.111722879926674e-06
7680.0,-0.00015559630992356688
8192.0,-0.00017077481606975198
9216.0,1.1265522516623605e-05
10240.0,-7.139829540392384e-05
11264.0,9.7596375780995e-06
12288.0,0.00011107342288596556
13312.0,-1.0603200280456804e-05
14336.0,-2.2710748453391716e-05
end
