version,3.0
numOfCh,1
type,point
parent_name,800-cuts
ch_type,1_1
kcount,1
numberNandB,1
brightnessNandB,1
carpet pos,0
pc,0
Time (ms),CH1 Auto-Correlation
1.0,0.02607722021639347
2.0,0.02036181278526783
3.0,0.016457408666610718
4.0,0.013563940301537514
5.0,0.011149722151458263
6.0,0.009239437989890575
7.0,0.007704396266490221
8.0,0.006497934926301241
9.0,0.005722938571125269
10.0,0.005082821939140558
11.0,0.004267683252692223
12.0,0.003776340279728174
13.0,0.0035674977116286755
14.0,0.0032735252752900124
15.0,0.002836047438904643
16.0,0.0024625700898468494
18.0,0.0024778086226433516
20.0,0.0022116920445114374
22.0,0.001985314069315791
24.0,0.0017414124449715018
26.0,0.001540112541988492
28.0,0.0012479133438318968
30.0,0.0014261070173233747
32.0,0.0018718072678893805
36.0,0.0015543822664767504
40.0,0.0008072909549809992
44.0,0.0010247896425426006
48.0,0.001189668197184801
52.0,0.0009690152946859598
56.0,0.0007171080214902759
60.0,0.0009608826949261129
64.0,0.0010864867363125086
72.0,0.000957194366492331
80.0,0.0007179119274951518
88.0,0.0007005832740105689
96.0,-0.00027456367388367653
104.0,-0.00011882573016919196
112.0,0.00037515052827075124
120.0,0.0005765045061707497
128.0,0.0006103950436227024
144.0,0.0004172982298769057
160.0,-9.153685095952824e-05
176.0,0.0001931940932990983
192.0,0.000330273323925212
208.0,-4.1721265006344765e-05
224.0,-0.00013003317872062325
240.0,-0.0001910942664835602
256.0,-0.00044025975512340665
288.0,-0.000682838901411742
320.0,-0.0006557018496096134
352.0,-0.00026484302361495793
384.0,0.0007763017783872783
416.0,-0.0007701207068748772
448.0,-0.001155128818936646
480.0,-0.0003520625177770853
512.0,0.00019987006089650095
576.0,0.000362075719749555
640.0,0.00010032182763097808
704.0,-0.0003685130213852972
768.0,-0.00038403799408115447
832.0,-0.00043964703218080103
896.0,-0.0003431928635109216
960.0,-0.00012111607793485746
1024.0,-0.00025423947954550385
1152.0,-0.0005411345628090203
1280.0,-0.00020375498570501804
1408.0,0.00042654015123844147
1536.0,1.0258819202135783e-05
1664.0,-0.00018275284674018621
1792.0,-0.00032870107679627836
1920.0,0.00036923258448950946
2048.0,0.0006613192381337285
2304.0,-0.0001913385494844988
2560.0,0.0002540033310651779
2816.0,0.00015003475709818304
3072.0,-0.00011944769357796758
3328.0,-0.00012537471775431186
3584.0,8.277222514152527e-05
3840.0,-0.0004222933785058558
4096.0,0.00042749661952257156
4608.0,2.4270957510452718e-05
5120.0,6.950746319489554e-05
5632.0,7.570688921987312e-06
6144.0,-0.0002498134854249656
6656.0,0.00018439316772855818
7168.0,0.00021045940229669213
7680.0,-0.00046547825331799686
8192.0,-0.0001219557598233223
9216.0,0.00012532593973446637
10240.0,-4.5966073230374604e-05
11264.0,-5.402774331741966e-05
12288.0,-3.0911418434698135e-05
13312.0,-0.00010445621592225507
14336.0,1.8345121134188958e-05
end
