version,3.0
numOfCh,1
type,point
parent_name,800-cuts
ch_type,1_1
kcount,1
numberNandB,1
brightnessNandB,1
carpet pos,0
pc,0
Time (ms),CH1 Auto-Correlation
1.0,0.016388513147830963
2.0,0.012886228039860725
3.0,0.010419294238090515
4.0,0.008678766898810863
5.0,0.007505007088184357
6.0,0.006530152168124914
7.0,0.005675271153450012
8.0,0.005177559796720743
9.0,0.004751421045511961
10.0,0.004291610326617956
11.0,0.003920114133507013
12.0,0.003560757264494896
13.0,0.0031798279378563166
14.0,0.002928774803876877
15.0,0.0027274442836642265
16.0,0.002642176579684019
18.0,0.0022108934354037046
20.0,0.0016458213794976473
22.0,0.0013111475855112076
24.0,0.0012455567484721541
26.0,0.0013672927161678672
28.0,0.0010901694186031818
30.0,0.0008144485764205456
32.0,0.0007497367914766073
36.0,0.000688505417201668
40.0,0.0002622433821670711
44.0,0.00024086593475658447
48.0,0.00018409252515994012
52.0,0.0002298315375810489
56.0,3.5357657907297835e-05
60.0,-1.041781433741562e-05
64.0,0.00013122466043569148
72.0,-0.0001059153291862458
80.0,-0.0002366332191741094
88.0,4.029141564387828e-05
96.0,-0.00015023411833681166
104.0,-0.000678288284689188
112.0,-0.0005756437312811613
120.0,-0.0005138111882843077
128.0,-0.0005038039525970817
144.0,-9.005446918308735e-05
160.0,-0.0005347137339413166
176.0,-3.38959762302693e-05
192.0,7.968286809045821e-05
208.0,0.00016082469664979726
224.0,-0.0002191488165408373
240.0,-1.1977773283433635e-05
256.0,0.0002383659448241815
288.0,-0.0004518355999607593
320.0,-9.956181020243093e-05
352.0,-0.00026574195362627506
384.0,-0.0002199173322878778
416.0,0.00016229880566243082
448.0,0.0005053061177022755
480.0,0.00047760093002580106
512.0,0.00014982321590650827
576.0,-0.00020990768098272383
640.0,-0.00045311712892726064
704.0,-6.640861829509959e-05
768.0,0.00034681890974752605
832.0,-8.494540816172957e-05
896.0,5.754922312917188e-06
960.0,9.321326797362417e-05
1024.0,-0.0003270199231337756
1152.0,-0.0003027906932402402
1280.0,0.0002188356447732076
1408.0,-3.461546293692663e-05
1536.0,6.831659993622452e-05
1664.0,-2.856612263713032e-05
1792.0,-5.404108378570527e-05
1920.0,-0.00022123164671938866
2048.0,-0.00013401910837274045
2304.0,-7.638768147444353e-05
2560.0,-5.6114731705747545e-05
2816.0,-0.00016059775953181088
3072.0,0.00010394956188974902
3328.0,0.0001404175563948229
3584.0,1.0830400242411997e-05
3840.0,-8.147939661284909e-05
4096.0,3.574929360183887e-05
4608.0,4.9940485041588545e-05
5120.0,-4.7807847295189276e-05
5632.0,-5.0010785344056785e-05
6144.0,6.88562577124685e-05
6656.0,6.372046482283622e-05
7168.0,-0.00011145405733259395
7680.0,-1.616815643501468e-05
8192.0,4.427373642101884e-05
9216.0,1.6325015167240053e-05
10240.0,1.7505453797639348e-05
11264.0,2.114963899657596e-05
12288.0,-7.695645035710186e-05
13312.0,7.219671533675864e-05
14336.0,-8.034778875298798e-05
end
