version,3.0
numOfCh,1
type,point
parent_name,800-cuts
ch_type,1_1
kcount,1
numberNandB,1
brightnessNandB,1
carpet pos,0
pc,0
Time (ms),CH1 Auto-Correlation
1.0,0.025859285145998
2.0,0.020322008058428764
3.0,0.01639724150300026
4.0,0.013771099969744682
5.0,0.011891982518136501
6.0,0.01021287776529789
7.0,0.00894943717867136
8.0,0.007994581013917923
9.0,0.007050609681755304
10.0,0.00639253668487072
11.0,0.005816696677356958
12.0,0.005258561577647924
13.0,0.004833662882447243
14.0,0.0043514082208275795
15.0,0.00381243578158319
16.0,0.003309893421828747
18.0,0.002788002137094736
20.0,0.002167951315641403
22.0,0.0017126661259680986
24.0,0.0013268385082483292
26.0,0.0010864263167604804
28.0,0.0007880569319240749
30.0,0.0006653268937952816
32.0,0.0003016885311808437
36.0,3.58453908120282e-05
40.0,-3.41758641297929e-05
44.0,-0.0001871034037321806
48.0,-0.0005621743621304631
52.0,-0.00040724468999542296
56.0,-0.0006431412184610963
60.0,-0.000634052325040102
64.0,-0.0007985217962414026
72.0,0.00011945302685489878
80.0,0.0006991929258219898
88.0,0.0011747053358703852
96.0,0.0008146681357175112
104.0,0.0004664075968321413
112.0,0.0010160764213651419
120.0,0.0007939207134768367
128.0,5.9472313296282664e-05
144.0,0.0005817802157253027
160.0,0.0005168484640307724
176.0,0.0006702840910293162
192.0,-0.00025741508579812944
208.0,-2.9792499844916165e-05
224.0,-0.0001598707603989169
240.0,-0.00048304119263775647
256.0,0.0005329343257471919
288.0,-0.0008474346250295639
320.0,-0.00034575461177155375
352.0,0.00023734112619422376
384.0,-8.061503467615694e-05
416.0,-0.000672490568831563
448.0,-0.0005813255556859076
480.0,0.0006094723357819021
512.0,0.0005420613451860845
576.0,-0.00034117346513085067
640.0,0.00018943555187433958
704.0,4.91810824314598e-05
768.0,0.00013889779802411795
832.0,0.00019054542644880712
896.0,0.00043922304757870734
960.0,-0.0001350687089143321
1024.0,-3.553045098669827e-05
1152.0,-0.00023889834119472653
1280.0,-0.00012519197480287403
1408.0,0.00023650482762604952
1536.0,0.0002285136142745614
1664.0,0.0005804650718346238
1792.0,-5.746424358221702e-05
1920.0,0.00021405167353805155
2048.0,0.0004259583947714418
2304.0,4.093165262020193e-05
2560.0,-0.0002868434530682862
2816.0,-8.788485388322442e-07
3072.0,-0.00026435861946083605
3328.0,0.00014172155351843685
3584.0,-1.6919520930969156e-05
3840.0,0.0002707377134356648
4096.0,9.495423728367314e-05
4608.0,-0.00015051713853608817
5120.0,-0.0001050056962412782
5632.0,-0.00010497694893274456
6144.0,-0.0003280441742390394
6656.0,-0.0001622573472559452
7168.0,0.00011829575669253245
7680.0,-0.00019172664906363934
8192.0,-9.884020983008668e-05
9216.0,-7.237292447825894e-05
10240.0,-0.00011995801469311118
11264.0,9.349217725684866e-05
12288.0,0.000140258576720953
13312.0,-9.309700544690713e-05
14336.0,0.00017273957200814039
end
