version,3.0
numOfCh,1
type,point
parent_name,800-cuts
ch_type,1_1
kcount,1
numberNandB,1
brightnessNandB,1
carpet pos,0
pc,0
Time (ms),CH1 Auto-Correlation
1.0,0.025170842185616493
2.0,0.019429322332143784
3.0,0.01564987190067768
4.0,0.012995059601962566
5.0,0.010929157957434654
6.0,0.009593674913048744
7.0,0.008473717607557774
8.0,0.00734190596267581
9.0,0.0064621963538229465
10.0,0.005863193888217211
11.0,0.005137075670063496
12.0,0.004959772806614637
13.0,0.004511052742600441
14.0,0.004244777373969555
15.0,0.0037927362136542797
16.0,0.0033356170170009136
18.0,0.0023832092992961407
20.0,0.001805650070309639
22.0,0.0015870848437771201
24.0,0.001329687424004078
26.0,0.0007917796028777957
28.0,0.0005666346987709403
30.0,0.0005912539199925959
32.0,0.0005721928318962455
36.0,0.0003334936045575887
40.0,0.0003076749271713197
44.0,0.0008558465051464736
48.0,0.0008310219272971153
52.0,0.0005224048509262502
56.0,0.0003809330810327083
60.0,0.0005841897218488157
64.0,0.00041561349644325674
72.0,0.0007212040363810956
80.0,-0.00011152283695992082
88.0,-0.0009743294212967157
96.0,-0.0006691080052405596
104.0,0.0001052997904480435
112.0,0.0007993559702299535
120.0,0.000746887584682554
128.0,0.0006065519410185516
144.0,0.00024391589977312833
160.0,0.0005892778281122446
176.0,0.00040224730037152767
192.0,0.00036831293255090714
208.0,0.0003620816860347986
224.0,-0.00041188125032931566
240.0,-0.00043330746120773256
256.0,8.041158434934914e-05
288.0,-0.0003490967210382223
320.0,-9.042845340445638e-05
352.0,-0.0006186633254401386
384.0,-0.000262723391642794
416.0,-0.000762541254516691
448.0,-0.00031936168670654297
480.0,4.3137060856679454e-05
512.0,0.00026835798053070903
576.0,0.00037998761399649084
640.0,-3.4009761293418705e-05
704.0,-0.0004235793312545866
768.0,0.00010484064114280045
832.0,-0.0002488262834958732
896.0,9.636332833906636e-05
960.0,-0.000470660743303597
1024.0,-4.3394520616857335e-05
1152.0,-0.00014275565627031028
1280.0,1.1017627002729569e-05
1408.0,-0.00011703163909260184
1536.0,0.00016415733261965215
1664.0,-2.1395277144620195e-05
1792.0,-4.043938315589912e-05
1920.0,0.00011364567035343498
2048.0,0.0003385421878192574
2304.0,0.00019094673916697502
2560.0,-1.4850421393930446e-05
2816.0,-9.144149953499436e-05
3072.0,-0.00021109638328198344
3328.0,-0.00017141408170573413
3584.0,0.00039497611578553915
3840.0,-0.00011523850844241679
4096.0,-0.00013252886128611863
4608.0,-0.0001951984886545688
5120.0,5.09258643432986e-05
5632.0,-8.574758976465091e-05
6144.0,-0.0002004739799303934
6656.0,-0.00022355873079504818
7168.0,-9.11721435841173e-05
7680.0,0.00012084023182978854
8192.0,1.5830781194381416e-05
9216.0,-5.02521543239709e-05
10240.0,0.00012258585775271058
11264.0,3.5917346394853666e-05
12288.0,9.858338307822123e-05
13312.0,4.733046444016509e-05
14336.0,-0.00012839687406085432
end
