version,3.0
numOfCh,1
type,point
parent_name,800-cuts
ch_type,1_1
kcount,1
numberNandB,1
brightnessNandB,1
carpet pos,0
pc,0
Time (ms),CH1 Auto-Correlation
1.0,0.027087295427918434
2.0,0.02151070535182953
3.0,0.01755359396338463
4.0,0.014698461629450321
5.0,0.012390493415296078
6.0,0.010641999542713165
7.0,0.00924023799598217
8.0,0.007936392910778522
9.0,0.0069117238745093346
10.0,0.005922646261751652
11.0,0.005180570762604475
12.0,0.004603386390954256
13.0,0.004140731878578663
14.0,0.0036778594367206097
15.0,0.0031848817598074675
16.0,0.002662015613168478
18.0,0.001995025435462594
20.0,0.0016259887488558888
22.0,0.0012229570420458913
24.0,0.0008478576201014221
26.0,0.0009145173244178295
28.0,0.0009017123375087976
30.0,0.0005953817162662745
32.0,0.0004410330147948116
36.0,6.557030428666621e-05
40.0,-0.0005688744131475687
44.0,-0.000526163203176111
48.0,-0.00044181017437949777
52.0,-0.0005478910752572119
56.0,-0.0004279001441318542
60.0,0.00016734428936615586
64.0,0.00022115901811048388
72.0,9.89061882137321e-05
80.0,0.00013781485904473811
88.0,0.0004845096846111119
96.0,0.0005094841471873224
104.0,-9.135621803579852e-05
112.0,-0.000673496222589165
120.0,-0.0008533688960596919
128.0,8.304919902002439e-05
144.0,-0.0001769336377037689
160.0,-6.365428998833522e-05
176.0,-0.000495565589517355
192.0,-0.0007783907931298018
208.0,-0.001268848660402
224.0,-0.0006273178150877357
240.0,-0.0006505883065983653
256.0,9.97075840132311e-05
288.0,-0.00010545047553023323
320.0,0.0008531319326721132
352.0,6.4577761804685e-05
384.0,0.00048295254237018526
416.0,2.0121044144616462e-05
448.0,-0.00029628979973495007
480.0,0.0003475566045381129
512.0,-0.00030655533191747963
576.0,-0.0001486118562752381
640.0,0.000154659544932656
704.0,-0.0005334598827175796
768.0,-0.0002539812121540308
832.0,-0.0003778036334551871
896.0,0.0003563077771104872
960.0,-0.0004302478628233075
1024.0,-0.00017032644245773554
1152.0,0.00017955760995391756
1280.0,-2.5544624804751948e-05
1408.0,-9.933420369634405e-05
1536.0,0.00027006317395716906
1664.0,-0.00018234479648526758
1792.0,-1.310065999859944e-05
1920.0,9.210513235302642e-05
2048.0,0.00019255763618275523
2304.0,-0.00017906309221871197
2560.0,2.1674019080819562e-05
2816.0,-5.015272108721547e-05
3072.0,0.00015588112000841647
3328.0,0.0002373916795477271
3584.0,0.0003074586275033653
3840.0,-0.00021881741122342646
4096.0,-4.959079160471447e-05
4608.0,-9.3332608230412e-05
5120.0,8.397270721616223e-05
5632.0,2.4557624783483334e-05
6144.0,-0.0001921244984259829
6656.0,8.501664706273004e-05
7168.0,-0.0001134121193899773
7680.0,-0.000254891550866887
8192.0,-8.70878211571835e-05
9216.0,0.00017014399054460227
10240.0,-6.142543134046718e-05
11264.0,-0.00013137748464941978
12288.0,0.0002087791945086792
13312.0,-3.3984480978688225e-05
14336.0,-1.7749573544278974e-06
end
