version,3.0
numOfCh,1
type,point
parent_name,800-cuts
ch_type,1_1
kcount,1
numberNandB,1
brightnessNandB,1
carpet pos,0
pc,0
Time (ms),CH1 Auto-Correlation
1.0,0.026938091963529587
2.0,0.021292392164468765
3.0,0.017230557277798653
4.0,0.014243741519749165
5.0,0.011850276030600071
6.0,0.009969661012291908
7.0,0.008489315398037434
8.0,0.007290367037057877
9.0,0.006387412082403898
10.0,0.005622078198939562
11.0,0.004814555868506432
12.0,0.0043820724822580814
13.0,0.003971409518271685
14.0,0.0037208034191280603
15.0,0.003281585406512022
16.0,0.002888960065320134
18.0,0.002635399578139186
20.0,0.0021658476907759905
22.0,0.001805479172617197
24.0,0.0015898793935775757
26.0,0.0012010380160063505
28.0,0.0009997743181884289
30.0,0.0008571743965148926
32.0,0.0007324253092519939
36.0,0.0007679762784391642
40.0,0.000976838287897408
44.0,0.00043588996049948037
48.0,0.0004810374230146408
52.0,0.00033951521618291736
56.0,-0.0004016706661786884
60.0,-0.0005774142337031662
64.0,-0.0006348390015773475
72.0,-8.910395263228565e-05
80.0,-0.0005269506364129484
88.0,-0.000673391972668469
96.0,-0.00038984863203950226
104.0,-0.00039295630995184183
112.0,-0.0008430923917330801
120.0,-0.00030362288816832006
128.0,0.00037989599513821304
144.0,0.0001966882700799033
160.0,-0.00012781219265889376
176.0,-0.00038597374805249274
192.0,-0.0010637239320203662
208.0,-0.00029109037132002413
224.0,-0.00027356675127521157
240.0,0.0006607658579014242
256.0,0.0010153553448617458
288.0,0.0007054830784909427
320.0,-0.0007000627228990197
352.0,-0.0006140485056675971
384.0,-0.0004792161926161498
416.0,0.000369453860912472
448.0,9.138737368630245e-05
480.0,0.0006649330025538802
512.0,0.0006821979768574238
576.0,-0.0009143052157014608
640.0,-0.0006515446002595127
704.0,-0.0002987126063089818
768.0,-0.00012326276919338852
832.0,-0.00014975662634242326
896.0,-0.00037250539753586054
960.0,-2.4756187485763803e-05
1024.0,-0.00015857965627219528
1152.0,-0.0002481280534993857
1280.0,0.0006294127670116723
1408.0,-0.00043287864536978304
1536.0,0.00034534637234173715
1664.0,1.6499972161909682e-06
1792.0,7.657054084120318e-05
1920.0,0.00013040560588706285
2048.0,6.002915324643254e-05
2304.0,-5.515713201020844e-05
2560.0,-0.0001557506329845637
2816.0,-0.00014308196841739118
3072.0,-5.36246552655939e-05
3328.0,6.007641331962077e-06
3584.0,-4.9478516302770004e-05
3840.0,-5.561261423281394e-05
4096.0,-5.915951533097541e-06
4608.0,2.5241076855309075e-06
5120.0,-8.761572826188058e-05
5632.0,-1.0218539500783663e-05
6144.0,0.00024692065198905766
6656.0,-0.00024137843865901232
7168.0,3.1959436455508694e-05
7680.0,0.00022733761579729617
8192.0,-0.00011378881754353642
9216.0,0.00010510150605114177
10240.0,-0.00013768333883490413
11264.0,3.8371828850358725e-05
12288.0,0.00014026541612111032
13312.0,-0.00010486567043699324
14336.0,-4.4825126678915694e-05
end
