version,3.0
numOfCh,1
type,point
parent_name,800-cuts
ch_type,1_1
kcount,1
numberNandB,1
brightnessNandB,1
carpet pos,0
pc,0
Time (ms),CH1 Auto-Correlation
1.0,0.01611717976629734
2.0,0.01250934787094593
3.0,0.009990568272769451
4.0,0.00811900943517685
5.0,0.006696358323097229
6.0,0.00573143782094121
7.0,0.004987230524420738
8.0,0.004320249427109957
9.0,0.003735545789822936
10.0,0.0032251260709017515
11.0,0.002852404024451971
12.0,0.0024597037117928267
13.0,0.0021429366897791624
14.0,0.001917251036502421
15.0,0.0016305285971611738
16.0,0.0013547679409384727
18.0,0.0009714862680993974
20.0,0.0005648841615766287
22.0,0.0002561513101682067
24.0,0.0001935214822879061
26.0,5.229002272244543e-05
28.0,6.452912202803418e-05
30.0,9.714117186376825e-05
32.0,0.00016989815048873425
36.0,0.00030141655588522553
40.0,0.00015970123058650643
44.0,0.000158558992552571
48.0,3.9601653156751127e-07
52.0,-0.0001227393076987937
56.0,-0.00041619199328124523
60.0,-0.0002967127657029778
64.0,-3.976815605710726e-06
72.0,9.511094685876742e-05
80.0,0.00025974150048568845
88.0,8.19476626929827e-05
96.0,1.9506323951645754e-05
104.0,-0.0005310251144692302
112.0,-0.0005580002907663584
120.0,-0.0004977866774424911
128.0,-0.0005471619660966098
144.0,-0.0006355589139275253
160.0,-0.00016364679322578013
176.0,0.00030758895445615053
192.0,0.00021168390230741352
208.0,6.397563265636563e-05
224.0,0.00015935287228785455
240.0,-5.466616130433977e-06
256.0,0.00023994105868041515
288.0,0.0004305039474274963
320.0,0.00010064237721962854
352.0,-7.27286096662283e-05
384.0,-8.392117160838097e-05
416.0,-0.00043528544483706355
448.0,-0.0005136978579685092
480.0,-0.00041868104017339647
512.0,0.00020217770361341536
576.0,0.00032063128310255706
640.0,-2.0893099645036273e-05
704.0,-6.512402615044266e-05
768.0,-9.164126822724938e-05
832.0,0.00016401874017901719
896.0,2.7167037842446007e-05
960.0,-0.00021420803386718035
1024.0,-6.074620978324674e-05
1152.0,7.240817649289966e-05
1280.0,-5.231121031101793e-05
1408.0,1.1245716450503096e-05
1536.0,-0.00012345926370471716
1664.0,6.233523163245991e-05
1792.0,-0.00014175270916894078
1920.0,-0.0001277050469070673
2048.0,0.000220366709982045
2304.0,4.9555656005395576e-05
2560.0,-0.0002756713656708598
2816.0,-5.8422832807991654e-05
3072.0,7.256749813677743e-05
3328.0,1.333514774159994e-05
3584.0,-8.999135025078431e-05
3840.0,-5.0137176003772765e-05
4096.0,0.00013581255916506052
4608.0,-2.9492512112483382e-05
5120.0,4.1951745515689254e-05
5632.0,6.382112042047083e-05
6144.0,-4.907017864752561e-05
6656.0,-1.1949156942137051e-05
7168.0,-6.997279706411064e-05
7680.0,-1.044651617121417e-05
8192.0,-5.953276559012011e-05
9216.0,-1.8878879927797243e-05
10240.0,-1.4909275705576874e-05
11264.0,-3.3355052437400445e-05
12288.0,3.1510708140558563e-06
13312.0,6.952962576178834e-05
14336.0,4.528127465164289e-05
end
