version,3.0
numOfCh,1
type,point
parent_name,800-cuts
ch_type,1_1
kcount,1
numberNandB,1
brightnessNandB,1
carpet pos,0
pc,0
Time (ms),CH1 Auto-Correlation
1.0,0.024695884436368942
2.0,0.019185250625014305
3.0,0.015214873477816582
4.0,0.012472419068217278
5.0,0.010532515123486519
6.0,0.009161382913589478
7.0,0.007874124683439732
8.0,0.0068993535824120045
9.0,0.006187441758811474
10.0,0.005465258844196796
11.0,0.004768773447722197
12.0,0.004107112530618906
13.0,0.0036053999792784452
14.0,0.003168560331687331
15.0,0.002896570833399892
16.0,0.002675048541277647
18.0,0.0024669114500284195
20.0,0.002236046362668276
22.0,0.0018054463434964418
24.0,0.0014644854236394167
26.0,0.0011463277041912079
28.0,0.0007290039211511612
30.0,0.00035003465018235147
32.0,-0.00011248947703279555
36.0,-0.0007362787146121264
40.0,-0.0013300019782036543
44.0,-0.0012749333400279284
48.0,-0.0008211564272642136
52.0,-0.00015501132293138653
56.0,0.00041240997961722314
60.0,0.000509294681251049
64.0,0.0010860379552468657
72.0,0.0009433451341465116
80.0,0.0003551906265784055
88.0,1.4703808119520545e-05
96.0,-0.0003272273170296103
104.0,-0.0006353676435537636
112.0,-0.00036894940421916544
120.0,-0.00012843971489928663
128.0,9.614156442694366e-05
144.0,5.381603500609344e-07
160.0,-0.000625454995315522
176.0,-0.000768548168707639
192.0,-0.000512307567987591
208.0,1.0841210951184621e-06
224.0,0.0003132719430141151
240.0,0.0003883711469825357
256.0,0.00027218798641115427
288.0,0.00016464735381305218
320.0,0.0008226825157180429
352.0,-0.00017326543456874788
384.0,-0.0006600121269002557
416.0,-4.451674612937495e-05
448.0,-0.0005692976410500705
480.0,-7.249903865158558e-05
512.0,-7.860623736632988e-05
576.0,3.4601838706294075e-05
640.0,0.0003234327014070004
704.0,-1.2955151760252193e-05
768.0,-0.00031993756419979036
832.0,8.572063961764798e-05
896.0,0.00016540485376026481
960.0,-7.65471559134312e-05
1024.0,-0.0006917109712958336
1152.0,-0.00011185848416062072
1280.0,-1.6878035239642486e-05
1408.0,-5.723915091948584e-05
1536.0,0.0004072043811902404
1664.0,1.4510091205011122e-05
1792.0,0.00018211890710517764
1920.0,9.066828351933509e-05
2048.0,0.0003994031867478043
2304.0,-0.0001938922650879249
2560.0,-0.0003195941972080618
2816.0,1.617674388398882e-05
3072.0,-2.5672932679299265e-05
3328.0,8.858278306433931e-05
3584.0,-2.360839062021114e-05
3840.0,-6.361427949741483e-05
4096.0,-0.00014904927229508758
4608.0,-0.000137952491058968
5120.0,6.896297418279573e-05
5632.0,-0.00015683987294323742
6144.0,-0.00019211324979551136
6656.0,0.0001290699583478272
7168.0,3.6358964280225337e-05
7680.0,5.7892971199180465e-06
8192.0,0.0002621991734486073
9216.0,-0.00020487216534093022
10240.0,0.0003555883595254272
11264.0,-0.0004106012638658285
12288.0,0.00018388353055343032
13312.0,-0.0004546799755189568
14336.0,0.0001711142685962841
end
