version,3.0
numOfCh,1
type,point
parent_name,800-cuts
ch_type,1_1
kcount,1
numberNandB,1
brightnessNandB,1
carpet pos,0
pc,0
Time (ms),CH1 Auto-Correlation
1.0,0.01571313478052616
2.0,0.012134646996855736
3.0,0.009708364494144917
4.0,0.008001183159649372
5.0,0.006676123943179846
6.0,0.005800983402878046
7.0,0.005176043603569269
8.0,0.004576193634420633
9.0,0.00401450227946043
10.0,0.0034835629630833864
11.0,0.0030393097549676895
12.0,0.002792710205540061
13.0,0.0024874655064195395
14.0,0.0022485191002488136
15.0,0.0020514708012342453
16.0,0.001739131985232234
18.0,0.0012763786362484097
20.0,0.0010441425256431103
22.0,0.0008829509606584907
24.0,0.0006948551163077354
26.0,0.0007605317514389753
28.0,0.000727510079741478
30.0,0.0006708051660098135
32.0,0.0005820890073664486
36.0,0.0003000077267643064
40.0,0.0001806131622288376
44.0,0.00019938571495003998
48.0,0.0006329109892249107
52.0,0.0006887791096232831
56.0,0.0004681406426243484
60.0,0.00018072742386721075
64.0,0.0001013289947877638
72.0,-3.330067193019204e-05
80.0,7.84453732194379e-05
88.0,0.00014013139298185706
96.0,0.0002093042276101187
104.0,0.00026878665084950626
112.0,0.00011905560677405447
120.0,-0.00010724268213380128
128.0,-0.00010659166582627222
144.0,0.00035232651862315834
160.0,0.0005230993847362697
176.0,1.9770950530073605e-06
192.0,-0.00024255613971035928
208.0,-0.0004325297777540982
224.0,-0.0004904653178527951
240.0,-0.0006863867165520787
256.0,-0.00023935636272653937
288.0,-0.0003082141629420221
320.0,-0.00021828011085744947
352.0,0.00015770562458783388
384.0,0.00017306105291936547
416.0,0.00020421123190317303
448.0,0.000587367860134691
480.0,-1.6473306459374726e-05
512.0,-0.000351087364833802
576.0,-0.00010527763515710831
640.0,-0.0002053427742794156
704.0,-0.0003023414465133101
768.0,7.352864486165345e-05
832.0,-6.802277493989095e-05
896.0,-0.00015430663188453764
960.0,-5.174435136723332e-05
1024.0,8.593915845267475e-05
1152.0,0.00030946347396820784
1280.0,6.296457286225632e-05
1408.0,-0.00023620936553925276
1536.0,2.9893206374254078e-05
1664.0,-0.0001804000639822334
1792.0,-3.847233529086225e-05
1920.0,0.000198832101887092
2048.0,4.8301702918251976e-05
2304.0,-7.746395567664877e-05
2560.0,-9.79493124759756e-05
2816.0,0.00017686835781205446
3072.0,4.997778887627646e-05
3328.0,-0.0001037043402902782
3584.0,-1.94763888430316e-05
3840.0,-0.00013673104695044458
4096.0,5.3381027100840583e-05
4608.0,-0.0001063480376615189
5120.0,6.854311504866928e-05
5632.0,-2.637411125760991e-05
6144.0,2.3988437533262186e-05
6656.0,-0.00018893720698542893
7168.0,-0.00013933675654698163
7680.0,3.395306703168899e-05
8192.0,-4.4160897232359275e-05
9216.0,4.082758823642507e-05
10240.0,2.900822255469393e-05
11264.0,8.417483331868425e-05
12288.0,-6.334501813398674e-05
13312.0,5.037996015744284e-05
14336.0,-7.83041468821466e-05
end
