version,3.0
numOfCh,1
type,point
parent_name,800-cuts
ch_type,1_1
kcount,1
numberNandB,1
brightnessNandB,1
carpet pos,0
pc,0
Time (ms),CH1 Auto-Correlation
1.0,0.025940634310245514
2.0,0.020372342318296432
3.0,0.016599901020526886
4.0,0.013584312051534653
5.0,0.011309543624520302
6.0,0.009655115194618702
7.0,0.008180391043424606
8.0,0.006997308693826199
9.0,0.006118126679211855
10.0,0.00542065454646945
11.0,0.00473513500764966
12.0,0.004110842011868954
13.0,0.003470394294708967
14.0,0.0028195611666888
15.0,0.0023805052042007446
16.0,0.0020681386813521385
18.0,0.0017865573754534125
20.0,0.0015305717242881656
22.0,0.0013830253155902028
24.0,0.0011560602579265833
26.0,0.0007960637449286878
28.0,0.0004396979929879308
30.0,0.00024189017130993307
32.0,0.00022917120077181607
36.0,0.00019010293181054294
40.0,0.0002206767676398158
44.0,1.2321563190198503e-05
48.0,-3.406658652238548e-05
52.0,0.0001589997991686687
56.0,0.0007112495368346572
60.0,0.0005325006786733866
64.0,0.00035915884654968977
72.0,0.00014100984844844788
80.0,0.00014904324780218303
88.0,-0.0009704565745778382
96.0,-0.0010789558291435242
104.0,-0.0006003386806696653
112.0,-0.0005050736363045871
120.0,-0.00011929607717320323
128.0,-0.0007211492629721761
144.0,-0.0007578124641440809
160.0,-0.00041610971675254405
176.0,-8.191793313017115e-05
192.0,0.0002542483853176236
208.0,0.00022522476501762867
224.0,0.0011803333181887865
240.0,0.0007771992241032422
256.0,0.0005826325505040586
288.0,0.0007696009706705809
320.0,0.000363742932677269
352.0,0.00037223382969386876
384.0,4.364361666375771e-05
416.0,7.642163836862892e-06
448.0,-0.00027289026184007525
480.0,-0.00014608340279664844
512.0,6.889426003908738e-05
576.0,0.0003124860522802919
640.0,-0.00015051518857944757
704.0,8.521071140421554e-05
768.0,0.0002378409990342334
832.0,-0.00028144242241978645
896.0,0.000572300108615309
960.0,-0.00012028775381622836
1024.0,-0.0007733289385214448
1152.0,-0.00019946075917687267
1280.0,-0.00012460902507882565
1408.0,-6.264603871386498e-05
1536.0,-0.00010997921344824135
1664.0,-6.908449722686782e-05
1792.0,-6.730237510055304e-05
1920.0,0.00035961504909209907
2048.0,4.964656545780599e-05
2304.0,0.00024363453849218786
2560.0,0.00017114559886977077
2816.0,0.00010216158261755481
3072.0,-8.327467367053032e-05
3328.0,-3.6959074350306764e-05
3584.0,-0.00013240646512713283
3840.0,-0.00017854556790553033
4096.0,-0.00011981118586845696
4608.0,-0.0001040816496242769
5120.0,-7.029651169432327e-05
5632.0,0.00018770420865621418
6144.0,-6.52243397780694e-05
6656.0,-0.00031918095191940665
7168.0,-8.997998520499095e-06
7680.0,0.00020595760724972934
8192.0,-0.0001679039851296693
9216.0,3.8473550375783816e-05
10240.0,-2.698395292100031e-05
11264.0,-3.334189023007639e-05
12288.0,8.64169851411134e-05
13312.0,1.9406259525567293e-05
14336.0,-8.855360647430643e-06
end
