version,3.0
numOfCh,1
type,point
parent_name,800-cuts
ch_type,1_1
kcount,1
numberNandB,1
brightnessNandB,1
carpet pos,0
pc,0
Time (ms),CH1 Auto-Correlation
1.0,0.016296301037073135
2.0,0.01278479304164648
3.0,0.010359027422964573
4.0,0.008549782447516918
5.0,0.007201437838375568
6.0,0.006132715847343206
7.0,0.005258499179035425
8.0,0.004454143811017275
9.0,0.0038155349902808666
10.0,0.003334970911964774
11.0,0.0030227447859942913
12.0,0.0027819625101983547
13.0,0.002525239484384656
14.0,0.002261265879496932
15.0,0.0018892359221354127
16.0,0.001717103412374854
18.0,0.0013367572100833058
20.0,0.001049353857524693
22.0,0.0006153766880743206
24.0,0.000393462396459654
26.0,0.000399086537072435
28.0,0.0003631188883446157
30.0,0.0004114807234145701
32.0,0.00034920882899314165
36.0,0.00048294258886016905
40.0,0.00047330785309895873
44.0,0.0005214216653257608
48.0,0.00034233395126648247
52.0,-0.00012474271352402866
56.0,-0.00041184312431141734
60.0,-0.00044797538430429995
64.0,-0.00016769921057857573
72.0,-0.0001760220038704574
80.0,-0.0005309976986609399
88.0,-0.0008631329983472824
96.0,-0.0008720982586964965
104.0,-0.0005455354694277048
112.0,-0.0005957573303021491
120.0,-0.0006752833141945302
128.0,-0.000345407344866544
144.0,0.00023712600523140281
160.0,-0.0006655798642896116
176.0,-0.0003333381609991193
192.0,0.00022997238556854427
208.0,0.00023696657444816083
224.0,0.0005653839907608926
240.0,0.0006901766755618155
256.0,0.0005541317514143884
288.0,-0.00031955886515788734
320.0,-0.0005423076217994094
352.0,-9.625404345570132e-05
384.0,4.00451381210587e-06
416.0,0.00018531233945395797
448.0,0.00017689139349386096
480.0,0.00021913832460995764
512.0,-1.8124892449122854e-05
576.0,-0.00010464182560099289
640.0,0.0001985185663215816
704.0,-6.958260200917721e-05
768.0,7.108692079782486e-05
832.0,9.407001925865188e-05
896.0,-0.0001350118691334501
960.0,0.0004645354056265205
1024.0,3.890116204274818e-05
1152.0,9.363319259136915e-05
1280.0,-8.569635974708945e-05
1408.0,-1.7704907804727554e-05
1536.0,0.0003981199988629669
1664.0,6.803053838666528e-05
1792.0,0.00022452902339864522
1920.0,2.069127185677644e-05
2048.0,-0.00012384662113618106
2304.0,9.227629561792128e-06
2560.0,4.094970063306391e-05
2816.0,-0.00014440443192142993
3072.0,3.1339939596364275e-05
3328.0,6.772005144739524e-05
3584.0,6.781471893191338e-05
3840.0,-3.836289397440851e-05
4096.0,2.517851498851087e-05
4608.0,-0.0001254569651791826
5120.0,2.0840165234403685e-05
5632.0,1.6599409718764946e-05
6144.0,-0.00012801907723769546
6656.0,-8.825166150927544e-05
7168.0,4.838638051296584e-05
7680.0,-3.157625542371534e-05
8192.0,-5.569201675825752e-05
9216.0,7.034372538328171e-05
10240.0,-1.548392538097687e-05
11264.0,-7.480735803255811e-05
12288.0,-0.00012420839630067348
13312.0,-0.00014450699381995946
14336.0,-2.1358859157771803e-05
end
