version,3.0
numOfCh,1
type,point
parent_name,800-cuts
ch_type,1_1
kcount,1
numberNandB,1
brightnessNandB,1
carpet pos,0
pc,0
Time (ms),CH1 Auto-Correlation
1.0,0.026015346869826317
2.0,0.020101254805922508
3.0,0.016116367653012276
4.0,0.013020914979279041
5.0,0.010944467037916183
6.0,0.009071560576558113
7.0,0.0078117880038917065
8.0,0.0067749228328466415
9.0,0.006106318440288305
10.0,0.0055533056147396564
11.0,0.0049638645723462105
12.0,0.0043053943663835526
13.0,0.0038344927597790956
14.0,0.0034310901537537575
15.0,0.0032166833989322186
16.0,0.0028105834499001503
18.0,0.002194975735619664
20.0,0.0018038181588053703
22.0,0.0014893944608047605
24.0,0.00137048598844558
26.0,0.0015035571996122599
28.0,0.0014125299639999866
30.0,0.0015573338605463505
32.0,0.0013234723592177033
36.0,0.0005803989479318261
40.0,0.0004029256524518132
44.0,0.00011122504656668752
48.0,-0.00029827654361724854
52.0,-0.000250196986598894
56.0,-0.00041567665175534785
60.0,-0.00011819920473499224
64.0,0.00048675184370949864
72.0,0.00017996762471739203
80.0,0.00032513111364096403
88.0,0.0003876232367474586
96.0,-0.00011184625327587128
104.0,-0.00020862977544311434
112.0,-0.0002361340302741155
120.0,-0.0009727090946398675
128.0,-0.001156664453446865
144.0,-0.00109170563519001
160.0,-0.0005048565217293799
176.0,0.0004203070420771837
192.0,-0.00011852310126414523
208.0,0.0005660601891577244
224.0,0.0009100513998419046
240.0,0.0006273132166825235
256.0,0.00031775873503647745
288.0,-0.0006036989507265389
320.0,-6.218108319444582e-05
352.0,-0.0001784760970622301
384.0,-0.00015546462964266539
416.0,-0.00018694836762733757
448.0,8.516247180523351e-05
480.0,0.00031545822275802493
512.0,-0.0003255425253883004
576.0,0.0002240682952105999
640.0,-0.00036652619019150734
704.0,-0.00011434128828113899
768.0,-0.00035974456113763154
832.0,-0.00022893957793712616
896.0,3.446517439442687e-05
960.0,-4.026357419206761e-05
1024.0,-0.0005017321091145277
1152.0,-0.00010871324047911912
1280.0,-9.68825988820754e-05
1408.0,0.0001984852715395391
1536.0,-8.507735765306279e-05
1664.0,-0.00016703960136510432
1792.0,-0.0003130525001324713
1920.0,-3.038957765966188e-05
2048.0,3.928306250600144e-05
2304.0,0.00013602842227555811
2560.0,5.509206857823301e-06
2816.0,3.800480408244766e-05
3072.0,-6.345396832330152e-05
3328.0,0.00025334348902106285
3584.0,-6.576097075594589e-05
3840.0,0.00010340500739403069
4096.0,-8.724803592485841e-06
4608.0,-0.00033965043257921934
5120.0,-0.00013942195801064372
5632.0,0.0003500310704112053
6144.0,6.135228147741145e-08
6656.0,4.25679718318861e-05
7168.0,-0.00011283831554464996
7680.0,-0.00010210328764514998
8192.0,-0.00010729302448453382
9216.0,0.0001320854207733646
10240.0,-0.00022132208687253296
11264.0,0.00014898691733833402
12288.0,-3.406778705539182e-05
13312.0,1.3825738278683275e-05
14336.0,0.00011351243301760405
end
