version,3.0
numOfCh,1
type,point
parent_name,800-cuts
ch_type,1_1
kcount,1
numberNandB,1
brightnessNandB,1
carpet pos,0
pc,0
Time (ms),CH1 Auto-Correlation
1.0,0.016055157408118248
2.0,0.012736046686768532
3.0,0.010476889088749886
4.0,0.008728070184588432
5.0,0.007189357187598944
6.0,0.006052119191735983
7.0,0.005032337736338377
8.0,0.004275248385965824
9.0,0.003711243160068989
10.0,0.0032802459318190813
11.0,0.0028548329137265682
12.0,0.00253513571806252
13.0,0.002178964437916875
14.0,0.0018742497777566314
15.0,0.0016992534510791302
16.0,0.001631857710890472
18.0,0.001389338169246912
20.0,0.0011312374845147133
22.0,0.0011958257528021932
24.0,0.000958448916207999
26.0,0.0008503120625391603
28.0,0.0008773767622187734
30.0,0.0007750160875730217
32.0,0.0006523745250888169
36.0,0.00039585359627380967
40.0,0.000336755154421553
44.0,0.0005270200781524181
48.0,0.0003682095848489553
52.0,6.463597674155608e-05
56.0,0.0003234021132811904
60.0,0.0006380564882420003
64.0,0.0005116304964758456
72.0,-0.00013654156646225601
80.0,0.0001408459502272308
88.0,0.0003900239535141736
96.0,0.00012869852071162313
104.0,-5.279769084154395e-06
112.0,-0.00043926056241616607
120.0,-0.00022585998522117734
128.0,0.00016706562018953264
144.0,-6.0594709793804213e-05
160.0,-8.06703174021095e-05
176.0,-0.00016999937361106277
192.0,-0.0004928891430608928
208.0,-0.00047945487312972546
224.0,-0.00032145477598533034
240.0,-0.00016861743642948568
256.0,8.258390880655497e-05
288.0,-4.1299099393654615e-05
320.0,8.650568634038791e-05
352.0,-9.136100561590865e-05
384.0,0.00016205976135097444
416.0,-0.0002529490739107132
448.0,-0.00021244601521175355
480.0,0.0001025181045406498
512.0,0.0001838725875131786
576.0,-0.00015674534370191395
640.0,0.00028120886418037117
704.0,9.398991824127734e-05
768.0,-6.383874278981239e-05
832.0,-0.0002951685746666044
896.0,-0.00044619955588132143
960.0,-0.00026029927539639175
1024.0,-0.00035100587410852313
1152.0,0.0002533596707507968
1280.0,-2.1374122297856957e-05
1408.0,-8.922340930439532e-05
1536.0,-0.00022292957874014974
1664.0,-0.000323119864333421
1792.0,0.00012739692465402186
1920.0,6.40843209112063e-05
2048.0,-5.879256423213519e-05
2304.0,0.0001229122863151133
2560.0,0.00011234007979510352
2816.0,8.688665548106655e-05
3072.0,-0.00011669447849271819
3328.0,-1.5478786735911854e-05
3584.0,-1.4784342056373134e-05
3840.0,1.9922301362385042e-05
4096.0,-4.493914093472995e-05
4608.0,7.349662337219343e-05
5120.0,-8.542207797290757e-05
5632.0,-1.7772104911273345e-05
6144.0,-1.4659178305009846e-05
6656.0,-8.441643331025261e-06
7168.0,-0.0001425329828634858
7680.0,-2.6740999601315707e-05
8192.0,0.00010190745524596423
9216.0,-0.00012461123696994036
10240.0,5.374291504267603e-05
11264.0,-6.156648396427045e-06
12288.0,-3.0441691478699795e-07
13312.0,6.001226574881002e-05
14336.0,7.809429916960653e-06
end
