version,3.0
numOfCh,1
type,point
parent_name,800-cuts
ch_type,1_1
kcount,1
numberNandB,1
brightnessNandB,1
carpet pos,0
pc,0
Time (ms),CH1 Auto-Correlation
1.0,0.02615322917699814
2.0,0.020372645929455757
3.0,0.01643032766878605
4.0,0.01372973620891571
5.0,0.011702600866556168
6.0,0.010061604902148247
7.0,0.00887302216142416
8.0,0.007967868819832802
9.0,0.007033254951238632
10.0,0.0062742335721850395
11.0,0.0054908208549022675
12.0,0.005002946592867374
13.0,0.0046310340985655785
14.0,0.004111778922379017
15.0,0.0037862116005271673
16.0,0.0034878153819590807
18.0,0.002657767152413726
20.0,0.00200528628192842
22.0,0.0016257542883977294
24.0,0.0012615070445463061
26.0,0.000881748681422323
28.0,0.0005193616379983723
30.0,0.0005738747422583401
32.0,0.0008185657788999379
36.0,0.0011100192787125707
40.0,0.000982520985417068
44.0,0.0008270839462056756
48.0,0.0006771057960577309
52.0,0.00039382700924761593
56.0,0.0004922832595184445
60.0,0.0007034720038063824
64.0,0.0011940451804548502
72.0,0.0003029493964277208
80.0,0.00015212157450150698
88.0,0.0004492949810810387
96.0,2.367207889619749e-05
104.0,0.0009372705826535821
112.0,0.0013053836300969124
120.0,0.0009698492358438671
128.0,0.0011515403166413307
144.0,5.050358231528662e-05
160.0,-0.0010884172515943646
176.0,-0.0007870246190577745
192.0,1.784459345799405e-05
208.0,0.00022509235714096576
224.0,0.000800081470515579
240.0,0.000596846453845501
256.0,-0.00033252715365961194
288.0,-0.0013393268454819918
320.0,-0.0012270427541807294
352.0,-0.000197291694348678
384.0,-0.0006568094831891358
416.0,-5.626709389616735e-05
448.0,0.0003465244662947953
480.0,-0.0004992641624994576
512.0,-0.0003455179394222796
576.0,0.00013698897964786738
640.0,0.000588282651733607
704.0,4.20003118506429e-07
768.0,9.018302080221474e-05
832.0,0.0004222237039357424
896.0,8.76222547958605e-05
960.0,-9.1548114141915e-05
1024.0,-7.867855310905725e-05
1152.0,-0.0002721608034335077
1280.0,0.0005271123955026269
1408.0,0.0004323931934777647
1536.0,-0.000554417259991169
1664.0,-2.3352458811132237e-05
1792.0,0.0003532094706315547
1920.0,0.0004145177954342216
2048.0,-0.00013176094216760248
2304.0,-6.534422573167831e-05
2560.0,6.20280479779467e-05
2816.0,-0.0001242893049493432
3072.0,0.0001729741634335369
3328.0,0.00013070674322079867
3584.0,-0.00030613731360062957
3840.0,0.00047881650971248746
4096.0,-0.0002517778775654733
4608.0,0.00013271202624309808
5120.0,0.0003319169918540865
5632.0,-0.00020077296358067542
6144.0,1.6881716874195263e-05
6656.0,-0.00046639019274152815
7168.0,0.0001099450237234123
7680.0,-0.00020900195522699505
8192.0,-0.00033626993536017835
9216.0,-4.751107553602196e-05
10240.0,-9.57726952037774e-05
11264.0,-0.00044398425961844623
12288.0,-5.10323116031941e-06
13312.0,0.00010719311103457585
14336.0,-0.00025250716134905815
end
