version,3.0
numOfCh,1
type,point
parent_name,800-cuts
ch_type,1_1
kcount,1
numberNandB,1
brightnessNandB,1
carpet pos,0
pc,0
Time (ms),CH1 Auto-Correlation
1.0,0.02540932595729828
2.0,0.019759541377425194
3.0,0.015763986855745316
4.0,0.01293296180665493
5.0,0.010854775086045265
6.0,0.009134278632700443
7.0,0.007854316383600235
8.0,0.006759334355592728
9.0,0.006018642336130142
10.0,0.005425164010375738
11.0,0.004988338798284531
12.0,0.004364392254501581
13.0,0.003749346360564232
14.0,0.0032653368543833494
15.0,0.003006397746503353
16.0,0.002796753542497754
18.0,0.0026541720144450665
20.0,0.002412914764136076
22.0,0.0018097787396982312
24.0,0.0011008239816874266
26.0,0.0009370056795887649
28.0,0.0009122051997110248
30.0,0.0008053330820985138
32.0,0.000608487578574568
36.0,2.2452959456131794e-05
40.0,-0.00011295439617242664
44.0,-0.0006318048690445721
48.0,-0.0007009321125224233
52.0,-0.0003301254764664918
56.0,0.000205611067940481
60.0,0.00019423296907916665
64.0,4.93481129524298e-05
72.0,-0.00018574569548945874
80.0,0.0002133335656253621
88.0,0.00037044964847154915
96.0,0.00029824324883520603
104.0,0.00011379404895706102
112.0,0.0005602834862656891
120.0,0.0004894615849480033
128.0,0.0005502078565768898
144.0,0.0008985481108538806
160.0,0.0010201835539191961
176.0,-0.00017896109784487635
192.0,-0.00047158077359199524
208.0,-0.0004922624211758375
224.0,-8.777617767918855e-05
240.0,-0.0006520458846352994
256.0,0.0002943832951132208
288.0,-6.737147487001494e-05
320.0,-0.0004492795851547271
352.0,-0.00015630992129445076
384.0,-0.0006527132354676723
416.0,-0.00012044683535350487
448.0,-0.0006073119584470987
480.0,6.996411684667692e-05
512.0,0.0002620254235807806
576.0,-0.00031928528915159404
640.0,-0.0005336853791959584
704.0,-6.562456110259518e-05
768.0,0.0005394176696427166
832.0,-0.00010444004874443635
896.0,0.00016250218322966248
960.0,-0.00029316425207071006
1024.0,-0.00032032167655415833
1152.0,-0.0005326460814103484
1280.0,-0.0002788230776786804
1408.0,-7.260324309754651e-06
1536.0,-6.77228017593734e-05
1664.0,0.0006735707866027951
1792.0,-3.154337537125684e-05
1920.0,5.4307143727783114e-05
2048.0,-0.00042335380567237735
2304.0,-6.748484884155914e-05
2560.0,0.00032462249509990215
2816.0,-0.00020270202367100865
3072.0,-8.78987557371147e-05
3328.0,0.0003408368502277881
3584.0,3.784120053751394e-05
3840.0,-0.00017437501810491085
4096.0,0.00010139383812202141
4608.0,-2.586597838671878e-05
5120.0,0.00020338821923360229
5632.0,-0.00027737856726162136
6144.0,-4.404950232128613e-05
6656.0,0.0004050039569847286
7168.0,-0.00021091377129778266
7680.0,-0.00010385195491835475
8192.0,0.00010221324919257313
9216.0,8.445612706964312e-07
10240.0,0.00016422859334852546
11264.0,-0.00011748034012271091
12288.0,-0.0001356244902126491
13312.0,0.00025689558242447674
14336.0,-0.0001944179239217192
end
