version,3.0
numOfCh,1
type,point
parent_name,800-cuts
ch_type,1_1
kcount,1
numberNandB,1
brightnessNandB,1
carpet pos,0
pc,0
Time (ms),CH1 Auto-Correlation
1.0,0.028351543471217155
2.0,0.02260628528892994
3.0,0.01855061762034893
4.0,0.015507434494793415
5.0,0.013285095803439617
6.0,0.0113213574513793
7.0,0.009804770350456238
8.0,0.008418341167271137
9.0,0.007408069912344217
10.0,0.006617995444685221
11.0,0.005961783695966005
12.0,0.005302927922457457
13.0,0.004766958300024271
14.0,0.004240010865032673
15.0,0.0037468052469193935
16.0,0.0033357173670083284
18.0,0.0027763096150010824
20.0,0.0023427626583725214
22.0,0.0020908028818666935
24.0,0.0018164031207561493
26.0,0.0017281094333156943
28.0,0.0019223719136789441
30.0,0.002036598278209567
32.0,0.002036626683548093
36.0,0.00174800050444901
40.0,0.0014236571732908487
44.0,0.0009908698266372085
48.0,0.0003862739249598235
52.0,0.0004790171515196562
56.0,0.0011273917043581605
60.0,0.0011419213842600584
64.0,0.000776497763581574
72.0,0.0004565455892588943
80.0,0.0003988317621406168
88.0,-0.0004833962593693286
96.0,-0.0006066007190383971
104.0,9.196204337058589e-05
112.0,0.0006704599945805967
120.0,-3.6206180084263906e-05
128.0,-0.00053052743896842
144.0,-0.00017648324137553573
160.0,-0.00028155138716101646
176.0,0.00021532025129999965
192.0,2.963735460070893e-05
208.0,-0.00020818102348130196
224.0,0.00016733385564293712
240.0,-0.0006169410771690309
256.0,5.605183105217293e-05
288.0,-2.4851362468325533e-05
320.0,0.00027015621890313923
352.0,0.00018694846949074417
384.0,0.00022001401521265507
416.0,0.0005868081352673471
448.0,-0.00027181769837625325
480.0,-0.0003265959385316819
512.0,-0.0004722882295027375
576.0,1.3796410712529905e-05
640.0,0.0007445469964295626
704.0,0.0002999684656970203
768.0,0.0008769124397076666
832.0,-0.000219878347706981
896.0,5.638913353323005e-05
960.0,-0.0003949186357203871
1024.0,0.00023674275144003332
1152.0,5.217226498643868e-05
1280.0,0.00020580340060405433
1408.0,0.00032659011776559055
1536.0,0.0002533421211410314
1664.0,-1.6751080693211406e-05
1792.0,0.00032464091782458127
1920.0,0.00022742328292224556
2048.0,-0.00018307511345483363
2304.0,8.566578617319465e-05
2560.0,8.220756717491895e-05
2816.0,6.27263289061375e-05
3072.0,-0.0001393948041368276
3328.0,1.6510553905391134e-05
3584.0,3.203434607712552e-05
3840.0,-0.00024105393094941974
4096.0,-0.0004003433568868786
4608.0,-0.00039822113467380404
5120.0,-0.00014915350766386837
5632.0,-0.00027767533902078867
6144.0,-0.0004027951799798757
6656.0,-0.00034871682873927057
7168.0,-0.0002456346701364964
7680.0,-0.00022988826094660908
8192.0,-0.0002739605843089521
9216.0,0.0002334940218133852
10240.0,9.773569036042318e-05
11264.0,9.704560943646356e-05
12288.0,0.00014668761286884546
13312.0,-5.556062205869239e-06
14336.0,4.573738624458201e-05
end
