version,3.0
numOfCh,1
type,point
parent_name,800-cuts
ch_type,1_1
kcount,1
numberNandB,1
brightnessNandB,1
carpet pos,0
pc,0
Time (ms),CH1 Auto-Correlation
1.0,0.024732857942581177
2.0,0.019436044618487358
3.0,0.015632711350917816
4.0,0.012849907390773296
5.0,0.01057629007846117
6.0,0.008701691403985023
7.0,0.0073865740559995174
8.0,0.00616353377699852
9.0,0.0050976332277059555
10.0,0.0043242136016488075
11.0,0.0038445484824478626
12.0,0.003508287249132991
13.0,0.003165978007018566
14.0,0.002780089620500803
15.0,0.0024272664450109005
16.0,0.002149448497220874
18.0,0.0015663071535527706
20.0,0.0009706388227641582
22.0,0.00048001648974604905
24.0,0.0001450506242690608
26.0,8.167349005816504e-05
28.0,-5.492470154422335e-05
30.0,-6.581303750863299e-05
32.0,0.00018467289919499308
36.0,0.0005225015920586884
40.0,0.0008603357709944248
44.0,0.0008604932227171957
48.0,0.0007362426840700209
52.0,0.0007218018872663379
56.0,0.0006400964921340346
60.0,0.000476030952995643
64.0,0.0006232216255739331
72.0,0.0006671927403658628
80.0,-0.00026412680745124817
88.0,0.00022343115415424109
96.0,0.00036418926902115345
104.0,0.00012418112601153553
112.0,-0.0005507230525836349
120.0,-0.00028051307890564203
128.0,0.00041061826050281525
144.0,0.000699067662935704
160.0,-1.0990289410983678e-05
176.0,-0.00041472757584415376
192.0,-0.00024479400599375367
208.0,3.001046206918545e-05
224.0,0.00029605114832520485
240.0,0.0003059354203287512
256.0,0.0009163376525975764
288.0,0.0006583702634088695
320.0,0.0005073229549452662
352.0,0.00036838726373389363
384.0,-7.448999531334266e-05
416.0,-0.00015303990221582353
448.0,-0.0003378967521712184
480.0,-0.00010518963244976476
512.0,0.00032978769741021097
576.0,-0.00021864376321900636
640.0,-0.00032025217660702765
704.0,-7.750036456855014e-05
768.0,-0.0004191620973870158
832.0,-4.8146554036065936e-05
896.0,-0.000603270367719233
960.0,-0.0003720260283444077
1024.0,7.696368265897036e-05
1152.0,-0.0001332486717728898
1280.0,0.0002545523166190833
1408.0,0.0004421418416313827
1536.0,-0.0002823543909471482
1664.0,-3.620916686486453e-05
1792.0,3.6585443012882024e-05
1920.0,0.00018893458764068782
2048.0,3.490164817776531e-05
2304.0,8.541642455384135e-05
2560.0,-0.00010222891432931647
2816.0,-0.0002651844988577068
3072.0,-5.980553396511823e-05
3328.0,-0.00012869684724137187
3584.0,9.227156988345087e-05
3840.0,8.867607539286837e-05
4096.0,-8.248480298789218e-05
4608.0,-0.00042138283606618643
5120.0,-2.842572212102823e-05
5632.0,0.00015776196960359812
6144.0,-4.8623511247569695e-05
6656.0,-0.0003944143536500633
7168.0,0.0001449880510335788
7680.0,0.00019977283955086023
8192.0,-0.0001764744083629921
9216.0,0.0002965765306726098
10240.0,-0.0002828635333571583
11264.0,0.0004504658281803131
12288.0,-0.0005330123822204769
13312.0,0.0002387901331530884
14336.0,-0.00029364292277023196
end
