version,3.0
numOfCh,1
type,point
parent_name,800-cuts
ch_type,1_1
kcount,1
numberNandB,1
brightnessNandB,1
carpet pos,0
pc,0
Time (ms),CH1 Auto-Correlation
1.0,0.015951864421367645
2.0,0.012393469922244549
3.0,0.009888077154755592
4.0,0.008128187619149685
5.0,0.006671817507594824
6.0,0.005470975302159786
7.0,0.004672851879149675
8.0,0.004032538738101721
9.0,0.003434746991842985
10.0,0.0029966190923005342
11.0,0.0025973101146519184
12.0,0.002280443673953414
13.0,0.0020085053984075785
14.0,0.001830311375670135
15.0,0.0015532751567661762
16.0,0.0014298097230494022
18.0,0.0010015548905357718
20.0,0.0006478215800598264
22.0,0.00014039833331480622
24.0,2.2208141672308557e-05
26.0,-3.909063889295794e-05
28.0,5.6107925047399476e-05
30.0,0.0003482829488348216
32.0,0.00043159883352927864
36.0,0.0005491219344548881
40.0,0.0004022454668302089
44.0,0.0002721564087551087
48.0,0.0003922794421669096
52.0,0.0003266739659011364
56.0,0.00011655582784442231
60.0,3.943542469642125e-05
64.0,5.3314801334636286e-05
72.0,-9.2599744675681e-05
80.0,0.0007187246228568256
88.0,0.0007919542258605361
96.0,0.00023618919658474624
104.0,-2.5696208467707038e-05
112.0,-0.0001326511410297826
120.0,-0.000181360068381764
128.0,-1.7629770809435286e-05
144.0,-4.7403205826412886e-05
160.0,-0.0004004125657957047
176.0,0.00012967009388376027
192.0,0.0002911236952058971
208.0,-9.187257819576189e-05
224.0,5.612655513687059e-05
240.0,3.899421790265478e-05
256.0,0.00013761849550064653
288.0,-0.00015837044338695705
320.0,-0.00015094917034730315
352.0,0.00010649719479260966
384.0,-5.5366654123645276e-05
416.0,0.00010826926882145926
448.0,-0.00018398798420093954
480.0,0.00013136790948919952
512.0,-4.3296164221828803e-05
576.0,-0.0003291566972620785
640.0,-0.0003848131455015391
704.0,-0.0001812532136682421
768.0,-3.092568658757955e-05
832.0,0.0002709782565943897
896.0,-0.00039624731289222836
960.0,-7.287741755135357e-05
1024.0,-0.0003129957476630807
1152.0,0.00026948133017867804
1280.0,0.00014937165542505682
1408.0,-0.00031938153551891446
1536.0,1.7744147044140846e-05
1664.0,-5.314005829859525e-05
1792.0,-1.6640884496155195e-05
1920.0,0.00014304034993983805
2048.0,0.00016197480726987123
2304.0,-4.093126335646957e-05
2560.0,-0.00012388726463541389
2816.0,0.00012012866500299424
3072.0,-6.967676745261997e-05
3328.0,0.00013528337876778096
3584.0,-1.5774983694427647e-05
3840.0,6.155238952487707e-05
4096.0,2.575540929683484e-05
4608.0,9.766103175934404e-05
5120.0,-0.0001328819344053045
5632.0,-5.0323949835728854e-05
6144.0,-1.9585446352721192e-05
6656.0,0.00010161347745452076
7168.0,-9.337970550404862e-05
7680.0,-0.00011377157352399081
8192.0,7.217757229227573e-05
9216.0,-7.1601833042223e-05
10240.0,-6.123103958088905e-05
11264.0,9.109331585932523e-05
12288.0,-7.437779277097434e-05
13312.0,-1.1102559255959932e-05
14336.0,-0.00010702021245379001
end
