version,3.0
numOfCh,1
type,point
parent_name,800-cuts
ch_type,1_1
kcount,1
numberNandB,1
brightnessNandB,1
carpet pos,0
pc,0
Time (ms),CH1 Auto-Correlation
1.0,0.016030658036470413
2.0,0.01260363683104515
3.0,0.010213969275355339
4.0,0.008538443595170975
5.0,0.007112234830856323
6.0,0.005978430155664682
7.0,0.005172737408429384
8.0,0.004514784552156925
9.0,0.004055222496390343
10.0,0.003639227943494916
11.0,0.003243147162720561
12.0,0.002925620414316654
13.0,0.002503251889720559
14.0,0.00204235571436584
15.0,0.0017382254591211677
16.0,0.0015307430876418948
18.0,0.001410951721481979
20.0,0.0015044733881950378
22.0,0.0014164780732244253
24.0,0.001313478802330792
26.0,0.0011742440983653069
28.0,0.0009204727248288691
30.0,0.0006755259237252176
32.0,0.0006490016239695251
36.0,0.0006985747022554278
40.0,0.00041231614886783063
44.0,0.00019841038738377392
48.0,6.414762901840732e-05
52.0,0.00015602873463649303
56.0,0.00043694203486666083
60.0,0.0003099003224633634
64.0,-0.00010727135668275878
72.0,0.00026814817101694643
80.0,9.628864063415676e-05
88.0,0.0005498802056536078
96.0,0.00023933489865157753
104.0,-0.00031249254243448377
112.0,-0.0002793830935843289
120.0,-1.5525767594226636e-05
128.0,0.0003959457390010357
144.0,0.00035884210956282914
160.0,7.786678906995803e-06
176.0,0.0002102382859447971
192.0,0.0006668157293461263
208.0,0.00011189147335244343
224.0,-7.782284228596836e-05
240.0,-3.7179768696660176e-05
256.0,9.559415047988296e-05
288.0,0.00014412774180527776
320.0,-8.203142351703718e-05
352.0,0.00024790826137177646
384.0,0.00018120578897651285
416.0,0.00016430896357633173
448.0,0.00012320850510150194
480.0,-0.00015521088789682835
512.0,0.0005358955822885036
576.0,0.0001955440966412425
640.0,-0.0002825869305524975
704.0,0.00023384220548905432
768.0,-9.403257536177989e-06
832.0,3.909815495717339e-05
896.0,-8.748857362661511e-05
960.0,0.0002336010365979746
1024.0,-5.069555118097924e-05
1152.0,-0.00023353128926828504
1280.0,-0.00035274968831799924
1408.0,-9.021891310112551e-05
1536.0,7.739901775494218e-05
1664.0,0.00022609236475545913
1792.0,-6.265007687034085e-05
1920.0,0.0002708097454160452
2048.0,7.361840744124493e-06
2304.0,0.00011061049735872075
2560.0,0.00024864860461093485
2816.0,-0.00017551255587022752
3072.0,5.488619353855029e-05
3328.0,-0.00021863770962227136
3584.0,2.6244772016070783e-05
3840.0,-0.000245860283030197
4096.0,0.0001039280541590415
4608.0,-7.75558510213159e-05
5120.0,-5.438365406007506e-06
5632.0,2.2562808226211928e-05
6144.0,-0.00012527487706393003
6656.0,-0.0001178532256744802
7168.0,7.04832054907456e-05
7680.0,-0.00020077631052117795
8192.0,-0.0002775636676233262
9216.0,-0.00011260100291110575
10240.0,-0.0001631558989174664
11264.0,-4.308035204303451e-05
12288.0,0.00018931657541543245
13312.0,0.00016667350428178906
14336.0,0.0002205347118433565
end
