version,3.0
numOfCh,1
type,point
parent_name,800-cuts
ch_type,1_1
kcount,1
numberNandB,1
brightnessNandB,1
carpet pos,0
pc,0
Time (ms),CH1 Auto-Correlation
1.0,0.016593031585216522
2.0,0.012994158081710339
3.0,0.010499309748411179
4.0,0.008658750914037228
5.0,0.007236768491566181
6.0,0.006202974356710911
7.0,0.00539254117757082
8.0,0.004622161388397217
9.0,0.00408524414524436
10.0,0.003725852118805051
11.0,0.003379018511623144
12.0,0.0029822869691997766
13.0,0.002748355967923999
14.0,0.0023800176568329334
15.0,0.0019861189648509026
16.0,0.00164342753123492
18.0,0.001120524131692946
20.0,0.0008711818954907358
22.0,0.0007581544923596084
24.0,0.000592449156101793
26.0,0.00048488902393728495
28.0,0.00014700557221658528
30.0,2.8413460313458927e-05
32.0,9.37012919166591e-06
36.0,2.677191332622897e-05
40.0,6.472419772762805e-05
44.0,-0.0002239542518509552
48.0,-0.00016636919463053346
52.0,0.00017569625924807042
56.0,0.00047120105591602623
60.0,0.000419968826463446
64.0,0.00024522680905647576
72.0,0.00017395005852449685
80.0,0.0002260632172692567
88.0,-1.9606963178375736e-05
96.0,-0.0001974353799596429
104.0,1.6981899534584954e-05
112.0,4.5787230192217976e-05
120.0,0.00015594169963151217
128.0,-0.00028160400688648224
144.0,0.00014121770800556988
160.0,0.0005290450062602758
176.0,8.524801523890346e-05
192.0,-0.0001730348012642935
208.0,0.00020808298722840846
224.0,0.00014384945097845048
240.0,-0.00018055700638797134
256.0,9.49884342844598e-05
288.0,0.0001350689126411453
320.0,0.00019886274822056293
352.0,0.00020476624194998294
384.0,-0.00019292942306492478
416.0,1.2298727597226389e-05
448.0,0.0003010183572769165
480.0,0.0003818638506345451
512.0,2.7435185984359123e-05
576.0,-2.4271776055684313e-05
640.0,6.956751167308539e-05
704.0,8.289357356261462e-05
768.0,0.00041697442065924406
832.0,0.0002456412767060101
896.0,-0.0002728679683059454
960.0,-0.00018430942145641893
1024.0,-0.00010416124860057607
1152.0,6.372637290041894e-05
1280.0,-1.906800753204152e-05
1408.0,0.0002064228756353259
1536.0,0.00013656636292580515
1664.0,-0.00022406992502510548
1792.0,-7.155383354984224e-05
1920.0,0.00014332069258671254
2048.0,8.317303581861779e-05
2304.0,-0.0001529468281660229
2560.0,-4.5574826799565926e-05
2816.0,-2.3295669961953536e-05
3072.0,-0.0001581543474458158
3328.0,7.34730656404281e-06
3584.0,7.620015094289556e-05
3840.0,-0.00012146088556619361
4096.0,0.00033061037538573146
4608.0,-4.9275793571723625e-05
5120.0,-7.45294164516963e-05
5632.0,-0.00013959614443592727
6144.0,7.033865404082462e-05
6656.0,-0.00018065299082081765
7168.0,-0.0002024073910433799
7680.0,-0.00015419071132782847
8192.0,-6.533491250593215e-05
9216.0,-7.28944141883403e-05
10240.0,5.6848810345400125e-05
11264.0,2.6278605218976736e-05
12288.0,1.7149510313174687e-05
13312.0,4.9377042159903795e-05
14336.0,0.00013117986964061856
end
