version,3.0
numOfCh,1
type,point
parent_name,800-cuts
ch_type,1_1
kcount,1
numberNandB,1
brightnessNandB,1
carpet pos,0
pc,0
Time (ms),CH1 Auto-Correlation
1.0,0.025949399918317795
2.0,0.020382817834615707
3.0,0.016537824645638466
4.0,0.013525293208658695
5.0,0.011158627457916737
6.0,0.00919331330806017
7.0,0.00784500315785408
8.0,0.006617055740207434
9.0,0.005689885932952166
10.0,0.005139520857483149
11.0,0.004708078224211931
12.0,0.004180624149739742
13.0,0.003767031943425536
14.0,0.003604323137551546
15.0,0.003338527400046587
16.0,0.002993984380736947
18.0,0.0024562582839280367
20.0,0.002071490278467536
22.0,0.0019931113347411156
24.0,0.0019210847094655037
26.0,0.001628146623261273
28.0,0.0015469815116375685
30.0,0.0010582689428701997
32.0,0.0006053944234736264
36.0,2.454295645293314e-05
40.0,0.0003501639293972403
44.0,0.0005621331511065364
48.0,0.00044194707879796624
52.0,1.335797605861444e-05
56.0,-6.590038537979126e-05
60.0,0.00022311498469207436
64.0,0.0002574081299826503
72.0,-2.7169946861249628e-06
80.0,-0.0004913528100587428
88.0,-0.0005450425087474287
96.0,4.9742215196602046e-05
104.0,1.4368764823302627e-05
112.0,-0.00018397915118839592
120.0,-0.0004318523861002177
128.0,0.000541199347935617
144.0,0.0003671141166705638
160.0,8.38124833535403e-05
176.0,-3.6766461562365294e-05
192.0,0.00048043206334114075
208.0,-0.0005734322476200759
224.0,-0.0006042613531462848
240.0,-0.0008453637128695846
256.0,-0.00022176136553753167
288.0,0.00023810665879864246
320.0,0.0010907741962000728
352.0,0.0006537683657370508
384.0,-2.3842290829634294e-05
416.0,-0.0006012361263856292
448.0,-0.0006205138633958995
480.0,9.16842618607916e-05
512.0,0.00025248093879781663
576.0,-0.0002440275566186756
640.0,0.0006980493199080229
704.0,0.0001508187997387722
768.0,-0.00034350884379819036
832.0,0.00018254894530400634
896.0,-0.00018484295287635177
960.0,3.150238626403734e-05
1024.0,0.0005690997932106256
1152.0,0.00018036238907370716
1280.0,0.0003676617634482682
1408.0,-8.32974910736084e-05
1536.0,-3.022078271897044e-05
1664.0,-0.00013898331962991506
1792.0,-0.00028149515856057405
1920.0,-0.0003272743779234588
2048.0,-0.0006042575114406645
2304.0,-0.00017928340821526945
2560.0,-0.00015587572124786675
2816.0,-0.0005490310140885413
3072.0,-1.1957222341152374e-05
3328.0,-2.114892049576156e-05
3584.0,-0.00011792359146056697
3840.0,-2.3048480215948075e-05
4096.0,5.120744026498869e-05
4608.0,-2.4018157773753046e-07
5120.0,9.17393117561005e-05
5632.0,2.928012872871477e-05
6144.0,-8.697468729224056e-05
6656.0,-7.462782377842814e-05
7168.0,-0.00013307115295901895
7680.0,9.40992176765576e-05
8192.0,0.00013671406486537308
9216.0,8.362056541955099e-05
10240.0,-2.1244150048005395e-05
11264.0,-0.00021297384228091687
12288.0,-3.169360206811689e-05
13312.0,9.141927876044065e-05
14336.0,-0.00013321041478775442
end
