version,3.0
numOfCh,1
type,point
parent_name,800-cuts
ch_type,1_1
kcount,1
numberNandB,1
brightnessNandB,1
carpet pos,0
pc,0
Time (ms),CH1 Auto-Correlation
1.0,0.015701116994023323
2.0,0.012349942699074745
3.0,0.009898785501718521
4.0,0.008167180232703686
5.0,0.0069009168073534966
6.0,0.005850089713931084
7.0,0.0052176169119775295
8.0,0.004681695252656937
9.0,0.004251003265380859
10.0,0.003784078871831298
11.0,0.00353035144507885
12.0,0.003277934156358242
13.0,0.002894799690693617
14.0,0.0025667576119303703
15.0,0.0022671306505799294
16.0,0.002048597438260913
18.0,0.0015935043338686228
20.0,0.0011813867604359984
22.0,0.0008248119847849011
24.0,0.0007286647451110184
26.0,0.000512321712449193
28.0,0.00013749329082202166
30.0,-9.924164623953402e-05
32.0,0.0001665963645791635
36.0,0.00026930938474833965
40.0,0.0002725980302784592
44.0,0.0005277276504784822
48.0,0.0007308773929253221
52.0,0.0005837424541823566
56.0,0.0004957101191394031
60.0,0.0004631261108443141
64.0,0.0005451345932669938
72.0,0.00010659843246685341
80.0,-0.00018270571308676153
88.0,-0.0004262303118593991
96.0,-0.0006060015875846148
104.0,-0.0007974998443387449
112.0,-0.0003269678563810885
120.0,-0.00023774955479893833
128.0,9.273080650018528e-05
144.0,-0.00031322057475335896
160.0,9.117957961279899e-05
176.0,0.00011641319724731147
192.0,-6.632868462475017e-05
208.0,0.00034773116931319237
224.0,0.0005282409256324172
240.0,-0.0001519852812634781
256.0,-0.000378170283511281
288.0,-0.00041793755372054875
320.0,-0.0007554762996733189
352.0,0.00011636853741947562
384.0,-0.0003132320998702198
416.0,5.861375393578783e-05
448.0,-0.0005333423614501953
480.0,-3.696829662658274e-05
512.0,-0.0003881615411955863
576.0,-0.0001350829697912559
640.0,-0.00013932895672041923
704.0,-0.0002171006635762751
768.0,-3.535585346980952e-05
832.0,1.996355968003627e-05
896.0,0.00023227838391903788
960.0,0.0004926208639517426
1024.0,-1.2324418321441044e-06
1152.0,-0.0003217268385924399
1280.0,8.886677824193612e-05
1408.0,0.0002086147724185139
1536.0,-0.00019273022189736366
1664.0,-0.00010812240361701697
1792.0,0.00014692440163344145
1920.0,8.093022188404575e-05
2048.0,3.172405558871105e-05
2304.0,5.9043941291747615e-05
2560.0,-0.00022518838522955775
2816.0,-6.977915472816676e-05
3072.0,0.00020402656809892505
3328.0,0.00010191861656494439
3584.0,-3.3076637919293717e-05
3840.0,2.3910541131044738e-05
4096.0,5.687912789653637e-07
4608.0,-8.30051867524162e-05
5120.0,6.850167119409889e-05
5632.0,-8.357309707207605e-05
6144.0,2.3272636099136434e-05
6656.0,-4.797448491444811e-05
7168.0,2.582312299637124e-05
7680.0,-0.00018543237820267677
8192.0,4.33997847721912e-05
9216.0,-1.7715166904963553e-05
10240.0,1.4510048458760139e-05
11264.0,-7.86959717515856e-05
12288.0,-4.077991980011575e-05
13312.0,0.00013431505067273974
14336.0,-0.0001303277094848454
end
