version,3.0
numOfCh,1
type,point
parent_name,800-cuts
ch_type,1_1
kcount,1
numberNandB,1
brightnessNandB,1
carpet pos,0
pc,0
Time (ms),CH1 Auto-Correlation
1.0,0.016368824988603592
2.0,0.012801000848412514
3.0,0.01026066578924656
4.0,0.008490175940096378
5.0,0.007082128431648016
6.0,0.006014310289174318
7.0,0.005128194577991962
8.0,0.004551769234240055
9.0,0.004171440377831459
10.0,0.003705177456140518
11.0,0.0033287126570940018
12.0,0.002825347473844886
13.0,0.002453496679663658
14.0,0.0021540175657719374
15.0,0.0017815809696912766
16.0,0.0015402333810925484
18.0,0.0012882610317319632
20.0,0.0009348213206976652
22.0,0.000615779310464859
24.0,0.00036636393633671105
26.0,0.0002030578616540879
28.0,1.5971766060829395e-06
30.0,4.165460268268362e-05
32.0,3.5605592074716697e-07
36.0,-0.00013720133574679494
40.0,-5.326018072082661e-05
44.0,7.173771155066788e-05
48.0,0.00012440228601917624
52.0,0.00037939747562631965
56.0,0.00013717010733671486
60.0,0.0002782244118861854
64.0,0.0001598313101567328
72.0,0.00029027534765191376
80.0,0.0002405375416856259
88.0,-5.135721221449785e-05
96.0,0.00018729831208474934
104.0,0.0004271969082765281
112.0,0.0003102256159763783
120.0,8.584091847296804e-05
128.0,-2.5975616154028103e-05
144.0,0.0002987524785567075
160.0,-0.00032825584639795125
176.0,-0.00027940317522734404
192.0,-0.0003351331106387079
208.0,0.0001373265840811655
224.0,0.0005445717251859605
240.0,0.0004583597183227539
256.0,0.0005974973901174963
288.0,-2.575145299488213e-05
320.0,7.16061404091306e-05
352.0,0.0003742676053661853
384.0,6.008299897075631e-05
416.0,-6.182694778544828e-05
448.0,9.187538671540096e-05
480.0,6.578281318070367e-05
512.0,0.00010959919018205255
576.0,-0.00018593411368783563
640.0,-9.672708983998746e-05
704.0,-2.0821498765144497e-05
768.0,-0.0001623140851734206
832.0,-0.000316029618261382
896.0,-4.54574401373975e-05
960.0,5.215477358433418e-06
1024.0,0.00024886635947041214
1152.0,0.00019677031377796084
1280.0,-2.068960566248279e-05
1408.0,0.0004208230529911816
1536.0,0.00014007996651344
1664.0,2.3106827939045615e-05
1792.0,2.519906593079213e-05
1920.0,-6.229689461179078e-05
2048.0,6.785897130612284e-05
2304.0,4.959678790328326e-06
2560.0,-0.00013190993922762573
2816.0,-0.00011184681352460757
3072.0,-9.966517973225564e-05
3328.0,9.812803182285279e-05
3584.0,-0.0001933879393618554
3840.0,-0.00012811491615138948
4096.0,-0.00016930713900364935
4608.0,-2.91499982267851e-05
5120.0,-0.00011432588507886976
5632.0,-0.0001372725237160921
6144.0,-0.00017275367281399667
6656.0,5.875317583559081e-05
7168.0,-9.45652209338732e-05
7680.0,-1.6818426956888288e-05
8192.0,9.093928383663297e-05
9216.0,4.6507211663993075e-05
10240.0,-8.463299309369177e-05
11264.0,9.560317266732454e-05
12288.0,0.00018763582920655608
13312.0,-3.339365139254369e-05
14336.0,-1.9676979718497023e-05
end
