version,3.0
numOfCh,1
type,point
parent_name,800-cuts
ch_type,1_1
kcount,1
numberNandB,1
brightnessNandB,1
carpet pos,0
pc,0
Time (ms),CH1 Auto-Correlation
1.0,0.015610377304255962
2.0,0.012336377054452896
3.0,0.010097231715917587
4.0,0.008311781100928783
5.0,0.007025009486824274
6.0,0.00610785186290741
7.0,0.005352430511265993
8.0,0.004771173465996981
9.0,0.0042111836373806
10.0,0.0035229704808443785
11.0,0.0029727283399552107
12.0,0.002440002979710698
13.0,0.002084053121507168
14.0,0.001662041642703116
15.0,0.0014734467258676887
16.0,0.0013242297573015094
18.0,0.0009057700517587364
20.0,0.0006754504283890128
22.0,0.0006537358858622611
24.0,0.0005319383926689625
26.0,0.000560892338398844
28.0,0.0004331748350523412
30.0,0.0002562497975304723
32.0,0.0002818116336129606
36.0,3.153102079522796e-05
40.0,-0.0001836844312492758
44.0,-0.00021977986034471542
48.0,-9.100903116632253e-05
52.0,-0.00023008030257187784
56.0,-0.00046351426863111556
60.0,-0.00031435812707059085
64.0,-3.3975113183259964e-05
72.0,-0.00014850619481876493
80.0,-2.1546441075770417e-06
88.0,0.00011185305629624054
96.0,0.0003289029991719872
104.0,4.7279199861804955e-06
112.0,-0.00034907576628029346
120.0,-0.00040987247484736145
128.0,-0.00031072215642780066
144.0,-6.91356326569803e-05
160.0,0.00012119131133658811
176.0,-0.0003432794474065304
192.0,-6.600458436878398e-05
208.0,0.00027393305208534
224.0,0.00036433865898288786
240.0,0.0006188516854308546
256.0,0.00028480723267421126
288.0,-0.000556478276848793
320.0,-0.000512519443873316
352.0,-0.0005791733274236321
384.0,-0.0004972501774318516
416.0,0.0003065390919800848
448.0,-1.175358920590952e-05
480.0,-0.00033780670491978526
512.0,-0.0002748725819401443
576.0,-2.0011420929222368e-05
640.0,0.00017853023018687963
704.0,0.00016830800450406969
768.0,-0.0001915337488753721
832.0,-0.00012036889529554173
896.0,-0.00012437652912922204
960.0,6.346635927911848e-05
1024.0,-0.0001829262764658779
1152.0,-6.540395406773314e-05
1280.0,0.00018826781888492405
1408.0,-0.00010379785089753568
1536.0,-5.9246300224913284e-05
1664.0,-0.0001391428231727332
1792.0,-4.956805787514895e-05
1920.0,1.8333181287744083e-05
2048.0,0.0002473844215273857
2304.0,-0.00026331879780627787
2560.0,0.00021395867224782705
2816.0,-0.00012329334276728332
3072.0,-0.0002011531323660165
3328.0,0.00022207114670891315
3584.0,-0.00012110860552638769
3840.0,6.39035934000276e-05
4096.0,7.437055319314823e-05
4608.0,0.00013435917207971215
5120.0,-2.6098796297446825e-05
5632.0,-8.339484338648617e-05
6144.0,1.3466677955875639e-05
6656.0,-8.644070476293564e-05
7168.0,0.00013205558934714645
7680.0,-7.99738263594918e-05
8192.0,-4.471280408324674e-05
9216.0,0.00013649910397361964
10240.0,-0.00015576959413010627
11264.0,0.00015358573000412434
12288.0,-0.0001717268314678222
13312.0,0.00015422821161337197
14336.0,-8.37638508528471e-05
end
