version,3.0
numOfCh,1
type,point
parent_name,800-cuts
ch_type,1_1
kcount,1
numberNandB,1
brightnessNandB,1
carpet pos,0
pc,0
Time (ms),CH1 Auto-Correlation
1.0,0.014818156138062477
2.0,0.011354022659361362
3.0,0.008962376043200493
4.0,0.007266615051776171
5.0,0.005946460645645857
6.0,0.004858404863625765
7.0,0.004100380931049585
8.0,0.0035900019574910402
9.0,0.003166275331750512
10.0,0.0027352669276297092
11.0,0.002258376916870475
12.0,0.0019124358659610152
13.0,0.0016034407308325171
14.0,0.0013937437906861305
15.0,0.0011452817125245929
16.0,0.0009139870526269078
18.0,0.0005996589898131788
20.0,0.0005017858929932117
22.0,0.00044691190123558044
24.0,0.0003880102012772113
26.0,0.0005090889171697199
28.0,0.0006111562834121287
30.0,0.0006146716768853366
32.0,0.000622403749730438
36.0,0.0006020957371219993
40.0,0.0006336951046250761
44.0,0.0005851300084032118
48.0,0.000400166871258989
52.0,0.00040204505785368383
56.0,0.0005019695963710546
60.0,0.0004931982839480042
64.0,0.0007699988200329244
72.0,0.00030545154004357755
80.0,0.00032334853312931955
88.0,0.0003272398025728762
96.0,0.000275909376796335
104.0,0.0003357820678502321
112.0,0.00025011945399455726
120.0,1.0246884812659118e-05
128.0,2.247668271593284e-05
144.0,0.00011114216613350436
160.0,-8.409789734287187e-05
176.0,-5.421719470177777e-05
192.0,-0.00039844063576310873
208.0,-8.496371447108686e-05
224.0,-4.885531234322116e-05
240.0,-5.289669206831604e-05
256.0,1.464134402340278e-05
288.0,0.0003737933875527233
320.0,-4.8865371354622766e-05
352.0,0.00014310245751403272
384.0,0.0005234841955825686
416.0,7.36726651666686e-05
448.0,0.0005843020044267178
480.0,-0.00015137669106479734
512.0,-0.00017059688980225474
576.0,-8.713888382771984e-05
640.0,2.3192800654214807e-05
704.0,-0.0001616054360056296
768.0,-8.585919567849487e-05
832.0,-0.00011214937694603577
896.0,-0.00010315329564036801
960.0,0.0002191258390666917
1024.0,0.00011802263179561123
1152.0,1.1383142009435687e-05
1280.0,-0.00010543247481109574
1408.0,0.0003805388114415109
1536.0,-9.244674401998054e-06
1664.0,-2.909260365413502e-05
1792.0,-4.159763193456456e-05
1920.0,-0.0003085390490014106
2048.0,4.697636904893443e-05
2304.0,-0.0002452197077218443
2560.0,-0.00023280519235413522
2816.0,0.0002348576090298593
3072.0,-0.00020992860663682222
3328.0,-8.642068678454962e-06
3584.0,-4.6123350330162793e-05
3840.0,7.949608698254451e-05
4096.0,-0.000135957365273498
4608.0,0.00011539813567651436
5120.0,-0.00012571088154800236
5632.0,-2.000398308155127e-05
6144.0,-0.00020696919818874449
6656.0,-1.9892830096068792e-05
7168.0,-7.552267197752371e-05
7680.0,7.893083238741383e-05
8192.0,0.00017550856864545494
9216.0,0.00011497618106659502
10240.0,-7.178667146945372e-05
11264.0,-7.973337778821588e-05
12288.0,5.182422682992183e-05
13312.0,4.576459832605906e-05
14336.0,-7.35535504645668e-05
end
