version,3.0
numOfCh,1
type,point
parent_name,800-cuts
ch_type,1_1
kcount,1
numberNandB,1
brightnessNandB,1
carpet pos,0
pc,0
Time (ms),CH1 Auto-Correlation
1.0,0.026782095432281494
2.0,0.021075624972581863
3.0,0.01700737327337265
4.0,0.014157772995531559
5.0,0.011835766024887562
6.0,0.009924672544002533
7.0,0.008387754671275616
8.0,0.0071066003292799
9.0,0.006079125218093395
10.0,0.005163536872714758
11.0,0.004483431112021208
12.0,0.0038612023927271366
13.0,0.003332789521664381
14.0,0.0029793353751301765
15.0,0.0027859623078256845
16.0,0.002702228492125869
18.0,0.002408448373898864
20.0,0.002299663843587041
22.0,0.0018270589644089341
24.0,0.0016231281915679574
26.0,0.0014334325678646564
28.0,0.0009121017064899206
30.0,0.0004736115224659443
32.0,0.00046730320900678635
36.0,0.0005003364058211446
40.0,0.00014138568076305091
44.0,-0.0004281641449779272
48.0,-0.00041554562631063163
52.0,0.00012465243344195187
56.0,0.0004238901019562036
60.0,0.0003899862931575626
64.0,-1.9252880520070903e-05
72.0,4.639507460524328e-05
80.0,0.00026568392058834434
88.0,-0.00015252605953719467
96.0,-2.2437786810769467e-06
104.0,-8.869425982993562e-06
112.0,-6.49054127279669e-05
120.0,-0.00017319305334240198
128.0,-0.00039409135933965445
144.0,-0.0002806104894261807
160.0,-0.0005522932042367756
176.0,-0.0007746710907667875
192.0,-0.0011703688651323318
208.0,-0.0006851740181446075
224.0,-0.00035409731208346784
240.0,-0.00099386484362185
256.0,-0.0007707260665483773
288.0,-0.00044793091365136206
320.0,-0.0003757445956580341
352.0,-0.00021490496874321252
384.0,-3.1042949558468536e-05
416.0,-0.00019843842892441899
448.0,-0.0001290142972720787
480.0,0.00013008248060941696
512.0,6.227138510439545e-05
576.0,-0.0002741340722423047
640.0,-7.90689155110158e-05
704.0,0.0001602699630893767
768.0,-3.373504296177998e-05
832.0,-0.0002825321280397475
896.0,4.303037712816149e-06
960.0,8.104675362119451e-05
1024.0,3.003586425620597e-05
1152.0,0.0002132379449903965
1280.0,-0.0002888258022721857
1408.0,-5.915297515457496e-05
1536.0,0.000497945467941463
1664.0,-0.00022156571503728628
1792.0,0.0002493002684786916
1920.0,6.32565061096102e-05
2048.0,-0.00015996348520275205
2304.0,-0.00023577056708745658
2560.0,4.167276983935153e-06
2816.0,0.0002490943006705493
3072.0,-3.924642805941403e-05
3328.0,-4.652016650652513e-05
3584.0,0.00018947297940030694
3840.0,-0.00020990332996007055
4096.0,-3.2690713851479813e-05
4608.0,5.4088384786155075e-05
5120.0,1.5383659047074616e-05
5632.0,-8.293538849102333e-05
6144.0,-4.7318859287770465e-05
6656.0,0.00016353200771845877
7168.0,-8.82938111317344e-05
7680.0,-0.00015383026038762182
8192.0,0.00019446526130195707
9216.0,-9.564969514030963e-05
10240.0,0.00010527266567805782
11264.0,-3.43130386681878e-06
12288.0,-0.00018275454931426793
13312.0,0.00010961997031699866
14336.0,1.5611030903528444e-05
end
