version,3.0
numOfCh,1
type,point
parent_name,800-cuts
ch_type,1_1
kcount,1
numberNandB,1
brightnessNandB,1
carpet pos,0
pc,0
Time (ms),CH1 Auto-Correlation
1.0,0.015012460760772228
2.0,0.011729293502867222
3.0,0.009345931001007557
4.0,0.007594839669764042
5.0,0.006257836241275072
6.0,0.00524334330111742
7.0,0.004349588882178068
8.0,0.003587195184081793
9.0,0.0031629600562155247
10.0,0.0028040027245879173
11.0,0.002547113224864006
12.0,0.0021773672197014093
13.0,0.0019812751561403275
14.0,0.0019026538357138634
15.0,0.0018270433647558093
16.0,0.0016367280622944236
18.0,0.0013267017202451825
20.0,0.0012111732503399253
22.0,0.000993237248621881
24.0,0.0005954139633104205
26.0,0.0004598905798047781
28.0,0.0002900797117035836
30.0,0.00021113629918545485
32.0,0.0001773007825249806
36.0,0.00014801407814957201
40.0,0.00023416850308422
44.0,0.00024911281070671976
48.0,-5.7776742323767394e-05
52.0,-8.992098446469754e-05
56.0,0.00015252547746058553
60.0,-0.00017492196639068425
64.0,1.0919470696535427e-05
72.0,-6.41302831354551e-05
80.0,-0.00028817920247092843
88.0,-0.0001572633336763829
96.0,-0.00015718891518190503
104.0,-2.2644956061412813e-06
112.0,-0.00014142181316856295
120.0,0.00016476686869282275
128.0,0.00026133022038266063
144.0,-8.446814172202721e-05
160.0,-0.00029943863046355546
176.0,-0.0002934454823844135
192.0,1.931267252075486e-05
208.0,0.00029007552075199783
224.0,0.00032846079557202756
240.0,0.00046557412133552134
256.0,0.00030400085961446166
288.0,-5.1782124501187354e-05
320.0,-0.00022373622050508857
352.0,-5.799922291771509e-05
384.0,4.177757728029974e-05
416.0,-0.00019387392967473716
448.0,2.9009226636844687e-05
480.0,0.00033228169195353985
512.0,-6.77175703458488e-05
576.0,0.0003221822844352573
640.0,9.163613140117377e-05
704.0,2.4923783712438308e-05
768.0,7.59349568397738e-05
832.0,9.203847730532289e-05
896.0,-8.965220331447199e-05
960.0,-0.00023920774401631206
1024.0,-7.28811792214401e-05
1152.0,-2.016542748606298e-05
1280.0,7.678903784835711e-05
1408.0,-0.0002760106581263244
1536.0,-0.0003498151490930468
1664.0,-0.0001265036698896438
1792.0,-9.921264427248389e-05
1920.0,-8.633235847810283e-05
2048.0,-0.00023910863092169166
2304.0,-0.00013986059639137238
2560.0,-8.910416363505647e-05
2816.0,4.204237848171033e-05
3072.0,9.216263424605131e-05
3328.0,1.2711534509435296e-05
3584.0,7.469995125575224e-06
3840.0,0.0002544278686400503
4096.0,3.7417314160848036e-05
4608.0,4.9858488637255505e-05
5120.0,3.3151420211652294e-05
5632.0,-8.081337728071958e-05
6144.0,-0.00014917638327460736
6656.0,-7.7134529419709e-05
7168.0,1.4993000149843283e-05
7680.0,7.691854079894256e-06
8192.0,7.192982593551278e-05
9216.0,-1.5320647435146384e-05
10240.0,-2.518591281841509e-05
11264.0,-4.600395641318755e-06
12288.0,7.454268052242696e-05
13312.0,8.100492414087057e-05
14336.0,-0.0003585259255487472
end
