version,3.0
numOfCh,1
type,point
parent_name,800-cuts
ch_type,1_1
kcount,1
numberNandB,1
brightnessNandB,1
carpet pos,0
pc,0
Time (ms),CH1 Auto-Correlation
1.0,0.01509991753846407
2.0,0.011672880500555038
3.0,0.00942706223577261
4.0,0.007798217236995697
5.0,0.006634888704866171
6.0,0.005584612023085356
7.0,0.004662614315748215
8.0,0.00419005099684
9.0,0.0037151535507291555
10.0,0.003334530396386981
11.0,0.0029937364161014557
12.0,0.0026904914993792772
13.0,0.002439078176394105
14.0,0.002121005207300186
15.0,0.0017012844327837229
16.0,0.0013849888928234577
18.0,0.0012019326677545905
20.0,0.0010076897451654077
22.0,0.0006827780161984265
24.0,0.0006214040913619101
26.0,0.000500338792335242
28.0,0.00035468945861794055
30.0,7.637506496394053e-05
32.0,-0.00012909415818285197
36.0,2.2616735805058852e-05
40.0,0.00032184613519348204
44.0,0.00031705774017609656
48.0,0.00016493209113832563
52.0,-0.00031824473990127444
56.0,-0.0004363133921287954
60.0,-0.0002812605525832623
64.0,-8.186457125702873e-05
72.0,-0.00021721425582654774
80.0,-0.0003519250894896686
88.0,-0.00019372142560314387
96.0,-6.161884357425151e-06
104.0,8.260200411314145e-05
112.0,-1.6338071873178706e-05
120.0,-0.0002794222964439541
128.0,-0.0003583753132261336
144.0,0.0006777200032956898
160.0,0.0008809469873085618
176.0,0.0004824663046747446
192.0,-7.622814882779494e-05
208.0,-0.0003874925314448774
224.0,-0.00013417360605672002
240.0,0.00026506619178690016
256.0,-5.931004579906585e-06
288.0,0.00016378029249608517
320.0,0.00011270410323049873
352.0,1.0104067769134417e-05
384.0,-5.74156001675874e-05
416.0,-7.95408632257022e-05
448.0,0.00012606251402758062
480.0,-6.438668788177893e-05
512.0,-1.6458561731269583e-05
576.0,5.968053301330656e-05
640.0,-0.00010502460645511746
704.0,0.00037935952423140407
768.0,4.760764568345621e-05
832.0,0.0005059093818999827
896.0,0.00018079001165460795
960.0,-8.649968367535621e-05
1024.0,8.232757681980729e-05
1152.0,0.00010310341167496517
1280.0,0.00017351032875012606
1408.0,-3.925203418475576e-05
1536.0,0.00020164514717180282
1664.0,-5.03901501360815e-05
1792.0,-5.813260213471949e-05
1920.0,3.008063868037425e-05
2048.0,3.4526059607742354e-05
2304.0,-8.785431418800727e-05
2560.0,-0.00022367485507857054
2816.0,9.154717190540396e-06
3072.0,-0.0001609792234376073
3328.0,-8.29851851449348e-05
3584.0,-0.00010523910168558359
3840.0,-0.00021961386664770544
4096.0,-0.00012026610784232616
4608.0,-5.951873026788235e-05
5120.0,0.00011047358566429466
5632.0,3.674529943964444e-05
6144.0,9.502832836005837e-05
6656.0,0.00010148429282708094
7168.0,-2.9958222512505017e-05
7680.0,3.082765033468604e-05
8192.0,-0.0001515545736765489
9216.0,-0.00017769838450476527
10240.0,-9.016900730784982e-05
11264.0,-7.894662303442601e-06
12288.0,0.0001412115088896826
13312.0,6.70901863486506e-05
14336.0,3.52933639078401e-05
end
