version,3.0
numOfCh,1
type,point
parent_name,800-cuts
ch_type,1_1
kcount,1
numberNandB,1
brightnessNandB,1
carpet pos,0
pc,0
Time (ms),CH1 Auto-Correlation
1.0,0.015573862940073013
2.0,0.012239405885338783
3.0,0.009970145300030708
4.0,0.008221263065934181
5.0,0.006804770790040493
6.0,0.005727901589125395
7.0,0.004843680188059807
8.0,0.004035715479403734
9.0,0.0033588905353099108
10.0,0.0029232152737677097
11.0,0.0025345056783407927
12.0,0.0022540052887052298
13.0,0.0019341238075867295
14.0,0.0017239918233826756
15.0,0.0016292212530970573
16.0,0.0015394509537145495
18.0,0.0011923083802685142
20.0,0.0011161897564306855
22.0,0.000936434487812221
24.0,0.0007510989671573043
26.0,0.0007266985485330224
28.0,0.0005866701249033213
30.0,0.0006424661842174828
32.0,0.0005307762185111642
36.0,0.0002494698273949325
40.0,-0.00024191000557038933
44.0,-0.00046365312300622463
48.0,-0.0005050429608672857
52.0,-0.0005458297091536224
56.0,-0.0007137834909372032
60.0,-0.0007215850637294352
64.0,-0.0004625919391401112
72.0,-0.00010555873450357467
80.0,-0.00012725988926831633
88.0,-2.752368527580984e-05
96.0,0.00015390563930850476
104.0,0.00015152094420045614
112.0,0.0003310194588266313
120.0,0.0003537737356964499
128.0,-0.00011059522512368858
144.0,-0.0003384342126082629
160.0,-0.00025865956558845937
176.0,8.593840902904049e-05
192.0,0.0004581343673635274
208.0,0.00027359300293028355
224.0,0.00021493976237252355
240.0,0.000351965514710173
256.0,3.7452089600265026e-05
288.0,0.00018527571228332818
320.0,0.00031070061959326267
352.0,-0.00012095755664631724
384.0,8.671414252603427e-05
416.0,-0.00010024439689004794
448.0,6.421733269235119e-05
480.0,4.304498816054547e-06
512.0,0.00031950094853527844
576.0,-0.0002638456062413752
640.0,-0.00024095452681649476
704.0,-5.003367914468981e-05
768.0,6.221330113476142e-05
832.0,-0.0002142159064533189
896.0,-0.00010398587619420141
960.0,0.00012195019371574745
1024.0,-3.0667441023979336e-05
1152.0,0.00018672655278351158
1280.0,6.139280594652519e-05
1408.0,-6.788589234929532e-05
1536.0,6.416651012841612e-05
1664.0,-6.646446854574606e-05
1792.0,-3.5317454603500664e-05
1920.0,-0.00020247358770575374
2048.0,-4.4897037696500774e-06
2304.0,-4.33004715887364e-05
2560.0,-8.909952157409862e-05
2816.0,6.602756184292957e-05
3072.0,9.958020382327959e-05
3328.0,7.966738485265523e-05
3584.0,5.311826680554077e-05
3840.0,-4.3322092096786946e-05
4096.0,-0.00014492220361717045
4608.0,6.186938844621181e-05
5120.0,-8.757640171097592e-05
5632.0,1.1740704394469503e-05
6144.0,-3.6640882171923295e-05
6656.0,7.99896806711331e-05
7168.0,-7.960665243444964e-05
7680.0,-0.0001247337058885023
8192.0,-0.00011363998055458069
9216.0,4.479143171920441e-06
10240.0,-5.7563887821743265e-05
11264.0,-7.203307905001566e-05
12288.0,6.326357106445357e-05
13312.0,9.058542491402477e-05
14336.0,3.5494354960974306e-05
end
