version,3.0
numOfCh,1
type,point
parent_name,800-cuts
ch_type,1_1
kcount,1
numberNandB,1
brightnessNandB,1
carpet pos,0
pc,0
Time (ms),CH1 Auto-Correlation
1.0,0.02647840604186058
2.0,0.0208100788295269
3.0,0.016789039596915245
4.0,0.013917204923927784
5.0,0.01184143591672182
6.0,0.010256714187562466
7.0,0.009090467356145382
8.0,0.00816328451037407
9.0,0.007141390349715948
10.0,0.006327981594949961
11.0,0.005697581917047501
12.0,0.0051505896262824535
13.0,0.004598546773195267
14.0,0.004055648576468229
15.0,0.003713286481797695
16.0,0.0033182089682668447
18.0,0.002648199675604701
20.0,0.0022245501168072224
22.0,0.0016251361230388284
24.0,0.0011669911909848452
26.0,0.0009183948859572411
28.0,0.0005951886414550245
30.0,0.0006309938034974039
32.0,0.0006494865519925952
36.0,0.0006307841977104545
40.0,0.00039216995355673134
44.0,0.00016275650705210865
48.0,7.745731272734702e-05
52.0,4.6736538934055716e-05
56.0,0.00019626456196419895
60.0,-3.2996267691487446e-05
64.0,-0.00039537117118015885
72.0,0.0004014834703411907
80.0,-0.00027345705893822014
88.0,-0.00013509044947568327
96.0,0.0007744789472781122
104.0,0.0005371634615585208
112.0,0.00014275558351073414
120.0,9.259281068807468e-05
128.0,-0.0004317181301303208
144.0,-0.0005754084559157491
160.0,-0.000335504679242149
176.0,-0.0002492239873390645
192.0,0.00026527958107180893
208.0,3.3453048672527075e-05
224.0,-0.00035074661718681455
240.0,-6.230135477380827e-05
256.0,0.000722911034245044
288.0,0.0004982841783203185
320.0,7.308988278964534e-05
352.0,-0.00034023242187686265
384.0,-0.0008601027075201273
416.0,-0.0010899300687015057
448.0,-0.0008803929667919874
480.0,-0.00045848501031287014
512.0,7.813185220584273e-05
576.0,1.9701343262568116e-05
640.0,-0.0006381717976182699
704.0,7.648322934983298e-05
768.0,0.00024303165264427662
832.0,0.00018177145102526993
896.0,6.693942850688472e-05
960.0,-0.00021354417549446225
1024.0,0.0001954741164809093
1152.0,-0.000497635395731777
1280.0,-8.639485167805105e-05
1408.0,-8.795223402557895e-05
1536.0,0.0002298793406225741
1664.0,0.00039875120273791254
1792.0,2.129628228431102e-05
1920.0,-0.00016189624147955328
2048.0,-0.00014163028390612453
2304.0,-0.00016473376308567822
2560.0,0.0002221559698227793
2816.0,3.720755557878874e-05
3072.0,-0.0004955849144607782
3328.0,1.5166227967711166e-05
3584.0,0.0002364955289522186
3840.0,-0.0002034091594396159
4096.0,0.00040522750350646675
4608.0,-2.1962376195006073e-05
5120.0,3.793525684159249e-05
5632.0,4.3556974560488015e-05
6144.0,-4.9080015742219985e-05
6656.0,-1.2982175576325972e-05
7168.0,3.9699185435893014e-05
7680.0,-0.00022929624537937343
8192.0,2.801124719553627e-05
9216.0,1.2162173334218096e-05
10240.0,-1.1843865650007501e-05
11264.0,-0.00010531486623222008
12288.0,0.0001813952112570405
13312.0,-0.00010065500828204677
14336.0,8.223756594816223e-05
end
