version,3.0
numOfCh,1
type,point
parent_name,800-cuts
ch_type,1_1
kcount,1
numberNandB,1
brightnessNandB,1
carpet pos,0
pc,0
Time (ms),CH1 Auto-Correlation
1.0,0.026805056259036064
2.0,0.021175885573029518
3.0,0.017424777150154114
4.0,0.014544435776770115
5.0,0.01231672614812851
6.0,0.01057384256273508
7.0,0.009126180782914162
8.0,0.007922870106995106
9.0,0.007113207131624222
10.0,0.00638611800968647
11.0,0.005894443951547146
12.0,0.005492245778441429
13.0,0.005099988076835871
14.0,0.0046759238466620445
15.0,0.004313110373914242
16.0,0.003969432786107063
18.0,0.0034664617851376534
20.0,0.003100011730566621
22.0,0.0026503929402679205
24.0,0.0023614796809852123
26.0,0.0019107178086414933
28.0,0.001797676901333034
30.0,0.0019098882330581546
32.0,0.0016205733409151435
36.0,0.001100704655982554
40.0,0.0007305013714358211
44.0,0.0008923737332224846
48.0,0.000687630323227495
52.0,0.0005629774532280862
56.0,0.0005763586959801614
60.0,0.0006720826495438814
64.0,0.0010916691971942782
72.0,0.0006126931984908879
80.0,-0.0006383494473993778
88.0,-0.00043550465488806367
96.0,-0.00021293197642080486
104.0,-0.000181221665116027
112.0,0.0005887795705348253
120.0,0.0007611480541527271
128.0,0.0004142145917285234
144.0,0.00010681399726308882
160.0,8.025686838664114e-05
176.0,-0.0005728804972022772
192.0,-0.000619773636572063
208.0,-0.0004299400607123971
224.0,3.470947194728069e-05
240.0,8.662352774990723e-05
256.0,0.00011914975038962439
288.0,-0.00037621858064085245
320.0,-0.00029634078964591026
352.0,-0.0002086544845951721
384.0,7.29344765204587e-06
416.0,-0.0006340115796774626
448.0,-0.0003034052497241646
480.0,-9.603024227544665e-05
512.0,0.0005774432793259621
576.0,0.0005332034779712558
640.0,6.220014370228455e-07
704.0,7.149243901949376e-05
768.0,0.00028490598197095096
832.0,0.00037301762495189905
896.0,0.000396219315007329
960.0,-0.00029590781196020544
1024.0,-0.0003873292589560151
1152.0,-7.734900282230228e-05
1280.0,-0.0005951686762273312
1408.0,-2.4021703211474232e-05
1536.0,-0.00045476312516257167
1664.0,-3.543122875271365e-05
1792.0,7.797189755365252e-05
1920.0,0.00015979648742359132
2048.0,-0.00029952279874123633
2304.0,0.00017746101366356015
2560.0,-0.0003423340094741434
2816.0,-7.409040790662402e-06
3072.0,7.713507511653006e-05
3328.0,-0.0003160274645779282
3584.0,0.000266337301582098
3840.0,9.461987065151334e-05
4096.0,0.0003124498180113733
4608.0,-9.689305443316698e-05
5120.0,-8.789837011136115e-05
5632.0,-0.00036750733852386475
6144.0,3.444858157308772e-05
6656.0,-2.2817685021436773e-05
7168.0,-2.5940353225450963e-06
7680.0,7.99204281065613e-05
8192.0,0.00020288008090574294
9216.0,-8.587097545387223e-05
10240.0,0.00010878377361223102
11264.0,0.00020565038721542805
12288.0,-4.5573800889542326e-05
13312.0,-0.0004675118252635002
14336.0,0.00015310037997551262
end
