version,3.0
numOfCh,1
type,point
parent_name,800-cuts
ch_type,1_1
kcount,1
numberNandB,1
brightnessNandB,1
carpet pos,0
pc,0
Time (ms),CH1 Auto-Correlation
1.0,0.024772213771939278
2.0,0.019566118717193604
3.0,0.015738850459456444
4.0,0.013037806376814842
5.0,0.010827673599123955
6.0,0.009476518258452415
7.0,0.008326249197125435
8.0,0.007298924960196018
9.0,0.006667315028607845
10.0,0.0059526958502829075
11.0,0.005399043206125498
12.0,0.004940039478242397
13.0,0.004470854997634888
14.0,0.004259732086211443
15.0,0.003983660601079464
16.0,0.003681050380691886
18.0,0.003208845155313611
20.0,0.0028671480249613523
22.0,0.0022279247641563416
24.0,0.0018615390872582793
26.0,0.0011092718923464417
28.0,0.0007494316669180989
30.0,0.0005230789538472891
32.0,0.0005931209307163954
36.0,0.00041321341996081173
40.0,0.0005757322069257498
44.0,0.0006565367802977562
48.0,0.0003163106448482722
52.0,0.0003549011016730219
56.0,0.0003994184953626245
60.0,0.00011372625885996968
64.0,0.0006218928610906005
72.0,0.0005362127558328211
80.0,-0.00012530064850579947
88.0,0.00037979346234351397
96.0,6.796302477596328e-05
104.0,-8.473857451463118e-05
112.0,-0.00023712805705145001
120.0,-0.0001821653568185866
128.0,-0.00033946416806429625
144.0,-0.0008722125203348696
160.0,-0.0009122834308072925
176.0,-0.0004973757895641029
192.0,-0.000508340890519321
208.0,0.00011882753460668027
224.0,0.0003548195818439126
240.0,-3.302039112895727e-05
256.0,-0.00013755836698692292
288.0,-0.00013353736721910536
320.0,-0.0007350975065492094
352.0,0.00022170333249960095
384.0,0.0006578996544703841
416.0,-0.00014281996118370444
448.0,-0.0001145039132097736
480.0,0.0005038853269070387
512.0,-2.4689294150448404e-05
576.0,-0.00024022521392907947
640.0,-0.00023281553876586258
704.0,-0.0002582716115284711
768.0,2.0855128241237253e-05
832.0,-0.00017762559582479298
896.0,0.00017263741756323725
960.0,-0.0003405433672014624
1024.0,-6.690433656331152e-05
1152.0,-0.000341576844220981
1280.0,-6.010203651385382e-05
1408.0,0.00010904359078267589
1536.0,-0.00033503229497000575
1664.0,0.00011387311678845435
1792.0,0.0006030937656760216
1920.0,-1.2183620128780603e-05
2048.0,-0.0005073922220617533
2304.0,7.90548074292019e-06
2560.0,-0.00028014168492518365
2816.0,0.00041283603059127927
3072.0,-0.00020863731333520263
3328.0,-0.00018579751485958695
3584.0,0.00016850436804816127
3840.0,-0.0002745174278970808
4096.0,0.00017838456551544368
4608.0,1.8019083654507995e-05
5120.0,0.00022286716557573527
5632.0,-0.0002916528901550919
6144.0,3.842795194941573e-05
6656.0,-4.9063717597164214e-05
7168.0,-0.00013979604409541935
7680.0,-9.192915604216978e-05
8192.0,9.173193393507972e-05
9216.0,-6.0248683439567685e-05
10240.0,0.00017404086247552186
11264.0,-0.00013497014879249036
12288.0,8.676737343193963e-05
13312.0,-3.006910628755577e-05
14336.0,4.7295292461058125e-05
end
