version,3.0
numOfCh,1
type,point
parent_name,800-cuts
ch_type,1_1
kcount,1
numberNandB,1
brightnessNandB,1
carpet pos,0
pc,0
Time (ms),CH1 Auto-Correlation
1.0,0.014847742393612862
2.0,0.01151479221880436
3.0,0.009263895452022552
4.0,0.007568807806819677
5.0,0.006229175720363855
6.0,0.005089766811579466
7.0,0.00426446134224534
8.0,0.003682471811771393
9.0,0.003057001158595085
10.0,0.002687213709577918
11.0,0.002366982400417328
12.0,0.0020553702488541603
13.0,0.0017065091524273157
14.0,0.0014962730929255486
15.0,0.0012942497851327062
16.0,0.0012016902910545468
18.0,0.001039384282194078
20.0,0.000869099865667522
22.0,0.0006697866483591497
24.0,0.0005219270242378116
26.0,0.0006388442125171423
28.0,0.00045881359255872667
30.0,0.0002011008618865162
32.0,-4.286251714802347e-05
36.0,-8.831751620164141e-05
40.0,-7.887836545705795e-05
44.0,-0.00028699342510662973
48.0,-0.0001444733061362058
52.0,-8.31856086733751e-05
56.0,-6.967252829781501e-06
60.0,2.9428283596644178e-05
64.0,2.0144740119576454e-05
72.0,-0.00016941300418693572
80.0,-0.00011947195162065327
88.0,-0.0003695861669257283
96.0,8.62220476847142e-05
104.0,-5.625597623293288e-05
112.0,-0.0006942061008885503
120.0,-0.0004673018993344158
128.0,-0.00040496050496585667
144.0,-0.00022579889628104866
160.0,0.00013210135512053967
176.0,0.0002319233026355505
192.0,-0.0001779683370841667
208.0,-0.0002725610393099487
224.0,9.19042358873412e-05
240.0,2.610179035400506e-05
256.0,-5.049251740274485e-06
288.0,1.141388656833442e-05
320.0,9.092434629565105e-05
352.0,-9.247025445802137e-05
384.0,-6.564491923199967e-05
416.0,-8.119333506328985e-05
448.0,2.3929575036163442e-05
480.0,0.00018304691184312105
512.0,0.00012671334843616933
576.0,0.00010361466411268339
640.0,-2.315467099833768e-05
704.0,3.3337225886498345e-06
768.0,-9.495148697169498e-05
832.0,0.0002024461136898026
896.0,-0.00028307203319855034
960.0,-0.0002430605236440897
1024.0,0.00013300735736265779
1152.0,-5.728842006647028e-05
1280.0,7.007536623859778e-05
1408.0,0.00011667209037113935
1536.0,-0.00016818990116007626
1664.0,9.91296983556822e-05
1792.0,1.557440555188805e-05
1920.0,-5.785381654277444e-05
2048.0,0.000278499472187832
2304.0,-5.0490692956373096e-05
2560.0,2.894138015108183e-05
2816.0,8.423902909271419e-05
3072.0,-0.00010927121911663562
3328.0,-3.7219371733954176e-05
3584.0,-3.849495897156885e-06
3840.0,-7.286780601134524e-05
4096.0,9.630877320887521e-05
4608.0,-1.2329880519246217e-05
5120.0,-7.496090256609023e-05
5632.0,-9.943783516064286e-05
6144.0,-1.851957790677261e-06
6656.0,-8.032658661250025e-05
7168.0,-6.272074824664742e-05
7680.0,-0.0001122021785704419
8192.0,8.472931222058833e-05
9216.0,7.810454007994849e-07
10240.0,-8.367293776245788e-05
11264.0,-1.6679599866620265e-05
12288.0,0.0001024666999001056
13312.0,7.705670577706769e-05
14336.0,-3.8662699807900935e-05
end
