version,3.0
numOfCh,1
type,point
parent_name,800-cuts
ch_type,1_1
kcount,1
numberNandB,1
brightnessNandB,1
carpet pos,0
pc,0
Time (ms),CH1 Auto-Correlation
1.0,0.014756309799849987
2.0,0.011526457034051418
3.0,0.009276418015360832
4.0,0.007663040421903133
5.0,0.006450371351093054
6.0,0.0054426612332463264
7.0,0.004656889010220766
8.0,0.0038714257534593344
9.0,0.003353958250954747
10.0,0.002949427580460906
11.0,0.0025915242731571198
12.0,0.0023161480203270912
13.0,0.002025243593379855
14.0,0.0016818380681797862
15.0,0.0014914481434971094
16.0,0.001330284052528441
18.0,0.0011092229979112744
20.0,0.0009436805848963559
22.0,0.000683665624819696
24.0,0.0005149206263013184
26.0,0.0005026828730478883
28.0,0.00045571706141345203
30.0,0.0002625386696308851
32.0,0.00019138757488690317
36.0,7.872907008277252e-05
40.0,-0.00023196605616249144
44.0,-0.00020592534565366805
48.0,-0.00023487159342039376
52.0,-0.00028313809889368713
56.0,-0.00017967035819310695
60.0,0.00012370072363410145
64.0,3.5502936952980235e-05
72.0,-4.794560300069861e-05
80.0,-0.00014260332682169974
88.0,-0.00043264488340355456
96.0,-0.00016084543312899768
104.0,0.00015585304936394095
112.0,0.0003220608050469309
120.0,0.00027441323618404567
128.0,5.586801853496581e-05
144.0,9.298790246248245e-05
160.0,-6.848651537438855e-05
176.0,-5.019379022996873e-05
192.0,-0.00024726666742935777
208.0,-0.0001144389680121094
224.0,-0.0004626538138836622
240.0,-0.0003466882335487753
256.0,0.0004684924497269094
288.0,0.0003862097510136664
320.0,4.2767354898387566e-05
352.0,9.749420860316604e-05
384.0,0.00021124571503605694
416.0,-0.0001941850787261501
448.0,-0.000554529600776732
480.0,0.00024921551812440157
512.0,3.495765486150049e-05
576.0,-0.00018142012413591146
640.0,0.000106470484752208
704.0,-0.00020142078574281186
768.0,-5.445389251690358e-05
832.0,-0.0003375388332642615
896.0,0.00011743933282559738
960.0,5.043585042585619e-05
1024.0,-5.150126162334345e-05
1152.0,-0.00012817097012884915
1280.0,-1.4818224371992983e-05
1408.0,-6.649537681369111e-05
1536.0,-6.85740596964024e-05
1664.0,-1.1770323453674791e-06
1792.0,-3.991241101175547e-06
1920.0,0.00010482972720637918
2048.0,9.441966540180147e-05
2304.0,6.806233432143927e-05
2560.0,-3.154402656946331e-05
2816.0,5.533674993785098e-05
3072.0,8.019075175980106e-05
3328.0,-5.713056089007296e-05
3584.0,-2.8434953492251225e-05
3840.0,3.059987284359522e-05
4096.0,4.166173312114552e-05
4608.0,-7.797835860401392e-05
5120.0,4.85696000396274e-05
5632.0,1.9773819076362997e-05
6144.0,8.734323637327179e-05
6656.0,-0.0001627001038286835
7168.0,6.469748768722638e-05
7680.0,-0.00010008949902839959
8192.0,-3.264268525526859e-05
9216.0,-7.305917824851349e-05
10240.0,-9.375039371661842e-05
11264.0,4.683963197749108e-05
12288.0,-3.0995430279290304e-05
13312.0,-6.37717021163553e-05
14336.0,6.199735071277246e-05
end
