version,3.0
numOfCh,1
type,point
parent_name,800-cuts
ch_type,1_1
kcount,1
numberNandB,1
brightnessNandB,1
carpet pos,0
pc,0
Time (ms),CH1 Auto-Correlation
1.0,0.017117179930210114
2.0,0.013573759235441685
3.0,0.011181564070284367
4.0,0.009396934881806374
5.0,0.008012917824089527
6.0,0.006933786440640688
7.0,0.006049413699656725
8.0,0.005048741586506367
9.0,0.004261674825102091
10.0,0.003569349180907011
11.0,0.0030836453661322594
12.0,0.002660299651324749
13.0,0.002382884034886956
14.0,0.002205928321927786
15.0,0.0018704927060753107
16.0,0.0015421027783304453
18.0,0.0011608684435486794
20.0,0.0007050484418869019
22.0,0.00043047693907283247
24.0,0.00016990865697152913
26.0,5.51750636077486e-05
28.0,-0.00015492299280595034
30.0,-0.0002058738173218444
32.0,-0.0003095638530794531
36.0,-0.00026521572726778686
40.0,-3.1195133487926796e-05
44.0,4.6020835725357756e-05
48.0,-5.3255967941368e-05
52.0,-0.0002652114490047097
56.0,-0.000422353099565953
60.0,-0.0005258761229924858
64.0,-0.00043916262802667916
72.0,0.0003276505449321121
80.0,0.0005521803395822644
88.0,0.0005750319687649608
96.0,0.0004962763050571084
104.0,-2.8488684620242566e-05
112.0,-0.0003324944991618395
120.0,-0.00015715449990238994
128.0,-0.00017883122200146317
144.0,-0.0001251291687367484
160.0,0.00042011518962681293
176.0,-0.00019029536633752286
192.0,-5.821157174068503e-05
208.0,8.986113243736327e-05
224.0,-1.6965565009741113e-05
240.0,0.00020282839250285178
256.0,-0.0002634309057611972
288.0,0.00024484904133714736
320.0,8.551184146199375e-05
352.0,-5.8722445828607306e-05
384.0,0.00027393305208534
416.0,4.2216670408379287e-05
448.0,7.746276969555765e-05
480.0,-0.00019649721798487008
512.0,-7.485604146495461e-05
576.0,-0.0003591915010474622
640.0,-0.00016570526349823922
704.0,-0.00017017735808622092
768.0,0.00021095304691698402
832.0,2.82093787973281e-05
896.0,9.91188280750066e-05
960.0,-0.0004454313893802464
1024.0,-0.0002056528755929321
1152.0,-0.00012592335406225175
1280.0,-6.164789283502614e-06
1408.0,-0.0001244057493750006
1536.0,8.316471212310717e-05
1664.0,3.922078758478165e-05
1792.0,9.636898175813258e-05
1920.0,3.096946602454409e-05
2048.0,0.00014767810353077948
2304.0,-0.00013769879296887666
2560.0,-8.607185736764222e-05
2816.0,-2.8707570891128853e-05
3072.0,-1.0778362593555357e-05
3328.0,-7.075598205119604e-06
3584.0,-3.7216796044958755e-05
3840.0,8.928417810238898e-05
4096.0,0.0002733489091042429
4608.0,-0.0001196749071823433
5120.0,3.987763557233848e-05
5632.0,-6.374399526976049e-05
6144.0,-0.00016321295697707683
6656.0,-4.289994467399083e-05
7168.0,0.00018594540597405285
7680.0,-0.00020181921718176454
8192.0,5.64851907256525e-05
9216.0,-7.038837793515995e-05
10240.0,-3.1181611120700836e-05
11264.0,5.511863128049299e-05
12288.0,8.402312232647091e-05
13312.0,1.1569137541300734e-06
14336.0,-2.9136936063878238e-05
end
