version,3.0
numOfCh,1
type,point
parent_name,800-cuts
ch_type,1_1
kcount,1
numberNandB,1
brightnessNandB,1
carpet pos,0
pc,0
Time (ms),CH1 Auto-Correlation
1.0,0.017192667350172997
2.0,0.013438975438475609
3.0,0.010887744836509228
4.0,0.00907591637223959
5.0,0.0076749809086322784
6.0,0.006595025770366192
7.0,0.005717558320611715
8.0,0.004998647607862949
9.0,0.00435422221198678
10.0,0.003824402578175068
11.0,0.003434881567955017
12.0,0.0031551525462418795
13.0,0.0029395860619843006
14.0,0.0027354080229997635
15.0,0.002517907414585352
16.0,0.002369144931435585
18.0,0.0022650219034403563
20.0,0.0020646322518587112
22.0,0.0018499598372727633
24.0,0.0014216899871826172
26.0,0.0009530445095151663
28.0,0.000692651781719178
30.0,0.0004143144469708204
32.0,0.00041722060996107757
36.0,0.0003152174467686564
40.0,0.00021795459906570613
44.0,0.0002293020224897191
48.0,0.00012251685257069767
52.0,-5.60903936275281e-05
56.0,-0.00027047417825087905
60.0,-0.00030067184707149863
64.0,-0.0002114660746883601
72.0,-0.000174575878190808
80.0,-0.00020412655430845916
88.0,-1.1016008016895285e-07
96.0,0.0001515037874924019
104.0,-0.00023837079061195254
112.0,-5.041091935709119e-05
120.0,5.899951429455541e-05
128.0,-0.00042973452946171165
144.0,-0.0005381148075684905
160.0,-0.00045247672824189067
176.0,-2.6420698304718826e-06
192.0,0.0006389521877281368
208.0,0.0006069708033464849
224.0,0.0001811267575249076
240.0,-2.9852960778953275e-06
256.0,8.765306120039895e-05
288.0,8.028421143535525e-05
320.0,-1.1665894817269873e-05
352.0,-0.00040859929868020117
384.0,0.0002491737250238657
416.0,5.416356725618243e-05
448.0,0.00018437867402099073
480.0,-4.717865158454515e-05
512.0,-0.00019709474872797728
576.0,0.00031331743230111897
640.0,0.00041925034020096064
704.0,-0.000356584059773013
768.0,0.00028613704489544034
832.0,0.0003149752737954259
896.0,-0.00035281453165225685
960.0,-0.0003253292525187135
1024.0,-0.00021271251898724586
1152.0,-0.00011470528261270374
1280.0,-0.0002938204270321876
1408.0,-4.712597728939727e-05
1536.0,-0.00018119507876690477
1664.0,6.953168485779315e-05
1792.0,-0.00039256137097254395
1920.0,-0.00011427129356889054
2048.0,-0.00012071218225173652
2304.0,0.00014984449080657214
2560.0,-5.036325455876067e-05
2816.0,0.00010440274490974844
3072.0,0.00019319509738124907
3328.0,-3.1938881875248626e-05
3584.0,-0.0001600515824975446
3840.0,-2.850190139724873e-05
4096.0,-5.7180059229722247e-05
4608.0,4.977086064172909e-06
5120.0,-3.284061676822603e-05
5632.0,6.605716043850407e-05
6144.0,4.9093498091679066e-05
6656.0,-0.00013733476225752383
7168.0,-0.00011619566794252023
7680.0,1.6564082443437655e-06
8192.0,7.696660759393126e-05
9216.0,0.00014193414244800806
10240.0,-0.0001766825298545882
11264.0,1.8009712221100926e-05
12288.0,0.0003284670237917453
13312.0,-0.00014981115236878395
14336.0,-0.00021107734937686473
end
