version,3.0
numOfCh,1
type,point
parent_name,800-cuts
ch_type,1_1
kcount,1
numberNandB,1
brightnessNandB,1
carpet pos,0
pc,0
Time (ms),CH1 Auto-Correlation
1.0,0.015046587213873863
2.0,0.011730904690921307
3.0,0.009402728639543056
4.0,0.0077210236340761185
5.0,0.006359345745295286
6.0,0.005487768445163965
7.0,0.00478525273501873
8.0,0.004175140988081694
9.0,0.003589169355109334
10.0,0.003237989731132984
11.0,0.002843818161636591
12.0,0.0025539330672472715
13.0,0.0023025874979794025
14.0,0.0021905277390033007
15.0,0.0020583400037139654
16.0,0.0018952593673020601
18.0,0.0015294412150979042
20.0,0.0012541633332148194
22.0,0.0010344497859477997
24.0,0.0009346031583845615
26.0,0.0006785176228731871
28.0,0.00045514723751693964
30.0,0.00035410793498158455
32.0,0.00019996128685306758
36.0,7.604739221278578e-05
40.0,0.0002498402609489858
44.0,0.0003514230775181204
48.0,0.0003420146822463721
52.0,0.0001327823119936511
56.0,9.255571785615757e-05
60.0,7.298584387172014e-05
64.0,0.00012234602763783187
72.0,0.00019495277956593782
80.0,0.0002459966635797173
88.0,0.0005577858537435532
96.0,0.00024708060664124787
104.0,5.120554124005139e-05
112.0,-0.0004166599828749895
120.0,-0.00028980133356526494
128.0,0.0002179330913349986
144.0,0.00023853156017139554
160.0,0.00027863221475854516
176.0,-0.00019257613166701049
192.0,-1.9050230548600666e-05
208.0,0.0002629392547532916
224.0,0.0002714962465688586
240.0,0.0003940677270293236
256.0,0.0003562903730198741
288.0,0.0002588619536254555
320.0,0.0001099050059565343
352.0,-3.778943937504664e-05
384.0,0.00043949868995696306
416.0,0.00013110891450196505
448.0,0.00036261838977225125
480.0,0.00031542457873001695
512.0,0.00031990668503567576
576.0,6.192068394739181e-05
640.0,0.00015043180610518903
704.0,8.183068712241948e-05
768.0,0.00024423873401246965
832.0,0.0002606922935228795
896.0,0.00016385105845984071
960.0,0.0002165059995604679
1024.0,3.8224261516006663e-05
1152.0,0.00014788827684242278
1280.0,-4.172702392679639e-05
1408.0,-0.0002589642826933414
1536.0,-2.9464259569067508e-05
1664.0,6.136961746960878e-05
1792.0,-0.00012505377526395023
1920.0,-7.960317452671006e-05
2048.0,2.992798363266047e-05
2304.0,3.2944983104243875e-05
2560.0,-5.7723340432858095e-05
2816.0,0.00018520948651712388
3072.0,0.00016681020497344434
3328.0,0.00011968037870246917
3584.0,5.373080784920603e-05
3840.0,-0.0001339706068392843
4096.0,-0.0002020606625592336
4608.0,-0.00024745066184550524
5120.0,-0.00037881030584685504
5632.0,-0.00014440802624449134
6144.0,-8.213369437726215e-05
6656.0,8.32659425213933e-05
7168.0,-0.0003083132323808968
7680.0,-5.4690666729584336e-05
8192.0,-0.00026421056827530265
9216.0,0.0001760304585332051
10240.0,0.00014695139543619007
11264.0,4.363873085821979e-05
12288.0,0.00016198912635445595
13312.0,0.00011764840019168332
14336.0,-0.00017483439296483994
end
