version,3.0
numOfCh,1
type,point
parent_name,800-cuts
ch_type,1_1
kcount,1
numberNandB,1
brightnessNandB,1
carpet pos,0
pc,0
Time (ms),CH1 Auto-Correlation
1.0,0.015589384362101555
2.0,0.012200392782688141
3.0,0.00972567405551672
4.0,0.00793477613478899
5.0,0.006558022927492857
6.0,0.0054428414441645145
7.0,0.004591452423483133
8.0,0.003926843870431185
9.0,0.0033488187473267317
10.0,0.0029228695202618837
11.0,0.0026500157546252012
12.0,0.0023042098619043827
13.0,0.0019053919240832329
14.0,0.0016561534721404314
15.0,0.001411897363141179
16.0,0.00105860095936805
18.0,0.0007453551515936852
20.0,0.0005528226029127836
22.0,0.0005122972652316093
24.0,0.00044852582504972816
26.0,0.0002913505013566464
28.0,0.00020247872453182936
30.0,-6.745215796399862e-05
32.0,-0.0002083528379444033
36.0,-0.00011825597903225571
40.0,-0.0002486796001903713
44.0,-0.00021219105110503733
48.0,-0.00024973382824100554
52.0,-0.0001351538230665028
56.0,6.549853424075991e-05
60.0,0.0003206288383807987
64.0,0.0004988008295185864
72.0,0.0006123014609329402
80.0,0.0006506592035293579
88.0,0.000298980507068336
96.0,0.00016160869563464075
104.0,0.0005755451275035739
112.0,0.0006634555757045746
120.0,0.00028867830405943096
128.0,-4.618549064616673e-05
144.0,-0.00027675789897330105
160.0,2.952309114334639e-05
176.0,7.880621706135571e-05
192.0,0.00011755027662729844
208.0,-0.0003814089286606759
224.0,3.229525827919133e-05
240.0,-0.00017760453920345753
256.0,-4.28516577812843e-05
288.0,0.00016706033784430474
320.0,-7.817413279553875e-05
352.0,6.0918602684978396e-05
384.0,0.0004399861500132829
416.0,0.0003200375649612397
448.0,6.620461499551311e-05
480.0,-0.00012036069529131055
512.0,0.00010216220834990963
576.0,-4.984598490409553e-05
640.0,-0.00021173284039832652
704.0,2.36516661971109e-05
768.0,-0.00017446033598389477
832.0,-0.00017435153131373227
896.0,-3.318962990306318e-05
960.0,-0.0003355016524437815
1024.0,-0.0003268676227889955
1152.0,-0.00021116077550686896
1280.0,2.1092399038025178e-05
1408.0,-9.599352779332548e-05
1536.0,-1.127281484514242e-05
1664.0,-2.5044069843715988e-05
1792.0,-0.0001282443554373458
1920.0,0.0002577487612143159
2048.0,0.00013023527571931481
2304.0,-4.8962181608658284e-05
2560.0,-4.9058711738325655e-05
2816.0,-0.00015118069131858647
3072.0,-0.00016040049376897514
3328.0,9.6207506430801e-05
3584.0,2.2947148181629018e-07
3840.0,5.4435346100945026e-05
4096.0,-9.161762136500329e-05
4608.0,0.00011078051466029137
5120.0,6.533665145980194e-05
5632.0,6.691528687952086e-05
6144.0,-0.00010470343113411218
6656.0,-3.949637903133407e-05
7168.0,1.2706398592854384e-05
7680.0,-2.1117040887475014e-05
8192.0,-0.00011110639752587304
9216.0,0.00012487321509979665
10240.0,-0.00012645959213841707
11264.0,0.0001311601372435689
12288.0,-0.0002593053795862943
13312.0,0.0002231672842754051
14336.0,-0.00017678529547993094
end
