version,3.0
numOfCh,1
type,point
parent_name,800-cuts
ch_type,1_1
kcount,1
numberNandB,1
brightnessNandB,1
carpet pos,0
pc,0
Time (ms),CH1 Auto-Correlation
1.0,0.01469169370830059
2.0,0.011378144845366478
3.0,0.009142560884356499
4.0,0.0074138217605650425
5.0,0.0060841795057058334
6.0,0.0051355063915252686
7.0,0.004454273264855146
8.0,0.003992454148828983
9.0,0.0035380080807954073
10.0,0.003166618524119258
11.0,0.0029235619585961103
12.0,0.002766677876934409
13.0,0.002610650146380067
14.0,0.0022568092681467533
15.0,0.0020022697281092405
16.0,0.0017014112090691924
18.0,0.0012568628881126642
20.0,0.00092053331900388
22.0,0.0007768954383209348
24.0,0.0008269640384241939
26.0,0.0008020654204301536
28.0,0.0006939093000255525
30.0,0.0005879623931832612
32.0,0.0004951309529133141
36.0,0.0004781913594342768
40.0,0.0002840546367224306
44.0,0.0002502946008462459
48.0,0.0005064110737293959
52.0,0.0005750872078351676
56.0,0.0006167266983538866
60.0,0.00035318764275871217
64.0,7.93578292359598e-05
72.0,0.0002312133728992194
80.0,0.00041285614133812487
88.0,0.00041406226227991283
96.0,0.0003269699227530509
104.0,0.00035190023481845856
112.0,0.00016512724687345326
120.0,-7.37835289328359e-05
128.0,-0.00025676950463093817
144.0,-0.00019203222473151982
160.0,8.91452727955766e-05
176.0,0.0003286206629127264
192.0,0.0004854974977206439
208.0,0.0003150134580209851
224.0,-9.857415534497704e-06
240.0,0.00010542977543082088
256.0,0.00012022892042296007
288.0,-8.993812662083656e-05
320.0,-0.00012998688907828182
352.0,-0.000340673461323604
384.0,-0.00029659111169166863
416.0,-0.00022408011136576533
448.0,-4.001602064818144e-05
480.0,-0.00010547702549956739
512.0,-0.0002252762787975371
576.0,0.0002831659803632647
640.0,0.00010781294986372814
704.0,-0.00016464822692796588
768.0,0.00015658147458452731
832.0,0.0002787770645227283
896.0,-0.00015396338130813092
960.0,-0.0006292202160693705
1024.0,-2.5993089366238564e-05
1152.0,-6.385283631971106e-05
1280.0,-0.00010588799341348931
1408.0,-1.98960660782177e-05
1536.0,-0.0001356024295091629
1664.0,0.00015861555584706366
1792.0,-0.00011480136890895665
1920.0,-0.00023952548508532345
2048.0,-0.0003070178790949285
2304.0,-4.726132465293631e-05
2560.0,-0.0001275234535569325
2816.0,-0.00010753572860267013
3072.0,1.8373648345004767e-05
3328.0,0.0001677428517723456
3584.0,0.0002527995966374874
3840.0,9.858193516265601e-05
4096.0,9.030508226715028e-05
4608.0,-4.998306030756794e-05
5120.0,0.00016659233369864523
5632.0,-5.975926342216553e-06
6144.0,-0.00016984136891551316
6656.0,-0.00016286886238958687
7168.0,-6.322624540189281e-05
7680.0,0.00013109967403579503
8192.0,0.0001676744141150266
9216.0,2.7545387638383545e-05
10240.0,-0.00021952952374704182
11264.0,6.929836672497913e-05
12288.0,-2.9099521270836703e-05
13312.0,-0.00011399086361052468
14336.0,0.0001397921150783077
end
