version,3.0
numOfCh,1
type,point
parent_name,800-cuts
ch_type,1_1
kcount,1
numberNandB,1
brightnessNandB,1
carpet pos,0
pc,0
Time (ms),CH1 Auto-Correlation
1.0,0.02638907916843891
2.0,0.020825643092393875
3.0,0.016846761107444763
4.0,0.013736247085034847
5.0,0.011509432457387447
6.0,0.00965641438961029
7.0,0.008291329257190228
8.0,0.007063344586640596
9.0,0.0059771849773824215
10.0,0.005281449295580387
11.0,0.004589739255607128
12.0,0.003826737869530916
13.0,0.0032233544625341892
14.0,0.0027809233870357275
15.0,0.0025768715422600508
16.0,0.0022145891562104225
18.0,0.0011572989169508219
20.0,0.0005345836980268359
22.0,0.00016819806478451937
24.0,-0.00023426297411788255
26.0,-0.0004565262934193015
28.0,-0.00046555252629332244
30.0,-0.00016036583110690117
32.0,-0.0001406663650413975
36.0,-0.0006437253905460238
40.0,-0.0010117798810824752
44.0,-0.0005627887439914048
48.0,-8.861148671712726e-05
52.0,8.670283568790182e-05
56.0,-0.00015574188728351146
60.0,-0.0004939057980664074
64.0,-0.00011844684922834858
72.0,0.00021123913757037371
80.0,0.00038430499262176454
88.0,0.0005518542602658272
96.0,2.461727262925706e-06
104.0,-9.148658136837184e-05
112.0,-0.00019329300266690552
120.0,-0.00044552719919010997
128.0,0.000228438206249848
144.0,0.0003722296969499439
160.0,0.00011848961730720475
176.0,-0.0007282790029421449
192.0,-0.0002488582395017147
208.0,0.0001569176820339635
224.0,3.5689885407919064e-05
240.0,-0.00037030503153800964
256.0,0.00016345849144272506
288.0,3.929621016141027e-05
320.0,-0.00020412352751009166
352.0,-0.0006822974537499249
384.0,0.000447526021162048
416.0,0.0008065524161793292
448.0,0.0002624841872602701
480.0,-0.0006051125237718225
512.0,-0.00020813575247302651
576.0,-8.893061021808535e-05
640.0,-4.913547309115529e-05
704.0,-0.0003491354873403907
768.0,-0.00017631638911552727
832.0,0.000611245515756309
896.0,0.0003239888756070286
960.0,-0.0002603393222671002
1024.0,0.00012257964408490807
1152.0,-0.00013618804223369807
1280.0,0.0001353006809949875
1408.0,5.626205893349834e-05
1536.0,-1.5770018535476993e-07
1664.0,-0.00018242921214550734
1792.0,0.0001749843213474378
1920.0,-0.00033911698847077787
2048.0,9.588754619471729e-05
2304.0,0.00013633003982249647
2560.0,-5.710556797566824e-05
2816.0,-5.8012898080050945e-05
3072.0,-0.0003146872913930565
3328.0,-0.00011775321763707325
3584.0,-0.00011963344877585769
3840.0,8.820991934044287e-05
4096.0,4.807161894859746e-05
4608.0,-4.622156484401785e-05
5120.0,3.285780258011073e-05
5632.0,-0.00012557802256196737
6144.0,3.001744880748447e-05
6656.0,2.64307909674244e-05
7168.0,2.11167771340115e-05
7680.0,0.00018795383221004158
8192.0,9.106786455959082e-05
9216.0,2.2872025510878302e-05
10240.0,8.39500644360669e-05
11264.0,-0.00031200985540635884
12288.0,-2.382055390626192e-05
13312.0,-0.00024369418679270893
14336.0,0.0002559004642535001
end
