version,3.0
numOfCh,1
type,point
parent_name,800-cuts
ch_type,1_1
kcount,1
numberNandB,1
brightnessNandB,1
carpet pos,0
pc,0
Time (ms),CH1 Auto-Correlation
1.0,0.01548771932721138
2.0,0.011920365504920483
3.0,0.009466907940804958
4.0,0.0077294036746025085
5.0,0.006423988379538059
6.0,0.005414838902652264
7.0,0.004568163305521011
8.0,0.0038947751745581627
9.0,0.003251762129366398
10.0,0.00271504744887352
11.0,0.002267724834382534
12.0,0.001915280008688569
13.0,0.0016760989092290401
14.0,0.0014113690704107285
15.0,0.0012772649060934782
16.0,0.0011530470801517367
18.0,0.0008279580506496131
20.0,0.0004968299181200564
22.0,0.00042396580101922154
24.0,0.00030265614623203874
26.0,0.00035135255893692374
28.0,0.0005179653526283801
30.0,0.00040066734072752297
32.0,0.000314007222186774
36.0,0.00029425660613924265
40.0,0.0002857206854969263
44.0,0.0001784594642231241
48.0,-0.0001416219602106139
52.0,-6.86938437866047e-05
56.0,3.554369686753489e-05
60.0,0.00023626667098142207
64.0,0.00047429680125787854
72.0,0.00015720250667072833
80.0,-0.00017711127293296158
88.0,-0.0002495677617844194
96.0,-0.00021284798276610672
104.0,1.1983203876297921e-05
112.0,-0.0004070849681738764
120.0,-0.0008447812870144844
128.0,-0.0003111754194833338
144.0,6.811389175709337e-05
160.0,7.302330050151795e-05
176.0,-0.0001401070912834257
192.0,-9.948549268301576e-05
208.0,0.0002720058837439865
224.0,0.0002077394601656124
240.0,0.00045632474939338863
256.0,0.0003473979595582932
288.0,1.568485822645016e-05
320.0,7.762518362142146e-05
352.0,0.00015560620522592217
384.0,0.00028646987630054355
416.0,-0.0002524035226088017
448.0,2.5424234991078265e-05
480.0,5.2495739510050043e-05
512.0,0.00028226920403540134
576.0,-0.00012714919284917414
640.0,0.00016057031461969018
704.0,1.710149376776826e-06
768.0,0.00016303926531691104
832.0,-0.00012633150618057698
896.0,-3.1237526854965836e-05
960.0,0.000516558182425797
1024.0,6.205270619830117e-05
1152.0,-3.504695268929936e-05
1280.0,7.295022805919871e-05
1408.0,0.00024539962760172784
1536.0,4.055419412907213e-05
1664.0,9.8353548310115e-06
1792.0,0.00014976519742049277
1920.0,-7.98384498921223e-05
2048.0,-0.00010444796498632059
2304.0,8.876503125065938e-05
2560.0,9.990410762839019e-05
2816.0,-2.1987283616908826e-05
3072.0,-6.5288768382743e-05
3328.0,1.9569739379221573e-05
3584.0,5.0935577746713534e-05
3840.0,0.00010708912304835394
4096.0,9.334746573586017e-05
4608.0,-3.8011134165572e-05
5120.0,-5.947086901869625e-05
5632.0,-7.582431862829253e-05
6144.0,-0.00024111857055686414
6656.0,-2.8477896194090135e-05
7168.0,-0.00018390314653515816
7680.0,-3.44278960255906e-05
8192.0,-8.91764648258686e-05
9216.0,-4.272247679182328e-05
10240.0,-7.542759703937918e-05
11264.0,-5.91800289839739e-06
12288.0,-6.30808062851429e-05
13312.0,0.00016568091814406216
14336.0,-5.672746920026839e-05
end
