version,3.0
numOfCh,1
type,point
parent_name,800-cuts
ch_type,1_1
kcount,1
numberNandB,1
brightnessNandB,1
carpet pos,0
pc,0
Time (ms),CH1 Auto-Correlation
1.0,0.014893569052219391
2.0,0.01145806536078453
3.0,0.009138979017734528
4.0,0.00739275710657239
5.0,0.006006747484207153
6.0,0.004960275255143642
7.0,0.004121775273233652
8.0,0.003552174661308527
9.0,0.0032590660266578197
10.0,0.0029395841993391514
11.0,0.0025751497596502304
12.0,0.002271778415888548
13.0,0.0020081903785467148
14.0,0.0017337538301944733
15.0,0.001521621597930789
16.0,0.0013777398271486163
18.0,0.0011490144534036517
20.0,0.001056245295330882
22.0,0.0009845762979239225
24.0,0.0008414860349148512
26.0,0.0008638337603770196
28.0,0.0007024154183454812
30.0,0.000588180439081043
32.0,0.0006319069070741534
36.0,0.0007573771290481091
40.0,0.000633609015494585
44.0,0.0004055055323988199
48.0,0.0003396274405531585
52.0,0.0001853402645792812
56.0,0.00019407266518101096
60.0,0.00028029372333548963
64.0,0.0003272483590990305
72.0,-0.00012849298946093768
80.0,-0.0001383231719955802
88.0,0.00028895350988022983
96.0,0.0003029011422768235
104.0,0.00044159337994642556
112.0,0.0001340295420959592
120.0,-5.2999075705884025e-05
128.0,0.0003060663875658065
144.0,-4.255444582668133e-05
160.0,-5.921394404140301e-05
176.0,-0.00021414969523902982
192.0,6.272103928495198e-05
208.0,-0.00012634207087103277
224.0,-0.0003295504138804972
240.0,-0.00010196297080256045
256.0,-6.0530575865413994e-05
288.0,0.00021839363034814596
320.0,-0.00011252445983700454
352.0,0.00013755458348896354
384.0,6.075089186197147e-05
416.0,6.089535600040108e-05
448.0,-0.00039477850077673793
480.0,9.33352202991955e-05
512.0,-0.00010108110291184857
576.0,-5.8732992329169065e-05
640.0,-0.00017387178377248347
704.0,-0.0002162058517569676
768.0,3.4197248169220984e-05
832.0,0.00028637060313485563
896.0,1.778153637133073e-05
960.0,0.00013974089233670384
1024.0,0.0002512740611564368
1152.0,-0.0002724702062550932
1280.0,-0.00013428671809379011
1408.0,6.41261794953607e-05
1536.0,5.9619716921588406e-05
1664.0,0.0001379972673021257
1792.0,0.00012498130672611296
1920.0,0.00016093904559966177
2048.0,-1.9961504222010262e-05
2304.0,-0.00011111331696156412
2560.0,-0.00012286013225093484
2816.0,9.579266043147072e-05
3072.0,0.0001458370970794931
3328.0,0.00014717156591359526
3584.0,0.0001326066703768447
3840.0,-5.876119757886045e-05
4096.0,-5.847068314324133e-05
4608.0,3.6307541449787095e-05
5120.0,-5.5825497838668525e-05
5632.0,-0.0001629540929570794
6144.0,-7.757950515951961e-05
6656.0,0.00018013076623901725
7168.0,-3.4088156098732725e-05
7680.0,-0.00015950994566082954
8192.0,7.780401938362047e-05
9216.0,-0.00014627976634074003
10240.0,1.5078854630701244e-05
11264.0,-5.5837557738414034e-05
12288.0,-6.941303581697866e-05
13312.0,3.9167061913758516e-05
14336.0,-6.0633286921074614e-05
end
