version,3.0
numOfCh,1
type,point
parent_name,800-cuts
ch_type,1_1
kcount,1
numberNandB,1
brightnessNandB,1
carpet pos,0
pc,0
Time (ms),CH1 Auto-Correlation
1.0,0.015437315218150616
2.0,0.012181196361780167
3.0,0.009911680594086647
4.0,0.008296523243188858
5.0,0.006990077905356884
6.0,0.00595507537946105
7.0,0.005041235592216253
8.0,0.004325176123529673
9.0,0.003799169324338436
10.0,0.0034647868014872074
11.0,0.00318107265047729
12.0,0.00284987548366189
13.0,0.002585111651569605
14.0,0.0023383740335702896
15.0,0.002016020705923438
16.0,0.001737641985528171
18.0,0.0013043830404058099
20.0,0.0012608608230948448
22.0,0.0012234277091920376
24.0,0.0011525851441547275
26.0,0.0011171266669407487
28.0,0.0009614760638214648
30.0,0.0008203358156606555
32.0,0.0006391489296220243
36.0,0.00024868102627806365
40.0,0.00017687070067040622
44.0,0.00021436368115246296
48.0,-1.5743979020044208e-05
52.0,5.517954923561774e-05
56.0,-4.94815394631587e-05
60.0,-0.00013469706755131483
64.0,-8.062728738877922e-05
72.0,0.00013309299538377672
80.0,0.00014910580648574978
88.0,6.426510663004592e-05
96.0,0.00032968781306408346
104.0,0.00023757452436257154
112.0,-0.0004937975900247693
120.0,-0.0005872690235264599
128.0,-0.0006039466825313866
144.0,2.1835128791281022e-05
160.0,0.0003549414104782045
176.0,-0.0002151491935364902
192.0,0.00013672761269845068
208.0,-0.00039959358400665224
224.0,-0.0006274066399782896
240.0,-0.0007067041005939245
256.0,-0.00014600824215449393
288.0,-0.0005817406345158815
320.0,-8.637574501335621e-05
352.0,-0.000314901873935014
384.0,6.424690946005285e-05
416.0,-0.00023312967095989734
448.0,-0.0004210790793877095
480.0,7.985760748852044e-05
512.0,-1.3803489309793804e-05
576.0,0.00019747405895031989
640.0,0.00016519932250957936
704.0,0.00013586372369900346
768.0,-1.4867339814372826e-05
832.0,-0.00014675880083814263
896.0,-0.0001091414233087562
960.0,-0.00024777042563073337
1024.0,0.0001002164717647247
1152.0,0.00018449050548952073
1280.0,0.00015274449833668768
1408.0,-0.0003255061456002295
1536.0,-5.8183297369396314e-05
1664.0,-0.00016832149412948638
1792.0,-0.00020651749218814075
1920.0,0.00027424964355304837
2048.0,9.834997763391584e-05
2304.0,-0.00011702635674737394
2560.0,0.00013448673416860402
2816.0,-0.00010360573651269078
3072.0,0.0001821199693949893
3328.0,-1.1732617167581338e-05
3584.0,-0.0001822410267777741
3840.0,3.62586033588741e-05
4096.0,8.310904377140105e-05
4608.0,-0.00014843858662061393
5120.0,7.31869658920914e-05
5632.0,-3.735723294084892e-05
6144.0,1.7688791558612138e-05
6656.0,-2.1741900127381086e-05
7168.0,-1.9760196664719842e-05
7680.0,-4.56133921034052e-06
8192.0,0.0001568431907799095
9216.0,-4.913643351756036e-05
10240.0,5.1889775932068005e-05
11264.0,-2.393448266957421e-05
12288.0,-9.276153286918998e-05
13312.0,3.841022407868877e-05
14336.0,0.00012137857993366197
end
