version,3.0
numOfCh,1
type,point
parent_name,800-cuts
ch_type,1_1
kcount,1
numberNandB,1
brightnessNandB,1
carpet pos,0
pc,0
Time (ms),CH1 Auto-Correlation
1.0,0.01634404808282852
2.0,0.012758014723658562
3.0,0.01023358479142189
4.0,0.008335521444678307
5.0,0.006991040427237749
6.0,0.005969276186078787
7.0,0.005107534117996693
8.0,0.004488474223762751
9.0,0.003994059283286333
10.0,0.0036498212721198797
11.0,0.00324684358201921
12.0,0.0028598210774362087
13.0,0.0025196592323482037
14.0,0.0022279059048742056
15.0,0.0019248910248279572
16.0,0.0017944085411727428
18.0,0.0017215749248862267
20.0,0.001597306807525456
22.0,0.0013752685626968741
24.0,0.0012911480152979493
26.0,0.0010971539886668324
28.0,0.0009881375590339303
30.0,0.0010269887279719114
32.0,0.0009780654218047857
36.0,0.0008431205060333014
40.0,0.0003937722649425268
44.0,0.00030539807630702853
48.0,0.0004583495610859245
52.0,0.0003873914247378707
56.0,0.00048655382124707103
60.0,0.0003982149937655777
64.0,0.0003560336772352457
72.0,-8.173647984222043e-06
80.0,-0.00012399688421282917
88.0,-0.0006235661567188799
96.0,-0.0007926827529445291
104.0,-0.0010380643652752042
112.0,-0.000960206554736942
120.0,-0.0008537461399100721
128.0,-0.00040907124639488757
144.0,-0.00016443085041828454
160.0,2.9138880108803278e-06
176.0,-7.265112799359486e-05
192.0,0.00031537606264464557
208.0,0.0003886194317601621
224.0,-0.00010534602188272402
240.0,0.0002589943469502032
256.0,-0.00027975780540145934
288.0,-4.2745054088300094e-05
320.0,-0.000184240925591439
352.0,-4.813011037185788e-05
384.0,-0.0001690999197307974
416.0,9.76113256001554e-07
448.0,0.0003704792179632932
480.0,3.3158536098198965e-05
512.0,-0.00015258032362908125
576.0,-6.358879909384996e-05
640.0,-8.817220077617094e-05
704.0,-2.2472448108601384e-05
768.0,-0.00024267614935524762
832.0,-0.0002654558920767158
896.0,8.03413859102875e-05
960.0,-0.0005298967589624226
1024.0,-3.5556189686758444e-05
1152.0,-1.4424193068407476e-05
1280.0,-1.560479540785309e-05
1408.0,-0.00018959929002448916
1536.0,9.041892917593941e-05
1664.0,0.00015006882313173264
1792.0,8.630006050225347e-05
1920.0,-3.950593963963911e-05
2048.0,-7.084556273184717e-05
2304.0,1.809320792744984e-06
2560.0,-6.162621866678819e-05
2816.0,8.615376282250509e-05
3072.0,-9.397181565873325e-05
3328.0,0.0002286367234773934
3584.0,-0.00015679170610383153
3840.0,3.281662066001445e-05
4096.0,-9.224717359757051e-05
4608.0,-2.546704672568012e-05
5120.0,-2.1346697394619696e-05
5632.0,7.606703729834408e-05
6144.0,5.26858821103815e-05
6656.0,-0.0001672160578891635
7168.0,3.1404237233800814e-05
7680.0,0.00012412507203407586
8192.0,-0.0001378013112116605
9216.0,7.273632218129933e-05
10240.0,1.3088237210467923e-05
11264.0,-7.064379315124825e-05
12288.0,-2.3846650947234593e-05
13312.0,-2.2146150513435714e-05
14336.0,-8.184671287381207e-07
end
