version,3.0
numOfCh,1
type,point
parent_name,800-cuts
ch_type,1_1
kcount,1
numberNandB,1
brightnessNandB,1
carpet pos,0
pc,0
Time (ms),CH1 Auto-Correlation
1.0,0.015598313882946968
2.0,0.01206140872091055
3.0,0.009665042161941528
4.0,0.007777094375342131
5.0,0.006372495554387569
6.0,0.0053512342274188995
7.0,0.004454714711755514
8.0,0.0038432334549725056
9.0,0.003428685711696744
10.0,0.0028827451169490814
11.0,0.0024461185093969107
12.0,0.0021030690986663103
13.0,0.0017967383610084653
14.0,0.0016579480143263936
15.0,0.001560858334414661
16.0,0.0013917465694248676
18.0,0.0011362753575667739
20.0,0.0010049898410215974
22.0,0.001045596320182085
24.0,0.0009266715496778488
26.0,0.0007474657613784075
28.0,0.0006633044104091823
30.0,0.0006675896001979709
32.0,0.000803873932454735
36.0,0.0005530361668206751
40.0,-7.620838732691482e-05
44.0,-0.00014959281543269753
48.0,0.0002202225150540471
52.0,0.0005054405773989856
56.0,0.00044699813588522375
60.0,0.00032698523136787117
64.0,0.0005523869767785072
72.0,0.00017562598804943264
80.0,-0.00026503606932237744
88.0,-0.0004808112280443311
96.0,-0.00048536909162066877
104.0,-0.00038168797618709505
112.0,-9.18393925530836e-05
120.0,-0.00015645228268112987
128.0,-0.00011866347631439567
144.0,-0.0003729945165105164
160.0,-5.8225112297805026e-05
176.0,-0.0003082084294874221
192.0,-0.00027646179660223424
208.0,0.000131415348732844
224.0,0.00015254919708240777
240.0,0.00046573422150686383
256.0,0.00038370993570424616
288.0,-0.00023690205125603825
320.0,-0.0002621968451421708
352.0,-3.587802348192781e-05
384.0,6.715444760629907e-05
416.0,-0.00026447552954778075
448.0,0.00010457882308401167
480.0,0.0003487530630081892
512.0,0.0001537789503345266
576.0,0.00017086724983528256
640.0,-0.00026003949460573494
704.0,-1.3077658877591603e-05
768.0,8.744289516471326e-05
832.0,-0.00022374508262146264
896.0,-3.663933603093028e-05
960.0,0.0005716289160773158
1024.0,0.00029401888605207205
1152.0,2.034174212894868e-05
1280.0,-0.0002922560670413077
1408.0,0.00024029712949413806
1536.0,-6.855238461866975e-05
1664.0,-1.984744449146092e-05
1792.0,-0.00011923065176233649
1920.0,0.00024170006508938968
2048.0,-0.0002133074594894424
2304.0,4.170296233496629e-05
2560.0,-6.787753954995424e-05
2816.0,-8.100351806206163e-06
3072.0,8.984297164715827e-05
3328.0,9.529760427540168e-05
3584.0,6.932983524166048e-05
3840.0,-5.9674221120076254e-05
4096.0,4.994733171770349e-05
4608.0,-3.6627385270548984e-05
5120.0,8.600133151048794e-05
5632.0,-3.183841545251198e-05
6144.0,2.5691781047498807e-05
6656.0,-7.51069383113645e-05
7168.0,-0.00012606277596205473
7680.0,6.774615030735731e-05
8192.0,-0.00015660205099266022
9216.0,-0.00010694419324863702
10240.0,-6.766706792404875e-05
11264.0,-1.7728809325490147e-05
12288.0,-0.00011570309288799763
13312.0,-7.405707583529875e-05
14336.0,-1.122144385590218e-05
end
