version,3.0
numOfCh,1
type,point
parent_name,800-cuts
ch_type,1_1
kcount,1
numberNandB,1
brightnessNandB,1
carpet pos,0
pc,0
Time (ms),CH1 Auto-Correlation
1.0,0.015155560337007046
2.0,0.01172260195016861
3.0,0.009386369958519936
4.0,0.007667837664484978
5.0,0.006278106477111578
6.0,0.005264508072286844
7.0,0.004528540186583996
8.0,0.004015231505036354
9.0,0.003469857620075345
10.0,0.0030612542759627104
11.0,0.002635834040120244
12.0,0.002252083271741867
13.0,0.001925532822497189
14.0,0.0017657590797170997
15.0,0.0016729971393942833
16.0,0.0014317343011498451
18.0,0.0011931267799809575
20.0,0.0009766084840521216
22.0,0.0007917206385172904
24.0,0.0006418992998078465
26.0,0.0004958086647093296
28.0,0.0004455124435480684
30.0,0.0004844749055337161
32.0,0.0005436077481135726
36.0,0.00041067434358410537
40.0,0.0003505057538859546
44.0,0.0004177478258498013
48.0,0.00021440886484924704
52.0,-0.0001493681047577411
56.0,-0.0002262297348352149
60.0,-0.00018046796321868896
64.0,-0.000700576463714242
72.0,-0.0006899234722368419
80.0,-0.0003210873110219836
88.0,-0.0008262370247393847
96.0,-0.0005613681860268116
104.0,-4.762745084008202e-05
112.0,0.00015320735110435635
120.0,0.0007676360546611249
128.0,0.0006797683308832347
144.0,0.00035730781382881105
160.0,0.0007012184360064566
176.0,1.548466934764292e-05
192.0,-9.670682175055845e-07
208.0,-0.000427893188316375
224.0,8.418343350058421e-05
240.0,-6.43268067506142e-05
256.0,-0.000261915527516976
288.0,0.00031386586488224566
320.0,5.86493915761821e-05
352.0,0.0001633530337130651
384.0,0.0001859774492913857
416.0,1.2405526831571478e-05
448.0,0.00028118849149905145
480.0,-7.051200373098254e-05
512.0,0.0001635089865885675
576.0,0.00011796405306085944
640.0,-0.0002131648943759501
704.0,0.00016074012091849
768.0,8.414323383476585e-05
832.0,7.802957406966016e-05
896.0,0.0003732604091055691
960.0,0.0001293407112825662
1024.0,5.1067410822724923e-05
1152.0,-0.0002573663368821144
1280.0,-0.00022426238865591586
1408.0,-8.57377890497446e-05
1536.0,-0.00016013896674849093
1664.0,-0.00025843080948106945
1792.0,9.69473403529264e-05
1920.0,1.649958107918792e-07
2048.0,-0.00017314024444203824
2304.0,-0.00025520322378724813
2560.0,0.00013520049105864018
2816.0,0.00020248294458724558
3072.0,-3.714191188919358e-05
3328.0,7.575342169729993e-05
3584.0,0.00012029067875118926
3840.0,-2.7753143513109535e-05
4096.0,-0.0001251605135621503
4608.0,-3.7307465845515253e-06
5120.0,8.564339077565819e-05
5632.0,0.00011282718332950026
6144.0,0.00012660618813242763
6656.0,-0.0002855842176359147
7168.0,-0.00015966666978783906
7680.0,-0.0003884176549036056
8192.0,0.00016102691006381065
9216.0,6.571457925019786e-05
10240.0,-5.9004651120631024e-05
11264.0,4.838645509153139e-06
12288.0,-4.7151690523605794e-05
13312.0,-0.00018459954299032688
14336.0,0.00022141773661132902
end
