version,3.0
numOfCh,1
type,point
parent_name,800-cuts
ch_type,1_1
kcount,1
numberNandB,1
brightnessNandB,1
carpet pos,0
pc,0
Time (ms),CH1 Auto-Correlation
1.0,0.015002714470028877
2.0,0.011634023860096931
3.0,0.009386024437844753
4.0,0.0076536801643669605
5.0,0.0064173205755651
6.0,0.005334411282092333
7.0,0.004522415809333324
8.0,0.003836744697764516
9.0,0.0032883798703551292
10.0,0.0030467037577182055
11.0,0.0026653558015823364
12.0,0.002273203805088997
13.0,0.0018848080653697252
14.0,0.0016457537421956658
15.0,0.001429411000572145
16.0,0.0012918555876240134
18.0,0.0010011239210143685
20.0,0.0006640915526077151
22.0,0.0004750053631141782
24.0,0.0004176925285719335
26.0,0.00048570806393399835
28.0,0.0002503101131878793
30.0,7.480626663891599e-05
32.0,-7.1736471909389365e-06
36.0,9.150644473265857e-05
40.0,-8.972344221547246e-05
44.0,3.068631485803053e-05
48.0,0.0002776167239062488
52.0,6.39404743196792e-06
56.0,3.42452221957501e-05
60.0,0.00020489869348239154
64.0,0.00036284432280808687
72.0,0.0003102835325989872
80.0,-0.00023183658777270466
88.0,-0.0006294837803579867
96.0,-0.0003237261262256652
104.0,-0.0002875349600799382
112.0,4.679533594753593e-05
120.0,3.673109313240275e-05
128.0,-3.0096842237981036e-05
144.0,-0.0008113135118037462
160.0,-0.0005350897554308176
176.0,-0.0003113832208327949
192.0,-0.00017453383770771325
208.0,-0.0002784247335512191
224.0,-7.591036410303786e-05
240.0,0.00040566426469013095
256.0,0.0002680296020116657
288.0,-0.0002425039856461808
320.0,-0.0001350268576061353
352.0,-0.0002949281770270318
384.0,-7.941250078147277e-05
416.0,-0.00020228340872563422
448.0,0.00021631440904457122
480.0,0.0002753822773229331
512.0,0.0003090537211392075
576.0,0.00026875874027609825
640.0,0.0004413736751303077
704.0,-0.00016208059969358146
768.0,-0.00021834942162968218
832.0,-0.0003634470631368458
896.0,2.836592329913401e-06
960.0,0.00010386774374637753
1024.0,0.00018072829698212445
1152.0,0.00021129031665623188
1280.0,2.2633616026723757e-05
1408.0,-7.40425821277313e-05
1536.0,-0.00011995907698292285
1664.0,0.00013758997374679893
1792.0,0.00019001509645022452
1920.0,0.0001243712322320789
2048.0,-0.00035578463575802743
2304.0,-6.881743320263922e-05
2560.0,4.3767890019807965e-05
2816.0,-8.43595103106054e-07
3072.0,-9.702909301267937e-05
3328.0,-0.00010263786680297926
3584.0,-5.443036570795812e-05
3840.0,-8.023341069929302e-05
4096.0,-9.375989611726254e-05
4608.0,-8.51671866257675e-05
5120.0,-5.921173942624591e-05
5632.0,2.162985947506968e-05
6144.0,-4.03216399718076e-05
6656.0,4.4951993913855404e-05
7168.0,8.194382098736241e-05
7680.0,4.527490455075167e-05
8192.0,0.0001369262463413179
9216.0,-3.203478263458237e-05
10240.0,2.3109068933990784e-05
11264.0,-7.058643677737564e-05
12288.0,-3.1170642614597455e-05
13312.0,-3.516233846312389e-05
14336.0,-8.65134279592894e-06
end
