version,3.0
numOfCh,1
type,point
parent_name,800-cuts
ch_type,1_1
kcount,1
numberNandB,1
brightnessNandB,1
carpet pos,0
pc,0
Time (ms),CH1 Auto-Correlation
1.0,0.014396965503692627
2.0,0.01095963828265667
3.0,0.008566837757825851
4.0,0.006968277506530285
5.0,0.005763233173638582
6.0,0.0048370580188930035
7.0,0.0040975590236485004
8.0,0.003462541848421097
9.0,0.003050107043236494
10.0,0.002629643538966775
11.0,0.002216067397966981
12.0,0.0018605767982080579
13.0,0.001608360791578889
14.0,0.0015081549063324928
15.0,0.0014532383065670729
16.0,0.0014829677529633045
18.0,0.0012364694848656654
20.0,0.0010395079152658582
22.0,0.0007170513272285461
24.0,0.0004907214897684753
26.0,0.00023586908355355263
28.0,8.201167656807229e-05
30.0,-2.4459798169118585e-06
32.0,-0.00021062263112980872
36.0,-0.0003214231110177934
40.0,-0.0003130794793833047
44.0,-0.0002646904322318733
48.0,-1.3567293535743374e-05
52.0,-3.4808101190719754e-05
56.0,-0.000355412601493299
60.0,-0.0002796489861793816
64.0,-0.00021320689120329916
72.0,-2.851550561899785e-05
80.0,-0.00030515342950820923
88.0,-0.0002923425636254251
96.0,-9.108626545639709e-05
104.0,0.00018513738177716732
112.0,0.0006655911565758288
120.0,0.0007990848389454186
128.0,0.0005368550773710012
144.0,0.0001700987049844116
160.0,-7.590772293042392e-05
176.0,-0.0002639342856127769
192.0,-0.0002909139438997954
208.0,-0.0004812803817912936
224.0,-6.11913637840189e-05
240.0,0.00023125649022404104
256.0,0.00028126579127274454
288.0,1.6406644135713577e-05
320.0,-2.264389331685379e-05
352.0,6.677319470327348e-05
384.0,-0.0002870297757908702
416.0,-0.0001488952402723953
448.0,-0.00015410409832838923
480.0,0.00019721552962437272
512.0,-0.00013554641918744892
576.0,-1.3795694030704908e-05
640.0,-0.00012981634063180536
704.0,-0.00010702401050366461
768.0,-7.315088441828266e-05
832.0,0.00013332872185856104
896.0,-0.00018123912741430104
960.0,0.00020316212612669915
1024.0,2.4362765543628484e-05
1152.0,-0.0002060951228486374
1280.0,-0.00016940214845817536
1408.0,5.000110377295641e-06
1536.0,-7.452975114574656e-05
1664.0,0.00014253804692998528
1792.0,4.4874275772599503e-05
1920.0,-3.903304605046287e-05
2048.0,3.728492447407916e-05
2304.0,4.430889384821057e-05
2560.0,-6.842577568022534e-05
2816.0,-9.342958946945146e-05
3072.0,-1.4258373994380236e-05
3328.0,-7.274915697053075e-05
3584.0,-9.367790335090831e-05
3840.0,-1.774286101863254e-05
4096.0,6.27028348390013e-05
4608.0,7.762798486510292e-05
5120.0,5.060355761088431e-05
5632.0,-0.00010383964399807155
6144.0,3.100668254774064e-05
6656.0,-1.742263151527368e-07
7168.0,9.170854173135012e-05
7680.0,8.86596262716921e-06
8192.0,8.936961421568412e-06
9216.0,-3.0284643798950128e-05
10240.0,-4.719691787613556e-06
11264.0,-0.00014773602015338838
12288.0,0.00014673899568151683
13312.0,-4.091644586878829e-05
14336.0,0.00013067953113932163
end
