version,3.0
numOfCh,1
type,point
parent_name,800-cuts
ch_type,1_1
kcount,1
numberNandB,1
brightnessNandB,1
carpet pos,0
pc,0
Time (ms),CH1 Auto-Correlation
1.0,0.016833143308758736
2.0,0.01330915093421936
3.0,0.010708619840443134
4.0,0.008863997645676136
5.0,0.007328023202717304
6.0,0.006233567837625742
7.0,0.005312270484864712
8.0,0.004621984902769327
9.0,0.003969983197748661
10.0,0.003424685448408127
11.0,0.0030642671044915915
12.0,0.0028603626415133476
13.0,0.002522544004023075
14.0,0.002281707478687167
15.0,0.0021350823808461428
16.0,0.001992621924728155
18.0,0.0015900235157459974
20.0,0.0013046045787632465
22.0,0.0009346469887532294
24.0,0.0008185027400031686
26.0,0.000791388563811779
28.0,0.0005939226248301566
30.0,0.0005200515734031796
32.0,0.00028486980590969324
36.0,3.0440067348536104e-05
40.0,0.00014061617548577487
44.0,6.344229041133076e-05
48.0,5.7859786465996876e-05
52.0,0.00030628390959464014
56.0,4.64552067569457e-06
60.0,8.278698805952445e-05
64.0,0.00020484108245000243
72.0,-5.260883881419431e-06
80.0,3.138061583740637e-05
88.0,-0.0006319760577753186
96.0,-0.00023432700254488736
104.0,9.238476923201233e-05
112.0,-6.029043288435787e-05
120.0,5.529073314392008e-05
128.0,-0.00013676669914275408
144.0,0.0002224605268565938
160.0,5.780845185654471e-06
176.0,-0.00019083746883552521
192.0,0.00021306800772435963
208.0,0.0002475765941198915
224.0,-0.000146238409797661
240.0,3.478194776107557e-05
256.0,0.00018389520118944347
288.0,-0.00034407436032779515
320.0,1.2737934412143659e-05
352.0,-0.00010128974099643528
384.0,0.00019025786605197936
416.0,-7.65772600885839e-09
448.0,0.0002993860107380897
480.0,-0.0002489586768206209
512.0,3.444681715336628e-05
576.0,3.2951087632682174e-05
640.0,7.332366658374667e-05
704.0,-6.188719271449372e-05
768.0,7.6453281508293e-05
832.0,7.607586303493008e-05
896.0,8.275355503428727e-05
960.0,-0.00027811306063085794
1024.0,0.0006994078285060823
1152.0,0.0001686998875811696
1280.0,-0.00012290211452636868
1408.0,4.4521359086502343e-05
1536.0,0.00031595522887073457
1664.0,4.5560431317426264e-05
1792.0,-0.00021627098612952977
1920.0,-5.788985072285868e-05
2048.0,0.0001787518267519772
2304.0,4.994403207092546e-05
2560.0,-0.0002487993333488703
2816.0,1.1550219824130181e-05
3072.0,7.956537592690438e-05
3328.0,-0.00017005990957841277
3584.0,-3.2232957892119884e-05
3840.0,4.492615698836744e-05
4096.0,-0.00017856336489785463
4608.0,-0.00014594798267353326
5120.0,-5.285681982059032e-05
5632.0,-1.1674540473904926e-05
6144.0,-0.00016780750593170524
6656.0,2.3716751456959173e-05
7168.0,6.547557131852955e-05
7680.0,-9.810323535930365e-05
8192.0,4.187352169537917e-05
9216.0,-8.788278478277789e-07
10240.0,5.1013408665312454e-05
11264.0,-3.2636697142152116e-05
12288.0,-4.892591459793039e-05
13312.0,3.578034738893621e-05
14336.0,0.00014460210513789207
end
