version,3.0
numOfCh,1
type,point
parent_name,800-cuts
ch_type,1_1
kcount,1
numberNandB,1
brightnessNandB,1
carpet pos,0
pc,0
Time (ms),CH1 Auto-Correlation
1.0,0.016584593802690506
2.0,0.013153843581676483
3.0,0.010687807574868202
4.0,0.00895060133188963
5.0,0.0074300686828792095
6.0,0.006307912524789572
7.0,0.005533046089112759
8.0,0.004970293026417494
9.0,0.004515757318586111
10.0,0.004152348730713129
11.0,0.003803378902375698
12.0,0.0035952406469732523
13.0,0.0032559512183070183
14.0,0.002988241845741868
15.0,0.0027126730419695377
16.0,0.0023645295295864344
18.0,0.0020769552793353796
20.0,0.0018637547036632895
22.0,0.0016996588092297316
24.0,0.0016771574737504125
26.0,0.0015845736488699913
28.0,0.0012932887766510248
30.0,0.0011262974003329873
32.0,0.0008980322745628655
36.0,0.000869733456056565
40.0,0.0007211536285467446
44.0,0.0006751281325705349
48.0,0.0005495360237546265
52.0,0.00040110445115715265
56.0,0.0001341111201327294
60.0,0.00018803245620802045
64.0,0.00037693101330660284
72.0,0.00027662990032695234
80.0,0.00022402954346034676
88.0,0.00028613227186724544
96.0,4.287646879674867e-05
104.0,0.00015629887639079243
112.0,-0.0001951231388375163
120.0,-0.0003373374347575009
128.0,4.963680839864537e-05
144.0,-0.00012699118815362453
160.0,-5.834104376845062e-05
176.0,-9.227878035744652e-05
192.0,-0.00021832739003002644
208.0,1.5604071450070478e-05
224.0,0.000139211057103239
240.0,-7.478342013200745e-05
256.0,9.317723015556112e-05
288.0,5.654532651533373e-05
320.0,-0.00016934482846409082
352.0,0.00023836408217903227
384.0,1.848361898737494e-05
416.0,0.0002307968825334683
448.0,-0.00014671593089587986
480.0,6.526397191919386e-05
512.0,-0.0004142745747230947
576.0,-1.627816709515173e-05
640.0,-0.00035492118331603706
704.0,-0.000367872096830979
768.0,-0.00015864751185290515
832.0,-9.852328366832808e-05
896.0,0.00016904366202652454
960.0,-4.4751097448170185e-05
1024.0,-3.3088512282120064e-05
1152.0,-3.7743902794318274e-05
1280.0,1.1814760000561364e-05
1408.0,4.09388194384519e-05
1536.0,0.000207087243325077
1664.0,0.00026864459505304694
1792.0,-0.00011857310892082751
1920.0,-0.00014504122373182327
2048.0,-2.0674298866651952e-05
2304.0,8.054544741753489e-05
2560.0,2.355236756557133e-05
2816.0,0.0001280589058296755
3072.0,-0.00026666204212233424
3328.0,0.0001899746566778049
3584.0,0.00011536155943758786
3840.0,0.00021434588416013867
4096.0,-0.000217188528040424
4608.0,-0.00018720193475019187
5120.0,0.00018019827257376164
5632.0,-8.126356260618195e-05
6144.0,-0.0002277371531818062
6656.0,-9.74499635049142e-05
7168.0,6.571874837391078e-05
7680.0,-6.84441183693707e-05
8192.0,-0.0002524137671571225
9216.0,-3.844372622552328e-05
10240.0,0.00010152897448278964
11264.0,-0.00014079951506573707
12288.0,0.00010323707829229534
13312.0,0.00014465890126302838
14336.0,5.367945777834393e-05
end
