version,3.0
numOfCh,1
type,point
parent_name,800-cuts
ch_type,1_1
kcount,1
numberNandB,1
brightnessNandB,1
carpet pos,0
pc,0
Time (ms),CH1 Auto-Correlation
1.0,0.015309927985072136
2.0,0.011984284967184067
3.0,0.009588649496436119
4.0,0.007719436660408974
5.0,0.006396126002073288
6.0,0.00532515998929739
7.0,0.004403769038617611
8.0,0.0035972329787909985
9.0,0.002985455095767975
10.0,0.0024904259480535984
11.0,0.002131594344973564
12.0,0.0019093662267550826
13.0,0.0017473428742960095
14.0,0.0015204844530671835
15.0,0.0014349599368870258
16.0,0.00121552764903754
18.0,0.0010112831369042397
20.0,0.0007222657441161573
22.0,0.0004321174928918481
24.0,0.00029784199432469904
26.0,0.0002874312340281904
28.0,0.0002947250031866133
30.0,8.260393951786682e-05
32.0,-1.5333833289332688e-05
36.0,0.0001596752554178238
40.0,0.0002406441926723346
44.0,0.0002864242414943874
48.0,0.0003597561444621533
52.0,2.561071960371919e-05
56.0,-0.00016161709208972752
60.0,4.437479947227985e-05
64.0,-5.8854406233876944e-05
72.0,-0.0005391227314248681
80.0,1.9908262402168475e-05
88.0,0.00023635555407963693
96.0,-9.830849012359977e-05
104.0,7.570358866360039e-05
112.0,-0.0002246926596853882
120.0,-0.00027479990967549384
128.0,0.00018559794989414513
144.0,-0.0004044939414598048
160.0,-0.00020415564358700067
176.0,-0.00016215025971177965
192.0,0.00026813751901499927
208.0,-0.00016915997548494488
224.0,-0.0004779403971042484
240.0,-0.000298724218737334
256.0,-0.0003797491663135588
288.0,1.2699169928964693e-05
320.0,0.0004764957120642066
352.0,-4.1136522668239195e-06
384.0,-0.00032980440300889313
416.0,6.0119276895420626e-05
448.0,0.00010234138608211651
480.0,0.0001854768634075299
512.0,0.00019669877656269819
576.0,-0.00029875789186917245
640.0,-0.0001718311832519248
704.0,-0.0002829965960700065
768.0,0.0002802330127451569
832.0,-0.00018515759438741952
896.0,-1.7255799320992082e-05
960.0,-0.00025443825870752335
1024.0,-0.00016705808229744434
1152.0,3.001082586706616e-05
1280.0,0.0002560655411798507
1408.0,8.742134377826005e-05
1536.0,-6.884946196805686e-05
1664.0,0.00023725093342363834
1792.0,-2.7994032279821113e-05
1920.0,-0.00023196620168164372
2048.0,-9.206371760228649e-05
2304.0,-6.3467732616118155e-06
2560.0,9.677166417532135e-06
2816.0,7.014623406575993e-05
3072.0,-0.00010598090011626482
3328.0,1.9616221834439784e-05
3584.0,-7.282180831680307e-06
3840.0,-5.881633114768192e-05
4096.0,0.00012075564882252365
4608.0,3.977782398578711e-05
5120.0,-0.00011690775863826275
5632.0,3.8884772948222235e-05
6144.0,2.787204721244052e-05
6656.0,-3.175970050506294e-05
7168.0,7.843939783924725e-06
7680.0,-3.128878233837895e-05
8192.0,-5.6723645684542134e-05
9216.0,-3.6925961467204615e-05
10240.0,1.4748795365449041e-05
11264.0,-3.876972186844796e-05
12288.0,-3.4695854992605746e-05
13312.0,7.619769894517958e-05
14336.0,0.000129919164464809
end
