version,3.0
numOfCh,1
type,point
parent_name,800-cuts
ch_type,1_1
kcount,1
numberNandB,1
brightnessNandB,1
carpet pos,0
pc,0
Time (ms),CH1 Auto-Correlation
1.0,0.01570483297109604
2.0,0.012316030450165272
3.0,0.009907231666147709
4.0,0.008114064112305641
5.0,0.006756927352398634
6.0,0.005801767110824585
7.0,0.005050513427704573
8.0,0.004299903754144907
9.0,0.0036806862335652113
10.0,0.003210577182471752
11.0,0.002813272876664996
12.0,0.0025653375778347254
13.0,0.002253427868708968
14.0,0.0019264688016846776
15.0,0.0017183965537697077
16.0,0.0015323408879339695
18.0,0.0012576848967000842
20.0,0.0011594194220378995
22.0,0.0009317137883044779
24.0,0.0008718890021555126
26.0,0.00076309684664011
28.0,0.0007291643414646387
30.0,0.0005306904786266387
32.0,0.0001977266074391082
36.0,-0.0001447516115149483
40.0,-0.00020230808877386153
44.0,-0.00010240184928989038
48.0,-0.000229912024224177
52.0,-0.00022330581850837916
56.0,-0.00018988826195709407
60.0,-4.432903733686544e-05
64.0,0.00020085822325199842
72.0,0.00032997369999065995
80.0,0.00046327823656611145
88.0,0.0002452892658766359
96.0,-0.0003938717709388584
104.0,-0.00020369712729007006
112.0,-0.00021975100389681756
120.0,-5.026337021263316e-05
128.0,-5.879921809537336e-05
144.0,-0.00014124148583505303
160.0,5.675801730831154e-05
176.0,-0.0003776993544306606
192.0,-0.0006028314819559455
208.0,-0.00010917437612079084
224.0,0.0003059813170693815
240.0,0.0002662541810423136
256.0,1.810534558899235e-05
288.0,0.0002965755411423743
320.0,-0.000112111636553891
352.0,-0.0002316496247658506
384.0,-5.517003387467412e-07
416.0,0.0003231029841117561
448.0,-0.00018586065561976284
480.0,-0.0001703903981251642
512.0,-0.00010458732867846265
576.0,9.994385618483648e-05
640.0,-0.0003000538854394108
704.0,0.00013174644846003503
768.0,-0.0003476080601103604
832.0,-5.970935308141634e-05
896.0,-6.125101208453998e-05
960.0,1.2452669579943176e-05
1024.0,0.0002952459326479584
1152.0,0.000133793568238616
1280.0,-1.429860458301846e-05
1408.0,-0.00045120500726625323
1536.0,8.236469875555485e-05
1664.0,-0.00010813985136337578
1792.0,-0.00023881634115241468
1920.0,0.00010112705786013976
2048.0,6.995170406298712e-05
2304.0,0.0001548629952594638
2560.0,5.190643059904687e-05
2816.0,-0.0001606443547643721
3072.0,0.00011230948439333588
3328.0,6.735407077940181e-05
3584.0,3.566345912986435e-05
3840.0,-0.00024121484602801502
4096.0,4.779025402967818e-05
4608.0,-5.023290214012377e-05
5120.0,-0.0001013719302136451
5632.0,0.00016920213238336146
6144.0,-6.736424984410405e-05
6656.0,-8.620452717877924e-05
7168.0,-0.00016629807942081243
7680.0,2.7649057301459834e-05
8192.0,1.8332468243897893e-05
9216.0,-7.341659511439502e-05
10240.0,0.00010256267705699429
11264.0,-3.436860424699262e-05
12288.0,3.288463267381303e-05
13312.0,-3.916372588719241e-05
14336.0,8.813384920358658e-05
end
