version,3.0
numOfCh,1
type,point
parent_name,34a6d_3dot0-0dot1
ch_type,1_1
kcount,1
numberNandB,1
brightnessNandB,1
carpet pos,0
pc,0
Time (ms),CH1 Auto-Correlation
1.0,0.01741478033363819
2.0,0.014566133730113506
3.0,0.012603221461176872
4.0,0.011150854639708996
5.0,0.009985401295125484
6.0,0.009088024497032166
7.0,0.008282391354441643
8.0,0.007734069135040045
9.0,0.0072749583050608635
10.0,0.006826759781688452
11.0,0.00634399987757206
12.0,0.0060281576588749886
13.0,0.005775239318609238
14.0,0.005570116452872753
15.0,0.005438355263322592
16.0,0.005341984331607819
18.0,0.005157760344445705
20.0,0.004934586118906736
22.0,0.004662083927541971
24.0,0.004356381483376026
26.0,0.00410948833450675
28.0,0.003951838240027428
30.0,0.003720969194546342
32.0,0.0033957255072891712
36.0,0.003328171791508794
40.0,0.0030380941461771727
44.0,0.0026262940373271704
48.0,0.002314278855919838
52.0,0.0021822762209922075
56.0,0.002011435804888606
60.0,0.0017320788465440273
64.0,0.0013517516199499369
72.0,0.0013127903221175075
80.0,0.001195554155856371
88.0,0.0010343968169763684
96.0,0.0010758707066997886
104.0,0.001057063927873969
112.0,0.0008975163800641894
120.0,0.0009971248218789697
128.0,0.0009106615907512605
144.0,0.0003259768709540367
160.0,0.00020099575340282172
176.0,-0.00021554833801928908
192.0,-0.00020331019186414778
208.0,-0.0003617060137912631
224.0,-0.0005353714805096388
240.0,0.0001543187245260924
256.0,0.00019936521130148321
288.0,-6.356299127219245e-05
320.0,-3.513508272590116e-05
352.0,-0.0002113056107191369
384.0,-0.00036510711652226746
416.0,-0.00018819753313437104
448.0,0.00039305025711655617
480.0,0.0011477686930447817
512.0,0.0007288476917892694
576.0,0.0001816656586015597
640.0,0.00019945591338910162
704.0,-0.00041164818685501814
768.0,-0.0005821158410981297
832.0,-0.00016082986257970333
896.0,0.0004346208297647536
960.0,0.0004241629794705659
1024.0,0.0005106482421979308
1152.0,-0.00047538039507344365
1280.0,-9.202633373206481e-05
1408.0,0.000391120818676427
1536.0,7.154956256272271e-05
1664.0,-0.000365231855539605
1792.0,6.649338047282072e-06
1920.0,0.0005054284702055156
2048.0,-0.0002508675097487867
2304.0,-0.00020780523482244462
2560.0,-0.0002427151339361444
2816.0,-0.0007470387499779463
3072.0,-0.0004027545510325581
3328.0,-8.810367580736056e-05
3584.0,6.857839616714045e-05
3840.0,-0.0002042439009528607
4096.0,-0.0007557021453976631
4608.0,1.6660220353514887e-05
5120.0,-0.0002479688555467874
5632.0,0.0007332732202485204
6144.0,0.00034255246282555163
6656.0,0.00022161520610097796
7168.0,0.0006121482001617551
7680.0,-0.00035812542773783207
8192.0,0.00027736081392504275
end
