version,3.0
numOfCh,1
type,point
parent_name,34a6d_3dot0-0dot1
ch_type,1_1
kcount,1
numberNandB,1
brightnessNandB,1
carpet pos,0
pc,0
Time (ms),CH1 Auto-Correlation
1.0,0.02111109159886837
2.0,0.01810557395219803
3.0,0.015940168872475624
4.0,0.014254347421228886
5.0,0.012850327417254448
6.0,0.011651689186692238
7.0,0.010586780495941639
8.0,0.009687509387731552
9.0,0.0087856100872159
10.0,0.00808586087077856
11.0,0.007460880558937788
12.0,0.006965813226997852
13.0,0.006598539184778929
14.0,0.006212250795215368
15.0,0.005913004279136658
16.0,0.005528151988983154
18.0,0.005003528203815222
20.0,0.004570582415908575
22.0,0.0040678828954696655
24.0,0.003789603943005204
26.0,0.003620282979682088
28.0,0.0033618819434195757
30.0,0.0032912492752075195
32.0,0.003210457507520914
36.0,0.0028837264981120825
40.0,0.002059450140222907
44.0,0.0017561997519806027
48.0,0.0017252665711566806
52.0,0.0017867449205368757
56.0,0.0017674410482868552
60.0,0.0015909138601273298
64.0,0.0014715418219566345
72.0,0.00170601112768054
80.0,0.0011784362141042948
88.0,0.0008281338377855718
96.0,0.000785190612077713
104.0,0.0009117546142078936
112.0,0.0011932201450690627
120.0,0.0012925200862810016
128.0,0.0014151270734146237
144.0,0.0013660038821399212
160.0,0.0015686533879488707
176.0,0.001363798975944519
192.0,0.0012780993711203337
208.0,0.0012908088974654675
224.0,0.0009545060456730425
240.0,0.0008981140563264489
256.0,0.0007824047934263945
288.0,0.000595176185015589
320.0,0.0010548782302066684
352.0,0.0007818093290552497
384.0,0.00016549296560697258
416.0,0.0003178630140610039
448.0,0.0008673440315760672
480.0,0.0003734678903128952
512.0,0.00019840759341605008
576.0,0.00045278799370862544
640.0,-0.00013349771325010806
704.0,-0.00028892935370095074
768.0,-0.00028384794131852686
832.0,5.3912233852315694e-05
896.0,0.0003617564507294446
960.0,-0.0006596340681426227
1024.0,-0.0005785261746495962
1152.0,-0.0007570443558506668
1280.0,0.00017730814579408616
1408.0,0.00011724637442966923
1536.0,-0.0001696264516795054
1664.0,-0.00029747249209322035
1792.0,0.00036374342744238675
1920.0,0.0003352988278493285
2048.0,0.0004284125752747059
2304.0,0.0004712228837888688
2560.0,-0.0002740965283010155
2816.0,-0.0009373499196954072
3072.0,-0.0015249771531671286
3328.0,-0.0008569888304919004
3584.0,-0.00017089126049540937
3840.0,0.00014381814980879426
4096.0,0.00010291114449501038
4608.0,0.000280535954516381
5120.0,-0.0003697687352541834
5632.0,-4.275157698430121e-05
6144.0,0.0005493444623425603
6656.0,-0.00022244163847062737
7168.0,0.0001991599565371871
7680.0,-0.00010005423973780125
8192.0,-0.00024837025557644665
end
