version,3.0
numOfCh,1
type,point
parent_name,34a6d_3dot0-0dot1
ch_type,1_1
kcount,1
numberNandB,1
brightnessNandB,1
carpet pos,0
pc,0
Time (ms),CH1 Auto-Correlation
1.0,0.02124493196606636
2.0,0.018297459930181503
3.0,0.016326017677783966
4.0,0.0148388110101223
5.0,0.013643920421600342
6.0,0.012582828290760517
7.0,0.011564354412257671
8.0,0.010661225765943527
9.0,0.010096032172441483
10.0,0.00954494159668684
11.0,0.008829465135931969
12.0,0.008312322199344635
13.0,0.007904760539531708
14.0,0.007670172490179539
15.0,0.00743598397821188
16.0,0.007116916589438915
18.0,0.006667833309620619
20.0,0.006457377690821886
22.0,0.006167223211377859
24.0,0.005972379818558693
26.0,0.005723204929381609
28.0,0.005389411933720112
30.0,0.005060519091784954
32.0,0.004922294523566961
36.0,0.004516735672950745
40.0,0.004162883851677179
44.0,0.004001167137175798
48.0,0.004104957450181246
52.0,0.003851518267765641
56.0,0.0035115585196763277
60.0,0.0031008359510451555
64.0,0.0028706458397209644
72.0,0.0028288562316447496
80.0,0.002699712524190545
88.0,0.0023595497477799654
96.0,0.0018484388710930943
104.0,0.0019123585661873221
112.0,0.0022330910433083773
120.0,0.0017726565711200237
128.0,0.0018304286058992147
144.0,0.0020801243372261524
160.0,0.0021278196945786476
176.0,0.0012219288619235158
192.0,0.0005610827938653529
208.0,0.0008461907273158431
224.0,0.000963023747317493
240.0,0.0008644815534353256
256.0,0.0012403707951307297
288.0,0.0008537853718735278
320.0,0.0007895546732470393
352.0,-2.9358792744460516e-05
384.0,0.0008326478418894112
416.0,-9.53748676693067e-05
448.0,-5.54511570953764e-05
480.0,0.00038257482810877264
512.0,0.00017374574963469058
576.0,0.00034717071685008705
640.0,0.000621854152996093
704.0,4.764288678416051e-05
768.0,-3.942258990718983e-05
832.0,0.00021429680055007339
896.0,-0.0004243514558766037
960.0,0.00011704598000505939
1024.0,0.00020207883790135384
1152.0,-0.00039002668927423656
1280.0,-0.00022626791906077415
1408.0,-0.0004366436041891575
1536.0,-0.0010871634585782886
1664.0,-0.002086915075778961
1792.0,-0.0015432676300406456
1920.0,-0.0006286890129558742
2048.0,-0.0003273574693594128
2304.0,0.00010295445099473
2560.0,0.0001929119462147355
2816.0,0.00013303841114975512
3072.0,-0.00040499665192328393
3328.0,0.0009481273009441793
3584.0,0.0005512659554369748
3840.0,0.0008164626196958125
4096.0,0.0004274834645912051
4608.0,-0.0003291698812972754
5120.0,-4.682654434873257e-06
5632.0,-0.0011974265798926353
6144.0,-0.0005329520208761096
6656.0,-0.0014375208411365747
7168.0,0.00191252282820642
7680.0,0.002024089451879263
8192.0,0.00016724142187740654
end
