version,3.0
numOfCh,1
type,point
parent_name,34a6d_3dot0-0dot1
ch_type,1_1
kcount,1
numberNandB,1
brightnessNandB,1
carpet pos,0
pc,0
Time (ms),CH1 Auto-Correlation
1.0,0.01636623777449131
2.0,0.01358137745410204
3.0,0.01155939418822527
4.0,0.009980925358831882
5.0,0.00876623671501875
6.0,0.007892593741416931
7.0,0.007151915226131678
8.0,0.006593548692762852
9.0,0.006147695705294609
10.0,0.005831629037857056
11.0,0.005453591234982014
12.0,0.00512196309864521
13.0,0.004794084932655096
14.0,0.004436969757080078
15.0,0.004073802847415209
16.0,0.0037956261076033115
18.0,0.0034716210793703794
20.0,0.0032138722017407417
22.0,0.0030889646150171757
24.0,0.0029942672699689865
26.0,0.002760209608823061
28.0,0.0026727858930826187
30.0,0.00265444815158844
32.0,0.002626060973852873
36.0,0.0024750942829996347
40.0,0.0023509603925049305
44.0,0.0022315450478345156
48.0,0.001997229643166065
52.0,0.0017631122609600425
56.0,0.0015898316632956266
60.0,0.0016532435547560453
64.0,0.0017396442126482725
72.0,0.0014270440442487597
80.0,0.0013738074339926243
88.0,0.0012123014312237501
96.0,0.0008615440456196666
104.0,0.0009863534942269325
112.0,0.0011110324412584305
120.0,0.001055053435266018
128.0,0.001108678407035768
144.0,0.0004806073848158121
160.0,0.00029761085170321167
176.0,-4.007083407486789e-05
192.0,2.6228666683891788e-05
208.0,7.864202052587643e-05
224.0,9.999023313866928e-05
240.0,0.00036960942088626325
256.0,0.000221819500438869
288.0,-0.00017884124827105552
320.0,-0.0003435644612181932
352.0,-7.100428047124296e-05
384.0,2.155717447749339e-05
416.0,-0.0003072983818128705
448.0,-0.0002136892726412043
480.0,-0.0005046117003075778
512.0,-0.0007590372115373611
576.0,-0.000517773674800992
640.0,-0.00041240392602048814
704.0,9.787728049559519e-05
768.0,-5.1656985306181014e-05
832.0,-0.0003848441119771451
896.0,-0.0003351417544763535
960.0,-9.250881703337654e-05
1024.0,-0.0003103465714957565
1152.0,-0.0006624439265578985
1280.0,-0.0006158904870972037
1408.0,5.1245613576611504e-05
1536.0,0.00014152548101264983
1664.0,0.0005303453654050827
1792.0,9.979611058952287e-05
1920.0,-0.0001585592981427908
2048.0,-5.8650693972595036e-05
2304.0,0.00013283360749483109
2560.0,-0.0004968008142895997
2816.0,3.834215385722928e-05
3072.0,-0.00010535093315411359
3328.0,-0.0004976850468665361
3584.0,0.0003322596021462232
3840.0,0.0003607448597904295
4096.0,-0.00012514853733591735
4608.0,-0.00022629766317550093
5120.0,9.443285671295598e-05
5632.0,-5.678504385286942e-05
6144.0,0.00027205300284549594
6656.0,0.0001830604305723682
7168.0,-9.487119314144365e-06
7680.0,-0.00048503867583349347
8192.0,-4.2096871766261756e-05
end
