version,3.0
numOfCh,1
type,point
parent_name,34a6d_3dot0-0dot1
ch_type,1_1
kcount,1
numberNandB,1
brightnessNandB,1
carpet pos,0
pc,0
Time (ms),CH1 Auto-Correlation
1.0,0.01599881425499916
2.0,0.013213342987000942
3.0,0.011169131845235825
4.0,0.009544875472784042
5.0,0.008357465267181396
6.0,0.007408583536744118
7.0,0.0065616886131465435
8.0,0.005785544402897358
9.0,0.005165431648492813
10.0,0.004667057655751705
11.0,0.00419140188023448
12.0,0.0037748231552541256
13.0,0.003418444423004985
14.0,0.002976867603138089
15.0,0.0027044168673455715
16.0,0.002526365453377366
18.0,0.002076714998111129
20.0,0.0018605254590511322
22.0,0.0018453466473147273
24.0,0.0018378881504759192
26.0,0.0017882859101518989
28.0,0.001460072584450245
30.0,0.0013254134682938457
32.0,0.0012094056000933051
36.0,0.0008056077640503645
40.0,0.0007243580184876919
44.0,0.0007404589559882879
48.0,0.0006696004420518875
52.0,0.000685747480019927
56.0,0.0004829277750104666
60.0,0.0003367466852068901
64.0,0.00020772141579072922
72.0,2.1024416128057055e-06
80.0,-0.00028149315039627254
88.0,-0.0006385609158314764
96.0,-0.0005167387425899506
104.0,-0.0005733542493544519
112.0,-0.0007069354178383946
120.0,-0.00046397533151321113
128.0,-0.00016762477753218263
144.0,-0.0007669369806535542
160.0,-2.8446396754588932e-05
176.0,0.0005585796316154301
192.0,0.0004698594275396317
208.0,0.00041778580634854734
224.0,0.0007271551294252276
240.0,0.0006035380647517741
256.0,0.000272930134087801
288.0,0.00010132515308214352
320.0,-0.0002608527720440179
352.0,-0.0002512364590074867
384.0,0.0005963347502984107
416.0,0.0005906789447180927
448.0,0.0004950615111738443
480.0,9.947416401701048e-05
512.0,-0.000521980575285852
576.0,-0.00020276987925171852
640.0,-0.00013535133621189743
704.0,1.2905371477245353e-05
768.0,-0.0002589755167718977
832.0,9.679306094767526e-05
896.0,-2.7769821826950647e-05
960.0,-0.00034958613105118275
1024.0,-0.0007235248340293765
1152.0,-8.445035200566053e-05
1280.0,-2.4371605832129717e-05
1408.0,0.00015196901222225279
1536.0,-2.3117692762752995e-05
1664.0,4.1165701986756176e-05
1792.0,-0.0004598900559358299
1920.0,2.6483550755074248e-05
2048.0,0.0004318436549510807
2304.0,6.658972415607423e-05
2560.0,0.0003084313648287207
2816.0,-1.766457899066154e-05
3072.0,-0.00011288716632407159
3328.0,-0.00018168675887864083
3584.0,-0.00011343765072524548
3840.0,3.581977580324747e-05
4096.0,8.7118343799375e-05
4608.0,0.00015087539213709533
5120.0,0.00011574741074582562
5632.0,-0.0003024816105607897
6144.0,-0.00033829075982794166
6656.0,0.00012555104331113398
7168.0,6.78049327689223e-05
7680.0,0.00011339531920384616
8192.0,-6.432202553696698e-06
end
