version,3.0
numOfCh,1
type,point
parent_name,34a6d_3dot0-0dot1
ch_type,1_1
kcount,1
numberNandB,1
brightnessNandB,1
carpet pos,0
pc,0
Time (ms),CH1 Auto-Correlation
1.0,0.015748806297779083
2.0,0.012871922925114632
3.0,0.010906921699643135
4.0,0.009425073862075806
5.0,0.008397620171308517
6.0,0.007609054446220398
7.0,0.00679957028478384
8.0,0.006206011399626732
9.0,0.005792913027107716
10.0,0.005455764010548592
11.0,0.005243990104645491
12.0,0.004932821728289127
13.0,0.004653960932046175
14.0,0.004448503255844116
15.0,0.004320045467466116
16.0,0.0042626210488379
18.0,0.00400204723700881
20.0,0.003647739766165614
22.0,0.003501407103613019
24.0,0.0033324880059808493
26.0,0.0029964561108499765
28.0,0.0026768604293465614
30.0,0.002407999709248543
32.0,0.0021821260452270508
36.0,0.001820588717237115
40.0,0.0017067532753571868
44.0,0.001667660428211093
48.0,0.0015299920924007893
52.0,0.0014224137412384152
56.0,0.0011599193094298244
60.0,0.001215835101902485
64.0,0.00131594471167773
72.0,0.0013606048887595534
80.0,0.0009076379938051105
88.0,0.0004766817728523165
96.0,0.0001683427981333807
104.0,0.0002880505344364792
112.0,0.00031959323678165674
120.0,0.00011941344564547762
128.0,4.853726295550587e-06
144.0,0.00016717267862986773
160.0,0.00018021065625362098
176.0,0.00035627922625280917
192.0,0.0003201273793820292
208.0,0.0002985152241308242
224.0,-3.464849896772648e-06
240.0,5.56296254217159e-05
256.0,0.0004264078161213547
288.0,-9.457476721763669e-07
320.0,0.0003469156799837947
352.0,0.0006457844283431768
384.0,-1.8455884855939075e-05
416.0,-0.00025578183704055846
448.0,-9.795097867026925e-05
480.0,0.0001637635286897421
512.0,0.0005807116976939142
576.0,-0.00010907260730164126
640.0,2.2594185793423094e-05
704.0,-2.0263214537408203e-05
768.0,-6.369790935423225e-05
832.0,-1.2651071301661432e-05
896.0,0.0001641277631279081
960.0,0.0003939237794838846
1024.0,0.00014571913925465196
1152.0,-0.00043484734487719834
1280.0,-0.0006075652781873941
1408.0,-0.0004637275997083634
1536.0,2.429578671581112e-05
1664.0,0.00011649596854113042
1792.0,0.0001107352291001007
1920.0,6.598202890018001e-05
2048.0,-0.0004423634090926498
2304.0,-0.00017412846500519663
2560.0,-0.0003654711472336203
2816.0,-8.019804954528809e-05
3072.0,-0.0004012651334051043
3328.0,0.000268982577836141
3584.0,8.81637170095928e-05
3840.0,-0.00020565166778396815
4096.0,0.00018378239474259317
4608.0,1.3156256500224117e-05
5120.0,0.0001654424995649606
5632.0,-2.7300548026687466e-05
6144.0,9.380397386848927e-05
6656.0,0.0003126640513073653
7168.0,-8.315010200021788e-05
7680.0,-0.00045785357360728085
8192.0,-0.0002172633830923587
end
