version,3.0
numOfCh,1
type,point
parent_name,34a6d_3dot0-0dot1
ch_type,1_1
kcount,1
numberNandB,1
brightnessNandB,1
carpet pos,0
pc,0
Time (ms),CH1 Auto-Correlation
1.0,0.017422862350940704
2.0,0.014465398155152798
3.0,0.012477438896894455
4.0,0.01101160328835249
5.0,0.009900248609483242
6.0,0.008955584838986397
7.0,0.008187144063413143
8.0,0.007598082069307566
9.0,0.006980587262660265
10.0,0.006382407620549202
11.0,0.005834976676851511
12.0,0.005331844557076693
13.0,0.005025295075029135
14.0,0.004826814401894808
15.0,0.004679362755268812
16.0,0.00461244210600853
18.0,0.004211751278489828
20.0,0.003676458029076457
22.0,0.003365360898897052
24.0,0.0031994811724871397
26.0,0.003009629203006625
28.0,0.002670090878382325
30.0,0.002398839220404625
32.0,0.0022959508933126926
36.0,0.0021059070713818073
40.0,0.001872869092039764
44.0,0.0014932919293642044
48.0,0.0012309713056311011
52.0,0.0010903157526627183
56.0,0.0009265026310458779
60.0,0.0006563382339663804
64.0,0.0004588332958519459
72.0,0.00039098053821362555
80.0,0.00023324806534219533
88.0,0.0005446465802378953
96.0,0.0010338203283026814
104.0,0.001322022988460958
112.0,0.001380722038447857
120.0,0.0012269065482541919
128.0,0.0009464255999773741
144.0,0.0003668702847789973
160.0,-0.0004153827903792262
176.0,-0.00024615516304038465
192.0,-0.000355402851710096
208.0,-0.0002885536814574152
224.0,-0.0002497448876965791
240.0,-0.00015646893007215112
256.0,1.0108528840646613e-06
288.0,0.000561078020837158
320.0,0.0004964596009813249
352.0,1.5290705050574616e-05
384.0,0.0002656745200511068
416.0,0.00012972476542927325
448.0,-0.0010994753101840615
480.0,-0.0006273433100432158
512.0,0.000357346871169284
576.0,-0.0001324011682299897
640.0,-0.0007640760741196573
704.0,0.00023917086946312338
768.0,0.00025868567172437906
832.0,0.0006488865474238992
896.0,0.0007320099393837154
960.0,0.00013871282862965018
1024.0,0.00018042280862573534
1152.0,-0.00045816987403668463
1280.0,-0.0004001328197773546
1408.0,-0.00020463118562474847
1536.0,-0.0002985999162774533
1664.0,0.0007898123003542423
1792.0,0.00010151190508622676
1920.0,-3.109503086307086e-05
2048.0,-4.586917566484772e-05
2304.0,-0.00035905500408262014
2560.0,-0.00033663364592939615
2816.0,-0.00011508786701597273
3072.0,-2.9188946427893825e-05
3328.0,-6.63985192659311e-05
3584.0,-0.000264386588241905
3840.0,-0.00018706584523897618
4096.0,0.00025096931494772434
4608.0,0.00031928790849633515
5120.0,-3.100633330177516e-05
5632.0,0.00016356482228729874
6144.0,9.79929172899574e-05
6656.0,-0.00018193198775406927
7168.0,-0.00025722492136992514
7680.0,-0.0003007142513524741
8192.0,-0.0006985695217736065
end
