version,3.0
numOfCh,1
type,point
parent_name,34a6d_3dot0-0dot1
ch_type,1_1
kcount,1
numberNandB,1
brightnessNandB,1
carpet pos,0
pc,0
Time (ms),CH1 Auto-Correlation
1.0,0.018651459366083145
2.0,0.01583164930343628
3.0,0.013744283467531204
4.0,0.012032738886773586
5.0,0.01081172376871109
6.0,0.009816577658057213
7.0,0.009009498171508312
8.0,0.008383801206946373
9.0,0.007872606627643108
10.0,0.0073671103455126286
11.0,0.006853883154690266
12.0,0.006405480671674013
13.0,0.005987857934087515
14.0,0.005682504735887051
15.0,0.005298890173435211
16.0,0.005125448107719421
18.0,0.004799964372068644
20.0,0.004549648612737656
22.0,0.00427373219281435
24.0,0.0038947646971791983
26.0,0.0036406544968485832
28.0,0.0033796827774494886
30.0,0.0031264007557183504
32.0,0.002868928015232086
36.0,0.002496366621926427
40.0,0.002270387951284647
44.0,0.00237424299120903
48.0,0.0024512778036296368
52.0,0.002414141548797488
56.0,0.002190785016864538
60.0,0.002027505775913596
64.0,0.0019720683339983225
72.0,0.0009402625728398561
80.0,2.7588483135332353e-05
88.0,-0.00013873579155188054
96.0,-6.24430031166412e-05
104.0,0.0001523295941296965
112.0,-0.0002758242771960795
120.0,-1.3447032870317344e-05
128.0,0.00039201503386721015
144.0,0.0005587406340055168
160.0,0.0006936566787771881
176.0,0.0007508279522880912
192.0,0.0011765731032937765
208.0,0.0011513414792716503
224.0,0.0005579646094702184
240.0,0.0007666727178730071
256.0,0.0010978943901136518
288.0,0.0009707075078040361
320.0,0.0005866964347660542
352.0,0.0008188660140149295
384.0,-5.853690890944563e-05
416.0,-0.0003725698043126613
448.0,-0.0004719340067822486
480.0,-0.00035873588058166206
512.0,-0.0002048780588665977
576.0,-0.0001475582248531282
640.0,-0.0008560262504033744
704.0,-0.0007186427828855813
768.0,-0.000788346747867763
832.0,-0.00031368772033602
896.0,0.00019961314683314413
960.0,-0.0007053411682136357
1024.0,-0.0005414864863269031
1152.0,-0.000143774101161398
1280.0,-0.000165593417477794
1408.0,0.0005232939147390425
1536.0,-7.394063140964136e-05
1664.0,0.0007410321850329638
1792.0,0.00024018739350140095
1920.0,-5.4824275139253587e-05
2048.0,3.869215288432315e-05
2304.0,-0.00047124456614255905
2560.0,-0.000877285492606461
2816.0,-0.00031130763818509877
3072.0,-8.776233926255372e-07
3328.0,-0.00037921409239061177
3584.0,-5.115305248182267e-05
3840.0,0.00031125042005442083
4096.0,0.0001314740948146209
4608.0,-0.0005477536469697952
5120.0,0.00022364863252732903
5632.0,0.00019896218145731837
6144.0,-4.105245534447022e-05
6656.0,-7.287053449545056e-05
7168.0,0.0002804372343234718
7680.0,4.606294533004984e-05
8192.0,2.0613346350728534e-05
end
