version,3.0
numOfCh,1
type,point
parent_name,34a6d_3dot0-0dot1
ch_type,1_1
kcount,1
numberNandB,1
brightnessNandB,1
carpet pos,0
pc,0
Time (ms),CH1 Auto-Correlation
1.0,0.01605471968650818
2.0,0.01326433103531599
3.0,0.01114561129361391
4.0,0.009602238424122334
5.0,0.008403870277106762
6.0,0.007486455142498016
7.0,0.006739008240401745
8.0,0.006104131694883108
9.0,0.005660935305058956
10.0,0.005318814888596535
11.0,0.0049555604346096516
12.0,0.004606041591614485
13.0,0.004276265390217304
14.0,0.004001549910753965
15.0,0.0038034606259316206
16.0,0.00358756585046649
18.0,0.0031864005140960217
20.0,0.0029254918918013573
22.0,0.002677259733900428
24.0,0.0024472421500831842
26.0,0.002365059219300747
28.0,0.0022919983603060246
30.0,0.002130472334101796
32.0,0.0020032261963933706
36.0,0.0019287639297544956
40.0,0.0017883459804579616
44.0,0.0015351438196375966
48.0,0.0012378222309052944
52.0,0.0012150800321251154
56.0,0.0013811960816383362
60.0,0.001485806074924767
64.0,0.0013620235258713365
72.0,0.0010993736796081066
80.0,0.0009757649968378246
88.0,0.0011122642317786813
96.0,0.000923871761187911
104.0,0.0006553806597366929
112.0,0.000527155352756381
120.0,0.0006014090031385422
128.0,0.0006054373807273805
144.0,0.00028127303812652826
160.0,0.0003767543239519
176.0,0.00015101392637006938
192.0,7.16091162757948e-05
208.0,0.0001855312439147383
224.0,-0.00015583499043714255
240.0,0.000108225220174063
256.0,4.434442234924063e-05
288.0,-0.00035120619577355683
320.0,-0.00038024954847060144
352.0,-0.0007214515935629606
384.0,-0.0004407895030453801
416.0,-0.00043912589899264276
448.0,-0.0002747175167314708
480.0,0.0002642368199303746
512.0,0.0003161884087603539
576.0,-0.0002361717779422179
640.0,-0.0002549971977714449
704.0,-0.0007152107427828014
768.0,-0.0005937779787927866
832.0,-0.00016310707724187523
896.0,7.36149086151272e-05
960.0,-0.00023319595493376255
1024.0,4.3639042814902496e-06
1152.0,-0.00042784991092048585
1280.0,-0.0006043751491233706
1408.0,6.63900573272258e-05
1536.0,0.00016715690435376018
1664.0,0.00021957969875074923
1792.0,-0.00015583632921334356
1920.0,-0.00022181666281539947
2048.0,0.0002827817224897444
2304.0,0.00025655727949924767
2560.0,-2.3737511583021842e-05
2816.0,-0.0002023612760240212
3072.0,-0.00028676254441961646
3328.0,-0.0003174295707140118
3584.0,0.0001075262189260684
3840.0,0.0007002321071922779
4096.0,3.860761717078276e-05
4608.0,-6.319165549939498e-05
5120.0,-0.00042331195436418056
5632.0,0.00012194430746603757
6144.0,0.00015719437215011567
6656.0,0.0001631994964554906
7168.0,-0.0004540802910923958
7680.0,9.207064431393519e-05
8192.0,0.000298717146506533
end
