version,3.0
numOfCh,1
type,point
parent_name,34a6d_3dot0-0dot1
ch_type,1_1
kcount,1
numberNandB,1
brightnessNandB,1
carpet pos,0
pc,0
Time (ms),CH1 Auto-Correlation
1.0,0.01631925255060196
2.0,0.013378082774579525
3.0,0.011290965601801872
4.0,0.009664710611104965
5.0,0.008504190482199192
6.0,0.007734961342066526
7.0,0.007014017552137375
8.0,0.006483909673988819
9.0,0.005983947776257992
10.0,0.005454841535538435
11.0,0.0050580804236233234
12.0,0.004734972957521677
13.0,0.004456652328372002
14.0,0.004306151065975428
15.0,0.0041322107426822186
16.0,0.0038556340150535107
18.0,0.003466441063210368
20.0,0.0032657308038324118
22.0,0.0029721083119511604
24.0,0.002705017337575555
26.0,0.002475984627380967
28.0,0.002270326716825366
30.0,0.002134733134880662
32.0,0.0020148835610598326
36.0,0.0018820299301296473
40.0,0.0018810785841196775
44.0,0.0018471357179805636
48.0,0.0016666121082380414
52.0,0.0014011909952387214
56.0,0.00137688172981143
60.0,0.0010723092127591372
64.0,0.0008372543379664421
72.0,0.0006490600062534213
80.0,0.0005792368901893497
88.0,0.0005183853209018707
96.0,0.0006074114353395998
104.0,0.0007073046872392297
112.0,0.00024527974892407656
120.0,0.00012377962411846966
128.0,0.0003597065224312246
144.0,0.0003995781880803406
160.0,5.196775873628212e-06
176.0,0.0001985113776754588
192.0,0.00033176736906170845
208.0,0.0003447807102929801
224.0,0.0002523162111174315
240.0,0.0005391295999288559
256.0,0.0004904464585706592
288.0,0.0006408751360140741
320.0,0.0002826281124725938
352.0,0.00021709395514335483
384.0,-6.036234844941646e-05
416.0,-0.0005605787737295032
448.0,-0.0005049036117270589
480.0,-0.0006410907953977585
512.0,-0.0004844353534281254
576.0,-0.0005836525233462453
640.0,0.00023829932615626603
704.0,-3.0521710868924856e-05
768.0,-0.0004286837356630713
832.0,-6.733871123287827e-05
896.0,0.0006074393750168383
960.0,0.0001819900789996609
1024.0,0.00020483139087446034
1152.0,-0.0004706184845417738
1280.0,-0.0005837547359988093
1408.0,-0.0009771358454599977
1536.0,-0.0002515929809305817
1664.0,3.7933612475171685e-05
1792.0,0.00011983643344137818
1920.0,0.0002170782390749082
2048.0,-6.413235678337514e-05
2304.0,6.743117410223931e-05
2560.0,-0.00013286189641803503
2816.0,4.800405804417096e-05
3072.0,-0.00013843324268236756
3328.0,-0.0002713404828682542
3584.0,-0.0005661711329594254
3840.0,6.349899194901809e-05
4096.0,0.0005589407519437373
4608.0,0.00043202858068980277
5120.0,-0.00011684881610563025
5632.0,-0.00025962802465073764
6144.0,-0.00020301475888118148
6656.0,-0.0001569589221617207
7168.0,0.0002168265200452879
7680.0,-1.5117020666366443e-05
8192.0,-0.00014684860070701689
end
