version,3.0
numOfCh,1
type,point
parent_name,34a6d_3dot0-0dot1
ch_type,1_1
kcount,1
numberNandB,1
brightnessNandB,1
carpet pos,0
pc,0
Time (ms),CH1 Auto-Correlation
1.0,0.015572953037917614
2.0,0.012717426754534245
3.0,0.010624134913086891
4.0,0.009040680713951588
5.0,0.007885007187724113
6.0,0.006950169801712036
7.0,0.00609540706500411
8.0,0.005329616367816925
9.0,0.004790449980646372
10.0,0.004399064462631941
11.0,0.004069017246365547
12.0,0.0037358212284743786
13.0,0.00348289986141026
14.0,0.0032465436961501837
15.0,0.003117177402600646
16.0,0.002939448691904545
18.0,0.002484097145497799
20.0,0.0021123532205820084
22.0,0.0017663011094555259
24.0,0.0014806428225710988
26.0,0.0012126133078709245
28.0,0.0011502389097586274
30.0,0.0011138343252241611
32.0,0.0009268891881220043
36.0,0.0005863468977622688
40.0,0.0004215848457533866
44.0,0.0005728619871661067
48.0,0.0005683786584995687
52.0,0.000615076394751668
56.0,0.0006357253296300769
60.0,0.0008924258290790021
64.0,0.0010468816617503762
72.0,0.0013635506620630622
80.0,0.0009086619829759002
88.0,0.0005882951081730425
96.0,0.0004737573326565325
104.0,0.0004387138760648668
112.0,0.00021132083202246577
120.0,-3.772041236516088e-05
128.0,-2.470633944540168e-06
144.0,0.00034927346860058606
160.0,-0.00014482079131994396
176.0,-0.0008799279457889497
192.0,-0.0006619181367568672
208.0,-0.00039392083999700844
224.0,-0.00010769139043986797
240.0,7.44960198062472e-05
256.0,-0.00022425637871492654
288.0,0.00022898876341059804
320.0,0.00046418115380220115
352.0,0.00047390087274834514
384.0,0.0001734771503834054
416.0,-0.00017224079056177288
448.0,6.775545625714585e-05
480.0,-0.00022315494425129145
512.0,-9.877309639705345e-05
576.0,0.00012768672604579479
640.0,0.00019935300224460661
704.0,-0.0005395085900090635
768.0,-0.0003103897615801543
832.0,-0.00017393825692124665
896.0,6.177371687954292e-05
960.0,0.0002602020977064967
1024.0,-0.0003193343582097441
1152.0,-0.0001569717569509521
1280.0,-5.63870173664327e-07
1408.0,0.00014211218513082713
1536.0,-8.518101094523445e-05
1664.0,-0.0001305110054090619
1792.0,-0.00025834530242718756
1920.0,0.00024873294751159847
2048.0,0.00011045193241443485
2304.0,0.00025432975962758064
2560.0,0.00023939306265674531
2816.0,0.00012716441415250301
3072.0,-0.0003698187356349081
3328.0,-0.00035960195236839354
3584.0,-0.00017338644829578698
3840.0,0.0001329665828961879
4096.0,0.00023345831141341478
4608.0,7.137014472391456e-05
5120.0,-3.139788987027714e-06
5632.0,-0.00016002308984752744
6144.0,3.881122756865807e-05
6656.0,0.00028321321588009596
7168.0,-0.00013743196905124933
7680.0,3.308037048554979e-05
8192.0,-0.00019145589612890035
end
