version,3.0
numOfCh,1
type,point
parent_name,34a6d_3dot0-0dot1
ch_type,1_1
kcount,1
numberNandB,1
brightnessNandB,1
carpet pos,0
pc,0
Time (ms),CH1 Auto-Correlation
1.0,0.015642760321497917
2.0,0.012831879779696465
3.0,0.010784689337015152
4.0,0.009240804240107536
5.0,0.008068226277828217
6.0,0.007123415824025869
7.0,0.0063711809925735
8.0,0.005765088833868504
9.0,0.005317507777363062
10.0,0.004879039712250233
11.0,0.004538824316114187
12.0,0.004164433106780052
13.0,0.003848493564873934
14.0,0.003551348578184843
15.0,0.0033369227312505245
16.0,0.003032123437151313
18.0,0.0024712930899113417
20.0,0.002058933023363352
22.0,0.0019646799191832542
24.0,0.0018928503850474954
26.0,0.0017683884361758828
28.0,0.001650062738917768
30.0,0.0014738506870344281
32.0,0.0014909218298271298
36.0,0.0017406040569767356
40.0,0.0015051751397550106
44.0,0.0010890539269894361
48.0,0.0011413281317800283
52.0,0.0011633741669356823
56.0,0.0010221988195553422
60.0,0.0010772973764687777
64.0,0.0007346009369939566
72.0,0.0005766465910710394
80.0,0.0003452303062658757
88.0,0.0002837810025084764
96.0,0.0003832259972114116
104.0,0.00037134040030650795
112.0,0.0004211414197925478
120.0,0.00011632568930508569
128.0,0.00016242584388237447
144.0,0.0007327641360461712
160.0,0.00031876153661869466
176.0,0.0004548154538497329
192.0,0.00031439290614798665
208.0,-0.00010877634485950693
224.0,4.205855645977863e-07
240.0,0.0002453196793794632
256.0,0.0006989018875174224
288.0,0.0008222040487453341
320.0,0.00010373805707786232
352.0,0.00023821095237508416
384.0,0.00023087029694579542
416.0,0.0004896535538136959
448.0,0.00013381187454797328
480.0,-0.00012116361904190853
512.0,-0.0002430654421914369
576.0,0.00038099189987406135
640.0,0.00039417369407601655
704.0,0.0005067941383458674
768.0,7.64723154134117e-05
832.0,-0.00012995270662941039
896.0,-6.588826363440603e-05
960.0,0.00021112151443958282
1024.0,-0.00024313140602316707
1152.0,-0.00012253886961843818
1280.0,-0.00018238998018205166
1408.0,-0.0001612043270142749
1536.0,-0.00017452296742703766
1664.0,-0.0007145943818613887
1792.0,-0.0007718949927948415
1920.0,-0.0001992962643271312
2048.0,0.00030143404728733003
2304.0,-0.00025334206293337047
2560.0,-9.542923362459987e-05
2816.0,-7.797277066856623e-05
3072.0,9.26635675568832e-06
3328.0,0.0003702251415234059
3584.0,0.0002748435363173485
3840.0,-0.00014069525059312582
4096.0,-0.00026267144130542874
4608.0,-0.0003179287596140057
5120.0,-0.00034754746593534946
5632.0,0.0003329213068354875
6144.0,0.000461420277133584
6656.0,0.00028927024686709046
7168.0,-3.953977648052387e-05
7680.0,-0.00016676959057804197
8192.0,-9.12756149773486e-05
end
