version,3.0
numOfCh,1
type,point
parent_name,34a6d_3dot0-0dot1
ch_type,1_1
kcount,1
numberNandB,1
brightnessNandB,1
carpet pos,0
pc,0
Time (ms),CH1 Auto-Correlation
1.0,0.01718241721391678
2.0,0.014271906577050686
3.0,0.012091398239135742
4.0,0.010550918988883495
5.0,0.009440753608942032
6.0,0.008456474170088768
7.0,0.007825098931789398
8.0,0.0072172717191278934
9.0,0.006664475426077843
10.0,0.006225076038390398
11.0,0.005810133181512356
12.0,0.0053540365770459175
13.0,0.004885050933808088
14.0,0.004524730145931244
15.0,0.004177894908934832
16.0,0.003942639101296663
18.0,0.003416235325857997
20.0,0.0029283592011779547
22.0,0.002680494450032711
24.0,0.0025653408374637365
26.0,0.0023529089521616697
28.0,0.002143565332517028
30.0,0.0018614418804645538
32.0,0.0017084842547774315
36.0,0.001764446496963501
40.0,0.0018538072472438216
44.0,0.0019201372051611543
48.0,0.0016805598279461265
52.0,0.0012298320652917027
56.0,0.0009943685727193952
60.0,0.0015454957028850913
64.0,0.001642053248360753
72.0,0.0016970003489404917
80.0,0.000906763190869242
88.0,0.000555680482648313
96.0,0.00018780834216158837
104.0,0.0006342427805066109
112.0,0.0007225617300719023
120.0,0.00033365937997587025
128.0,0.00040496731526218355
144.0,4.0289120079251006e-05
160.0,-0.00020382019283715636
176.0,3.344497599755414e-05
192.0,0.00025175223709084094
208.0,-0.00012274313485249877
224.0,-5.873412374057807e-05
240.0,6.930490053491667e-05
256.0,-3.907303107553162e-05
288.0,-0.00019693963986355811
320.0,-0.00031149154528975487
352.0,-0.00028922478668391705
384.0,5.9450158005347475e-05
416.0,0.0002622171596158296
448.0,0.0008749256958253682
480.0,0.0008345690439455211
512.0,0.0005665313801728189
576.0,-0.0001816560688894242
640.0,-0.0002533347287680954
704.0,0.0006066261557862163
768.0,0.0003836318792309612
832.0,0.00022379809524863958
896.0,0.00019987754058092833
960.0,-0.0001695306273177266
1024.0,-0.00036299365456216037
1152.0,0.00022657803492620587
1280.0,0.00041947796125896275
1408.0,-0.00013617529475595802
1536.0,0.0003075550775974989
1664.0,0.00040399268618784845
1792.0,-0.0002212602848885581
1920.0,0.0001286775805056095
2048.0,2.6302248443244025e-05
2304.0,-0.00023271288955584168
2560.0,0.00015469703066628426
2816.0,8.976006938610226e-05
3072.0,0.00037140853237360716
3328.0,0.00019416560826357454
3584.0,-0.00025068229297176003
3840.0,0.0002876379294320941
4096.0,-0.00048392382450401783
4608.0,-0.0001958711800398305
5120.0,-0.00010879600449698046
5632.0,0.00022853311384096742
6144.0,-0.00028706868761219084
6656.0,-6.830619531683624e-05
7168.0,-0.00023844501993153244
7680.0,-0.0005256096483208239
8192.0,-0.00023969799804035574
end
