version,3.0
numOfCh,1
type,point
parent_name,34a6d_3dot0-0dot1
ch_type,1_1
kcount,1
numberNandB,1
brightnessNandB,1
carpet pos,0
pc,0
Time (ms),CH1 Auto-Correlation
1.0,0.01665458455681801
2.0,0.01373036578297615
3.0,0.01168154552578926
4.0,0.01023965235799551
5.0,0.009034479968249798
6.0,0.008130963891744614
7.0,0.0074899764731526375
8.0,0.00687672384083271
9.0,0.006298478692770004
10.0,0.005810745060443878
11.0,0.005423448048532009
12.0,0.005145469680428505
13.0,0.004894920624792576
14.0,0.004473580047488213
15.0,0.004092374816536903
16.0,0.003948817495256662
18.0,0.0035729336086660624
20.0,0.0032997550442814827
22.0,0.0031296738889068365
24.0,0.0028874867130070925
26.0,0.0024814181961119175
28.0,0.002138298936188221
30.0,0.0019532081205397844
32.0,0.0018991264514625072
36.0,0.001570821856148541
40.0,0.0014145092573016882
44.0,0.0013430508552119136
48.0,0.0011372389271855354
52.0,0.0011865525739267468
56.0,0.0010281308786943555
60.0,0.0010207531740888953
64.0,0.0007909213309176266
72.0,0.0009150981204584241
80.0,0.0009911599336192012
88.0,0.0006251338054426014
96.0,0.0008990037022158504
104.0,0.0005882122786715627
112.0,7.110637670848519e-05
120.0,0.0001778693840606138
128.0,6.666946865152568e-05
144.0,-8.076287485891953e-05
160.0,-9.144706564256921e-05
176.0,0.00032526152790524065
192.0,0.00044872835860587656
208.0,0.00048041119589470327
224.0,0.00038585480069741607
240.0,0.0002573699166532606
256.0,0.000494707259349525
288.0,0.0005014914204366505
320.0,-0.00011485509457997978
352.0,-0.0002790937724057585
384.0,-0.0002982809965033084
416.0,-0.000344871252309531
448.0,7.962835661601275e-05
480.0,0.0005525522865355015
512.0,0.0007338881259784102
576.0,-0.00027093521202914417
640.0,-0.00023914746998343617
704.0,-0.000107604602817446
768.0,-2.8982733056182042e-05
832.0,0.00022746903414372355
896.0,-0.0001156169455498457
960.0,0.00014032880426384509
1024.0,0.0002500582195352763
1152.0,0.0005161425215192139
1280.0,0.00010271736391587183
1408.0,0.00025309412740170956
1536.0,-0.0002918646496254951
1664.0,0.00039868164458312094
1792.0,0.00014490608009509742
1920.0,-3.6938328662472486e-07
2048.0,4.120287940168055e-06
2304.0,-8.955378871178254e-05
2560.0,9.9288830824662e-05
2816.0,0.0001374498096993193
3072.0,-0.00013846276851836592
3328.0,-0.00036865120637230575
3584.0,-0.000424935802584514
3840.0,-0.00011630873632384464
4096.0,2.780935392365791e-05
4608.0,6.507925718324259e-05
5120.0,-3.04984441754641e-05
5632.0,-5.0014273256238084e-06
6144.0,9.495427366346121e-05
6656.0,-1.8459466446074657e-05
7168.0,1.55230429754738e-06
7680.0,-0.00048118463018909097
8192.0,2.4439299522782676e-05
end
