version,3.0
numOfCh,1
type,point
parent_name,34a6d_3dot0-0dot1
ch_type,1_1
kcount,1
numberNandB,1
brightnessNandB,1
carpet pos,0
pc,0
Time (ms),CH1 Auto-Correlation
1.0,0.01770101487636566
2.0,0.014823060482740402
3.0,0.012745926156640053
4.0,0.011202074587345123
5.0,0.009912735782563686
6.0,0.008920012973248959
7.0,0.008116682060062885
8.0,0.00744193559512496
9.0,0.006860479712486267
10.0,0.006388256326317787
11.0,0.005929914303123951
12.0,0.005549606867134571
13.0,0.005251091904938221
14.0,0.005022501572966576
15.0,0.0047106025740504265
16.0,0.004450031090527773
18.0,0.004109736531972885
20.0,0.003871583379805088
22.0,0.0035683924797922373
24.0,0.0031975265592336655
26.0,0.0029426487162709236
28.0,0.0027085794135928154
30.0,0.0026079847011715174
32.0,0.002471252577379346
36.0,0.002169752726331353
40.0,0.00205316417850554
44.0,0.002007097937166691
48.0,0.001904240227304399
52.0,0.0017876363126561046
56.0,0.0016536033945158124
60.0,0.0014368681004270911
64.0,0.0014566369354724884
72.0,0.0017236580606549978
80.0,0.0017250877572223544
88.0,0.0017242786707356572
96.0,0.0016652680933475494
104.0,0.0013281978899613023
112.0,0.000957424461375922
120.0,0.0003069305093958974
128.0,-0.00036591020761989057
144.0,0.00021319740335457027
160.0,0.0005375800537876785
176.0,0.0008701637852936983
192.0,0.0002748382685240358
208.0,-0.00043091527186334133
224.0,-0.0001692295918473974
240.0,0.0005613543326035142
256.0,0.0007278974517248571
288.0,0.0003074730047956109
320.0,2.1859671051061014e-06
352.0,9.311697795055807e-05
384.0,0.00011679899762384593
416.0,3.783841384574771e-05
448.0,-0.0003529982059262693
480.0,0.00030710542341694236
512.0,5.2496900025289506e-05
576.0,-0.0002997838018927723
640.0,-0.0006344974972307682
704.0,-0.0005796547047793865
768.0,-0.0006360791740007699
832.0,-0.00019216345390304923
896.0,0.00038555407081730664
960.0,0.0008154500392265618
1024.0,0.000710346968844533
1152.0,0.0011392929591238499
1280.0,0.000196305220015347
1408.0,0.0003810875350609422
1536.0,0.0003980465407948941
1664.0,0.0004725551698356867
1792.0,-0.00013004934589844197
1920.0,0.00017612919327802956
2048.0,0.00020461913663893938
2304.0,-0.0003075785643886775
2560.0,4.245042146067135e-05
2816.0,-0.00011286322114756331
3072.0,-9.023532038554549e-05
3328.0,7.098180503817275e-05
3584.0,-0.0007261267164722085
3840.0,-0.0005871874163858593
4096.0,-0.0004039088380523026
4608.0,-0.00038792871055193245
5120.0,-0.0004941914812661707
5632.0,-0.0003778275568038225
6144.0,-0.0002785587275866419
6656.0,-0.00024597422452643514
7168.0,0.0003432480152696371
7680.0,-0.0003884831676259637
8192.0,0.0005691383848898113
end
