version,3.0
numOfCh,1
type,point
parent_name,34a6d_3dot0-0dot1
ch_type,1_1
kcount,1
numberNandB,1
brightnessNandB,1
carpet pos,0
pc,0
Time (ms),CH1 Auto-Correlation
1.0,0.015447650104761124
2.0,0.012643092311918736
3.0,0.010605934076011181
4.0,0.009115312248468399
5.0,0.007917196489870548
6.0,0.007073141634464264
7.0,0.006270442623645067
8.0,0.005600204225629568
9.0,0.005124648567289114
10.0,0.0045488192699849606
11.0,0.004192987456917763
12.0,0.0038640503771603107
13.0,0.003550393972545862
14.0,0.0032344369683414698
15.0,0.0029663366731256247
16.0,0.0027610042598098516
18.0,0.0024330064188688993
20.0,0.002190329832956195
22.0,0.001953459344804287
24.0,0.0019045396475121379
26.0,0.0017645299667492509
28.0,0.0016018395544961095
30.0,0.0015086930943652987
32.0,0.0015964302001520991
36.0,0.001236262614838779
40.0,0.0011297344462946057
44.0,0.0008167830528691411
48.0,0.000369111803593114
52.0,9.743990085553378e-05
56.0,3.282154648331925e-05
60.0,0.00013261806452646852
64.0,0.00019448561943136156
72.0,-9.493520337855443e-05
80.0,-0.0001812038099160418
88.0,-5.2828178013442084e-05
96.0,4.61447962152306e-05
104.0,0.0005074244691058993
112.0,0.0008862852700985968
120.0,0.0007182257832027972
128.0,0.0003975192958023399
144.0,0.000551194476429373
160.0,0.0005813042516820133
176.0,0.0005990277859382331
192.0,0.00020318172755651176
208.0,-0.0001313948887400329
224.0,0.00012152922136010602
240.0,0.00012999548926018178
256.0,9.015562682179734e-05
288.0,-0.00024971424136310816
320.0,-0.00029838280170224607
352.0,0.000648745393846184
384.0,0.0003942624316550791
416.0,-5.374567263061181e-05
448.0,-0.00022667950543109328
480.0,0.0004843404167331755
512.0,-3.0339577278937213e-05
576.0,0.00015625091327819973
640.0,0.00014915379870217294
704.0,-0.0004449839179869741
768.0,-0.00019168890139553696
832.0,-0.0002300822379766032
896.0,-0.00012426725879777223
960.0,-0.0003168447292409837
1024.0,-0.00035647611366584897
1152.0,-0.00035420359927229583
1280.0,9.162943024421111e-05
1408.0,0.00010377830039942637
1536.0,-0.00038064620457589626
1664.0,-0.0004083968815393746
1792.0,0.00011647242354229093
1920.0,9.107331425184384e-05
2048.0,-5.27800693816971e-05
2304.0,0.00037570245331153274
2560.0,3.140236367471516e-05
2816.0,0.0001305941550526768
3072.0,-7.987227581907064e-05
3328.0,-6.388565816450864e-05
3584.0,-0.00014536824892275035
3840.0,0.00013686825695913285
4096.0,0.0002812931779772043
4608.0,-0.0001108331634895876
5120.0,-1.211769358633319e-05
5632.0,-0.00026572225033305585
6144.0,-1.758353755576536e-05
6656.0,-2.537490502163564e-07
7168.0,0.00028896459843963385
7680.0,-5.601845623459667e-05
8192.0,-0.0003157714963890612
end
