version,3.0
numOfCh,1
type,point
parent_name,34a6d_3dot0-0dot1
ch_type,1_1
kcount,1
numberNandB,1
brightnessNandB,1
carpet pos,0
pc,0
Time (ms),CH1 Auto-Correlation
1.0,0.01738801598548889
2.0,0.01463177427649498
3.0,0.012542953714728355
4.0,0.011016091331839561
5.0,0.009931754320859909
6.0,0.00911016296595335
7.0,0.00828564539551735
8.0,0.007601666729897261
9.0,0.007018585689365864
10.0,0.006583327893167734
11.0,0.0061526307836174965
12.0,0.005686769261956215
13.0,0.00530543876811862
14.0,0.005091130267828703
15.0,0.00481159333139658
16.0,0.004514060448855162
18.0,0.004123162943869829
20.0,0.0037069530226290226
22.0,0.003379914676770568
24.0,0.003146360395476222
26.0,0.00294846436008811
28.0,0.0028362972661852837
30.0,0.002661867765709758
32.0,0.0025372495874762535
36.0,0.0021239386405795813
40.0,0.0017016110941767693
44.0,0.0015259857755154371
48.0,0.001384774805046618
52.0,0.0015307054854929447
56.0,0.00151811761315912
60.0,0.001224618754349649
64.0,0.0011076198425143957
72.0,0.0013976794434711337
80.0,0.0014180995058268309
88.0,0.0012997292215004563
96.0,0.001186888082884252
104.0,0.0009312012116424739
112.0,0.0007260882994160056
120.0,0.0008565009338781238
128.0,0.0007409160607494414
144.0,0.00100443244446069
160.0,0.0012092656688764691
176.0,0.0010997626231983304
192.0,0.0009299093508161604
208.0,0.0010921324137598276
224.0,0.001343621057458222
240.0,0.00101567548699677
256.0,0.001082754461094737
288.0,0.0006677689962089062
320.0,0.00032974465284496546
352.0,6.074294651625678e-05
384.0,0.0004973143222741783
416.0,0.0006887515191920102
448.0,0.001099661341868341
480.0,0.000836026098113507
512.0,0.0006203125813044608
576.0,0.0005674308631569147
640.0,0.000366058258805424
704.0,0.000882876047398895
768.0,2.3059079467202537e-05
832.0,0.0005421214154921472
896.0,0.0006530810496769845
960.0,0.00035385508090257645
1024.0,0.0002745788951870054
1152.0,-2.878943269024603e-05
1280.0,0.00024318248324561864
1408.0,0.0004000285407528281
1536.0,0.00030135922133922577
1664.0,-6.224589014891535e-05
1792.0,-0.00024264298554044217
1920.0,-0.0004550750891212374
2048.0,-0.00018255042959935963
2304.0,0.0004951609880663455
2560.0,0.0006882433081045747
2816.0,0.00016198029334191233
3072.0,0.00034635476185940206
3328.0,-0.0003518829180393368
3584.0,-0.00046046217903494835
3840.0,-0.0005004559643566608
4096.0,-0.0008659306331537664
4608.0,-0.00019684480503201485
5120.0,7.781390013406053e-05
5632.0,-0.00034050142858177423
6144.0,-0.0007363363984040916
6656.0,-0.0011473947670310736
7168.0,-0.0005276244482956827
7680.0,-0.00021937904239166528
8192.0,-0.0002626247878652066
end
