version,3.0
numOfCh,1
type,point
parent_name,34a6d_3dot0-0dot1
ch_type,1_1
kcount,1
numberNandB,1
brightnessNandB,1
carpet pos,0
pc,0
Time (ms),CH1 Auto-Correlation
1.0,0.017010919749736786
2.0,0.014241904020309448
3.0,0.012214972637593746
4.0,0.010586444288492203
5.0,0.00943339616060257
6.0,0.008631027303636074
7.0,0.007928090170025826
8.0,0.007395835127681494
9.0,0.007018210366368294
10.0,0.006493035238236189
11.0,0.006078800652176142
12.0,0.005524247419089079
13.0,0.005158413201570511
14.0,0.004743962083011866
15.0,0.00440260348841548
16.0,0.004144543781876564
18.0,0.0037736808881163597
20.0,0.003449463052675128
22.0,0.0032108519226312637
24.0,0.00306241144426167
26.0,0.002960312645882368
28.0,0.002921271836385131
30.0,0.002828767756000161
32.0,0.0028180554509162903
36.0,0.002602325053885579
40.0,0.0026326284278184175
44.0,0.0027660797350108624
48.0,0.002631423994898796
52.0,0.0022704685106873512
56.0,0.0018575076246634126
60.0,0.0018804405117407441
64.0,0.0018239461351186037
72.0,0.001834868686273694
80.0,0.0016781531739979982
88.0,0.0013702677097171545
96.0,0.0012665301328524947
104.0,0.0012730574235320091
112.0,0.0008556945249438286
120.0,0.0009263770189136267
128.0,0.001172890653833747
144.0,0.00144605350214988
160.0,0.0011112787760794163
176.0,0.0009220238425768912
192.0,0.0003579692856874317
208.0,0.00043413645471446216
224.0,-0.00014573667431250215
240.0,-0.0005140519933775067
256.0,-0.000859247287735343
288.0,-2.266424189656391e-06
320.0,5.2350456826388836e-05
352.0,-0.00010132239549420774
384.0,-2.2680493202642538e-05
416.0,0.00032228880445472896
448.0,3.087478762608953e-05
480.0,-8.132498624036089e-05
512.0,0.00022538281336892396
576.0,0.0005715040024369955
640.0,0.0006081829196773469
704.0,0.00023891970340628177
768.0,-0.00014916437794454396
832.0,-0.0007864706567488611
896.0,-0.0006194193265400827
960.0,-0.00024234237207565457
1024.0,-0.0001310592342633754
1152.0,0.0003020408912561834
1280.0,0.0001389500976074487
1408.0,-0.00013506731193047017
1536.0,-0.0005516109522432089
1664.0,-0.0007280975114554167
1792.0,0.00023372970463242382
1920.0,0.0004803314513992518
2048.0,0.00038039268110878766
2304.0,2.5685538275865838e-05
2560.0,-9.25083804759197e-05
2816.0,-8.977259130915627e-05
3072.0,-0.0002446956350468099
3328.0,-0.0005672342958860099
3584.0,-0.0001757979189278558
3840.0,-0.0005773016018792987
4096.0,-0.0003425300819799304
4608.0,-0.00022461602929979563
5120.0,0.00021153190755285323
5632.0,0.0004725759499706328
6144.0,4.2514981032582e-05
6656.0,-0.00015057361451908946
7168.0,-0.00022853747941553593
7680.0,-1.899249036796391e-05
8192.0,0.00022166105918586254
end
