version,3.0
numOfCh,1
type,point
parent_name,dirty_0dot4-1dot0
ch_type,1_1
kcount,1
numberNandB,1
brightnessNandB,1
carpet pos,0
pc,0
Time (ms),CH1 Auto-Correlation
1.0,1.480048418045044
2.0,1.3686357736587524
3.0,1.267430067062378
4.0,1.1898412704467773
5.0,1.1198077201843262
6.0,1.0540673732757568
7.0,0.985252320766449
8.0,0.9190704822540283
9.0,0.8450290560722351
10.0,0.7950093746185303
11.0,0.7616766095161438
12.0,0.7299217581748962
13.0,0.6897917985916138
14.0,0.651969313621521
15.0,0.6141890287399292
16.0,0.5890353322029114
18.0,0.5494778752326965
20.0,0.51728755235672
22.0,0.47985023260116577
24.0,0.4526880979537964
26.0,0.43843770027160645
28.0,0.4168654978275299
30.0,0.39269083738327026
32.0,0.37545815110206604
36.0,0.33980682492256165
40.0,0.3155680000782013
44.0,0.29463139176368713
48.0,0.25867316126823425
52.0,0.236086905002594
56.0,0.2210666388273239
60.0,0.23236775398254395
64.0,0.24997106194496155
72.0,0.21312716603279114
80.0,0.16357998549938202
88.0,0.14976240694522858
96.0,0.16765490174293518
104.0,0.13338984549045563
112.0,0.0926491767168045
120.0,0.07411208003759384
128.0,0.09533031284809113
144.0,0.08284471929073334
160.0,0.04642074555158615
176.0,0.0024061950389295816
192.0,-0.009203415364027023
208.0,-0.017494061961770058
224.0,-0.009836722165346146
240.0,-0.027140581980347633
256.0,-0.042327649891376495
288.0,-0.028079615905880928
320.0,-0.04419662058353424
352.0,0.029861895367503166
384.0,0.01092690322548151
416.0,-0.010840837843716145
448.0,0.0607878752052784
480.0,0.038275543600320816
512.0,-0.0036294932942837477
576.0,0.015980852767825127
640.0,0.06076640263199806
704.0,0.025215139612555504
768.0,-0.009109647944569588
832.0,-0.06520131230354309
896.0,-0.030806420370936394
960.0,-0.06308040767908096
1024.0,-0.07634086161851883
1152.0,-0.0553530715405941
1280.0,-0.04688408598303795
1408.0,0.03402542695403099
1536.0,0.05230599269270897
1664.0,0.002051757415756583
1792.0,0.007555438205599785
1920.0,-0.002314009703695774
2048.0,0.01356455311179161
2304.0,0.0012291786260902882
2560.0,-0.030481494963169098
2816.0,-0.010775227099657059
3072.0,-0.021813256666064262
3328.0,-0.0007749937940388918
3584.0,-0.03022833541035652
3840.0,-0.01722884178161621
4096.0,0.0030739244539290667
4608.0,0.010380052030086517
5120.0,-0.03210459649562836
5632.0,-0.031288374215364456
6144.0,0.022382821887731552
6656.0,-0.015638913959264755
7168.0,-0.042536988854408264
7680.0,0.009923011995851994
8192.0,0.010954400524497032
9216.0,0.02472805045545101
10240.0,0.03895677253603935
11264.0,0.046221520751714706
12288.0,-0.026175322011113167
13312.0,-0.04001500457525253
14336.0,-0.04543951898813248
end
