version,3.0
numOfCh,1
type,point
parent_name,dirty_0dot4-1dot0
ch_type,1_1
kcount,1
numberNandB,1
brightnessNandB,1
carpet pos,0
pc,0
Time (ms),CH1 Auto-Correlation
1.0,1.5248997211456299
2.0,1.41057288646698
3.0,1.3171653747558594
4.0,1.226345181465149
5.0,1.1421582698822021
6.0,1.0601775646209717
7.0,0.9951926469802856
8.0,0.9403324127197266
9.0,0.8833510279655457
10.0,0.834700882434845
11.0,0.7965874671936035
12.0,0.7560566067695618
13.0,0.7273184061050415
14.0,0.7051025629043579
15.0,0.6836930513381958
16.0,0.6604179739952087
18.0,0.6220516562461853
20.0,0.5844849944114685
22.0,0.5557405948638916
24.0,0.5337375402450562
26.0,0.5187221765518188
28.0,0.5024228692054749
30.0,0.4893825948238373
32.0,0.46578168869018555
36.0,0.4304791986942291
40.0,0.41115179657936096
44.0,0.40264248847961426
48.0,0.3804216980934143
52.0,0.3665175139904022
56.0,0.3526255190372467
60.0,0.3526467978954315
64.0,0.34273192286491394
72.0,0.29405105113983154
80.0,0.28283849358558655
88.0,0.2717967629432678
96.0,0.25797927379608154
104.0,0.2480251044034958
112.0,0.20774568617343903
120.0,0.16143126785755157
128.0,0.15207526087760925
144.0,0.1347353309392929
160.0,0.11382947117090225
176.0,0.11416559666395187
192.0,0.10575924813747406
208.0,0.05371393635869026
224.0,0.019968312233686447
240.0,0.04174167290329933
256.0,0.06302791833877563
288.0,0.0236147940158844
320.0,0.003563894657418132
352.0,-0.03161589428782463
384.0,-0.06342504918575287
416.0,-0.06204577907919884
448.0,-0.025246987119317055
480.0,-0.011079779826104641
512.0,0.0018280470976606011
576.0,0.0007389974198304117
640.0,-0.03185795992612839
704.0,-0.02807377465069294
768.0,0.04206101968884468
832.0,0.015494314953684807
896.0,-0.03607037290930748
960.0,-0.08819781243801117
1024.0,-0.0337924025952816
1152.0,0.029814463108778
1280.0,0.05393531545996666
1408.0,0.02705131471157074
1536.0,0.002051020972430706
1664.0,-0.05831366404891014
1792.0,-0.07929549366235733
1920.0,-0.03747858852148056
2048.0,-0.010040023364126682
2304.0,-0.062674380838871
2560.0,0.004761459305882454
2816.0,0.036077503114938736
3072.0,0.0040652151219546795
3328.0,-0.018687935546040535
3584.0,0.029348166659474373
3840.0,-0.022802608087658882
4096.0,0.00024262760416604578
4608.0,-0.04936838895082474
5120.0,-0.01093610655516386
5632.0,-0.025555389001965523
6144.0,-0.0184936560690403
6656.0,-0.0110149085521698
7168.0,-0.024997662752866745
7680.0,0.04276987910270691
8192.0,0.03446133807301521
9216.0,0.058069873601198196
10240.0,0.005406963173300028
11264.0,0.028379151597619057
12288.0,-0.029299553483724594
13312.0,-0.09166102856397629
14336.0,-0.050234854221343994
end
