version,3.0
numOfCh,1
type,point
parent_name,dirty_0dot4-1dot0
ch_type,1_1
kcount,1
numberNandB,1
brightnessNandB,1
carpet pos,0
pc,0
Time (ms),CH1 Auto-Correlation
1.0,1.1361806392669678
2.0,1.056191086769104
3.0,0.9907118082046509
4.0,0.9282646775245667
5.0,0.8741316795349121
6.0,0.8222013711929321
7.0,0.789991021156311
8.0,0.7540068626403809
9.0,0.7302635908126831
10.0,0.7074275016784668
11.0,0.6891241669654846
12.0,0.6784423589706421
13.0,0.670673668384552
14.0,0.6747533679008484
15.0,0.6635413765907288
16.0,0.6540750861167908
18.0,0.6280713677406311
20.0,0.6216214895248413
22.0,0.6231071949005127
24.0,0.6187321543693542
26.0,0.6117974519729614
28.0,0.5938818454742432
30.0,0.5623574256896973
32.0,0.5409888625144958
36.0,0.48411619663238525
40.0,0.4191596806049347
44.0,0.3986211121082306
48.0,0.3940154016017914
52.0,0.3819428086280823
56.0,0.33449333906173706
60.0,0.30041611194610596
64.0,0.2633669078350067
72.0,0.22156980633735657
80.0,0.17822767794132233
88.0,0.11189214140176773
96.0,0.09018044173717499
104.0,0.07571222633123398
112.0,0.041927311569452286
120.0,0.030538285151124
128.0,0.0477093830704689
144.0,0.022347789257764816
160.0,-0.00036057314719073474
176.0,-0.008874096907675266
192.0,-0.012848835438489914
208.0,-0.020280947908759117
224.0,-0.021278269588947296
240.0,-0.016540564596652985
256.0,-0.01119237020611763
288.0,-0.03014104813337326
320.0,-0.02731488272547722
352.0,-0.02833433449268341
384.0,-0.01645573601126671
416.0,-0.006314733996987343
448.0,-0.012588279321789742
480.0,-0.01702837273478508
512.0,-0.021538548171520233
576.0,0.0006052808603271842
640.0,-0.021605312824249268
704.0,-0.036023348569869995
768.0,0.0021029403433203697
832.0,-0.007382035255432129
896.0,-0.020662950351834297
960.0,-0.005129492375999689
1024.0,0.04434226453304291
1152.0,0.03560720756649971
1280.0,0.03423871099948883
1408.0,0.06782489269971848
1536.0,-0.022175027057528496
1664.0,-0.02740275301039219
1792.0,-0.01274826005101204
1920.0,-0.017172301188111305
2048.0,-0.023335913196206093
2304.0,-0.02310960181057453
2560.0,-0.025351835414767265
2816.0,-0.032663390040397644
3072.0,-0.047863125801086426
3328.0,-0.021168893203139305
3584.0,0.006959026213735342
3840.0,0.005480173509567976
4096.0,-0.036516573280096054
4608.0,-0.02135431580245495
5120.0,-0.010588180273771286
5632.0,-0.015324610285460949
6144.0,-0.0016150070587173104
6656.0,0.008326227776706219
7168.0,0.01629963517189026
7680.0,0.10944212973117828
8192.0,-0.03030223213136196
9216.0,-0.022188700735569
10240.0,-0.021952001377940178
11264.0,0.003088120836764574
12288.0,0.011416848748922348
13312.0,-0.050397392362356186
14336.0,0.008111368864774704
end
