version,3.0
numOfCh,1
type,point
parent_name,dirty_0dot4-1dot0
ch_type,1_1
kcount,1
numberNandB,1
brightnessNandB,1
carpet pos,0
pc,0
Time (ms),CH1 Auto-Correlation
1.0,1.7878168821334839
2.0,1.6313532590866089
3.0,1.4986969232559204
4.0,1.3803439140319824
5.0,1.2786322832107544
6.0,1.185970664024353
7.0,1.1029103994369507
8.0,1.0301880836486816
9.0,0.9567058682441711
10.0,0.9081606864929199
11.0,0.8745718002319336
12.0,0.8516159653663635
13.0,0.8276064395904541
14.0,0.7986356019973755
15.0,0.7604447603225708
16.0,0.7238748073577881
18.0,0.6474698185920715
20.0,0.5900079607963562
22.0,0.5317654013633728
24.0,0.48615720868110657
26.0,0.4591769874095917
28.0,0.43870270252227783
30.0,0.40972617268562317
32.0,0.376065731048584
36.0,0.31267979741096497
40.0,0.23957721889019012
44.0,0.19018186628818512
48.0,0.14514751732349396
52.0,0.08900351077318192
56.0,0.07019167393445969
60.0,0.07493363320827484
64.0,0.08493416011333466
72.0,0.08710580319166183
80.0,0.09578811377286911
88.0,0.11540145426988602
96.0,0.14037355780601501
104.0,0.20310598611831665
112.0,0.2593337297439575
120.0,0.325486958026886
128.0,0.31593233346939087
144.0,0.2353014349937439
160.0,0.11169292032718658
176.0,0.08379530906677246
192.0,0.11686983704566956
208.0,0.07374159246683121
224.0,0.0928361788392067
240.0,0.1232825368642807
256.0,0.09150584042072296
288.0,-0.0020976655650883913
320.0,0.02233540080487728
352.0,0.04545076563954353
384.0,-0.013993829488754272
416.0,-0.0398373045027256
448.0,-0.04166907072067261
480.0,-0.05778881534934044
512.0,-0.06507746875286102
576.0,-0.019411763176321983
640.0,-0.03082183748483658
704.0,-0.013977804221212864
768.0,-0.014650520868599415
832.0,-0.06214755028486252
896.0,0.0034576335456222296
960.0,-0.019067231565713882
1024.0,-0.0613098070025444
1152.0,-0.04402073472738266
1280.0,-0.04610218480229378
1408.0,-0.07172787189483643
1536.0,-0.021191002801060677
1664.0,0.037397339940071106
1792.0,0.04933064430952072
1920.0,0.0790344774723053
2048.0,0.08250710368156433
2304.0,0.031018879264593124
2560.0,0.011434551328420639
2816.0,-0.01073618046939373
3072.0,-0.05385257303714752
3328.0,-0.07508382201194763
3584.0,0.01846260018646717
3840.0,0.05035029351711273
4096.0,0.009957321919500828
4608.0,-0.03594101220369339
5120.0,-0.0063149887137115
5632.0,-0.040912218391895294
6144.0,0.025682499632239342
6656.0,-0.03761378303170204
7168.0,-0.0018666016403585672
7680.0,-0.006925307679921389
8192.0,-0.005768507719039917
9216.0,-0.01969367265701294
10240.0,-0.048558756709098816
11264.0,-0.04984681308269501
12288.0,0.11296913027763367
13312.0,-0.09642322361469269
14336.0,0.07268884032964706
end
