version,3.0
numOfCh,1
type,point
parent_name,dirty_0dot4-1dot0
ch_type,1_1
kcount,1
numberNandB,1
brightnessNandB,1
carpet pos,0
pc,0
Time (ms),CH1 Auto-Correlation
1.0,0.47621724009513855
2.0,0.43507498502731323
3.0,0.3997376263141632
4.0,0.3677034378051758
5.0,0.3421383500099182
6.0,0.32253003120422363
7.0,0.3059253394603729
8.0,0.2896710932254791
9.0,0.2753766179084778
10.0,0.2699804902076721
11.0,0.26170092821121216
12.0,0.2531830370426178
13.0,0.25002968311309814
14.0,0.24799062311649323
15.0,0.24439072608947754
16.0,0.2408047765493393
18.0,0.2327917069196701
20.0,0.22593678534030914
22.0,0.21313519775867462
24.0,0.20122721791267395
26.0,0.19418865442276
28.0,0.18933117389678955
30.0,0.1791829615831375
32.0,0.16998377442359924
36.0,0.14224644005298615
40.0,0.12265656143426895
44.0,0.1104680597782135
48.0,0.10425083339214325
52.0,0.10654415935277939
56.0,0.09242844581604004
60.0,0.07274432480335236
64.0,0.06483849883079529
72.0,0.058066267520189285
80.0,0.04123466834425926
88.0,0.04101378098130226
96.0,0.03722487762570381
104.0,0.03239871561527252
112.0,0.028568770736455917
120.0,0.024588482454419136
128.0,0.018194088712334633
144.0,0.010477904230356216
160.0,0.0010847290977835655
176.0,-0.002693003276363015
192.0,-0.0061673312447965145
208.0,-0.009164957329630852
224.0,0.009532982483506203
240.0,0.014983884058892727
256.0,0.009737174957990646
288.0,0.0015439569251611829
320.0,0.005831548012793064
352.0,0.02341475524008274
384.0,0.01800803281366825
416.0,-0.00607593497261405
448.0,-0.01518994104117155
480.0,-0.0068983519449830055
512.0,0.010430591180920601
576.0,0.009213133715093136
640.0,-0.0022678610403090715
704.0,-0.015268290415406227
768.0,-0.01859463006258011
832.0,-0.022474590688943863
896.0,-0.022111225873231888
960.0,-0.010151093825697899
1024.0,-0.01688292622566223
1152.0,0.0037131677381694317
1280.0,-0.0121761504560709
1408.0,-0.009234960190951824
1536.0,0.002198918256908655
1664.0,0.006787624675780535
1792.0,0.019696112722158432
1920.0,-0.008986001834273338
2048.0,-0.020022079348564148
2304.0,-0.012399790808558464
2560.0,-0.013482023030519485
2816.0,0.0011724504875019193
3072.0,0.005023001227527857
3328.0,0.010940803214907646
3584.0,-0.0005647633224725723
3840.0,-0.009831124916672707
4096.0,-0.006710371468216181
4608.0,-0.005967947654426098
5120.0,0.0009265769622288644
5632.0,0.010528487153351307
6144.0,0.016507010906934738
6656.0,-0.0005891022155992687
7168.0,0.0028193541802465916
7680.0,-0.007632657419890165
8192.0,-0.025921273976564407
9216.0,-0.008348841220140457
10240.0,0.0016253949142992496
11264.0,-0.004142026882618666
12288.0,-0.0007645852165296674
13312.0,0.021484367549419403
14336.0,-0.022282002493739128
end
