version,3.0
numOfCh,1
type,point
parent_name,dirty_0dot4-1dot0
ch_type,1_1
kcount,1
numberNandB,1
brightnessNandB,1
carpet pos,0
pc,0
Time (ms),CH1 Auto-Correlation
1.0,0.9756650328636169
2.0,0.8831623196601868
3.0,0.8005889654159546
4.0,0.7312731146812439
5.0,0.6656542420387268
6.0,0.6112587451934814
7.0,0.5750459432601929
8.0,0.5379670858383179
9.0,0.5060290098190308
10.0,0.48153629899024963
11.0,0.45749136805534363
12.0,0.42433565855026245
13.0,0.40357059240341187
14.0,0.38511916995048523
15.0,0.3737305700778961
16.0,0.3616064786911011
18.0,0.33700650930404663
20.0,0.30860090255737305
22.0,0.29054495692253113
24.0,0.2669324576854706
26.0,0.25167715549468994
28.0,0.2241370528936386
30.0,0.19170112907886505
32.0,0.17993862926959991
36.0,0.18933525681495667
40.0,0.1949695348739624
44.0,0.18431487679481506
48.0,0.16486456990242004
52.0,0.13720321655273438
56.0,0.12036190927028656
60.0,0.11739571392536163
64.0,0.1266004592180252
72.0,0.11863802373409271
80.0,0.08818869292736053
88.0,0.07203812897205353
96.0,0.06030869856476784
104.0,0.06345435976982117
112.0,0.08814019709825516
120.0,0.087034210562706
128.0,0.09896477311849594
144.0,0.09061256051063538
160.0,0.10593222826719284
176.0,0.09987998008728027
192.0,0.11233501881361008
208.0,0.14695076644420624
224.0,0.08474856615066528
240.0,0.05053822323679924
256.0,0.03572286665439606
288.0,0.030170947313308716
320.0,0.01640193723142147
352.0,0.021825473755598068
384.0,0.016445359215140343
416.0,0.0066911689937114716
448.0,0.026010124012827873
480.0,0.07390087097883224
512.0,0.05099078267812729
576.0,0.02746458724141121
640.0,0.021224910393357277
704.0,0.04820357635617256
768.0,0.00895117036998272
832.0,-0.020775096490979195
896.0,0.03211190924048424
960.0,-0.008609090000391006
1024.0,-0.025042956694960594
1152.0,-0.03732326999306679
1280.0,-0.01308408472687006
1408.0,-0.03985258936882019
1536.0,-0.04189171642065048
1664.0,-0.027901194989681244
1792.0,-0.016238654032349586
1920.0,-0.032727643847465515
2048.0,-0.05314851924777031
2304.0,-0.014272194355726242
2560.0,-0.004416122101247311
2816.0,0.00222938135266304
3072.0,-0.005664454307407141
3328.0,0.0020803832449018955
3584.0,-0.01110129151493311
3840.0,-0.029810218140482903
4096.0,-0.050852514803409576
4608.0,-0.009626191109418869
5120.0,0.002614119090139866
5632.0,0.06588558852672577
6144.0,0.030176522210240364
6656.0,0.01602618582546711
7168.0,-0.02441241592168808
7680.0,-0.008410066366195679
8192.0,0.005025483667850494
9216.0,-0.02373216673731804
10240.0,-0.04895615577697754
11264.0,0.049967698752880096
12288.0,0.01240132749080658
13312.0,-0.07083841413259506
14336.0,0.08990785479545593
end
