version,3.0
numOfCh,1
type,point
parent_name,dirty_0dot4-1dot0
ch_type,1_1
kcount,1
numberNandB,1
brightnessNandB,1
carpet pos,0
pc,0
Time (ms),CH1 Auto-Correlation
1.0,1.6557714939117432
2.0,1.4985967874526978
3.0,1.370009422302246
4.0,1.2430498600006104
5.0,1.1505937576293945
6.0,1.068552851676941
7.0,1.0056580305099487
8.0,0.9450559020042419
9.0,0.8786534667015076
10.0,0.7889232039451599
11.0,0.7138720154762268
12.0,0.6437504291534424
13.0,0.5786961317062378
14.0,0.527243435382843
15.0,0.48579907417297363
16.0,0.44652050733566284
18.0,0.38666340708732605
20.0,0.34094953536987305
22.0,0.2778116762638092
24.0,0.2400272935628891
26.0,0.21484880149364471
28.0,0.19076548516750336
30.0,0.16943611204624176
32.0,0.1580914705991745
36.0,0.15688486397266388
40.0,0.17677955329418182
44.0,0.15921376645565033
48.0,0.16733147203922272
52.0,0.15830349922180176
56.0,0.16227881610393524
60.0,0.14070981740951538
64.0,0.13512550294399261
72.0,0.19612476229667664
80.0,0.2271573543548584
88.0,0.22883623838424683
96.0,0.17570437490940094
104.0,0.12208700180053711
112.0,0.10157125443220139
120.0,0.1235617846250534
128.0,0.1548783928155899
144.0,0.1078764945268631
160.0,0.02858167327940464
176.0,-0.01423567347228527
192.0,-0.01670045405626297
208.0,0.03233728185296059
224.0,0.03551403060555458
240.0,0.05076860263943672
256.0,0.07567662000656128
288.0,0.06272099912166595
320.0,0.017554715275764465
352.0,0.09362751245498657
384.0,0.03364478796720505
416.0,0.024396155029535294
448.0,-0.017757918685674667
480.0,-0.024114463478326797
512.0,-0.06194830313324928
576.0,-0.038719985634088516
640.0,-0.03099117986857891
704.0,0.029667137190699577
768.0,0.006422335747629404
832.0,0.018100915476679802
896.0,-0.0027612056583166122
960.0,0.0024467387702316046
1024.0,-0.004389284178614616
1152.0,-0.057498279958963394
1280.0,-0.05825946480035782
1408.0,-0.025041941553354263
1536.0,0.024006929248571396
1664.0,0.009248274378478527
1792.0,0.04017285257577896
1920.0,-0.0042066690512001514
2048.0,-0.007635022979229689
2304.0,-0.01887328363955021
2560.0,-0.011896438896656036
2816.0,-0.005669132340699434
3072.0,0.006487287115305662
3328.0,-0.021932564675807953
3584.0,0.003361532697454095
3840.0,-0.05730673298239708
4096.0,0.011077743954956532
4608.0,-0.016737453639507294
5120.0,-0.00990064162760973
5632.0,-0.050666190683841705
6144.0,-0.010600509122014046
6656.0,-0.019312767311930656
7168.0,0.09431545436382294
7680.0,-0.0006323934067040682
8192.0,-0.008086573332548141
9216.0,-0.03029767796397209
10240.0,-0.053712621331214905
11264.0,-0.0025660614483058453
12288.0,-0.042181309312582016
13312.0,0.0010044891387224197
14336.0,0.030294878408312798
end
