version,3.0
numOfCh,1
type,point
parent_name,dirty_0dot4-1dot0
ch_type,1_1
kcount,1
numberNandB,1
brightnessNandB,1
carpet pos,0
pc,0
Time (ms),CH1 Auto-Correlation
1.0,1.822075605392456
2.0,1.6754462718963623
3.0,1.5407792329788208
4.0,1.4240401983261108
5.0,1.3258466720581055
6.0,1.2543070316314697
7.0,1.1869715452194214
8.0,1.1274813413619995
9.0,1.0562257766723633
10.0,0.9823837280273438
11.0,0.9198023676872253
12.0,0.8585429787635803
13.0,0.8049083352088928
14.0,0.7691826820373535
15.0,0.7478137016296387
16.0,0.7156454920768738
18.0,0.6628370881080627
20.0,0.5901171565055847
22.0,0.5273743271827698
24.0,0.4835951626300812
26.0,0.4379039704799652
28.0,0.38392189145088196
30.0,0.3364335298538208
32.0,0.29925110936164856
36.0,0.2577541172504425
40.0,0.2315366119146347
44.0,0.2111070603132248
48.0,0.20269545912742615
52.0,0.21433165669441223
56.0,0.20102617144584656
60.0,0.2018386572599411
64.0,0.19727198779582977
72.0,0.20114292204380035
80.0,0.1545606255531311
88.0,0.1450640708208084
96.0,0.12440428137779236
104.0,0.1098816767334938
112.0,0.10985355079174042
120.0,0.10817895829677582
128.0,0.13830041885375977
144.0,0.12349086254835129
160.0,0.0396031029522419
176.0,0.039411526173353195
192.0,0.090538889169693
208.0,0.08157560229301453
224.0,0.01698204129934311
240.0,-0.01790706068277359
256.0,0.007173145189881325
288.0,-0.04683356732130051
320.0,-0.03642893582582474
352.0,-0.006687620189040899
384.0,0.09460189938545227
416.0,0.030775142833590508
448.0,-0.06380819529294968
480.0,0.015239200554788113
512.0,0.0861521065235138
576.0,0.0861046090722084
640.0,0.09864729642868042
704.0,0.029531273990869522
768.0,-0.045855991542339325
832.0,-0.03146722540259361
896.0,-0.012237710878252983
960.0,0.029089465737342834
1024.0,0.008417288772761822
1152.0,0.06801249086856842
1280.0,0.06518792361021042
1408.0,0.02030867524445057
1536.0,0.02463514544069767
1664.0,0.022492902353405952
1792.0,-0.008899219334125519
1920.0,-0.04356475919485092
2048.0,-0.04123443365097046
2304.0,0.040961239486932755
2560.0,0.027674145996570587
2816.0,0.06464016437530518
3072.0,-0.005474920384585857
3328.0,-0.0267614908516407
3584.0,0.004678692668676376
3840.0,0.004667041357606649
4096.0,0.019811274483799934
4608.0,-0.0073604159988462925
5120.0,-0.030352067202329636
5632.0,-0.026173172518610954
6144.0,-0.05758031830191612
6656.0,-0.0562732107937336
7168.0,-0.05880722030997276
7680.0,-0.07538177818059921
8192.0,-0.0009792979108169675
9216.0,-0.02384546399116516
10240.0,-0.002031143056228757
11264.0,-0.015495372004806995
12288.0,0.09021302312612534
13312.0,0.0557590015232563
14336.0,-0.08733963966369629
end
