version,3.0
numOfCh,1
type,point
parent_name,dirty_0dot4-1dot0
ch_type,1_1
kcount,1
numberNandB,1
brightnessNandB,1
carpet pos,0
pc,0
Time (ms),CH1 Auto-Correlation
1.0,0.9526352286338806
2.0,0.8737820982933044
3.0,0.7968347668647766
4.0,0.7269062995910645
5.0,0.6732384562492371
6.0,0.6144877076148987
7.0,0.5716471672058105
8.0,0.529459536075592
9.0,0.48497793078422546
10.0,0.449188768863678
11.0,0.42079660296440125
12.0,0.3914864957332611
13.0,0.37094926834106445
14.0,0.3546564280986786
15.0,0.3440530598163605
16.0,0.33570608496665955
18.0,0.3158480226993561
20.0,0.29255545139312744
22.0,0.2748546302318573
24.0,0.26122570037841797
26.0,0.24447740614414215
28.0,0.22288985550403595
30.0,0.21375784277915955
32.0,0.2091313898563385
36.0,0.1941240131855011
40.0,0.17870250344276428
44.0,0.16495783627033234
48.0,0.1798819750547409
52.0,0.18566405773162842
56.0,0.18779103457927704
60.0,0.17807313799858093
64.0,0.16033191978931427
72.0,0.13978572189807892
80.0,0.1031007319688797
88.0,0.06637787073850632
96.0,0.03443039208650589
104.0,0.031067848205566406
112.0,0.04172876477241516
120.0,0.049589771777391434
128.0,0.07027842849493027
144.0,0.06910139322280884
160.0,0.030153263360261917
176.0,0.05342943221330643
192.0,0.0489046536386013
208.0,0.0810849666595459
224.0,0.08597632497549057
240.0,0.08277764171361923
256.0,0.1139882430434227
288.0,0.11470536142587662
320.0,0.06901121884584427
352.0,0.02166900411248207
384.0,0.026583196595311165
416.0,0.03681561350822449
448.0,0.015104854479432106
480.0,-0.009652717038989067
512.0,0.019383281469345093
576.0,0.00810303632169962
640.0,-0.0011554958764463663
704.0,-0.03330693393945694
768.0,-0.04370122030377388
832.0,0.007977365516126156
896.0,-0.003541365498676896
960.0,-0.019809622317552567
1024.0,-0.005412669852375984
1152.0,8.538298601479255e-08
1280.0,-0.00032257786369882524
1408.0,-0.01571449637413025
1536.0,0.008537945337593555
1664.0,-0.018047528341412544
1792.0,-0.0064608934335410595
1920.0,-0.02239512838423252
2048.0,-0.030968189239501953
2304.0,0.007612456101924181
2560.0,0.028773818165063858
2816.0,0.005944715812802315
3072.0,-0.010592254810035229
3328.0,-0.006888513453304768
3584.0,-0.002940353937447071
3840.0,0.005489281378686428
4096.0,0.007612088695168495
4608.0,-0.02262209728360176
5120.0,-0.006625466514378786
5632.0,0.02578403800725937
6144.0,0.008555061183869839
6656.0,-0.0639335960149765
7168.0,-0.06325605511665344
7680.0,-0.005144195631146431
8192.0,0.004999983124434948
9216.0,-0.005313849542289972
10240.0,0.0034724497236311436
11264.0,-0.0017862507374957204
12288.0,-0.012021779082715511
13312.0,0.00983725767582655
14336.0,-0.0029644917231053114
end
