version,3.0
numOfCh,1
type,point
parent_name,dirty_0dot4-1dot0
ch_type,1_1
kcount,1
numberNandB,1
brightnessNandB,1
carpet pos,0
pc,0
Time (ms),CH1 Auto-Correlation
1.0,0.9821913838386536
2.0,0.9103952050209045
3.0,0.8515145182609558
4.0,0.7979627847671509
5.0,0.7544826865196228
6.0,0.7146716117858887
7.0,0.6744327545166016
8.0,0.6368679404258728
9.0,0.608472466468811
10.0,0.5836755633354187
11.0,0.5598339438438416
12.0,0.5344510078430176
13.0,0.512498676776886
14.0,0.48850706219673157
15.0,0.4580008089542389
16.0,0.43150845170021057
18.0,0.3862917721271515
20.0,0.34310439229011536
22.0,0.31366413831710815
24.0,0.2937931716442108
26.0,0.2574279010295868
28.0,0.23201027512550354
30.0,0.21671248972415924
32.0,0.20792421698570251
36.0,0.1882622092962265
40.0,0.1702132374048233
44.0,0.15892064571380615
48.0,0.14578908681869507
52.0,0.14176425337791443
56.0,0.1445235311985016
60.0,0.15588809549808502
64.0,0.18252745270729065
72.0,0.22192807495594025
80.0,0.22018785774707794
88.0,0.19972069561481476
96.0,0.1521300971508026
104.0,0.13475669920444489
112.0,0.13687217235565186
120.0,0.12671422958374023
128.0,0.11250746995210648
144.0,0.0889577865600586
160.0,0.08048965781927109
176.0,0.07018858939409256
192.0,0.09465821087360382
208.0,0.10363676398992538
224.0,0.08021783828735352
240.0,0.039618007838726044
256.0,0.04187475144863129
288.0,0.05934848263859749
320.0,0.025871053338050842
352.0,0.025360509753227234
384.0,-0.0017732979031279683
416.0,0.001891058636829257
448.0,0.009657901711761951
480.0,0.007863841950893402
512.0,0.01934664510190487
576.0,0.035834092646837234
640.0,0.004588771145790815
704.0,0.0014282290358096361
768.0,0.03377113491296768
832.0,-0.001790300477296114
896.0,0.010756698437035084
960.0,-0.027835119515657425
1024.0,-0.039459217339754105
1152.0,0.009257806465029716
1280.0,0.0026583652943372726
1408.0,-0.01700335368514061
1536.0,-0.011321916244924068
1664.0,0.05521761626005173
1792.0,0.06246914714574814
1920.0,0.04897860810160637
2048.0,-0.005652405321598053
2304.0,-0.02379322424530983
2560.0,-0.0008100202539935708
2816.0,-0.013653762638568878
3072.0,-0.058623287826776505
3328.0,-0.07630474120378494
3584.0,-0.055197786539793015
3840.0,-0.037916772067546844
4096.0,-0.03127378597855568
4608.0,-0.04751204699277878
5120.0,-0.012442263774573803
5632.0,0.034731052815914154
6144.0,-0.006079953163862228
6656.0,0.0349380224943161
7168.0,0.062410227954387665
7680.0,0.0101691372692585
8192.0,0.046520669013261795
9216.0,-0.0172031968832016
10240.0,-0.05291653424501419
11264.0,-0.04584120586514473
12288.0,-0.005135473795235157
13312.0,0.03302830085158348
14336.0,0.06859630346298218
end
