version,3.0
numOfCh,1
type,point
parent_name,dirty_0dot4-1dot0
ch_type,1_1
kcount,1
numberNandB,1
brightnessNandB,1
carpet pos,0
pc,0
Time (ms),CH1 Auto-Correlation
1.0,1.6521433591842651
2.0,1.5337620973587036
3.0,1.4224721193313599
4.0,1.3239059448242188
5.0,1.2376538515090942
6.0,1.1608848571777344
7.0,1.0999343395233154
8.0,1.0392369031906128
9.0,0.9822460412979126
10.0,0.926383912563324
11.0,0.8688672780990601
12.0,0.8141542673110962
13.0,0.7648033499717712
14.0,0.7216187119483948
15.0,0.6854435801506042
16.0,0.657677412033081
18.0,0.603847861289978
20.0,0.5580484867095947
22.0,0.5282480120658875
24.0,0.5009055733680725
26.0,0.49990564584732056
28.0,0.49759310483932495
30.0,0.49523675441741943
32.0,0.492112934589386
36.0,0.4800991415977478
40.0,0.44273561239242554
44.0,0.41105782985687256
48.0,0.3894580006599426
52.0,0.3612739145755768
56.0,0.34680262207984924
60.0,0.31775206327438354
64.0,0.2596403658390045
72.0,0.18961919844150543
80.0,0.2368873655796051
88.0,0.29809680581092834
96.0,0.29630303382873535
104.0,0.27005136013031006
112.0,0.24295149743556976
120.0,0.21081197261810303
128.0,0.1828562468290329
144.0,0.13601846992969513
160.0,0.11014120280742645
176.0,0.061564818024635315
192.0,0.07154984772205353
208.0,0.03476289287209511
224.0,0.06890276074409485
240.0,0.047787073999643326
256.0,0.03715982288122177
288.0,0.004223385825753212
320.0,0.006107567343860865
352.0,-0.005476243328303099
384.0,-0.019056830555200577
416.0,-0.028715327382087708
448.0,-0.0653652772307396
480.0,-0.0645008310675621
512.0,-0.04761505499482155
576.0,0.009484331123530865
640.0,0.07047556340694427
704.0,0.08847300708293915
768.0,0.043014973402023315
832.0,-0.005394039209932089
896.0,-0.06932791322469711
960.0,-0.05400684103369713
1024.0,-0.0695672258734703
1152.0,-0.04849708825349808
1280.0,-0.08556947112083435
1408.0,-0.016716359183192253
1536.0,0.010606400668621063
1664.0,0.009009931236505508
1792.0,0.007750218268483877
1920.0,-0.0691535547375679
2048.0,-0.10633041709661484
2304.0,0.021306980401277542
2560.0,-0.015679534524679184
2816.0,-0.035067856311798096
3072.0,-0.03119596093893051
3328.0,0.008344186469912529
3584.0,0.029993003234267235
3840.0,0.004871099255979061
4096.0,0.001621642499230802
4608.0,-0.01036491896957159
5120.0,-0.0014742324128746986
5632.0,-0.027749037370085716
6144.0,0.0006345005822367966
6656.0,0.0016507786931470037
7168.0,0.025897441431879997
7680.0,-0.035177309066057205
8192.0,-0.03473096713423729
9216.0,-0.06768230348825455
10240.0,0.006644310895353556
11264.0,0.12905456125736237
12288.0,0.03560112789273262
13312.0,-0.13292451202869415
14336.0,0.017581196501851082
end
