version,3.0
numOfCh,1
type,point
parent_name,dirty_0dot4-1dot0
ch_type,1_1
kcount,1
numberNandB,1
brightnessNandB,1
carpet pos,0
pc,0
Time (ms),CH1 Auto-Correlation
1.0,1.6376816034317017
2.0,1.5120148658752441
3.0,1.4072661399841309
4.0,1.3181530237197876
5.0,1.2449066638946533
6.0,1.172445297241211
7.0,1.1190143823623657
8.0,1.0690652132034302
9.0,1.0271235704421997
10.0,0.9888975620269775
11.0,0.9524749517440796
12.0,0.9192337393760681
13.0,0.8766909241676331
14.0,0.8360840082168579
15.0,0.793327808380127
16.0,0.7561807036399841
18.0,0.6992421746253967
20.0,0.650286078453064
22.0,0.6149746775627136
24.0,0.569425642490387
26.0,0.523740828037262
28.0,0.47854679822921753
30.0,0.4355543553829193
32.0,0.41321083903312683
36.0,0.39260101318359375
40.0,0.35965991020202637
44.0,0.3397652506828308
48.0,0.3283764123916626
52.0,0.2727064788341522
56.0,0.2399231493473053
60.0,0.23346228897571564
64.0,0.22063897550106049
72.0,0.22845016419887543
80.0,0.18341203033924103
88.0,0.13040287792682648
96.0,0.13218125700950623
104.0,0.1541776955127716
112.0,0.15664613246917725
120.0,0.19332198798656464
128.0,0.17723041772842407
144.0,0.1979382187128067
160.0,0.1879596710205078
176.0,0.1702107936143875
192.0,0.17602036893367767
208.0,0.1457599252462387
224.0,0.13992631435394287
240.0,0.12087763100862503
256.0,0.09983430057764053
288.0,0.1550586223602295
320.0,0.1850537657737732
352.0,0.10513325780630112
384.0,0.059750258922576904
416.0,0.03551207855343819
448.0,0.048990633338689804
480.0,0.06465312838554382
512.0,0.13132573664188385
576.0,-0.0011147635523229837
640.0,0.07527098804712296
704.0,0.07614042609930038
768.0,0.04143159091472626
832.0,-0.03361417353153229
896.0,-0.00535424193367362
960.0,-0.003407707903534174
1024.0,0.033202264457941055
1152.0,-0.014278695918619633
1280.0,0.08471578359603882
1408.0,0.07496148347854614
1536.0,0.0902719795703888
1664.0,0.1186223030090332
1792.0,0.017202749848365784
1920.0,0.006135499570518732
2048.0,0.011868780478835106
2304.0,-0.005247651599347591
2560.0,-0.013536956161260605
2816.0,-0.007869512774050236
3072.0,-0.030468782410025597
3328.0,-0.025361988693475723
3584.0,-0.031090425327420235
3840.0,-0.02360040321946144
4096.0,-0.013394233770668507
4608.0,-0.013784666545689106
5120.0,-0.02317674458026886
5632.0,-0.027399884536862373
6144.0,0.008372771553695202
6656.0,-0.05496912822127342
7168.0,-0.02101106569170952
7680.0,-0.0017517602536827326
8192.0,-0.06971202045679092
9216.0,-0.050666745752096176
10240.0,-0.08393312990665436
11264.0,-0.13532467186450958
12288.0,-0.09952296316623688
13312.0,0.016497036442160606
14336.0,0.5091275572776794
end
