version,3.0
numOfCh,1
type,point
parent_name,dirty_0dot4-1dot0
ch_type,1_1
kcount,1
numberNandB,1
brightnessNandB,1
carpet pos,0
pc,0
Time (ms),CH1 Auto-Correlation
1.0,0.9089829325675964
2.0,0.830968976020813
3.0,0.7655214071273804
4.0,0.7098326683044434
5.0,0.6662382483482361
6.0,0.6262176036834717
7.0,0.5930629968643188
8.0,0.5608891248703003
9.0,0.5311219096183777
10.0,0.5087823271751404
11.0,0.48862937092781067
12.0,0.47034499049186707
13.0,0.4542466104030609
14.0,0.4405929744243622
15.0,0.43102455139160156
16.0,0.4219984710216522
18.0,0.40149691700935364
20.0,0.3812767267227173
22.0,0.36883702874183655
24.0,0.34744107723236084
26.0,0.3175911605358124
28.0,0.29490503668785095
30.0,0.2760959267616272
32.0,0.2611859440803528
36.0,0.256457656621933
40.0,0.23708988726139069
44.0,0.2062058299779892
48.0,0.17805655300617218
52.0,0.16249939799308777
56.0,0.15504677593708038
60.0,0.15008912980556488
64.0,0.14509084820747375
72.0,0.11417600512504578
80.0,0.09775573015213013
88.0,0.09325387328863144
96.0,0.09913483262062073
104.0,0.0986902266740799
112.0,0.08425959944725037
120.0,0.07724110037088394
128.0,0.0706881731748581
144.0,0.0832120031118393
160.0,0.09277258068323135
176.0,0.065310038626194
192.0,0.04252229630947113
208.0,0.03225128725171089
224.0,0.03351746127009392
240.0,0.03933315724134445
256.0,0.032185859978199005
288.0,-0.01728173904120922
320.0,-0.048548370599746704
352.0,-0.03162068501114845
384.0,-0.030969804152846336
416.0,-0.052558135241270065
448.0,-0.04266659915447235
480.0,-0.035389117896556854
512.0,-0.021925633773207664
576.0,0.020561860874295235
640.0,0.03540009632706642
704.0,-0.00036910269409418106
768.0,-0.03003685548901558
832.0,-0.01667005755007267
896.0,-0.029760170727968216
960.0,-0.03326882794499397
1024.0,-0.011561520397663116
1152.0,0.004447438754141331
1280.0,0.02998829074203968
1408.0,-0.0024044637102633715
1536.0,-0.01280211005359888
1664.0,-0.034538187086582184
1792.0,-0.03236827254295349
1920.0,-0.05000924691557884
2048.0,-0.05270124226808548
2304.0,0.028703682124614716
2560.0,-0.02328225038945675
2816.0,-0.02947254851460457
3072.0,0.013483180664479733
3328.0,0.005799698177725077
3584.0,0.04476574435830116
3840.0,0.010371187701821327
4096.0,-0.05030401796102524
4608.0,0.04916684329509735
5120.0,-0.0017063097329810262
5632.0,-0.015670182183384895
6144.0,-0.01670583337545395
6656.0,0.005768085829913616
7168.0,-0.03421315923333168
7680.0,-0.03530941903591156
8192.0,0.019190246239304543
9216.0,0.01731371320784092
10240.0,-0.016588861122727394
11264.0,-0.0013273274526000023
12288.0,0.008782566525042057
13312.0,-0.0025371122173964977
14336.0,0.031677402555942535
end
