version,3.0
numOfCh,1
type,point
parent_name,dirty_0dot4-1dot0
ch_type,1_1
kcount,1
numberNandB,1
brightnessNandB,1
carpet pos,0
pc,0
Time (ms),CH1 Auto-Correlation
1.0,0.9747236371040344
2.0,0.8987873196601868
3.0,0.8370235562324524
4.0,0.7894583940505981
5.0,0.7463153600692749
6.0,0.6964259743690491
7.0,0.6504321098327637
8.0,0.6066882610321045
9.0,0.5657283067703247
10.0,0.5399007201194763
11.0,0.5169777274131775
12.0,0.49695032835006714
13.0,0.4774336814880371
14.0,0.46270135045051575
15.0,0.4479648768901825
16.0,0.42772820591926575
18.0,0.40484002232551575
20.0,0.38562628626823425
22.0,0.35775256156921387
24.0,0.3380098342895508
26.0,0.32936036586761475
28.0,0.3269164264202118
30.0,0.3251386284828186
32.0,0.32827964425086975
36.0,0.31785017251968384
40.0,0.3058333694934845
44.0,0.28387728333473206
48.0,0.26624712347984314
52.0,0.25603052973747253
56.0,0.2360350489616394
60.0,0.21106618642807007
64.0,0.18765506148338318
72.0,0.15862129628658295
80.0,0.1373387575149536
88.0,0.10843857377767563
96.0,0.09747695922851562
104.0,0.09043906629085541
112.0,0.08348295092582703
120.0,0.08985957503318787
128.0,0.1258535087108612
144.0,0.09582803398370743
160.0,0.08980710804462433
176.0,0.07481071352958679
192.0,0.10328870266675949
208.0,0.07502243667840958
224.0,0.04410327970981598
240.0,0.03337492793798447
256.0,0.03626548498868942
288.0,0.05342297628521919
320.0,0.0844983235001564
352.0,0.07424109429121017
384.0,0.08843093365430832
416.0,0.12055312842130661
448.0,0.10726219415664673
480.0,0.04409292712807655
512.0,0.0005462706903927028
576.0,-0.016291776672005653
640.0,-0.013664034195244312
704.0,0.0007558154757134616
768.0,0.013479718938469887
832.0,0.03294307366013527
896.0,0.02432198077440262
960.0,0.012270485050976276
1024.0,0.004965536296367645
1152.0,0.022879187017679214
1280.0,0.009536839090287685
1408.0,-0.016525542363524437
1536.0,0.002572824480012059
1664.0,0.001423005131073296
1792.0,0.018413325771689415
1920.0,0.042012691497802734
2048.0,0.02599717117846012
2304.0,0.03228098154067993
2560.0,0.04094966873526573
2816.0,0.05117223411798477
3072.0,0.012425454333424568
3328.0,-0.021518195047974586
3584.0,-0.019678430631756783
3840.0,-0.020822888240218163
4096.0,-0.0198654904961586
4608.0,0.09985938668251038
5120.0,0.0032684863545000553
5632.0,0.0053776344284415245
6144.0,-0.04266614839434624
6656.0,-0.04232404753565788
7168.0,0.0365167073905468
7680.0,-0.021172286942601204
8192.0,-0.023305673152208328
9216.0,-0.03953522816300392
10240.0,-0.06994269043207169
11264.0,-0.043724726885557175
12288.0,-0.06906276941299438
13312.0,0.004283212590962648
14336.0,-0.008238920010626316
end
