version,3.0
numOfCh,1
type,point
parent_name,dirty_0dot4-1dot0
ch_type,1_1
kcount,1
numberNandB,1
brightnessNandB,1
carpet pos,0
pc,0
Time (ms),CH1 Auto-Correlation
1.0,1.9849189519882202
2.0,1.815966248512268
3.0,1.6674834489822388
4.0,1.5345239639282227
5.0,1.4120501279830933
6.0,1.3023467063903809
7.0,1.2014871835708618
8.0,1.1040236949920654
9.0,1.018296241760254
10.0,0.9605726003646851
11.0,0.9162338376045227
12.0,0.8754910230636597
13.0,0.839538037776947
14.0,0.7853572964668274
15.0,0.7425965666770935
16.0,0.7085180878639221
18.0,0.6491321325302124
20.0,0.580794095993042
22.0,0.5234546065330505
24.0,0.4647221267223358
26.0,0.42455047369003296
28.0,0.41048261523246765
30.0,0.4065402150154114
32.0,0.41348639130592346
36.0,0.4313306212425232
40.0,0.42049410939216614
44.0,0.3750360310077667
48.0,0.2992938160896301
52.0,0.24001719057559967
56.0,0.17380864918231964
60.0,0.16052860021591187
64.0,0.15962602198123932
72.0,0.16031630337238312
80.0,0.15963727235794067
88.0,0.14577890932559967
96.0,0.11912095546722412
104.0,0.09789028763771057
112.0,0.09699845314025879
120.0,0.11934558302164078
128.0,0.14445197582244873
144.0,0.20508556067943573
160.0,0.15345342457294464
176.0,0.10169589519500732
192.0,0.10838533192873001
208.0,0.16349990665912628
224.0,0.14550600945949554
240.0,0.0741732120513916
256.0,0.0494629330933094
288.0,0.04673973470926285
320.0,0.032516371458768845
352.0,0.06555386632680893
384.0,0.12514452636241913
416.0,0.1451396644115448
448.0,0.0264806617051363
480.0,0.011542944237589836
512.0,0.03267072141170502
576.0,0.01546164695173502
640.0,-0.01388042327016592
704.0,-0.08893394470214844
768.0,-0.07269437611103058
832.0,-0.06625792384147644
896.0,-0.041270237416028976
960.0,0.028898421674966812
1024.0,-0.028390636667609215
1152.0,-0.09006074070930481
1280.0,-0.08631337434053421
1408.0,-0.09289643168449402
1536.0,0.008171929977834225
1664.0,-0.023773619905114174
1792.0,-0.08274711668491364
1920.0,0.06261032819747925
2048.0,0.0356421172618866
2304.0,-0.060136936604976654
2560.0,0.002142525278031826
2816.0,0.060335639864206314
3072.0,0.11408146470785141
3328.0,0.06374557316303253
3584.0,0.05056438222527504
3840.0,-0.021801777184009552
4096.0,-0.03478692099452019
4608.0,0.013504539616405964
5120.0,-0.007426555268466473
5632.0,0.011711706407368183
6144.0,-0.026939693838357925
6656.0,-0.06835942715406418
7168.0,-0.041641101241111755
7680.0,0.13464176654815674
8192.0,0.011315793730318546
9216.0,-0.05351315066218376
10240.0,-0.013908055610954762
11264.0,0.027920031920075417
12288.0,-0.07438373565673828
13312.0,-0.0568569116294384
14336.0,-0.04200734943151474
end
