version,3.0
numOfCh,1
type,point
parent_name,dirty_0dot4-1dot0
ch_type,1_1
kcount,1
numberNandB,1
brightnessNandB,1
carpet pos,0
pc,0
Time (ms),CH1 Auto-Correlation
1.0,1.3196914196014404
2.0,1.2204581499099731
3.0,1.1254671812057495
4.0,1.0475490093231201
5.0,0.9707404971122742
6.0,0.9044548869132996
7.0,0.8470836281776428
8.0,0.798164427280426
9.0,0.7593335509300232
10.0,0.7274401783943176
11.0,0.7051807045936584
12.0,0.6847261190414429
13.0,0.6617669463157654
14.0,0.6493695974349976
15.0,0.6312054991722107
16.0,0.6156033277511597
18.0,0.5936671495437622
20.0,0.5670061707496643
22.0,0.523472785949707
24.0,0.47834888100624084
26.0,0.4313510060310364
28.0,0.388315349817276
30.0,0.3509565591812134
32.0,0.3279688358306885
36.0,0.287078320980072
40.0,0.2624357342720032
44.0,0.2269275039434433
48.0,0.20793434977531433
52.0,0.20016716420650482
56.0,0.18450236320495605
60.0,0.16165751218795776
64.0,0.15984037518501282
72.0,0.16881778836250305
80.0,0.1380896121263504
88.0,0.15031874179840088
96.0,0.12170793116092682
104.0,0.09817220270633698
112.0,0.08392590284347534
120.0,0.05882394686341286
128.0,0.05269292742013931
144.0,-0.00657103443518281
160.0,-0.007458156440407038
176.0,0.007626733276993036
192.0,-0.006300800014287233
208.0,-0.015434709377586842
224.0,0.03226611390709877
240.0,0.056115876883268356
256.0,0.067019023001194
288.0,-0.01430604513734579
320.0,-0.030787482857704163
352.0,-0.005486946552991867
384.0,0.01849840208888054
416.0,-0.023028891533613205
448.0,-0.007045067846775055
480.0,0.020504366606473923
512.0,0.035307347774505615
576.0,-0.041660793125629425
640.0,-0.04985540732741356
704.0,-0.0314532034099102
768.0,0.010528377257287502
832.0,0.004003270994871855
896.0,0.0457383394241333
960.0,0.030718326568603516
1024.0,-0.01759626716375351
1152.0,-0.05063146352767944
1280.0,-0.01574094034731388
1408.0,-0.029124855995178223
1536.0,-0.036005567759275436
1664.0,-0.06598512828350067
1792.0,-0.011110221967101097
1920.0,-0.03301042690873146
2048.0,-0.014115194790065289
2304.0,0.0012322915717959404
2560.0,0.013334970921278
2816.0,0.028733329847455025
3072.0,-0.006950497627258301
3328.0,0.01580181159079075
3584.0,-0.038116857409477234
3840.0,-0.03774009272456169
4096.0,-0.02315341867506504
4608.0,0.009604138322174549
5120.0,0.014775635674595833
5632.0,-0.048080723732709885
6144.0,0.04302877560257912
6656.0,-0.025351151823997498
7168.0,0.04850367456674576
7680.0,-0.014025799930095673
8192.0,0.03431035578250885
9216.0,-0.001570522552356124
10240.0,-0.047333523631095886
11264.0,0.05661526322364807
12288.0,-0.014683965593576431
13312.0,-0.039905983954668045
14336.0,-0.006960785947740078
end
