version,3.0
numOfCh,1
type,point
parent_name,dirty_0dot4-1dot0
ch_type,1_1
kcount,1
numberNandB,1
brightnessNandB,1
carpet pos,0
pc,0
Time (ms),CH1 Auto-Correlation
1.0,1.8961855173110962
2.0,1.7654154300689697
3.0,1.651314377784729
4.0,1.5394530296325684
5.0,1.464020013809204
6.0,1.3934650421142578
7.0,1.3198916912078857
8.0,1.2425490617752075
9.0,1.1736061573028564
10.0,1.1045567989349365
11.0,1.0562100410461426
12.0,1.0097856521606445
13.0,0.9808570742607117
14.0,0.954114556312561
15.0,0.9172090291976929
16.0,0.8848592638969421
18.0,0.8216217160224915
20.0,0.7628567814826965
22.0,0.6974655985832214
24.0,0.6371184587478638
26.0,0.5756694078445435
28.0,0.5261377096176147
30.0,0.4796718955039978
32.0,0.4292159974575043
36.0,0.37242797017097473
40.0,0.36065787076950073
44.0,0.3748137056827545
48.0,0.37637341022491455
52.0,0.3860522210597992
56.0,0.41187751293182373
60.0,0.44104650616645813
64.0,0.44021642208099365
72.0,0.4340880215167999
80.0,0.39113670587539673
88.0,0.32965153455734253
96.0,0.28801482915878296
104.0,0.2892621159553528
112.0,0.2842184603214264
120.0,0.30431804060935974
128.0,0.32042428851127625
144.0,0.32444754242897034
160.0,0.3043629825115204
176.0,0.22886715829372406
192.0,0.15734724700450897
208.0,0.11213289946317673
224.0,0.13395996391773224
240.0,0.18096491694450378
256.0,0.21441875398159027
288.0,0.17722132802009583
320.0,0.132758229970932
352.0,0.09408583492040634
384.0,0.010830637067556381
416.0,0.08742863684892654
448.0,0.07983740419149399
480.0,-0.006183107383549213
512.0,0.06085916608572006
576.0,0.09406281262636185
640.0,0.125862717628479
704.0,0.06576935946941376
768.0,0.027260707691311836
832.0,-0.02003050036728382
896.0,-0.04351857304573059
960.0,-0.04590774327516556
1024.0,-0.10150845348834991
1152.0,-0.10469423234462738
1280.0,-0.1049925684928894
1408.0,-0.11104392260313034
1536.0,-0.06879451125860214
1664.0,-0.05760268494486809
1792.0,-0.0629354938864708
1920.0,-0.060396283864974976
2048.0,-0.07244876027107239
2304.0,-0.06709497421979904
2560.0,-0.07025406509637833
2816.0,-0.05808686837553978
3072.0,-0.09149887412786484
3328.0,-0.057360369712114334
3584.0,-0.04253396391868591
3840.0,-0.03532198444008827
4096.0,-0.026959259063005447
4608.0,0.07492358982563019
5120.0,-0.0006984840147197247
5632.0,-0.06260433793067932
6144.0,0.03102215752005577
6656.0,0.11369486898183823
7168.0,0.04512258991599083
7680.0,-0.028102530166506767
8192.0,-0.0630280077457428
9216.0,-0.03881729394197464
10240.0,-0.04626058042049408
11264.0,0.11846179515123367
12288.0,-0.03947284445166588
13312.0,-0.03400101512670517
14336.0,0.013751807622611523
end
