version,3.0
numOfCh,1
type,point
parent_name,dirty_0dot4-1dot0
ch_type,1_1
kcount,1
numberNandB,1
brightnessNandB,1
carpet pos,0
pc,0
Time (ms),CH1 Auto-Correlation
1.0,1.2955124378204346
2.0,1.20565664768219
3.0,1.1302801370620728
4.0,1.0654419660568237
5.0,1.0110423564910889
6.0,0.9625953435897827
7.0,0.9124274849891663
8.0,0.8679662942886353
9.0,0.826498806476593
10.0,0.79079270362854
11.0,0.7562364339828491
12.0,0.7294208407402039
13.0,0.7006394267082214
14.0,0.6728326082229614
15.0,0.65232253074646
16.0,0.6235728859901428
18.0,0.5721830129623413
20.0,0.538223922252655
22.0,0.5049991011619568
24.0,0.4652043282985687
26.0,0.4228169322013855
28.0,0.3978702127933502
30.0,0.3861015737056732
32.0,0.3780336380004883
36.0,0.36095792055130005
40.0,0.32925936579704285
44.0,0.29501575231552124
48.0,0.26952141523361206
52.0,0.2621237635612488
56.0,0.24954010546207428
60.0,0.2231287658214569
64.0,0.1994691640138626
72.0,0.16801516711711884
80.0,0.16058854758739471
88.0,0.14144909381866455
96.0,0.1500774770975113
104.0,0.13931851089000702
112.0,0.09177887439727783
120.0,0.0708550214767456
128.0,0.06493230164051056
144.0,0.04695073887705803
160.0,0.0319763645529747
176.0,0.05565910041332245
192.0,0.02608206495642662
208.0,0.012141360901296139
224.0,0.004385844338685274
240.0,-0.015037809498608112
256.0,-0.03716399520635605
288.0,-0.013633420690894127
320.0,-0.028871746733784676
352.0,-0.03871001675724983
384.0,-0.049226872622966766
416.0,-0.0609256848692894
448.0,-0.07145228236913681
480.0,-0.0661039799451828
512.0,-0.056158628314733505
576.0,-0.06289803981781006
640.0,-0.05400281026959419
704.0,-0.06507515162229538
768.0,-0.05096449702978134
832.0,-0.03819062560796738
896.0,-0.037142347544431686
960.0,-0.005451515316963196
1024.0,0.000294441677397117
1152.0,-0.024477561935782433
1280.0,-0.02064245566725731
1408.0,0.015010111965239048
1536.0,0.052158426493406296
1664.0,0.04377935454249382
1792.0,0.02486133575439453
1920.0,-0.05022796243429184
2048.0,-0.02180475741624832
2304.0,-0.02481086552143097
2560.0,0.004069019574671984
2816.0,0.021234065294265747
3072.0,-0.002911461517214775
3328.0,-0.020012661814689636
3584.0,-0.025725552812218666
3840.0,-0.03517552465200424
4096.0,-0.023848136886954308
4608.0,0.03000197932124138
5120.0,-0.009674753062427044
5632.0,-0.023904910311102867
6144.0,0.04749510437250137
6656.0,0.020590145140886307
7168.0,-0.014844986610114574
7680.0,0.010329460725188255
8192.0,-0.01835338957607746
9216.0,-0.0191778764128685
10240.0,-0.01029892172664404
11264.0,0.014079036191105843
12288.0,0.017008421942591667
13312.0,0.005083505529910326
14336.0,-0.01816498301923275
end
