version,3.0
numOfCh,1
type,point
parent_name,dirty_0dot4-1dot0
ch_type,1_1
kcount,1
numberNandB,1
brightnessNandB,1
carpet pos,0
pc,0
Time (ms),CH1 Auto-Correlation
1.0,1.6275932788848877
2.0,1.5061503648757935
3.0,1.4048359394073486
4.0,1.303083896636963
5.0,1.232757568359375
6.0,1.1582146883010864
7.0,1.0955933332443237
8.0,1.0381518602371216
9.0,0.987270176410675
10.0,0.9445465207099915
11.0,0.8970081806182861
12.0,0.8591858148574829
13.0,0.8167769312858582
14.0,0.7817144393920898
15.0,0.7608299851417542
16.0,0.7354457378387451
18.0,0.6797014474868774
20.0,0.634382963180542
22.0,0.6021654605865479
24.0,0.5735329389572144
26.0,0.5603145360946655
28.0,0.5588903427124023
30.0,0.5562013387680054
32.0,0.5598958134651184
36.0,0.5153387784957886
40.0,0.47922223806381226
44.0,0.4275161623954773
48.0,0.4081857204437256
52.0,0.3685067296028137
56.0,0.29250627756118774
60.0,0.24208851158618927
64.0,0.20837701857089996
72.0,0.191589817404747
80.0,0.16951625049114227
88.0,0.12397517263889313
96.0,0.1232985183596611
104.0,0.12217769771814346
112.0,0.07119084894657135
120.0,0.059325117617845535
128.0,0.08944287151098251
144.0,0.08050117641687393
160.0,0.012224641628563404
176.0,-0.009018117561936378
192.0,-0.05054432898759842
208.0,-0.03671169653534889
224.0,-0.002573263831436634
240.0,0.063890241086483
256.0,0.10042978078126907
288.0,0.0928577184677124
320.0,0.056728295981884
352.0,0.08562913537025452
384.0,0.13881467282772064
416.0,0.10352171212434769
448.0,-0.0031731578055769205
480.0,-0.022359099239110947
512.0,0.014599931426346302
576.0,-0.04110577702522278
640.0,-0.0644458681344986
704.0,-0.06687740981578827
768.0,-0.053729262202978134
832.0,-0.02802317962050438
896.0,-0.040950607508420944
960.0,-0.022383831441402435
1024.0,-0.010400512255728245
1152.0,-0.03203260526061058
1280.0,-0.01928386278450489
1408.0,-0.03250052407383919
1536.0,-0.020923903211951256
1664.0,-0.005156510975211859
1792.0,0.0023735249415040016
1920.0,-0.0328095443546772
2048.0,-0.026486147195100784
2304.0,-0.03159182518720627
2560.0,-0.008856959640979767
2816.0,-0.01978093385696411
3072.0,-0.013168422505259514
3328.0,-0.010850541293621063
3584.0,-0.006903631146997213
3840.0,-0.024229204282164574
4096.0,-0.027969786897301674
4608.0,0.015197203494608402
5120.0,0.10197299718856812
5632.0,0.0295382309705019
6144.0,-0.030435288324952126
6656.0,-0.051373135298490524
7168.0,-0.05575640872120857
7680.0,0.013084422796964645
8192.0,0.015463503077626228
9216.0,-0.002391868270933628
10240.0,0.048725955188274384
11264.0,-0.01968599297106266
12288.0,-0.0015246529364958405
13312.0,-0.05917957052588463
14336.0,-0.04430254548788071
end
