version,3.0
numOfCh,1
type,point
parent_name,dirty_0dot4-1dot0
ch_type,1_1
kcount,1
numberNandB,1
brightnessNandB,1
carpet pos,0
pc,0
Time (ms),CH1 Auto-Correlation
1.0,1.298627495765686
2.0,1.2075386047363281
3.0,1.1288743019104004
4.0,1.063719391822815
5.0,0.9904550313949585
6.0,0.9237523674964905
7.0,0.8591497540473938
8.0,0.811862587928772
9.0,0.7624210119247437
10.0,0.7180434465408325
11.0,0.681606113910675
12.0,0.6503114104270935
13.0,0.6179654002189636
14.0,0.5906426310539246
15.0,0.5622326135635376
16.0,0.5377175807952881
18.0,0.49416178464889526
20.0,0.4548673927783966
22.0,0.4191111922264099
24.0,0.38983047008514404
26.0,0.36127084493637085
28.0,0.3398175835609436
30.0,0.3154110908508301
32.0,0.28964346647262573
36.0,0.23734983801841736
40.0,0.21996264159679413
44.0,0.2132570743560791
48.0,0.21358069777488708
52.0,0.21589073538780212
56.0,0.21390226483345032
60.0,0.19906844198703766
64.0,0.16850703954696655
72.0,0.15061233937740326
80.0,0.14630798995494843
88.0,0.12043234705924988
96.0,0.07203254848718643
104.0,0.056653235107660294
112.0,0.051576972007751465
120.0,0.03550204262137413
128.0,0.04949209466576576
144.0,0.0949566662311554
160.0,0.13163137435913086
176.0,0.11874964833259583
192.0,0.07700895518064499
208.0,0.04961569979786873
224.0,0.05337044969201088
240.0,0.047324780374765396
256.0,0.05325090140104294
288.0,0.06849569827318192
320.0,0.08272570371627808
352.0,0.034296248108148575
384.0,0.026156464591622353
416.0,-0.01027204841375351
448.0,-0.04106840863823891
480.0,-0.07471965253353119
512.0,-0.06770385056734085
576.0,-0.010146397165954113
640.0,0.008318952284753323
704.0,0.03889799490571022
768.0,0.004267035983502865
832.0,-0.022920237854123116
896.0,0.004207541700452566
960.0,-0.024164371192455292
1024.0,-0.03568990156054497
1152.0,-0.0548793226480484
1280.0,-0.03237271308898926
1408.0,0.018939461559057236
1536.0,0.08395767211914062
1664.0,0.04854140803217888
1792.0,0.09681400656700134
1920.0,0.028665637597441673
2048.0,-0.006310123484581709
2304.0,-0.003252063412219286
2560.0,-0.021056711673736572
2816.0,-0.03283075615763664
3072.0,-0.007270817179232836
3328.0,0.027594879269599915
3584.0,-0.0032710416708141565
3840.0,-0.03154953196644783
4096.0,-0.005555334966629744
4608.0,-0.020576907321810722
5120.0,0.029870346188545227
5632.0,-0.02635234408080578
6144.0,-0.007617708761245012
6656.0,0.024272287264466286
7168.0,-0.009114938788115978
7680.0,-0.001802082872018218
8192.0,-0.036356206983327866
9216.0,0.037352874875068665
10240.0,-0.0411418192088604
11264.0,0.0010676509700715542
12288.0,-0.08435150980949402
13312.0,-0.030924826860427856
14336.0,-0.05728308483958244
end
