version,3.0
numOfCh,1
type,point
parent_name,dirty_0dot4-1dot0
ch_type,1_1
kcount,1
numberNandB,1
brightnessNandB,1
carpet pos,0
pc,0
Time (ms),CH1 Auto-Correlation
1.0,1.3878017663955688
2.0,1.2744814157485962
3.0,1.1826703548431396
4.0,1.0973467826843262
5.0,1.0157159566879272
6.0,0.9382059574127197
7.0,0.8763371706008911
8.0,0.8238750696182251
9.0,0.771104633808136
10.0,0.7194879651069641
11.0,0.6701806783676147
12.0,0.6207461357116699
13.0,0.5796181559562683
14.0,0.5428058505058289
15.0,0.5102925896644592
16.0,0.4779813587665558
18.0,0.4287979304790497
20.0,0.3947910666465759
22.0,0.3597816824913025
24.0,0.3358638286590576
26.0,0.32169434428215027
28.0,0.31168025732040405
30.0,0.30746665596961975
32.0,0.3036958873271942
36.0,0.2910501956939697
40.0,0.28451523184776306
44.0,0.2790248394012451
48.0,0.2805452346801758
52.0,0.2586296796798706
56.0,0.20164060592651367
60.0,0.1508648544549942
64.0,0.12410812824964523
72.0,0.0684552937746048
80.0,0.048053670674562454
88.0,0.05719388648867607
96.0,0.05773020163178444
104.0,0.04851028695702553
112.0,0.04146232455968857
120.0,0.05281498655676842
128.0,0.06921116262674332
144.0,0.07644981890916824
160.0,0.055975474417209625
176.0,0.0472736656665802
192.0,0.0873708575963974
208.0,0.12278642505407333
224.0,0.1979425549507141
240.0,0.10826907306909561
256.0,0.08794718980789185
288.0,0.05874831601977348
320.0,0.025863364338874817
352.0,0.04484163597226143
384.0,0.0061317672953009605
416.0,0.035596977919340134
448.0,0.026530971750617027
480.0,-0.00945714209228754
512.0,-0.03590761497616768
576.0,-0.025127626955509186
640.0,-0.040891133248806
704.0,-0.046029336750507355
768.0,-0.04699360951781273
832.0,-0.03446730598807335
896.0,-0.01830499805510044
960.0,0.048372212797403336
1024.0,-0.014189516194164753
1152.0,0.003951371181756258
1280.0,0.022024421021342278
1408.0,-0.0016998264472931623
1536.0,-0.020480940118432045
1664.0,-0.024137848988175392
1792.0,-0.004012127406895161
1920.0,-0.04262607544660568
2048.0,-0.06636344641447067
2304.0,-0.02150118350982666
2560.0,-0.025014465674757957
2816.0,-0.010761595331132412
3072.0,-0.015531112439930439
3328.0,0.037643082439899445
3584.0,0.019945316016674042
3840.0,0.01200921181589365
4096.0,-0.02330540120601654
4608.0,-0.013274678960442543
5120.0,-0.03151745721697807
5632.0,0.03593092039227486
6144.0,-0.0024123552720993757
6656.0,-0.003721322864294052
7168.0,0.051405198872089386
7680.0,-0.022474471479654312
8192.0,-0.022826753556728363
9216.0,0.007001214660704136
10240.0,-0.026594022288918495
11264.0,-0.040144916623830795
12288.0,0.051211778074502945
13312.0,0.011794348247349262
14336.0,-0.018732424825429916
end
