version,3.0
numOfCh,1
type,point
parent_name,dirty_0dot4-1dot0
ch_type,1_1
kcount,1
numberNandB,1
brightnessNandB,1
carpet pos,0
pc,0
Time (ms),CH1 Auto-Correlation
1.0,0.9711602330207825
2.0,0.910581111907959
3.0,0.8551502227783203
4.0,0.8048385381698608
5.0,0.7675072550773621
6.0,0.7360838651657104
7.0,0.710682213306427
8.0,0.6877404451370239
9.0,0.6674596071243286
10.0,0.6443384289741516
11.0,0.6133494973182678
12.0,0.5886009335517883
13.0,0.5664610266685486
14.0,0.5464900135993958
15.0,0.5205996036529541
16.0,0.5011701583862305
18.0,0.4624546468257904
20.0,0.43621283769607544
22.0,0.4229702949523926
24.0,0.40904077887535095
26.0,0.4032905399799347
28.0,0.407241553068161
30.0,0.40977704524993896
32.0,0.39460813999176025
36.0,0.361620157957077
40.0,0.3312668204307556
44.0,0.2749868631362915
48.0,0.2331068366765976
52.0,0.20924396812915802
56.0,0.17950738966464996
60.0,0.17181651294231415
64.0,0.16690178215503693
72.0,0.16242463886737823
80.0,0.1419697254896164
88.0,0.12529338896274567
96.0,0.123190738260746
104.0,0.13182370364665985
112.0,0.13236285746097565
120.0,0.13113079965114594
128.0,0.13426446914672852
144.0,0.10655109584331512
160.0,0.08348504453897476
176.0,0.09668679535388947
192.0,0.0678781270980835
208.0,0.05688285082578659
224.0,0.017279811203479767
240.0,0.029819730669260025
256.0,0.020602017641067505
288.0,0.017103161662817
320.0,-0.006074598990380764
352.0,-0.0441088043153286
384.0,-0.012431912124156952
416.0,-0.007655111141502857
448.0,-0.02999294362962246
480.0,-0.023138003423810005
512.0,-0.014706933870911598
576.0,-0.007347858045250177
640.0,-0.03233998268842697
704.0,-0.012474673800170422
768.0,0.015592900104820728
832.0,-0.011351283639669418
896.0,-0.013526912778615952
960.0,-0.02205735631287098
1024.0,0.029774075374007225
1152.0,0.006541614420711994
1280.0,-0.0243050679564476
1408.0,-0.03333287686109543
1536.0,-0.0003014968824572861
1664.0,-0.0320967361330986
1792.0,-0.03518717736005783
1920.0,-0.021583091467618942
2048.0,-0.005750175565481186
2304.0,0.0010823708726093173
2560.0,0.00864250585436821
2816.0,-0.017272228375077248
3072.0,-0.03866597265005112
3328.0,0.009614937007427216
3584.0,0.022015653550624847
3840.0,-0.019839953631162643
4096.0,-0.004441671539098024
4608.0,0.011218816041946411
5120.0,-0.014682739041745663
5632.0,0.021383419632911682
6144.0,-0.020337741822004318
6656.0,-0.0029598125256597996
7168.0,-0.031818684190511703
7680.0,-0.017290707677602768
8192.0,-0.03182694688439369
9216.0,0.01770259626209736
10240.0,0.041987139731645584
11264.0,-0.004127852153033018
12288.0,-0.021532109007239342
13312.0,0.011304627172648907
14336.0,0.012807018123567104
end
