version,3.0
numOfCh,1
type,point
parent_name,dirty_0dot4-1dot0
ch_type,1_1
kcount,1
numberNandB,1
brightnessNandB,1
carpet pos,0
pc,0
Time (ms),CH1 Auto-Correlation
1.0,1.9774811267852783
2.0,1.8359801769256592
3.0,1.7161054611206055
4.0,1.6080530881881714
5.0,1.5166804790496826
6.0,1.43682062625885
7.0,1.3720766305923462
8.0,1.3170373439788818
9.0,1.260277271270752
10.0,1.2033395767211914
11.0,1.1459932327270508
12.0,1.0924094915390015
13.0,1.0380980968475342
14.0,0.9884078502655029
15.0,0.9474848508834839
16.0,0.9073602557182312
18.0,0.832589328289032
20.0,0.758452296257019
22.0,0.689395546913147
24.0,0.6231317520141602
26.0,0.5603175759315491
28.0,0.5130425095558167
30.0,0.48319587111473083
32.0,0.4706675112247467
36.0,0.43956419825553894
40.0,0.38822224736213684
44.0,0.33339160680770874
48.0,0.3038337528705597
52.0,0.28036338090896606
56.0,0.2619100511074066
60.0,0.24536830186843872
64.0,0.23422189056873322
72.0,0.18219445645809174
80.0,0.12386307865381241
88.0,0.08526484668254852
96.0,0.07120927423238754
104.0,0.08099610358476639
112.0,0.06983337551355362
120.0,0.06615759432315826
128.0,0.0486474372446537
144.0,0.12321026623249054
160.0,0.2271426022052765
176.0,0.29114046692848206
192.0,0.25170332193374634
208.0,0.14830456674098969
224.0,0.08152537792921066
240.0,0.05237634479999542
256.0,0.06237674877047539
288.0,0.0022113050799816847
320.0,0.04500490054488182
352.0,0.08331449329853058
384.0,0.0315704345703125
416.0,0.014851081185042858
448.0,-0.06486768275499344
480.0,-0.03669252619147301
512.0,-0.05512572452425957
576.0,-0.02786613255739212
640.0,-0.018519923090934753
704.0,-0.010204644873738289
768.0,-0.0394628532230854
832.0,-0.07346510887145996
896.0,0.053967174142599106
960.0,-0.05683553218841553
1024.0,-0.10176468640565872
1152.0,-0.03180238604545593
1280.0,-0.014692192897200584
1408.0,-0.04888565465807915
1536.0,-0.05391182750463486
1664.0,-0.06515069305896759
1792.0,-0.05768215283751488
1920.0,-0.08826692402362823
2048.0,-0.04939042031764984
2304.0,0.03220091760158539
2560.0,0.0708899050951004
2816.0,0.03472118079662323
3072.0,0.05902869626879692
3328.0,-0.009994139894843102
3584.0,0.02656092494726181
3840.0,-0.0034971009008586407
4096.0,-0.008503863587975502
4608.0,-0.0025086982641369104
5120.0,-0.031465765088796616
5632.0,-0.025682615116238594
6144.0,-0.09749966114759445
6656.0,0.0105942003428936
7168.0,0.150257408618927
7680.0,-0.028978025540709496
8192.0,-0.08740215003490448
9216.0,0.017327740788459778
10240.0,-0.023420313373208046
11264.0,-0.006348746828734875
12288.0,0.05768800526857376
13312.0,-0.06744056195020676
14336.0,0.15795356035232544
end
