version,3.0
numOfCh,1
type,point
parent_name,dirty_0dot4-1dot0
ch_type,1_1
kcount,1
numberNandB,1
brightnessNandB,1
carpet pos,0
pc,0
Time (ms),CH1 Auto-Correlation
1.0,0.9491860270500183
2.0,0.8684066534042358
3.0,0.8097413778305054
4.0,0.7651983499526978
5.0,0.725412130355835
6.0,0.6913395524024963
7.0,0.6594026684761047
8.0,0.6367278099060059
9.0,0.6153146028518677
10.0,0.5929315686225891
11.0,0.5740615725517273
12.0,0.5612451434135437
13.0,0.5447760820388794
14.0,0.530897319316864
15.0,0.5150473117828369
16.0,0.49876758456230164
18.0,0.47008419036865234
20.0,0.4475279748439789
22.0,0.4264896810054779
24.0,0.39376750588417053
26.0,0.3653281033039093
28.0,0.3445338010787964
30.0,0.327310711145401
32.0,0.31532084941864014
36.0,0.2843802869319916
40.0,0.25770288705825806
44.0,0.23587410151958466
48.0,0.20266316831111908
52.0,0.18699266016483307
56.0,0.17936107516288757
60.0,0.15878990292549133
64.0,0.1516350954771042
72.0,0.12046525627374649
80.0,0.10025686770677567
88.0,0.10406909883022308
96.0,0.09728853404521942
104.0,0.08040633052587509
112.0,0.08101744204759598
120.0,0.06810060143470764
128.0,0.07004179805517197
144.0,0.04105045273900032
160.0,0.035297296941280365
176.0,0.045116622000932693
192.0,0.03222588077187538
208.0,0.023259837180376053
224.0,0.015675371512770653
240.0,0.011328466236591339
256.0,0.00494955200701952
288.0,0.03445510193705559
320.0,0.04184778407216072
352.0,0.0457836277782917
384.0,0.04826128110289574
416.0,0.015738802030682564
448.0,-0.010472584515810013
480.0,-0.01836508885025978
512.0,-0.016607273370027542
576.0,-0.06291916966438293
640.0,-0.046918146312236786
704.0,-0.028162725269794464
768.0,-0.04412541911005974
832.0,0.001994346035644412
896.0,-0.04594741761684418
960.0,-0.03425637260079384
1024.0,-0.04436555132269859
1152.0,-0.02076968364417553
1280.0,-0.010901600122451782
1408.0,-0.015155180357396603
1536.0,-0.026724157854914665
1664.0,-0.029581649228930473
1792.0,-0.018231412395834923
1920.0,-0.022832512855529785
2048.0,0.005464342888444662
2304.0,0.025689121335744858
2560.0,0.008402016013860703
2816.0,-0.02217167615890503
3072.0,0.002653363160789013
3328.0,0.02516937255859375
3584.0,0.01549612544476986
3840.0,-0.028397211804986
4096.0,-0.02076197788119316
4608.0,-0.002409034874290228
5120.0,-0.016292590647935867
5632.0,0.009620465338230133
6144.0,-0.007919623516499996
6656.0,0.009297924116253853
7168.0,-0.042103491723537445
7680.0,0.022133439779281616
8192.0,0.060580793768167496
9216.0,-0.01649741642177105
10240.0,0.002840354572981596
11264.0,-0.0361381396651268
12288.0,0.03663651645183563
13312.0,-0.04390188306570053
14336.0,0.07237361371517181
end
