version,3.0
numOfCh,1
type,point
parent_name,dirty_0dot4-1dot0
ch_type,1_1
kcount,1
numberNandB,1
brightnessNandB,1
carpet pos,0
pc,0
Time (ms),CH1 Auto-Correlation
1.0,1.3259356021881104
2.0,1.2342768907546997
3.0,1.1610451936721802
4.0,1.0928759574890137
5.0,1.0350509881973267
6.0,0.9791404008865356
7.0,0.9243113398551941
8.0,0.8699526786804199
9.0,0.8244981169700623
10.0,0.7834470868110657
11.0,0.7525602579116821
12.0,0.7346111536026001
13.0,0.7218742370605469
14.0,0.7020449638366699
15.0,0.6895790100097656
16.0,0.6785295605659485
18.0,0.6510165929794312
20.0,0.6125921010971069
22.0,0.5804752111434937
24.0,0.5563878417015076
26.0,0.5284683704376221
28.0,0.5005385875701904
30.0,0.4773770868778229
32.0,0.4482891261577606
36.0,0.3775527775287628
40.0,0.33297446370124817
44.0,0.30588915944099426
48.0,0.2899637818336487
52.0,0.27400678396224976
56.0,0.2703598439693451
60.0,0.27043044567108154
64.0,0.2618055045604706
72.0,0.21932624280452728
80.0,0.20735210180282593
88.0,0.224809467792511
96.0,0.22500090301036835
104.0,0.19546498358249664
112.0,0.18640312552452087
120.0,0.1978454738855362
128.0,0.17794495820999146
144.0,0.12311986088752747
160.0,0.09003216028213501
176.0,0.14687983691692352
192.0,0.22263073921203613
208.0,0.21029311418533325
224.0,0.140651136636734
240.0,0.11342893540859222
256.0,0.11307790875434875
288.0,0.1459403932094574
320.0,0.17030641436576843
352.0,0.13571245968341827
384.0,0.1471583992242813
416.0,0.10138660669326782
448.0,0.07077417522668839
480.0,0.06199208274483681
512.0,0.05299317091703415
576.0,0.051269207149744034
640.0,0.012188013643026352
704.0,0.014513914473354816
768.0,0.010885904543101788
832.0,0.004913707263767719
896.0,0.019505321979522705
960.0,0.014346514828503132
1024.0,0.04357384145259857
1152.0,-0.04608521610498428
1280.0,-0.007596695329993963
1408.0,0.042990777641534805
1536.0,-0.04732980579137802
1664.0,0.003838061122223735
1792.0,-0.010901493951678276
1920.0,-0.021456459537148476
2048.0,-0.012701032683253288
2304.0,-0.05730989947915077
2560.0,-0.01735721156001091
2816.0,0.05554695799946785
3072.0,0.05715186893939972
3328.0,-0.03190290927886963
3584.0,-0.026531748473644257
3840.0,-0.056747883558273315
4096.0,-0.018453361466526985
4608.0,-0.008197934366762638
5120.0,-0.008265266194939613
5632.0,-0.0473247691988945
6144.0,-0.0778331309556961
6656.0,-0.08747997879981995
7168.0,-0.09783537685871124
7680.0,-0.051766932010650635
8192.0,0.006238960195332766
9216.0,0.04367375373840332
10240.0,-0.07416205108165741
11264.0,0.12064322829246521
12288.0,-0.024522844702005386
13312.0,-0.027191754430532455
14336.0,0.0630694106221199
end
