version,3.0
numOfCh,1
type,point
parent_name,dirty_0dot4-1dot0
ch_type,1_1
kcount,1
numberNandB,1
brightnessNandB,1
carpet pos,0
pc,0
Time (ms),CH1 Auto-Correlation
1.0,1.3594914674758911
2.0,1.2676893472671509
3.0,1.1886054277420044
4.0,1.1173205375671387
5.0,1.0531069040298462
6.0,0.9908671379089355
7.0,0.9427205324172974
8.0,0.9078873991966248
9.0,0.8751170635223389
10.0,0.8417572379112244
11.0,0.8128000497817993
12.0,0.7918354868888855
13.0,0.7752190232276917
14.0,0.758565366268158
15.0,0.746068000793457
16.0,0.7348299026489258
18.0,0.7165012359619141
20.0,0.6954373121261597
22.0,0.6658586859703064
24.0,0.6227481365203857
26.0,0.5763387680053711
28.0,0.5391018986701965
30.0,0.5129300355911255
32.0,0.489082932472229
36.0,0.43761301040649414
40.0,0.38230860233306885
44.0,0.3594847023487091
48.0,0.34477582573890686
52.0,0.3079228699207306
56.0,0.2565266788005829
60.0,0.2108214646577835
64.0,0.19282853603363037
72.0,0.19733721017837524
80.0,0.22051002085208893
88.0,0.2747099995613098
96.0,0.29951512813568115
104.0,0.29921239614486694
112.0,0.29811331629753113
120.0,0.30284005403518677
128.0,0.2981432378292084
144.0,0.2566404938697815
160.0,0.19125908613204956
176.0,0.20350614190101624
192.0,0.212266206741333
208.0,0.22797544300556183
224.0,0.2567462921142578
240.0,0.2571770250797272
256.0,0.2020595818758011
288.0,0.1431555598974228
320.0,0.13344360888004303
352.0,0.18033024668693542
384.0,0.2029188722372055
416.0,0.15130098164081573
448.0,0.14476758241653442
480.0,0.1728864163160324
512.0,0.08407285809516907
576.0,0.0038901502266526222
640.0,0.00980379804968834
704.0,0.008584982715547085
768.0,-0.04417791962623596
832.0,-0.05616578832268715
896.0,-0.03906714543700218
960.0,-0.03172279894351959
1024.0,-0.08417519927024841
1152.0,-0.08132576197385788
1280.0,-0.1086384728550911
1408.0,-0.048829298466444016
1536.0,-0.09275729954242706
1664.0,-0.042247798293828964
1792.0,-0.051666729152202606
1920.0,-0.0051203155890107155
2048.0,-0.0012458813143894076
2304.0,-0.03099365346133709
2560.0,-0.047015804797410965
2816.0,-0.06739746034145355
3072.0,-0.08155543357133865
3328.0,-0.010468034073710442
3584.0,-0.020399821922183037
3840.0,0.014332539401948452
4096.0,0.05173924192786217
4608.0,0.00750996358692646
5120.0,-0.08176212757825851
5632.0,-0.06938943266868591
6144.0,-0.058184877038002014
6656.0,0.011246755719184875
7168.0,-0.01222926378250122
7680.0,-0.005651718936860561
8192.0,0.13611963391304016
9216.0,-0.017833270132541656
10240.0,0.02199922874569893
11264.0,-0.0035403193905949593
12288.0,-0.07467908412218094
13312.0,-0.1064356192946434
14336.0,-0.007481092121452093
end
