version,3.0
numOfCh,1
type,point
parent_name,c1204_0dot6-0dot01
ch_type,1_1
kcount,1
numberNandB,1
brightnessNandB,1
carpet pos,0
pc,0
Time (ms),CH1 Auto-Correlation
1.0,0.03443461284041405
2.0,0.033344607800245285
3.0,0.03232942149043083
4.0,0.03142503648996353
5.0,0.030569808557629585
6.0,0.029776690527796745
7.0,0.029054390266537666
8.0,0.02838495746254921
9.0,0.02774255909025669
10.0,0.027178537100553513
11.0,0.026635736227035522
12.0,0.02611858770251274
13.0,0.025655752047896385
14.0,0.025189626961946487
15.0,0.024725867435336113
16.0,0.0242549367249012
18.0,0.023325711488723755
20.0,0.02239840477705002
22.0,0.021598707884550095
24.0,0.020820019766688347
26.0,0.02005857415497303
28.0,0.01926855742931366
30.0,0.01849735714495182
32.0,0.017735227942466736
36.0,0.016267815604805946
40.0,0.014909458346664906
44.0,0.013760550878942013
48.0,0.012988734059035778
52.0,0.012389149516820908
56.0,0.011800816282629967
60.0,0.01131182350218296
64.0,0.010926958173513412
72.0,0.010544703342020512
80.0,0.010255369357764721
88.0,0.010003508999943733
96.0,0.009871804155409336
104.0,0.009723379276692867
112.0,0.009758571162819862
120.0,0.010059641674160957
128.0,0.010047580115497112
144.0,0.00948427990078926
160.0,0.009119778871536255
176.0,0.008411255665123463
192.0,0.008107074536383152
208.0,0.007493629120290279
224.0,0.00670829089358449
240.0,0.006040054839104414
256.0,0.0063115861266851425
288.0,0.006286293733865023
320.0,0.004927122499793768
352.0,0.003309897379949689
384.0,0.003384131006896496
416.0,0.0030610268004238605
448.0,0.0037562984507530928
480.0,0.0037704166024923325
512.0,0.00255149626173079
576.0,0.0021647994872182608
640.0,0.004080618731677532
704.0,0.004420645534992218
768.0,0.002672438742592931
832.0,0.00010880547051783651
896.0,0.0029863028321415186
960.0,-0.0007526240078732371
1024.0,-0.001299868687056005
1152.0,-0.001321333576925099
1280.0,-0.000578242470510304
1408.0,-0.001832190086133778
1536.0,-0.00321869645267725
1664.0,-0.003941759001463652
1792.0,-0.0045371162705123425
1920.0,-0.002637807745486498
2048.0,-0.0005181143642403185
2304.0,-0.002687980653718114
2560.0,-0.0017374290619045496
2816.0,0.0017107621533796191
3072.0,0.0016677387757226825
3328.0,0.002852131612598896
3584.0,0.004325052723288536
3840.0,0.0015252322191372514
4096.0,0.0007189950556494296
4608.0,-0.003181192558258772
5120.0,-0.0016935296589508653
5632.0,-0.0023885993286967278
6144.0,0.0011781607754528522
6656.0,-0.0014699409948661923
7168.0,0.0034366706386208534
7680.0,-0.009161797352135181
8192.0,-0.010677975602447987
end
