version,3.0
numOfCh,1
type,point
parent_name,c1204_0dot6-0dot01
ch_type,1_1
kcount,1
numberNandB,1
brightnessNandB,1
carpet pos,0
pc,0
Time (ms),CH1 Auto-Correlation
1.0,0.03157186508178711
2.0,0.03044428862631321
3.0,0.029418407008051872
4.0,0.028469739481806755
5.0,0.027591532096266747
6.0,0.026777606457471848
7.0,0.025985755026340485
8.0,0.025252217426896095
9.0,0.024597417563199997
10.0,0.02397320605814457
11.0,0.023387335240840912
12.0,0.022842176258563995
13.0,0.022298403084278107
14.0,0.02174675650894642
15.0,0.02122831903398037
16.0,0.02080126479268074
18.0,0.020020216703414917
20.0,0.019321952015161514
22.0,0.01866231858730316
24.0,0.01806642860174179
26.0,0.01749718002974987
28.0,0.01689598336815834
30.0,0.016280900686979294
32.0,0.01569209434092045
36.0,0.014485305175185204
40.0,0.013365186750888824
44.0,0.01235649548470974
48.0,0.011510668322443962
52.0,0.010985678993165493
56.0,0.010548755526542664
60.0,0.01030812319368124
64.0,0.010018044151365757
72.0,0.009030849672853947
80.0,0.00839170254766941
88.0,0.007909483276307583
96.0,0.00790673028677702
104.0,0.007765875197947025
112.0,0.007458450272679329
120.0,0.007300820201635361
128.0,0.006752347573637962
144.0,0.00638326071202755
160.0,0.0066185202449560165
176.0,0.006633058190345764
192.0,0.006364359986037016
208.0,0.006890126504004002
224.0,0.007625379133969545
240.0,0.007214938290417194
256.0,0.0069001768715679646
288.0,0.00677769910544157
320.0,0.00631304644048214
352.0,0.005264341365545988
384.0,0.004073790740221739
416.0,0.0031115147285163403
448.0,0.003755652578547597
480.0,0.0033491766080260277
512.0,0.004068160895258188
576.0,0.0037004309706389904
640.0,0.002424783306196332
704.0,-3.318177186883986e-05
768.0,-2.254066930618137e-05
832.0,-0.0011154483072459698
896.0,-0.0005075462977401912
960.0,0.000992666115052998
1024.0,2.4010871129576117e-05
1152.0,-0.0019444148056209087
1280.0,-0.0010831248946487904
1408.0,-0.0011823364766314626
1536.0,-0.0003005784237757325
1664.0,-0.0005139576969668269
1792.0,0.0007414311403408647
1920.0,0.0012402940774336457
2048.0,0.0024185117799788713
2304.0,0.0014108286704868078
2560.0,-5.274141949485056e-05
2816.0,-0.0006778029492124915
3072.0,0.000139246039907448
3328.0,0.0003745540452655405
3584.0,-0.00016629834135528654
3840.0,-0.0009807866299524903
4096.0,-0.0009992349660024047
4608.0,-0.001389934215694666
5120.0,-0.0006432507070712745
5632.0,-0.0008501614211127162
6144.0,-0.00021461385767906904
6656.0,-0.0024884429294615984
7168.0,-0.0012715986231341958
7680.0,-0.0003798821708187461
8192.0,-9.58867822191678e-05
end
