version,3.0
numOfCh,1
type,point
parent_name,c1204_0dot6-0dot01
ch_type,1_1
kcount,1
numberNandB,1
brightnessNandB,1
carpet pos,0
pc,0
Time (ms),CH1 Auto-Correlation
1.0,0.02509334683418274
2.0,0.023929709568619728
3.0,0.02286183089017868
4.0,0.0218796543776989
5.0,0.020970284938812256
6.0,0.020142870023846626
7.0,0.019359657540917397
8.0,0.01864895224571228
9.0,0.018008576706051826
10.0,0.01744295470416546
11.0,0.016865888610482216
12.0,0.01635756716132164
13.0,0.01588550955057144
14.0,0.015456517226994038
15.0,0.015051726251840591
16.0,0.014669789932668209
18.0,0.013913340866565704
20.0,0.013174795545637608
22.0,0.01249273307621479
24.0,0.01188086811453104
26.0,0.011409745551645756
28.0,0.011048974469304085
30.0,0.010671461932361126
32.0,0.010276168584823608
36.0,0.009578545577824116
40.0,0.009011030197143555
44.0,0.008461138233542442
48.0,0.007770955096930265
52.0,0.007189872208982706
56.0,0.006692633032798767
60.0,0.006372437346726656
64.0,0.006040947511792183
72.0,0.005597233772277832
80.0,0.00496243080124259
88.0,0.004040226340293884
96.0,0.0036197842564433813
104.0,0.003488146234303713
112.0,0.0037504557985812426
120.0,0.004344806540757418
128.0,0.004710562061518431
144.0,0.004987442400306463
160.0,0.005649895407259464
176.0,0.00517609529197216
192.0,0.004201199393719435
208.0,0.0036765718832612038
224.0,0.00344488606788218
240.0,0.0028986611869186163
256.0,0.002696703653782606
288.0,0.0032413059379905462
320.0,0.002826097421348095
352.0,0.002711330773308873
384.0,0.002400555880740285
416.0,0.0018324623815715313
448.0,0.0018773283809423447
480.0,0.0016446236986666918
512.0,0.0013982339296489954
576.0,-0.0003944978234358132
640.0,-0.0012601084308698773
704.0,-0.0010915737366303802
768.0,-0.0015036140102893114
832.0,-0.0024665396194905043
896.0,-0.0027852728962898254
960.0,-0.0023335351143032312
1024.0,-0.002212952822446823
1152.0,-0.001122080022469163
1280.0,-0.00032667271443642676
1408.0,-0.0002667809894774109
1536.0,-0.00033522190642543137
1664.0,-7.18830997357145e-05
1792.0,0.0003816656244453043
1920.0,-0.0010177948279306293
2048.0,-0.0032358134631067514
2304.0,-0.0025413508992642164
2560.0,-0.00196942244656384
2816.0,0.0006230718572624028
3072.0,0.0015305494889616966
3328.0,0.0025742067955434322
3584.0,0.0013534656027331948
3840.0,0.0009111898834817111
4096.0,0.0007977194618433714
4608.0,-0.0002225578937213868
5120.0,-0.002325628185644746
5632.0,-0.001826773164793849
6144.0,0.0005208877846598625
6656.0,0.0011104014702141285
7168.0,0.0026759400498121977
7680.0,0.0004881028726231307
8192.0,-0.001351886079646647
end
