version,3.0
numOfCh,1
type,point
parent_name,c1204_0dot6-0dot01
ch_type,1_1
kcount,1
numberNandB,1
brightnessNandB,1
carpet pos,0
pc,0
Time (ms),CH1 Auto-Correlation
1.0,0.024206923320889473
2.0,0.02308446541428566
3.0,0.022041216492652893
4.0,0.02107660286128521
5.0,0.02017156593501568
6.0,0.01933015137910843
7.0,0.01856468990445137
8.0,0.017873380333185196
9.0,0.017225895076990128
10.0,0.016622118651866913
11.0,0.016079029068350792
12.0,0.015548908151686192
13.0,0.015018600039184093
14.0,0.01450701430439949
15.0,0.014042949303984642
16.0,0.01364209409803152
18.0,0.012833388522267342
20.0,0.012111403979361057
22.0,0.011482205241918564
24.0,0.010982654988765717
26.0,0.0105214798822999
28.0,0.010086116380989552
30.0,0.009741662070155144
32.0,0.00946737639605999
36.0,0.009050804190337658
40.0,0.008767160587012768
44.0,0.008653425611555576
48.0,0.00832278374582529
52.0,0.007922468706965446
56.0,0.007574629969894886
60.0,0.0070806690491735935
64.0,0.006613530218601227
72.0,0.006055817008018494
80.0,0.005773522425442934
88.0,0.005162684712558985
96.0,0.004411894828081131
104.0,0.004035013262182474
112.0,0.0038470206782221794
120.0,0.0035678620915859938
128.0,0.0028189707081764936
144.0,0.0025100302882492542
160.0,0.0026100813411176205
176.0,0.0020548130851238966
192.0,0.0014130580238997936
208.0,0.0013836263678967953
224.0,0.0008944391156546772
240.0,0.00015786397852934897
256.0,-0.0008052077610045671
288.0,-0.0010154580231755972
320.0,-0.0014759274199604988
352.0,-0.0009298028890043497
384.0,-0.0012329923920333385
416.0,-0.0009486840572208166
448.0,-0.0010388338705524802
480.0,-0.0006262812530621886
512.0,-0.0005568084889091551
576.0,0.0013662627898156643
640.0,0.0011378716444596648
704.0,0.0007718618726357818
768.0,0.0002935947268269956
832.0,-0.0010555622866377234
896.0,-0.0008905419381335378
960.0,-0.0009903773898258805
1024.0,-0.0030632561538368464
1152.0,-0.001480108592659235
1280.0,-0.00048779428470879793
1408.0,-0.0016636853106319904
1536.0,-0.002226540818810463
1664.0,-0.001608043909072876
1792.0,-0.0005485790898092091
1920.0,-1.438881918147672e-05
2048.0,-0.00031860466697253287
2304.0,-0.0003357345995027572
2560.0,0.0004385117208585143
2816.0,0.0015061855083331466
3072.0,0.0019637609366327524
3328.0,0.0011474874336272478
3584.0,-0.001126409973949194
3840.0,-1.58342099894071e-05
4096.0,-0.0004393296840135008
4608.0,-0.0017567049944773316
5120.0,0.000705839425791055
5632.0,0.0003631587896961719
6144.0,0.001479678088799119
6656.0,-0.0005926534649915993
7168.0,-0.0008106837049126625
7680.0,-0.0008350947755388916
8192.0,0.0009697671630419791
end
