version,3.0
numOfCh,1
type,point
parent_name,c1204_0dot6-0dot01
ch_type,1_1
kcount,1
numberNandB,1
brightnessNandB,1
carpet pos,0
pc,0
Time (ms),CH1 Auto-Correlation
1.0,0.023179402574896812
2.0,0.02207224816083908
3.0,0.021040407940745354
4.0,0.020115453749895096
5.0,0.019287552684545517
6.0,0.018536517396569252
7.0,0.017860781401395798
8.0,0.01724499650299549
9.0,0.016679126769304276
10.0,0.016149843111634254
11.0,0.015637734904885292
12.0,0.015142972581088543
13.0,0.01465066708624363
14.0,0.014181479811668396
15.0,0.013738485984504223
16.0,0.01329708006232977
18.0,0.012555318884551525
20.0,0.01183693204075098
22.0,0.01123975869268179
24.0,0.010615390725433826
26.0,0.00997309572994709
28.0,0.009389786049723625
30.0,0.008852754719555378
32.0,0.008253474719822407
36.0,0.007111893035471439
40.0,0.006209176033735275
44.0,0.005540037527680397
48.0,0.005026173312216997
52.0,0.004606019705533981
56.0,0.004361768253147602
60.0,0.004247335251420736
64.0,0.004088726360350847
72.0,0.00414399616420269
80.0,0.0040014274418354034
88.0,0.004092359449714422
96.0,0.0039617340080440044
104.0,0.003641543909907341
112.0,0.003255990333855152
120.0,0.002970597241073847
128.0,0.002933893585577607
144.0,0.0030818283557891846
160.0,0.003272079862654209
176.0,0.0028756880201399326
192.0,0.0023044501431286335
208.0,0.002422963036224246
224.0,0.002537023276090622
240.0,0.002133639995008707
256.0,0.001706245238892734
288.0,0.0014021701645106077
320.0,0.001658348715864122
352.0,0.002298804000020027
384.0,0.0021947624627500772
416.0,0.0012693841708824039
448.0,0.0015769008314236999
480.0,0.0006593760335817933
512.0,0.0015460836002603173
576.0,0.0013523061061277986
640.0,0.0015575418947264552
704.0,0.002100597135722637
768.0,0.0011415230110287666
832.0,0.0010427830275148153
896.0,0.0015658217016607523
960.0,0.001747347880154848
1024.0,0.001517626689746976
1152.0,0.0009897055570036173
1280.0,0.00047403498319908977
1408.0,-0.000732635788153857
1536.0,0.00021083505998831242
1664.0,-0.00018508113862480968
1792.0,0.0005273241549730301
1920.0,-0.0008702027262188494
2048.0,0.0006701059173792601
2304.0,-0.000705032842233777
2560.0,-0.001776574063114822
2816.0,-0.0025540078058838844
3072.0,-0.0021089566871523857
3328.0,-0.0006704186089336872
3584.0,-0.0014994912780821323
3840.0,-0.001191569841466844
4096.0,-0.00038528870209120214
4608.0,-0.0010749322827905416
5120.0,-0.0004513113817665726
5632.0,0.0008835750631988049
6144.0,0.000798375578597188
6656.0,-0.00039085117168724537
7168.0,-9.626129758544266e-05
7680.0,0.00028464323258958757
8192.0,-0.0007278802222572267
end
