version,3.0
numOfCh,1
type,point
parent_name,c1204_0dot6-0dot01
ch_type,1_1
kcount,1
numberNandB,1
brightnessNandB,1
carpet pos,0
pc,0
Time (ms),CH1 Auto-Correlation
1.0,0.02087576687335968
2.0,0.019749348983168602
3.0,0.018725698813796043
4.0,0.017790107056498528
5.0,0.01689767837524414
6.0,0.01608436554670334
7.0,0.015344354324042797
8.0,0.014661476947367191
9.0,0.01401637215167284
10.0,0.013429917395114899
11.0,0.012869763188064098
12.0,0.012332537211477757
13.0,0.011842841282486916
14.0,0.011400628834962845
15.0,0.011001829989254475
16.0,0.010582813061773777
18.0,0.009800364263355732
20.0,0.009124554693698883
22.0,0.008522721007466316
24.0,0.007966801524162292
26.0,0.007410619407892227
28.0,0.006953850854188204
30.0,0.006568267475813627
32.0,0.006300268694758415
36.0,0.005902123637497425
40.0,0.00547502376139164
44.0,0.004974420182406902
48.0,0.004447087645530701
52.0,0.003979170694947243
56.0,0.0036141620948910713
60.0,0.0034065963700413704
64.0,0.003324611810967326
72.0,0.0028636851347982883
80.0,0.002254852559417486
88.0,0.0018323824042454362
96.0,0.0014223204925656319
104.0,0.0013091647997498512
112.0,0.001287807826884091
120.0,0.0013386098435148597
128.0,0.001329062390141189
144.0,0.0013160256203263998
160.0,0.0014560217969119549
176.0,0.0018182303756475449
192.0,0.002097637625411153
208.0,0.001911487546749413
224.0,0.0018980239983648062
240.0,0.0017392694717273116
256.0,0.0008817418711259961
288.0,0.0010423364583402872
320.0,0.0004369632515590638
352.0,0.0008924867724999785
384.0,0.0011027915170416236
416.0,0.0005472649936564267
448.0,0.0003229196590837091
480.0,0.0009771620389074087
512.0,0.0009136675507761538
576.0,-0.00010367183858761564
640.0,-0.0005693187704309821
704.0,-0.00033816794166341424
768.0,0.000810337602160871
832.0,0.001295830705203116
896.0,-2.9309941965038888e-05
960.0,-0.00031993567245081067
1024.0,0.0006993486313149333
1152.0,0.00150296778883785
1280.0,0.001218928024172783
1408.0,0.00033810228342190385
1536.0,-9.15169803192839e-05
1664.0,-0.0003178083570674062
1792.0,-0.00019229965982958674
1920.0,-0.000966606370639056
2048.0,0.00018776646174956113
2304.0,-2.624396438477561e-05
2560.0,-0.001139637897722423
2816.0,-0.0003708191215991974
3072.0,-0.0003087527584284544
3328.0,-0.00030215521110221744
3584.0,0.00016408211376983672
3840.0,-0.001186254434287548
4096.0,-0.0005797624471597373
4608.0,-0.00011031884059775621
5120.0,-0.0006142464117147028
5632.0,4.972102397005074e-05
6144.0,-0.0005827445420436561
6656.0,0.0011257026344537735
7168.0,9.981672337744385e-05
7680.0,-0.00021197950991336256
8192.0,0.001302439020946622
end
