version,3.0
numOfCh,1
type,point
parent_name,c1204_0dot6-0dot01
ch_type,1_1
kcount,1
numberNandB,1
brightnessNandB,1
carpet pos,0
pc,0
Time (ms),CH1 Auto-Correlation
1.0,0.029169751331210136
2.0,0.02809784561395645
3.0,0.02710275910794735
4.0,0.02619592472910881
5.0,0.025342248380184174
6.0,0.024532334879040718
7.0,0.02381490170955658
8.0,0.023148875683546066
9.0,0.022541364654898643
10.0,0.021985052153468132
11.0,0.02145553007721901
12.0,0.020981118083000183
13.0,0.020505735650658607
14.0,0.02007809840142727
15.0,0.0196540430188179
16.0,0.01925424300134182
18.0,0.01855592057108879
20.0,0.01795414462685585
22.0,0.017440857365727425
24.0,0.016963670030236244
26.0,0.01648647151887417
28.0,0.016063136979937553
30.0,0.015606585890054703
32.0,0.01513932179659605
36.0,0.014128207229077816
40.0,0.013130377046763897
44.0,0.012149878777563572
48.0,0.011301442980766296
52.0,0.010655342601239681
56.0,0.010033720172941685
60.0,0.009382040239870548
64.0,0.008880003355443478
72.0,0.007823288440704346
80.0,0.006689822301268578
88.0,0.0056220353581011295
96.0,0.0047560278326272964
104.0,0.004080813843756914
112.0,0.0036883398424834013
120.0,0.0032520152162760496
128.0,0.002673477167263627
144.0,0.0024236252065747976
160.0,0.0024212461430579424
176.0,0.002133773174136877
192.0,0.0012571901315823197
208.0,0.0009759229142218828
224.0,0.0013040720950812101
240.0,0.0017281704349443316
256.0,0.0020661749877035618
288.0,0.0017678121803328395
320.0,0.0018117300933226943
352.0,0.0020085496362298727
384.0,0.0029551417101174593
416.0,0.0022793696261942387
448.0,0.0023542146664112806
480.0,0.002267280360683799
512.0,0.0022212464828044176
576.0,0.0012803549179807305
640.0,0.0026461342349648476
704.0,0.0012290870072320104
768.0,0.0023059509694576263
832.0,0.00358484941534698
896.0,0.002548553515225649
960.0,-0.000584437744691968
1024.0,0.0006276565254665911
1152.0,0.0006058983271941543
1280.0,-0.0006899896543473005
1408.0,-0.00022930624254513532
1536.0,0.001365814940072596
1664.0,-0.00022317735420074314
1792.0,0.0005841878592036664
1920.0,0.0006463089375756681
2048.0,-0.000949891924392432
2304.0,-0.0005241783801466227
2560.0,-0.0008201610180549324
2816.0,6.943802145542577e-05
3072.0,-0.002440579468384385
3328.0,-0.00200608535669744
3584.0,0.002547938609495759
3840.0,-0.0008415391203016043
4096.0,3.9504753658548e-05
4608.0,-0.0013391840038821101
5120.0,0.0002475929504726082
5632.0,5.1016686484217644e-05
6144.0,-0.002677425742149353
6656.0,-0.004010672215372324
7168.0,0.0006668760324828327
7680.0,-0.0005106825265102088
8192.0,-0.002791160484775901
end
