version,3.0
numOfCh,1
type,point
parent_name,c1204_0dot6-0dot01
ch_type,1_1
kcount,1
numberNandB,1
brightnessNandB,1
carpet pos,0
pc,0
Time (ms),CH1 Auto-Correlation
1.0,0.036921918392181396
2.0,0.035553835332393646
3.0,0.03424655273556709
4.0,0.032996293157339096
5.0,0.031892821192741394
6.0,0.03088756650686264
7.0,0.02996250055730343
8.0,0.02909671515226364
9.0,0.028278157114982605
10.0,0.027510814368724823
11.0,0.026815949007868767
12.0,0.02615746296942234
13.0,0.02550751343369484
14.0,0.0248833280056715
15.0,0.024215810000896454
16.0,0.023590167984366417
18.0,0.022206535562872887
20.0,0.021071679890155792
22.0,0.019920608028769493
24.0,0.018810469657182693
26.0,0.01776285655796528
28.0,0.01675102300941944
30.0,0.016363322734832764
32.0,0.016020135954022408
36.0,0.015160318464040756
40.0,0.014348511584103107
44.0,0.013592611998319626
48.0,0.012876068241894245
52.0,0.012317818589508533
56.0,0.011867707595229149
60.0,0.011497369036078453
64.0,0.011232079938054085
72.0,0.010584292933344841
80.0,0.010108002461493015
88.0,0.010302423499524593
96.0,0.010376633144915104
104.0,0.010002519004046917
112.0,0.009695530869066715
120.0,0.00959465280175209
128.0,0.00951745267957449
144.0,0.008442447520792484
160.0,0.007623455487191677
176.0,0.006383584346622229
192.0,0.005210574716329575
208.0,0.004898882005363703
224.0,0.005073504522442818
240.0,0.004686928354203701
256.0,0.004068125505000353
288.0,0.0038638997357338667
320.0,0.0029855663888156414
352.0,0.0022108708508312702
384.0,0.002093856455758214
416.0,0.0009897301206365228
448.0,0.0011919699609279633
480.0,0.0014569835038855672
512.0,0.00015188161341939121
576.0,-0.00018336341599933803
640.0,-3.815995660261251e-05
704.0,-0.00010190375178353861
768.0,0.0018189223483204842
832.0,0.0014051951002329588
896.0,0.0031364280730485916
960.0,0.0019944566302001476
1024.0,0.00287208566442132
1152.0,0.0010417288867756724
1280.0,-0.00022633388289250433
1408.0,3.561541234375909e-05
1536.0,-0.0018384413560852408
1664.0,-0.002211650600656867
1792.0,-0.0016622069524601102
1920.0,-0.0011237232247367501
2048.0,-0.0011893798364326358
2304.0,-0.0003298450028523803
2560.0,0.0016673961654305458
2816.0,0.0016207208391278982
3072.0,0.00034056013100780547
3328.0,-0.0007787409122101963
3584.0,0.00039971983642317355
3840.0,0.0006374596850946546
4096.0,0.0003019194700755179
4608.0,-0.0002659075544215739
5120.0,-0.0013645666185766459
5632.0,-0.0011183384340256453
6144.0,0.0004541209200397134
6656.0,0.00038332288386300206
7168.0,0.0005396681954152882
7680.0,-0.0009137890301644802
8192.0,-0.005522002000361681
end
