version,3.0
numOfCh,1
type,point
parent_name,c1204_0dot6-0dot01
ch_type,1_1
kcount,1
numberNandB,1
brightnessNandB,1
carpet pos,0
pc,0
Time (ms),CH1 Auto-Correlation
1.0,0.021664582192897797
2.0,0.02054169401526451
3.0,0.01953851617872715
4.0,0.018637172877788544
5.0,0.017819669097661972
6.0,0.01708301343023777
7.0,0.016385406255722046
8.0,0.015729200094938278
9.0,0.015112701803445816
10.0,0.014544907957315445
11.0,0.01403131429105997
12.0,0.013550493866205215
13.0,0.013093961402773857
14.0,0.012699115090072155
15.0,0.012334678322076797
16.0,0.011967175640165806
18.0,0.011342579498887062
20.0,0.010772583074867725
22.0,0.010293617844581604
24.0,0.00986199639737606
26.0,0.009390887804329395
28.0,0.008922640234231949
30.0,0.00847125705331564
32.0,0.008153416216373444
36.0,0.007707134820520878
40.0,0.0072472672909498215
44.0,0.006837531458586454
48.0,0.006681130267679691
52.0,0.006554389838129282
56.0,0.0062989359721541405
60.0,0.006123892031610012
64.0,0.005781491287052631
72.0,0.00508800009265542
80.0,0.004585694521665573
88.0,0.0043606143444776535
96.0,0.004028518684208393
104.0,0.0037986941169947386
112.0,0.0033798569347709417
120.0,0.0027686371468007565
128.0,0.0023536861408501863
144.0,0.0017832923913374543
160.0,0.0011974581284448504
176.0,0.0006858872366137803
192.0,0.0005402885726653039
208.0,0.0006270029116421938
224.0,0.0005954080843366683
240.0,0.000696023169439286
256.0,0.0008689983515068889
288.0,0.0007046854007057846
320.0,0.0001094206963898614
352.0,-0.00028589266003109515
384.0,-8.300175977637991e-05
416.0,-0.0008430720190517604
448.0,-0.0006874134414829314
480.0,-0.00018454053497407585
512.0,0.00022946078388486058
576.0,0.0004435995651874691
640.0,0.00040565102244727314
704.0,-0.0002032050397247076
768.0,-8.982674626167864e-05
832.0,-0.0008605336770415306
896.0,-0.0005568598280660808
960.0,-0.0006240523653104901
1024.0,-0.0006705058622173965
1152.0,0.0001502919039921835
1280.0,-0.0011856623459607363
1408.0,-0.0008366822730749846
1536.0,-0.0010953891323879361
1664.0,0.00010638231469783932
1792.0,-0.0006890660151839256
1920.0,-0.00016330683138221502
2048.0,-0.0007461939821951091
2304.0,-0.0004366676148492843
2560.0,-0.00044652214273810387
2816.0,-9.12897739908658e-05
3072.0,-0.0004642339190468192
3328.0,-0.0007723190356045961
3584.0,-0.00018956368148792535
3840.0,3.378051769686863e-05
4096.0,0.0004178845847491175
4608.0,0.001272723195143044
5120.0,0.0009027894702740014
5632.0,-0.0012937500141561031
6144.0,-5.9229628277535085e-06
6656.0,-8.089991752058268e-06
7168.0,-0.0007341027376241982
7680.0,-0.001553241047076881
8192.0,-0.0005494954530149698
9216.0,0.0010175072820857167
10240.0,0.001119964406825602
11264.0,-0.0016542645171284676
12288.0,-0.0008423109538853168
13312.0,0.0013191227335482836
14336.0,0.0003651476581580937
end
