version,3.0
numOfCh,1
type,point
parent_name,c1204_0dot6-0dot01
ch_type,1_1
kcount,1
numberNandB,1
brightnessNandB,1
carpet pos,0
pc,0
Time (ms),CH1 Auto-Correlation
1.0,0.02301155962049961
2.0,0.02188475802540779
3.0,0.020855847746133804
4.0,0.019915957003831863
5.0,0.019049188122153282
6.0,0.018231812864542007
7.0,0.017464082688093185
8.0,0.016774360090494156
9.0,0.01613438129425049
10.0,0.015553265810012817
11.0,0.015045764856040478
12.0,0.014562318101525307
13.0,0.01409410685300827
14.0,0.01368633471429348
15.0,0.013259189203381538
16.0,0.012839024886488914
18.0,0.012015859596431255
20.0,0.011244144290685654
22.0,0.01057960744947195
24.0,0.010002006776630878
26.0,0.009486437775194645
28.0,0.009038833901286125
30.0,0.008607438765466213
32.0,0.008183526806533337
36.0,0.007444459479302168
40.0,0.00703116599470377
44.0,0.0066620963625609875
48.0,0.006131810136139393
52.0,0.005675660911947489
56.0,0.005193631164729595
60.0,0.004822212271392345
64.0,0.004512174520641565
72.0,0.00418103439733386
80.0,0.004064023029059172
88.0,0.0037089346442371607
96.0,0.0034292186610400677
104.0,0.003093249397352338
112.0,0.0031763201113790274
120.0,0.0033660975750535727
128.0,0.0033793470356613398
144.0,0.003014353569597006
160.0,0.002254981081932783
176.0,0.0019568493589758873
192.0,0.0016304359305649996
208.0,0.0015531948301941156
224.0,0.0012596985325217247
240.0,0.0014594540698453784
256.0,0.0008828937425278127
288.0,-0.000611181603744626
320.0,-0.001046554883942008
352.0,-0.0006775349611416459
384.0,-0.0010035912273451686
416.0,-0.000983133795671165
448.0,0.0006858679698780179
480.0,0.001312999171204865
512.0,-0.0004950612201355398
576.0,-0.0008288379176519811
640.0,-0.0007217234233394265
704.0,0.0002579327847342938
768.0,-0.00028511136770248413
832.0,-0.0008950165938585997
896.0,-0.0018402145942673087
960.0,-0.0014313780702650547
1024.0,-0.0008620803127996624
1152.0,0.00023219239665195346
1280.0,0.0002763921220321208
1408.0,-0.0006471225642599165
1536.0,-0.0008073682547546923
1664.0,-0.0003240420774091035
1792.0,0.0003830546629615128
1920.0,0.0004473178123589605
2048.0,0.0002960980636999011
2304.0,0.0014367058174684644
2560.0,-0.0002260276087326929
2816.0,-0.00021925527835264802
3072.0,-0.002358856378123164
3328.0,-0.0006547399098053575
3584.0,0.0018382137641310692
3840.0,8.93188189365901e-05
4096.0,0.00028520493651740253
4608.0,0.00020786543609574437
5120.0,-0.0006038271822035313
5632.0,-0.0010211553890258074
6144.0,-0.0009305378189310431
6656.0,-0.00033565599005669355
7168.0,0.0008776744944043458
7680.0,-0.0005609554937109351
8192.0,0.000317903992254287
9216.0,-0.0002936919336207211
10240.0,-0.0005330636049620807
11264.0,0.000718015362508595
12288.0,0.0008413084433414042
13312.0,-0.0006092237308621407
14336.0,7.910580461611971e-05
end
