version,3.0
numOfCh,1
type,point
parent_name,c1204_0dot6-0dot01
ch_type,1_1
kcount,1
numberNandB,1
brightnessNandB,1
carpet pos,0
pc,0
Time (ms),CH1 Auto-Correlation
1.0,0.5578843951225281
2.0,0.5567929744720459
3.0,0.5557169318199158
4.0,0.5546540021896362
5.0,0.5536575317382812
6.0,0.5527195334434509
7.0,0.5518344640731812
8.0,0.5509637594223022
9.0,0.5501462817192078
10.0,0.5493510365486145
11.0,0.5485721230506897
12.0,0.5478308796882629
13.0,0.547109067440033
14.0,0.5464375615119934
15.0,0.5457773804664612
16.0,0.5451030731201172
18.0,0.5436467528343201
20.0,0.5423651933670044
22.0,0.5411186218261719
24.0,0.5398553013801575
26.0,0.5384790897369385
28.0,0.5369482040405273
30.0,0.5353587865829468
32.0,0.5337876677513123
36.0,0.5307447910308838
40.0,0.5279209613800049
44.0,0.5252686738967896
48.0,0.5228430032730103
52.0,0.5206032991409302
56.0,0.5184971690177917
60.0,0.5166745185852051
64.0,0.5147721767425537
72.0,0.5100381970405579
80.0,0.5067839622497559
88.0,0.5033301115036011
96.0,0.49926725029945374
104.0,0.49573493003845215
112.0,0.49237287044525146
120.0,0.4890737533569336
128.0,0.4861947000026703
144.0,0.4799819588661194
160.0,0.47218048572540283
176.0,0.46391430497169495
192.0,0.45511817932128906
208.0,0.44556230306625366
224.0,0.4340362846851349
240.0,0.4210270047187805
256.0,0.40973660349845886
288.0,0.38900405168533325
320.0,0.367615282535553
352.0,0.34375596046447754
384.0,0.32147422432899475
416.0,0.3019932210445404
448.0,0.287057101726532
480.0,0.2697921097278595
512.0,0.2509630620479584
576.0,0.21756461262702942
640.0,0.20909038186073303
704.0,0.20045211911201477
768.0,0.2057138830423355
832.0,0.21179167926311493
896.0,0.22607456147670746
960.0,0.2379610687494278
1024.0,0.24066369235515594
1152.0,0.24858686327934265
1280.0,0.22523117065429688
1408.0,0.1973455250263214
1536.0,0.14195512235164642
1664.0,0.08700680732727051
1792.0,0.03340653330087662
1920.0,-0.00657986756414175
2048.0,-0.026419471949338913
2304.0,-0.05551481619477272
2560.0,-0.06578733026981354
2816.0,-0.06425414234399796
3072.0,-0.06763837486505508
3328.0,-0.07176708430051804
3584.0,-0.07985957711935043
3840.0,-0.09772959351539612
4096.0,-0.11543602496385574
4608.0,-0.1264205127954483
5120.0,-0.1707654744386673
5632.0,-0.21785320341587067
6144.0,-0.30570244789123535
6656.0,-0.4056941866874695
7168.0,-0.4301902949810028
7680.0,-0.3674700856208801
8192.0,-0.43276965618133545
end
