version,3.0
numOfCh,1
type,point
parent_name,c1204_0dot6-0dot01
ch_type,1_1
kcount,1
numberNandB,1
brightnessNandB,1
carpet pos,0
pc,0
Time (ms),CH1 Auto-Correlation
1.0,0.02040266990661621
2.0,0.01925060525536537
3.0,0.018219122663140297
4.0,0.01730331964790821
5.0,0.01647442765533924
6.0,0.015721827745437622
7.0,0.015002419240772724
8.0,0.014317087829113007
9.0,0.01375508587807417
10.0,0.013246742077171803
11.0,0.01278845127671957
12.0,0.012383470311760902
13.0,0.012009442783892155
14.0,0.011660885065793991
15.0,0.011334131471812725
16.0,0.011035424657166004
18.0,0.010456233285367489
20.0,0.009878273122012615
22.0,0.009328917600214481
24.0,0.008838311769068241
26.0,0.008393427357077599
28.0,0.0079745939001441
30.0,0.007588345557451248
32.0,0.007220699917525053
36.0,0.006390821188688278
40.0,0.005725119262933731
44.0,0.0051680379547178745
48.0,0.0045744506642222404
52.0,0.0039879209361970425
56.0,0.0035927966237068176
60.0,0.003280563047155738
64.0,0.0030617043375968933
72.0,0.0024204221554100513
80.0,0.0019452464766800404
88.0,0.0014824906829744577
96.0,0.0012643199879676104
104.0,0.0011038349475711584
112.0,0.001364119234494865
120.0,0.00165100721642375
128.0,0.0017778008477762341
144.0,0.002245176350697875
160.0,0.002092947717756033
176.0,0.001859311480075121
192.0,0.001622601062990725
208.0,0.0010946671245619655
224.0,3.0212613637559116e-05
240.0,-0.0012290332233533263
256.0,-0.0012284666299819946
288.0,-0.0012110554380342364
320.0,-0.0009891741210594773
352.0,-0.0007412175764329731
384.0,-0.000625431421212852
416.0,2.0855128241237253e-05
448.0,0.0006842290167696774
480.0,-0.0004801094764843583
512.0,-0.0017437998903915286
576.0,-0.000884146080352366
640.0,-0.001240429119206965
704.0,-0.001224449253641069
768.0,-0.00040944782085716724
832.0,0.0005433129845187068
896.0,0.0008672993863001466
960.0,-0.00010935357568087056
1024.0,-0.00011101253039669245
1152.0,-0.0005189303774386644
1280.0,0.00013128755381330848
1408.0,0.00011425959382904693
1536.0,0.0002451168838888407
1664.0,0.0012021235888823867
1792.0,-0.0006910229567438364
1920.0,0.0009850303176790476
2048.0,0.0006382951978594065
2304.0,-0.0007166243158280849
2560.0,-0.001074461149983108
2816.0,-2.211609717051033e-05
3072.0,-7.121448288671672e-05
3328.0,-0.0008396730991080403
3584.0,-0.0006543634226545691
3840.0,-0.0009647273691371083
4096.0,0.0002136873226845637
4608.0,0.00025718510732986033
5120.0,-0.00018431780335959047
5632.0,-0.0007160987006500363
6144.0,0.0005934719811193645
6656.0,0.0011793470475822687
7168.0,8.661261381348595e-05
7680.0,-0.0002510885242372751
8192.0,0.000740181771107018
end
