version,3.0
numOfCh,1
type,point
parent_name,c1204_0dot6-0dot01
ch_type,1_1
kcount,1
numberNandB,1
brightnessNandB,1
carpet pos,0
pc,0
Time (ms),CH1 Auto-Correlation
1.0,0.02022191509604454
2.0,0.01916143111884594
3.0,0.01817641593515873
4.0,0.01730547659099102
5.0,0.016521621495485306
6.0,0.015785979107022285
7.0,0.015110737644135952
8.0,0.014481094665825367
9.0,0.013921186327934265
10.0,0.013388954102993011
11.0,0.012890883721411228
12.0,0.012429662980139256
13.0,0.01198267750442028
14.0,0.011549492366611958
15.0,0.011175122112035751
16.0,0.010817300528287888
18.0,0.01020494382828474
20.0,0.009670332074165344
22.0,0.009182147681713104
24.0,0.008764508180320263
26.0,0.008352413773536682
28.0,0.007933872751891613
30.0,0.007592556066811085
32.0,0.007310851477086544
36.0,0.0068934946320950985
40.0,0.006377518642693758
44.0,0.005937635432928801
48.0,0.005580283235758543
52.0,0.005180905107408762
56.0,0.004869719035923481
60.0,0.00458082091063261
64.0,0.004423764534294605
72.0,0.004068705253303051
80.0,0.003932548221200705
88.0,0.003874617861583829
96.0,0.0038481412921100855
104.0,0.003658511908724904
112.0,0.0035167669411748648
120.0,0.0031853141263127327
128.0,0.0028202091343700886
144.0,0.002464018063619733
160.0,0.0023238444700837135
176.0,0.0021791530307382345
192.0,0.002023909939453006
208.0,0.0010637997183948755
224.0,0.00046785527956672013
240.0,0.0004664312000386417
256.0,0.0009363077697344124
288.0,0.0009459659922868013
320.0,0.001991203287616372
352.0,0.00189257285092026
384.0,0.001666860654950142
416.0,0.0013264151057228446
448.0,0.0016149914590641856
480.0,0.002253560349345207
512.0,0.002166029065847397
576.0,0.001476644305512309
640.0,0.0010533398017287254
704.0,0.0008257771260105073
768.0,0.0002383546088822186
832.0,-0.0003239851212128997
896.0,0.0002495535009074956
960.0,0.0006572636193595827
1024.0,0.0008959373808465898
1152.0,0.0006120874895714223
1280.0,0.00041510543087497354
1408.0,0.0001173472628579475
1536.0,0.00023044859699439257
1664.0,0.0002528727054595947
1792.0,-0.000723443808965385
1920.0,-0.001124521135352552
2048.0,-0.0008843383984640241
2304.0,-0.0011887586442753673
2560.0,-0.0027296163607388735
2816.0,-0.0011067386949434876
3072.0,0.0007749079377390444
3328.0,-0.0001841699267970398
3584.0,7.890676351962611e-05
3840.0,-0.000661668716929853
4096.0,0.0005585247417911887
4608.0,0.0018438651459291577
5120.0,0.0002324920060345903
5632.0,-0.0011714159045368433
6144.0,3.992348865722306e-05
6656.0,-0.0008769703563302755
7168.0,-0.0020619386341422796
7680.0,0.00023008958669379354
8192.0,0.0006804720615036786
end
