version,3.0
numOfCh,1
type,point
parent_name,c1204_0dot6-0dot01
ch_type,1_1
kcount,1
numberNandB,1
brightnessNandB,1
carpet pos,0
pc,0
Time (ms),CH1 Auto-Correlation
1.0,0.08101440966129303
2.0,0.07979492098093033
3.0,0.07866538316011429
4.0,0.07758969813585281
5.0,0.07660800963640213
6.0,0.075693279504776
7.0,0.07479941844940186
8.0,0.07402288913726807
9.0,0.07324770838022232
10.0,0.07249148190021515
11.0,0.07177296280860901
12.0,0.07105877995491028
13.0,0.0703250989317894
14.0,0.06967010349035263
15.0,0.06906981766223907
16.0,0.06849701702594757
18.0,0.06754547357559204
20.0,0.06660953164100647
22.0,0.0657128244638443
24.0,0.06485512107610703
26.0,0.06408028304576874
28.0,0.06343312561511993
30.0,0.06282896548509598
32.0,0.062260378152132034
36.0,0.06095045059919357
40.0,0.05949825048446655
44.0,0.05791586637496948
48.0,0.056481096893548965
52.0,0.055191729217767715
56.0,0.054120566695928574
60.0,0.053538285195827484
64.0,0.05272815376520157
72.0,0.051194872707128525
80.0,0.049306318163871765
88.0,0.04744984209537506
96.0,0.046123016625642776
104.0,0.04459698498249054
112.0,0.04268574342131615
120.0,0.04083739221096039
128.0,0.039778146892786026
144.0,0.03962864354252815
160.0,0.039283301681280136
176.0,0.04000250995159149
192.0,0.041126977652311325
208.0,0.041622862219810486
224.0,0.04141842573881149
240.0,0.041375935077667236
256.0,0.040967945009469986
288.0,0.038143690675497055
320.0,0.03387659415602684
352.0,0.031109174713492393
384.0,0.028254656121134758
416.0,0.026183970272541046
448.0,0.02388838306069374
480.0,0.0241605993360281
512.0,0.025071222335100174
576.0,0.024465322494506836
640.0,0.01900923252105713
704.0,0.013501430861651897
768.0,0.011050383560359478
832.0,0.00758060347288847
896.0,0.0018164607463404536
960.0,-0.0011089361505582929
1024.0,-0.003837643191218376
1152.0,-0.007039633113890886
1280.0,-0.006545311771333218
1408.0,-0.003482773434370756
1536.0,-0.003187617054209113
1664.0,0.00021252516307868063
1792.0,0.0005400407244451344
1920.0,-0.001380785135552287
2048.0,-0.003752869088202715
2304.0,0.0009340969263575971
2560.0,-0.001697595464065671
2816.0,-0.009536233730614185
3072.0,-0.00907958671450615
3328.0,-0.010109999217092991
3584.0,-0.009662948548793793
3840.0,-0.011794816702604294
4096.0,-0.015677914023399353
4608.0,-0.02444894053041935
5120.0,-0.02449156902730465
5632.0,-0.010188406333327293
6144.0,0.007841182872653008
6656.0,0.011237597092986107
7168.0,0.0020894967019557953
end
