version,3.0
numOfCh,1
type,point
parent_name,c1204_0dot6-0dot01
ch_type,1_1
kcount,1
numberNandB,1
brightnessNandB,1
carpet pos,0
pc,0
Time (ms),CH1 Auto-Correlation
1.0,0.023023400455713272
2.0,0.02189604565501213
3.0,0.020825335755944252
4.0,0.01982264593243599
5.0,0.018902253359556198
6.0,0.018044214695692062
7.0,0.017280085012316704
8.0,0.016590556129813194
9.0,0.015976300463080406
10.0,0.01541886106133461
11.0,0.01487814448773861
12.0,0.01434498094022274
13.0,0.013832463882863522
14.0,0.013322963379323483
15.0,0.012873418629169464
16.0,0.012456564232707024
18.0,0.011679171584546566
20.0,0.010966355912387371
22.0,0.010281209833920002
24.0,0.009659155271947384
26.0,0.009064359590411186
28.0,0.00853696372359991
30.0,0.008130076341331005
32.0,0.007792391814291477
36.0,0.007251818664371967
40.0,0.006863786373287439
44.0,0.006419976241886616
48.0,0.006088559050112963
52.0,0.005739583168178797
56.0,0.005427107680588961
60.0,0.005086255259811878
64.0,0.004714739974588156
72.0,0.003934743348509073
80.0,0.0034936927258968353
88.0,0.002769332379102707
96.0,0.0020952345803380013
104.0,0.0021496161352843046
112.0,0.0022863580379635096
120.0,0.002379666082561016
128.0,0.0023169952910393476
144.0,0.0017417364288121462
160.0,0.00197624322026968
176.0,0.0023527564480900764
192.0,0.0025683599524199963
208.0,0.0026325148064643145
224.0,0.0022424834314733744
240.0,0.0015717390924692154
256.0,0.0011450204765424132
288.0,0.0005554464878514409
320.0,0.0005163214518688619
352.0,0.0011291736736893654
384.0,0.0012331082252785563
416.0,0.001257632626220584
448.0,0.0013195046922191978
480.0,0.0010573763865977526
512.0,0.0005206086207181215
576.0,0.0005996919935569167
640.0,-0.0007455656304955482
704.0,-0.0007524878019466996
768.0,-0.0015840164851397276
832.0,-0.002060228493064642
896.0,-0.0013396652648225427
960.0,-0.0017982199788093567
1024.0,-0.003209980670362711
1152.0,-0.0016328300116583705
1280.0,-0.0014293990097939968
1408.0,-0.00044340325985103846
1536.0,-0.0024802712723612785
1664.0,-0.0003348132304381579
1792.0,0.00048817251808941364
1920.0,0.0006414707168005407
2048.0,-5.7743567595025524e-05
2304.0,0.0012405561283230782
2560.0,0.00016879166651051491
2816.0,-0.0011474636849015951
3072.0,-0.00014775258023291826
3328.0,-0.0006813436630181968
3584.0,0.00010284860036335886
3840.0,-0.0003472164971753955
4096.0,-2.8571223083417863e-05
4608.0,0.0005871535395272076
5120.0,-2.5796249246923253e-05
5632.0,-0.00040525643271394074
6144.0,-0.0004242466820869595
6656.0,-0.0002190740779042244
7168.0,0.0006433395901694894
7680.0,0.0006997318123467267
8192.0,-0.001011699321679771
end
