version,3.0
numOfCh,1
type,point
parent_name,c1204_0dot6-0dot01
ch_type,1_1
kcount,1
numberNandB,1
brightnessNandB,1
carpet pos,0
pc,0
Time (ms),CH1 Auto-Correlation
1.0,0.023754889145493507
2.0,0.02262750267982483
3.0,0.021565401926636696
4.0,0.020591188222169876
5.0,0.019708752632141113
6.0,0.01892651803791523
7.0,0.018211081624031067
8.0,0.017521601170301437
9.0,0.01688333787024021
10.0,0.01629815250635147
11.0,0.015799418091773987
12.0,0.015337958000600338
13.0,0.014915100298821926
14.0,0.014535041525959969
15.0,0.014209656044840813
16.0,0.013890371657907963
18.0,0.013328582979738712
20.0,0.012818464078009129
22.0,0.01229061372578144
24.0,0.011781010776758194
26.0,0.01129264384508133
28.0,0.010838236659765244
30.0,0.010447822511196136
32.0,0.010071590542793274
36.0,0.009372979402542114
40.0,0.008605062030255795
44.0,0.008019816130399704
48.0,0.007621206343173981
52.0,0.007349977735430002
56.0,0.007159919012337923
60.0,0.0070188348181545734
64.0,0.006840717047452927
72.0,0.006187985651195049
80.0,0.005350811872631311
88.0,0.00477727921679616
96.0,0.004175618290901184
104.0,0.0037914549466222525
112.0,0.003280831500887871
120.0,0.0030397195369005203
128.0,0.0029983767308294773
144.0,0.0027768576983362436
160.0,0.0028723010327667
176.0,0.0024623367935419083
192.0,0.0023910771124064922
208.0,0.0017202171729877591
224.0,0.00137891445774585
240.0,0.0008097444078885019
256.0,0.0007878640899434686
288.0,0.0010228977771475911
320.0,0.0010745476465672255
352.0,0.0016820626333355904
384.0,0.0017847686540335417
416.0,0.001673518680036068
448.0,0.0006335616926662624
480.0,-0.0007241175044327974
512.0,-0.0008719433099031448
576.0,-0.0014749952824786305
640.0,-0.0026098054368048906
704.0,-0.0014561449643224478
768.0,0.0006535891443490982
832.0,0.0010318080894649029
896.0,0.00014025265409145504
960.0,-0.0016137787606567144
1024.0,-0.0019169881707057357
1152.0,0.0006222295924089849
1280.0,0.0013194854836910963
1408.0,-0.0007853778079152107
1536.0,-0.0004559757362585515
1664.0,-0.00036584914778359234
1792.0,-0.0011807894334197044
1920.0,-0.001145123620517552
2048.0,-0.0009186883107759058
2304.0,-0.0007141245296224952
2560.0,-0.0004020860942546278
2816.0,-0.0012745442800223827
3072.0,-0.00039520562859252095
3328.0,0.0006455330876633525
3584.0,0.0002050787879852578
3840.0,-0.0005275836447253823
4096.0,-0.001978946151211858
4608.0,0.0016607287107035518
5120.0,0.00024989707162603736
5632.0,0.0005079595721326768
6144.0,0.0012886477634310722
6656.0,-0.0013858695747330785
7168.0,8.815164619591087e-05
7680.0,-0.002397537464275956
8192.0,0.0002468435268383473
end
