version,3.0
numOfCh,1
type,point
parent_name,c1204_0dot6-0dot01
ch_type,1_1
kcount,1
numberNandB,1
brightnessNandB,1
carpet pos,0
pc,0
Time (ms),CH1 Auto-Correlation
1.0,0.02447527088224888
2.0,0.02337763085961342
3.0,0.022379964590072632
4.0,0.021464504301548004
5.0,0.020596304908394814
6.0,0.019812889397144318
7.0,0.019082827493548393
8.0,0.018433382734656334
9.0,0.017791662365198135
10.0,0.017209164798259735
11.0,0.016626771539449692
12.0,0.016097355633974075
13.0,0.015590984374284744
14.0,0.015118968673050404
15.0,0.01463489793241024
16.0,0.014218748547136784
18.0,0.013430426828563213
20.0,0.012744038365781307
22.0,0.012136565521359444
24.0,0.011544664390385151
26.0,0.01105505507439375
28.0,0.010582364164292812
30.0,0.01019339170306921
32.0,0.009776320308446884
36.0,0.009083651937544346
40.0,0.008460643701255322
44.0,0.007772892247885466
48.0,0.007174997124820948
52.0,0.006533318664878607
56.0,0.0060287476517260075
60.0,0.005586686544120312
64.0,0.005213063210248947
72.0,0.0050616636872291565
80.0,0.004927255678921938
88.0,0.004582992289215326
96.0,0.004146995954215527
104.0,0.003447002964094281
112.0,0.002574792830273509
120.0,0.0020849304273724556
128.0,0.002019821433350444
144.0,0.0018459557322785258
160.0,0.0012718170182779431
176.0,0.0009054777328856289
192.0,0.00035354780266061425
208.0,0.00022200375678949058
224.0,-3.3790561246860307e-06
240.0,-0.00019651300681289285
256.0,0.00023918668739497662
288.0,-0.0002172573731513694
320.0,-0.0003386377065908164
352.0,-2.799366120598279e-05
384.0,-0.0004106762644369155
416.0,-0.00033170395181514323
448.0,-0.00031929140095598996
480.0,-0.0015414534136652946
512.0,-0.0009732969920150936
576.0,-0.0010489227715879679
640.0,-0.0010044369846582413
704.0,-0.0006932600517757237
768.0,-0.0011896551586687565
832.0,-0.0009950293460860848
896.0,0.00037461568717844784
960.0,0.00041492265881970525
1024.0,0.0005980203277431428
1152.0,-0.00016479642363265157
1280.0,-0.0012818443356081843
1408.0,0.00034723529824987054
1536.0,1.9161830095981713e-06
1664.0,-9.939196024788544e-05
1792.0,0.0006797118694521487
1920.0,0.0017975898226723075
2048.0,0.0011671074898913503
2304.0,-0.0011084243888035417
2560.0,0.0008391214651055634
2816.0,-3.773695061681792e-05
3072.0,-0.0004662088758777827
3328.0,-0.0010629304451867938
3584.0,-2.5350428245474177e-07
3840.0,0.0011863374384120107
4096.0,0.0007510905852541327
4608.0,-0.0001781381288310513
5120.0,-0.00023959264217410237
5632.0,-0.0014225842896848917
6144.0,-0.00019643126870505512
6656.0,0.0008846342680044472
7168.0,-0.0012234194437041879
7680.0,0.00045945707825012505
8192.0,0.0004942255327478051
end
