version,3.0
numOfCh,1
type,point
parent_name,c1204_0dot6-0dot01
ch_type,1_1
kcount,1
numberNandB,1
brightnessNandB,1
carpet pos,0
pc,0
Time (ms),CH1 Auto-Correlation
1.0,0.024881480261683464
2.0,0.023745248094201088
3.0,0.022742636501789093
4.0,0.02180412970483303
5.0,0.020943377166986465
6.0,0.020161878317594528
7.0,0.019420143216848373
8.0,0.018685221672058105
9.0,0.018021006137132645
10.0,0.017417272552847862
11.0,0.01686318963766098
12.0,0.01635989546775818
13.0,0.01591614820063114
14.0,0.01549659762531519
15.0,0.015133917331695557
16.0,0.01477366778999567
18.0,0.014110906049609184
20.0,0.013502145186066628
22.0,0.013011785224080086
24.0,0.01255147997289896
26.0,0.012153081595897675
28.0,0.011783496476709843
30.0,0.011489043943583965
32.0,0.011297548189759254
36.0,0.010998718440532684
40.0,0.010551726445555687
44.0,0.010078482329845428
48.0,0.009594828821718693
52.0,0.009055590257048607
56.0,0.008580106310546398
60.0,0.008216272108256817
64.0,0.007839436642825603
72.0,0.007333348970860243
80.0,0.007068750914186239
88.0,0.006765941623598337
96.0,0.006420982535928488
104.0,0.006053790915757418
112.0,0.005866978783160448
120.0,0.005792960524559021
128.0,0.005950672086328268
144.0,0.006054051220417023
160.0,0.005851014982908964
176.0,0.006172206252813339
192.0,0.006210721097886562
208.0,0.006490813568234444
224.0,0.006758248433470726
240.0,0.006364021450281143
256.0,0.005771835334599018
288.0,0.005639511626213789
320.0,0.00495025422424078
352.0,0.004068825859576464
384.0,0.003913071472197771
416.0,0.003474258119240403
448.0,0.0033530229702591896
480.0,0.003932918421924114
512.0,0.003617206821218133
576.0,0.00256360019557178
640.0,0.002333332784473896
704.0,0.0019126455299556255
768.0,0.002532397396862507
832.0,0.0016449836548417807
896.0,0.0004394994175527245
960.0,0.0009228205308318138
1024.0,0.001416867016814649
1152.0,0.0009644135134294629
1280.0,0.00029795640148222446
1408.0,-0.00014797861513216048
1536.0,-0.0006571051198989153
1664.0,-0.0017455085180699825
1792.0,-0.0027020906563848257
1920.0,-0.003454175777733326
2048.0,-0.004936533980071545
2304.0,-0.00468064658343792
2560.0,-0.0036612905096262693
2816.0,-0.002320753177627921
3072.0,-0.0023438248317688704
3328.0,-0.0009720911039039493
3584.0,0.0009989953832700849
3840.0,0.0007748894859105349
4096.0,0.0011236629216000438
4608.0,0.002030702540650964
5120.0,0.0011818623170256615
5632.0,-0.0010401388863101602
6144.0,-0.002576878061518073
6656.0,-0.0018572243861854076
7168.0,-0.00028934795409440994
7680.0,0.0009584519430063665
8192.0,0.0032154598738998175
end
