version,3.0
numOfCh,1
type,point
parent_name,c1204_0dot6-0dot01
ch_type,1_1
kcount,1
numberNandB,1
brightnessNandB,1
carpet pos,0
pc,0
Time (ms),CH1 Auto-Correlation
1.0,0.02516883797943592
2.0,0.02407880127429962
3.0,0.023073088377714157
4.0,0.02213800512254238
5.0,0.02130669169127941
6.0,0.020596647635102272
7.0,0.019935965538024902
8.0,0.019327357411384583
9.0,0.018726607784628868
10.0,0.018170036375522614
11.0,0.017652329057455063
12.0,0.017157088965177536
13.0,0.016699697822332382
14.0,0.0162796787917614
15.0,0.015890086069703102
16.0,0.0154923340305686
18.0,0.014794517308473587
20.0,0.014163940213620663
22.0,0.013637279160320759
24.0,0.013096543960273266
26.0,0.012560336850583553
28.0,0.012079305946826935
30.0,0.011685189791023731
32.0,0.011316089890897274
36.0,0.01066427119076252
40.0,0.009979825466871262
44.0,0.00928425695747137
48.0,0.008666068315505981
52.0,0.00807944405823946
56.0,0.007477544713765383
60.0,0.007044357247650623
64.0,0.006578909233212471
72.0,0.005824351217597723
80.0,0.005317697301506996
88.0,0.0048882560804486275
96.0,0.004688703455030918
104.0,0.004697782453149557
112.0,0.004344964399933815
120.0,0.0037890681996941566
128.0,0.003145881462842226
144.0,0.0028202214743942022
160.0,0.002095722360536456
176.0,0.0016039584297686815
192.0,0.0012012169463559985
208.0,0.0010589075973257422
224.0,0.0004232904175296426
240.0,-0.00048224881174974144
256.0,-0.0005796421319246292
288.0,-0.0003014015965163708
320.0,-0.0004047774709761143
352.0,0.0004743764875456691
384.0,0.00019211828475818038
416.0,-0.0004996358184143901
448.0,6.491760723292828e-05
480.0,0.00025291412021033466
512.0,0.00013377687719184905
576.0,0.0013616802170872688
640.0,0.0010788269573822618
704.0,0.001608064747415483
768.0,0.0007656944217160344
832.0,-0.000277031387668103
896.0,-0.0019072324503213167
960.0,-0.0011338409967720509
1024.0,0.00014638918219134212
1152.0,2.2602476747124456e-05
1280.0,0.00023508915910497308
1408.0,-0.0008857163484208286
1536.0,-0.0029670088551938534
1664.0,-0.0034947851672768593
1792.0,-0.002518161665648222
1920.0,5.078267349745147e-05
2048.0,0.0005193083779886365
2304.0,-0.0019427839433774352
2560.0,-0.0011289224494248629
2816.0,0.0005114619270898402
3072.0,0.001118907704949379
3328.0,0.000527739233803004
3584.0,-0.0002207909565186128
3840.0,0.0012504489859566092
4096.0,0.0014261516043916345
4608.0,-0.0004065904358867556
5120.0,0.0006205285899341106
5632.0,-0.002626256551593542
6144.0,-0.0009105317294597626
6656.0,-0.002768527250736952
7168.0,0.002307816408574581
7680.0,0.0014245264464989305
8192.0,0.0029141020495444536
end
