version,3.0
numOfCh,1
type,point
parent_name,34766_0dot4-0dot01
ch_type,1_1
kcount,1
numberNandB,1
brightnessNandB,1
carpet pos,0
pc,0
Time (ms),CH1 Auto-Correlation
1.0,0.030668042600154877
2.0,0.029601972550153732
3.0,0.028592444956302643
4.0,0.02765839360654354
5.0,0.026740748435258865
6.0,0.025888191536068916
7.0,0.025066450238227844
8.0,0.024269193410873413
9.0,0.023526111617684364
10.0,0.022836970165371895
11.0,0.022196022793650627
12.0,0.021541457623243332
13.0,0.020920630544424057
14.0,0.020326662808656693
15.0,0.019687727093696594
16.0,0.0190847497433424
18.0,0.01805093325674534
20.0,0.01703202724456787
22.0,0.01609574630856514
24.0,0.015268865041434765
26.0,0.014480826444923878
28.0,0.013848280534148216
30.0,0.013292502611875534
32.0,0.01271106768399477
36.0,0.01158458273857832
40.0,0.0105756726115942
44.0,0.009609716944396496
48.0,0.008661016821861267
52.0,0.007898271083831787
56.0,0.0076602487824857235
60.0,0.007590998895466328
64.0,0.007276860065758228
72.0,0.006622924469411373
80.0,0.005997477564960718
88.0,0.005578102543950081
96.0,0.005462070927023888
104.0,0.004975571762770414
112.0,0.0038584531284868717
120.0,0.0028431734535843134
128.0,0.002211442217230797
144.0,0.0016545125981792808
160.0,0.0017302918713539839
176.0,0.002039250684902072
192.0,0.002505601616576314
208.0,0.0024074737448245287
224.0,0.0026106766890734434
240.0,0.003058716654777527
256.0,0.003753643948584795
288.0,0.003683236427605152
320.0,0.0018478401470929384
352.0,0.0002846387797035277
384.0,-0.0007311008521355689
416.0,-0.0009951115353032947
448.0,-0.0007942105876281857
480.0,0.0001499150530435145
512.0,0.00217786175198853
576.0,0.0008581591537222266
640.0,0.0015030686045065522
704.0,-0.0005090483464300632
768.0,-0.002072296803817153
832.0,-0.0010322814341634512
896.0,0.0007116126362234354
960.0,0.0007109272410161793
1024.0,-7.579027442261577e-05
1152.0,-0.001747051370330155
1280.0,-2.4316103008459322e-05
1408.0,-0.0035149971954524517
1536.0,0.00044332596007734537
1664.0,-0.003040847834199667
1792.0,-0.0012274052714928985
1920.0,-0.002779437694698572
2048.0,-0.001678704866208136
2304.0,-0.0004730867804028094
2560.0,-0.0014542728895321488
2816.0,-7.741455920040607e-05
3072.0,-0.0002424967533443123
3328.0,-0.0002974629169330001
3584.0,0.0005175390397198498
3840.0,-0.000565946742426604
4096.0,-0.00043471637764014304
4608.0,0.0012691125739365816
5120.0,0.0026889799628406763
5632.0,2.4697934350115247e-05
6144.0,-0.003313796129077673
6656.0,6.242359813768417e-05
7168.0,-0.002304412191733718
7680.0,0.0003723918052855879
8192.0,0.0025877051521092653
end
