version,3.0
numOfCh,1
type,point
parent_name,34766_0dot4-0dot01
ch_type,1_1
kcount,1
numberNandB,1
brightnessNandB,1
carpet pos,0
pc,0
Time (ms),CH1 Auto-Correlation
1.0,0.03820135444402695
2.0,0.03707066550850868
3.0,0.036018192768096924
4.0,0.03497566282749176
5.0,0.03398972749710083
6.0,0.033051930367946625
7.0,0.03218858316540718
8.0,0.031346771866083145
9.0,0.030553771182894707
10.0,0.029821913689374924
11.0,0.02913423255085945
12.0,0.028500523418188095
13.0,0.027896234765648842
14.0,0.027309877797961235
15.0,0.02671262063086033
16.0,0.02615809068083763
18.0,0.025091221556067467
20.0,0.024137098342180252
22.0,0.023226341232657433
24.0,0.022314826026558876
26.0,0.021480055525898933
28.0,0.02076232247054577
30.0,0.020088214427232742
32.0,0.01951509714126587
36.0,0.018533378839492798
40.0,0.017673516646027565
44.0,0.01688084378838539
48.0,0.01607617549598217
52.0,0.015453367494046688
56.0,0.01506152842193842
60.0,0.014671523123979568
64.0,0.014234399423003197
72.0,0.01336680818349123
80.0,0.0129331573843956
88.0,0.012079961597919464
96.0,0.01121011283248663
104.0,0.010494502261281013
112.0,0.010129494592547417
120.0,0.010132635943591595
128.0,0.009681903757154942
144.0,0.008693281561136246
160.0,0.008423245511949062
176.0,0.007742250803858042
192.0,0.0069748652167618275
208.0,0.006930862087756395
224.0,0.0073227426037192345
240.0,0.007574914488941431
256.0,0.007760311476886272
288.0,0.00837696623057127
320.0,0.007884720340371132
352.0,0.008198822848498821
384.0,0.008941796608269215
416.0,0.008465605787932873
448.0,0.006378095131367445
480.0,0.0041688731871545315
512.0,0.00428901519626379
576.0,0.005017959512770176
640.0,0.007093276362866163
704.0,0.007406283635646105
768.0,0.005378040485084057
832.0,0.0034719426184892654
896.0,0.0013946454273536801
960.0,0.0016833310946822166
1024.0,0.002977384254336357
1152.0,0.00048203926417045295
1280.0,-0.0004250833299010992
1408.0,0.0024210764095187187
1536.0,-0.0009664349490776658
1664.0,-0.0028461292386054993
1792.0,0.000355245458194986
1920.0,-0.0003645544347818941
2048.0,-0.0017655390547588468
2304.0,-0.004573040176182985
2560.0,-0.004451952874660492
2816.0,-0.0038596598897129297
3072.0,-0.005390239879488945
3328.0,-0.002182398224249482
3584.0,-0.003358455840498209
3840.0,-0.002086568158119917
4096.0,-0.0008725110674276948
4608.0,0.0005868571461178362
5120.0,0.0033280658535659313
5632.0,0.002622108208015561
6144.0,-0.001352560007944703
6656.0,-0.00184926250949502
7168.0,-0.001403429894708097
7680.0,-0.0008347190450876951
8192.0,-0.00010777073475765064
end
