version,3.0
numOfCh,1
type,point
parent_name,34766_0dot4-0dot01
ch_type,1_1
kcount,1
numberNandB,1
brightnessNandB,1
carpet pos,0
pc,0
Time (ms),CH1 Auto-Correlation
1.0,0.033864982426166534
2.0,0.03269762918353081
3.0,0.03162141144275665
4.0,0.030592866241931915
5.0,0.029636191204190254
6.0,0.028746191412210464
7.0,0.02790261059999466
8.0,0.02709229290485382
9.0,0.026330024003982544
10.0,0.02558024227619171
11.0,0.024858731776475906
12.0,0.024181252345442772
13.0,0.02353709377348423
14.0,0.02292581833899021
15.0,0.022354166954755783
16.0,0.021810440346598625
18.0,0.020815152674913406
20.0,0.019891712814569473
22.0,0.0190252885222435
24.0,0.018228240311145782
26.0,0.017428657039999962
28.0,0.01662631146609783
30.0,0.01592538133263588
32.0,0.015277400612831116
36.0,0.014087178744375706
40.0,0.013075483031570911
44.0,0.012146851979196072
48.0,0.01145084947347641
52.0,0.010744436644017696
56.0,0.010114649310708046
60.0,0.009580082260072231
64.0,0.009178646840155125
72.0,0.008518860675394535
80.0,0.008089366368949413
88.0,0.007777730468660593
96.0,0.007453326601535082
104.0,0.006938739214092493
112.0,0.006727824918925762
120.0,0.006333743687719107
128.0,0.005216950550675392
144.0,0.003614414017647505
160.0,0.002598916180431843
176.0,0.0015920511214062572
192.0,0.000997197930701077
208.0,0.0010752067901194096
224.0,0.0011800361098721623
240.0,0.0012916941195726395
256.0,0.0015758431982249022
288.0,0.0020362420473247766
320.0,0.002984310733154416
352.0,0.001979317283257842
384.0,0.001068077515810728
416.0,0.00018494165851734579
448.0,0.001714822486974299
480.0,0.0019850856624543667
512.0,0.002255405765026808
576.0,0.00306832417845726
640.0,0.003323362208902836
704.0,0.0008895944338291883
768.0,0.0006074190023355186
832.0,0.0014462623512372375
896.0,0.0018468538764864206
960.0,0.001724408590234816
1024.0,0.00036500804708339274
1152.0,-0.0006419094279408455
1280.0,-0.001876237103715539
1408.0,-0.0009086778736673295
1536.0,4.366505891084671e-05
1664.0,5.425390918389894e-05
1792.0,-0.0019046852830797434
1920.0,-0.002463439479470253
2048.0,-0.0009835377568379045
2304.0,0.001480716746300459
2560.0,0.0021537221036851406
2816.0,0.001310136285610497
3072.0,0.0005841431557200849
3328.0,0.0032590022310614586
3584.0,0.0006792135536670685
3840.0,-0.0009557082667015493
4096.0,-0.0005699590547010303
4608.0,-0.0012326946016401052
5120.0,-0.0016983425011858344
5632.0,6.084868073230609e-05
6144.0,0.0004160832322668284
6656.0,0.0023336331360042095
7168.0,-2.428538937238045e-05
7680.0,-0.0015537859871983528
8192.0,-0.0028275703079998493
end
