version,3.0
numOfCh,1
type,point
parent_name,34766_0dot4-0dot01
ch_type,1_1
kcount,1
numberNandB,1
brightnessNandB,1
carpet pos,0
pc,0
Time (ms),CH1 Auto-Correlation
1.0,0.03073052316904068
2.0,0.02955763228237629
3.0,0.028473233804106712
4.0,0.027455458417534828
5.0,0.026495765894651413
6.0,0.025603225454688072
7.0,0.02474045939743519
8.0,0.023883163928985596
9.0,0.02304784581065178
10.0,0.02226877212524414
11.0,0.02159029059112072
12.0,0.020959481596946716
13.0,0.020367996767163277
14.0,0.019844211637973785
15.0,0.01938001997768879
16.0,0.0189158096909523
18.0,0.018163040280342102
20.0,0.017508607357740402
22.0,0.01681242510676384
24.0,0.01611570455133915
26.0,0.015549883246421814
28.0,0.015104115009307861
30.0,0.014675496146082878
32.0,0.014278603717684746
36.0,0.01345082651823759
40.0,0.012635620310902596
44.0,0.011929929256439209
48.0,0.011293511837720871
52.0,0.010669564828276634
56.0,0.010136116296052933
60.0,0.009694648906588554
64.0,0.009342522360384464
72.0,0.008845956064760685
80.0,0.008349291048943996
88.0,0.007858744822442532
96.0,0.0074178846552968025
104.0,0.006888955365866423
112.0,0.006405442021787167
120.0,0.005743272602558136
128.0,0.0049251955933868885
144.0,0.004393772687762976
160.0,0.0037321187555789948
176.0,0.003102470887824893
192.0,0.0018438284751027822
208.0,0.0011866516433656216
224.0,0.0010105828987434506
240.0,0.0012900892179459333
256.0,0.0012755452189594507
288.0,0.0023762385826557875
320.0,0.002165555953979492
352.0,0.0007927637780085206
384.0,0.0006271122838370502
416.0,0.0003817506367340684
448.0,0.00023694422270637006
480.0,-0.00011189818906132132
512.0,-0.0007108022691681981
576.0,-0.0009188383701257408
640.0,-0.0017330737318843603
704.0,-0.002489559818059206
768.0,-0.001602201722562313
832.0,-0.0008409704896621406
896.0,-0.0009634189773350954
960.0,-0.002216371474787593
1024.0,-0.0012227166444063187
1152.0,-0.0019465843215584755
1280.0,-0.001901449402794242
1408.0,-0.0012772672343999147
1536.0,0.0008402109961025417
1664.0,0.0024813679046928883
1792.0,0.0012317595537751913
1920.0,-0.00040219235233962536
2048.0,-0.00010638694220688194
2304.0,0.0006643194356001914
2560.0,-0.0021476885303854942
2816.0,-0.00350890657864511
3072.0,-0.0006491095991805196
3328.0,-0.001782854087650776
3584.0,-0.0011345043312758207
3840.0,5.269216126180254e-05
4096.0,0.0011486458824947476
4608.0,0.0007480658823624253
5120.0,-0.0004751619417220354
5632.0,-0.0016113638412207365
6144.0,0.0016772112576290965
6656.0,0.0012762335827574134
7168.0,-0.0021986726205796003
7680.0,0.00019476746092550457
8192.0,0.0025352949742227793
end
