version,3.0
numOfCh,1
type,point
parent_name,34766_0dot4-0dot01
ch_type,1_1
kcount,1
numberNandB,1
brightnessNandB,1
carpet pos,0
pc,0
Time (ms),CH1 Auto-Correlation
1.0,0.0491022914648056
2.0,0.0479864738881588
3.0,0.0469370074570179
4.0,0.04594430327415466
5.0,0.044975630939006805
6.0,0.04405226558446884
7.0,0.043189454823732376
8.0,0.04242771118879318
9.0,0.04170195758342743
10.0,0.04100901260972023
11.0,0.040337372571229935
12.0,0.03970012813806534
13.0,0.0390927754342556
14.0,0.03848450258374214
15.0,0.03788713365793228
16.0,0.0373307429254055
18.0,0.03625528886914253
20.0,0.035274166613817215
22.0,0.0343979187309742
24.0,0.03360823914408684
26.0,0.03289341554045677
28.0,0.03227334842085838
30.0,0.0317048616707325
32.0,0.031119516119360924
36.0,0.02986922673881054
40.0,0.028706952929496765
44.0,0.02777731418609619
48.0,0.02707689441740513
52.0,0.026284636929631233
56.0,0.025282112881541252
60.0,0.02437678724527359
64.0,0.023377424106001854
72.0,0.021390795707702637
80.0,0.019863277673721313
88.0,0.018609914928674698
96.0,0.017319435253739357
104.0,0.016404082998633385
112.0,0.015392588451504707
120.0,0.014758448116481304
128.0,0.014177574776113033
144.0,0.01278467383235693
160.0,0.012398329563438892
176.0,0.012742347083985806
192.0,0.011629588901996613
208.0,0.010847997851669788
224.0,0.010403545573353767
240.0,0.01005755364894867
256.0,0.008291397243738174
288.0,0.006548956967890263
320.0,0.005354583729058504
352.0,0.0037990419659763575
384.0,0.0023492309264838696
416.0,0.002340177772566676
448.0,0.002206372795626521
480.0,0.0007902014185674489
512.0,0.0014545540325343609
576.0,0.00043871221714653075
640.0,-0.0008318552863784134
704.0,-0.0009408392361365259
768.0,-0.002288772724568844
832.0,-0.0037734105717390776
896.0,-0.0038857865147292614
960.0,-0.005796900484710932
1024.0,-0.006759807001799345
1152.0,-0.007520789746195078
1280.0,-0.008655569516122341
1408.0,-0.00425126776099205
1536.0,0.0017385364044457674
1664.0,0.0040195598267018795
1792.0,0.0017635711701586843
1920.0,0.0012382532004266977
2048.0,0.0017529213801026344
2304.0,-0.0002144900499843061
2560.0,0.0016124665271490812
2816.0,0.0004632759664673358
3072.0,0.0015913929091766477
3328.0,0.0038885322865098715
3584.0,0.0016338771674782038
3840.0,-0.0018808492459356785
4096.0,-0.0031818437855690718
4608.0,-0.005924279801547527
5120.0,-0.0017127518076449633
5632.0,0.0042268140241503716
6144.0,-0.0007805514032952487
6656.0,-0.00677758501842618
7168.0,0.0030438536778092384
7680.0,-0.0015234405873343349
8192.0,-0.011895518749952316
end
