version,3.0
numOfCh,1
type,point
parent_name,34766_0dot4-0dot01
ch_type,1_1
kcount,1
numberNandB,1
brightnessNandB,1
carpet pos,0
pc,0
Time (ms),CH1 Auto-Correlation
1.0,0.5183435082435608
2.0,0.5167466998100281
3.0,0.5151658654212952
4.0,0.5136252045631409
5.0,0.5121335387229919
6.0,0.5105671286582947
7.0,0.5090179443359375
8.0,0.507513165473938
9.0,0.5061072707176208
10.0,0.5047091245651245
11.0,0.5033473968505859
12.0,0.5020090341567993
13.0,0.5006991624832153
14.0,0.49935293197631836
15.0,0.49806514382362366
16.0,0.496761679649353
18.0,0.49356043338775635
20.0,0.49093738198280334
22.0,0.4881684482097626
24.0,0.48535409569740295
26.0,0.48230934143066406
28.0,0.4793582260608673
30.0,0.4765388071537018
32.0,0.4736384451389313
36.0,0.46771040558815
40.0,0.46184036135673523
44.0,0.4560711085796356
48.0,0.45048293471336365
52.0,0.44469842314720154
56.0,0.43859732151031494
60.0,0.4324488937854767
64.0,0.4262787997722626
72.0,0.41007766127586365
80.0,0.3978341519832611
88.0,0.38485297560691833
96.0,0.37220078706741333
104.0,0.3599969744682312
112.0,0.3478566110134125
120.0,0.335536390542984
128.0,0.3221089839935303
144.0,0.2951616942882538
160.0,0.2679888606071472
176.0,0.24171431362628937
192.0,0.21460047364234924
208.0,0.1895565390586853
224.0,0.16676220297813416
240.0,0.14350806176662445
256.0,0.12155202776193619
288.0,0.06165538355708122
320.0,0.03748701512813568
352.0,0.03800468519330025
384.0,0.042502302676439285
416.0,0.04702919349074364
448.0,0.04869047552347183
480.0,0.05123043432831764
512.0,0.055322468280792236
576.0,0.057157788425683975
640.0,0.05518224090337753
704.0,0.041202519088983536
768.0,0.033763397485017776
832.0,0.023705516010522842
896.0,0.022393474355340004
960.0,0.022182777523994446
1024.0,0.018016312271356583
1152.0,0.010746348649263382
1280.0,-0.006306252907961607
1408.0,-0.014729857444763184
1536.0,-0.0035987638402730227
1664.0,0.00031825259793549776
1792.0,-0.01184603851288557
1920.0,-0.010148337110877037
2048.0,-0.00033032766077667475
2304.0,0.003000053111463785
2560.0,-0.00379014341160655
2816.0,-0.005878995172679424
3072.0,0.0022039422765374184
3328.0,0.019911091774702072
3584.0,0.007663538679480553
3840.0,-0.021175744011998177
4096.0,0.0048163519240915775
4608.0,-0.0397418774664402
5120.0,-0.019683146849274635
5632.0,-0.011109990067780018
6144.0,0.0007659726543352008
6656.0,0.008671658113598824
7168.0,-0.02509121596813202
7680.0,-0.04884548857808113
8192.0,-0.013037986122071743
end
