version,3.0
numOfCh,1
type,point
parent_name,34766_0dot4-0dot01
ch_type,1_1
kcount,1
numberNandB,1
brightnessNandB,1
carpet pos,0
pc,0
Time (ms),CH1 Auto-Correlation
1.0,0.03478255495429039
2.0,0.03374314308166504
3.0,0.03276875615119934
4.0,0.0318400114774704
5.0,0.03098439611494541
6.0,0.030177565291523933
7.0,0.029412515461444855
8.0,0.028697479516267776
9.0,0.02798389457166195
10.0,0.02729387767612934
11.0,0.026616064831614494
12.0,0.025982115417718887
13.0,0.0253756083548069
14.0,0.02476956881582737
15.0,0.024165445938706398
16.0,0.023584311828017235
18.0,0.02243581786751747
20.0,0.021361783146858215
22.0,0.0203693900257349
24.0,0.019461406394839287
26.0,0.018561678007245064
28.0,0.01775665581226349
30.0,0.017049577087163925
32.0,0.016382722184062004
36.0,0.015332803130149841
40.0,0.014514167793095112
44.0,0.013801578432321548
48.0,0.013055424205958843
52.0,0.01235711108893156
56.0,0.011674963869154453
60.0,0.011024128645658493
64.0,0.01040011364966631
72.0,0.009388355538249016
80.0,0.008783114142715931
88.0,0.008643662557005882
96.0,0.008806060068309307
104.0,0.008606539107859135
112.0,0.00818725023418665
120.0,0.00785847008228302
128.0,0.007595190312713385
144.0,0.007167067378759384
160.0,0.007329908199608326
176.0,0.006906204391270876
192.0,0.006134861148893833
208.0,0.005348054226487875
224.0,0.005392573773860931
240.0,0.005580637138336897
256.0,0.005990312900394201
288.0,0.006086787208914757
320.0,0.005757294595241547
352.0,0.004202494863420725
384.0,0.004130195826292038
416.0,0.00470401905477047
448.0,0.005513887386769056
480.0,0.004718011245131493
512.0,0.003972823731601238
576.0,0.002557130763307214
640.0,2.5836097847786732e-05
704.0,0.0004075289180036634
768.0,0.0008432417525909841
832.0,0.0009908807696774602
896.0,0.0032554215285927057
960.0,-0.0007450032862834632
1024.0,-0.0022697208914905787
1152.0,-0.00227918429300189
1280.0,-0.002376306103542447
1408.0,-0.003975181840360165
1536.0,-0.0029847086407244205
1664.0,-0.002014150843024254
1792.0,-0.0010058304760605097
1920.0,-0.0032917289063334465
2048.0,-0.002103458857163787
2304.0,0.0006024637841619551
2560.0,0.0031654222402721643
2816.0,-0.0008192675304599106
3072.0,-0.00041058610077016056
3328.0,0.00020734370627906173
3584.0,0.000907463429030031
3840.0,0.0005016665672883391
4096.0,0.0016816999996080995
4608.0,0.0010596899082884192
5120.0,-0.00019169386359862983
5632.0,-0.001142809633165598
6144.0,-0.002597569953650236
6656.0,-0.004653011914342642
7168.0,-0.006895802449434996
7680.0,-0.0010670899646356702
8192.0,0.005458645522594452
end
