version,3.0
numOfCh,1
type,point
parent_name,34766_0dot4-0dot01
ch_type,1_1
kcount,1
numberNandB,1
brightnessNandB,1
carpet pos,0
pc,0
Time (ms),CH1 Auto-Correlation
1.0,0.10252682119607925
2.0,0.1012665182352066
3.0,0.10008837282657623
4.0,0.09899072349071503
5.0,0.09798289090394974
6.0,0.09699466079473495
7.0,0.09601518511772156
8.0,0.09508876502513885
9.0,0.09421597421169281
10.0,0.09338267892599106
11.0,0.09252317994832993
12.0,0.09168579429388046
13.0,0.09088937193155289
14.0,0.09011676162481308
15.0,0.08934285491704941
16.0,0.08865202963352203
18.0,0.0870506763458252
20.0,0.08562377095222473
22.0,0.08424632996320724
24.0,0.0829840898513794
26.0,0.08177454024553299
28.0,0.08064118027687073
30.0,0.07963039726018906
32.0,0.07869048416614532
36.0,0.07688266038894653
40.0,0.07534991204738617
44.0,0.07409271597862244
48.0,0.07278159260749817
52.0,0.07163236290216446
56.0,0.07060527056455612
60.0,0.06971906870603561
64.0,0.0687677189707756
72.0,0.06675641983747482
80.0,0.06486811488866806
88.0,0.06269345432519913
96.0,0.060142774134874344
104.0,0.0580146424472332
112.0,0.056175850331783295
120.0,0.054617639631032944
128.0,0.0530388280749321
144.0,0.049725886434316635
160.0,0.045690760016441345
176.0,0.04216191545128822
192.0,0.03910807892680168
208.0,0.03630052134394646
224.0,0.033871524035930634
240.0,0.030051525682210922
256.0,0.024500517174601555
288.0,0.015254040248692036
320.0,0.010711608454585075
352.0,0.007570039480924606
384.0,0.005679327994585037
416.0,0.006607521325349808
448.0,0.006251676473766565
480.0,0.005565403029322624
512.0,0.004252787213772535
576.0,0.0061811585910618305
640.0,0.006504209246486425
704.0,0.0047398218885064125
768.0,0.0038928105495870113
832.0,0.004204551689326763
896.0,0.004021491389721632
960.0,0.002660284982994199
1024.0,0.002975407987833023
1152.0,0.0005156048573553562
1280.0,0.0024895688984543085
1408.0,0.0020272955298423767
1536.0,0.00022154991165734828
1664.0,-0.006651836447417736
1792.0,-0.00934724509716034
1920.0,-0.006542303133755922
2048.0,-0.005887830164283514
2304.0,-0.004967282060533762
2560.0,-0.005552783142775297
2816.0,-0.001457665697671473
3072.0,-0.0115396399050951
3328.0,-0.007459782063961029
3584.0,-0.004785799887031317
3840.0,-0.006415399257093668
4096.0,0.001592322951182723
4608.0,-0.0033709367271512747
5120.0,-0.004805220291018486
5632.0,-0.0025434631388634443
6144.0,-0.0012450063368305564
6656.0,0.001225878018885851
7168.0,0.005117403343319893
7680.0,0.0035152884665876627
8192.0,0.006793181411921978
end
