version,3.0
numOfCh,1
type,point
parent_name,34766_0dot4-0dot01
ch_type,1_1
kcount,1
numberNandB,1
brightnessNandB,1
carpet pos,0
pc,0
Time (ms),CH1 Auto-Correlation
1.0,0.05805421620607376
2.0,0.05626368522644043
3.0,0.0543496236205101
4.0,0.05250021070241928
5.0,0.05075642466545105
6.0,0.049086857587099075
7.0,0.047488272190093994
8.0,0.0458817183971405
9.0,0.044277437031269073
10.0,0.04259902238845825
11.0,0.040983896702528
12.0,0.03928633779287338
13.0,0.03769692778587341
14.0,0.03620930388569832
15.0,0.034744445234537125
16.0,0.033275119960308075
18.0,0.030261974781751633
20.0,0.027233533561229706
22.0,0.024588247761130333
24.0,0.022260932251811028
26.0,0.02000751718878746
28.0,0.017708733677864075
30.0,0.015824973583221436
32.0,0.015198519453406334
36.0,0.013996751978993416
40.0,0.013033130206167698
44.0,0.0120701240375638
48.0,0.01120057888329029
52.0,0.010102545842528343
56.0,0.009305348619818687
60.0,0.008806649595499039
64.0,0.008306870236992836
72.0,0.007232726085931063
80.0,0.006549992598593235
88.0,0.005742993205785751
96.0,0.004876560065895319
104.0,0.004244089592248201
112.0,0.0033792336471378803
120.0,0.0028355473186820745
128.0,0.0021914185490459204
144.0,0.0016740545397624373
160.0,0.0008060801192186773
176.0,0.0002666795626282692
192.0,-0.000478016008855775
208.0,-0.00037494985735975206
224.0,-0.0015079067088663578
240.0,-0.00201060576364398
256.0,-0.0018362703267484903
288.0,-0.0015729889273643494
320.0,-0.00103491370100528
352.0,-0.0010721511207520962
384.0,-0.0011706803925335407
416.0,-0.0006902148597873747
448.0,-0.000498045003041625
480.0,-0.0003247520362492651
512.0,-0.0021351065952330828
576.0,-0.0017496927175670862
640.0,-0.0021695501636713743
704.0,-0.001909389509819448
768.0,-0.000811976904515177
832.0,-0.000630136695690453
896.0,-0.0009994194842875004
960.0,-0.0008765095262788236
1024.0,-0.002049562754109502
1152.0,-0.0011857510544359684
1280.0,-0.00016027051606215537
1408.0,-0.00018439687846694142
1536.0,-0.0002896826190408319
1664.0,-0.0006008808850310743
1792.0,-0.0002955402305815369
1920.0,0.001450509182177484
2048.0,0.0013477298198267817
2304.0,0.00267581082880497
2560.0,8.772942237555981e-05
2816.0,-0.0013005222426727414
3072.0,-6.88931904733181e-05
3328.0,-0.0007936134352348745
3584.0,-0.0009510100353509188
3840.0,0.0005620491574518383
4096.0,0.00098161562345922
4608.0,0.0002510196063667536
5120.0,-0.0005687376251444221
5632.0,-0.0006099020829424262
6144.0,6.84261103742756e-05
6656.0,0.0006879628635942936
7168.0,-0.0008102201391011477
7680.0,-0.001646692049689591
8192.0,0.0002954693336505443
end
