version,3.0
numOfCh,1
type,point
parent_name,34766_0dot4-0dot01
ch_type,1_1
kcount,1
numberNandB,1
brightnessNandB,1
carpet pos,0
pc,0
Time (ms),CH1 Auto-Correlation
1.0,0.06731927394866943
2.0,0.06609370559453964
3.0,0.06493072956800461
4.0,0.06390289217233658
5.0,0.06296858936548233
6.0,0.06209968030452728
7.0,0.061292458325624466
8.0,0.060562461614608765
9.0,0.0598856545984745
10.0,0.05920453369617462
11.0,0.05853709951043129
12.0,0.05788528174161911
13.0,0.05730980262160301
14.0,0.05675288289785385
15.0,0.05621679499745369
16.0,0.055716246366500854
18.0,0.05481288582086563
20.0,0.05391302332282066
22.0,0.05296996608376503
24.0,0.051997169852256775
26.0,0.051004718989133835
28.0,0.050125207751989365
30.0,0.049327556043863297
32.0,0.04860517755150795
36.0,0.04742784425616264
40.0,0.04606360197067261
44.0,0.04464268684387207
48.0,0.04334453493356705
52.0,0.04210211709141731
56.0,0.04093899577856064
60.0,0.0397467240691185
64.0,0.03872009366750717
72.0,0.03684106096625328
80.0,0.0344533696770668
88.0,0.03243112936615944
96.0,0.03093479759991169
104.0,0.029170040041208267
112.0,0.02744985744357109
120.0,0.025358794257044792
128.0,0.023051680997014046
144.0,0.01968218758702278
160.0,0.016260331496596336
176.0,0.01408714335411787
192.0,0.013785947114229202
208.0,0.01325182244181633
224.0,0.013024363666772842
240.0,0.012335668317973614
256.0,0.011297505348920822
288.0,0.0098048010841012
320.0,0.007574517745524645
352.0,0.005018599797040224
384.0,0.002582829911261797
416.0,0.002248752862215042
448.0,0.002187068108469248
480.0,0.003725119400769472
512.0,0.00523822708055377
576.0,0.005743921268731356
640.0,0.0036454363726079464
704.0,0.0003108754171989858
768.0,-0.00020262817270122468
832.0,0.0033284034579992294
896.0,0.008312424644827843
960.0,0.010170549154281616
1024.0,0.010330482386052608
1152.0,0.010038284584879875
1280.0,0.009893837384879589
1408.0,-0.0005261678597889841
1536.0,-0.0028902438934892416
1664.0,-0.004953981377184391
1792.0,-0.0051221163012087345
1920.0,-0.007364403456449509
2048.0,-0.006940294522792101
2304.0,-0.0007378333248198032
2560.0,0.00889455247670412
2816.0,-0.002408757107332349
3072.0,0.0020646266639232635
3328.0,-0.0092076500877738
3584.0,-0.0031785995233803988
3840.0,-0.011134608648717403
4096.0,-0.012254311703145504
end
