version,3.0
numOfCh,1
type,point
parent_name,34766_0dot4-0dot01
ch_type,1_1
kcount,1
numberNandB,1
brightnessNandB,1
carpet pos,0
pc,0
Time (ms),CH1 Auto-Correlation
1.0,0.03337870538234711
2.0,0.03221416473388672
3.0,0.031106194481253624
4.0,0.03005947172641754
5.0,0.029141908511519432
6.0,0.028252488002181053
7.0,0.027425063773989677
8.0,0.0266824159771204
9.0,0.02597939595580101
10.0,0.025314368307590485
11.0,0.02466988004744053
12.0,0.024061400443315506
13.0,0.023433906957507133
14.0,0.022853821516036987
15.0,0.022349199280142784
16.0,0.02186797745525837
18.0,0.020958134904503822
20.0,0.020076368004083633
22.0,0.01924586109817028
24.0,0.018431616947054863
26.0,0.01761721819639206
28.0,0.016933094710111618
30.0,0.016379864886403084
32.0,0.015861181542277336
36.0,0.014931955374777317
40.0,0.014155706390738487
44.0,0.013440915383398533
48.0,0.012787755578756332
52.0,0.012241707183420658
56.0,0.011558880098164082
60.0,0.010909631848335266
64.0,0.01023955550044775
72.0,0.00930988322943449
80.0,0.009074777364730835
88.0,0.009127402678132057
96.0,0.009114669635891914
104.0,0.008732791990041733
112.0,0.008125617168843746
120.0,0.00777809601277113
128.0,0.007528406102210283
144.0,0.007183128967881203
160.0,0.006218797992914915
176.0,0.005539505742490292
192.0,0.004526281263679266
208.0,0.0038235175888985395
224.0,0.004354465287178755
240.0,0.004914143122732639
256.0,0.004604718182235956
288.0,0.004192195367068052
320.0,0.0030306342523545027
352.0,0.0029951860196888447
384.0,0.0036383536644279957
416.0,0.0034941346384584904
448.0,0.0028019205201417208
480.0,0.0019108136184513569
512.0,0.002041421364992857
576.0,0.0003914709377568215
640.0,-0.0017026704736053944
704.0,-0.0016326789045706391
768.0,-0.0011973654618486762
832.0,-0.001992743695154786
896.0,-0.0019056778401136398
960.0,-0.001527919783256948
1024.0,-0.0033451123163104057
1152.0,-0.004128150641918182
1280.0,-0.002632910618558526
1408.0,-0.0029172725044190884
1536.0,-0.0027462183497846127
1664.0,-0.0028923768550157547
1792.0,-0.001272484427317977
1920.0,-0.0015090623637661338
2048.0,-0.0008354894816875458
2304.0,0.0033341068774461746
2560.0,0.004658370744436979
2816.0,0.00022215029457584023
3072.0,-0.001979231834411621
3328.0,-0.0019336859695613384
3584.0,-0.0028377282433211803
3840.0,-0.002579085063189268
4096.0,-0.0021456037648022175
4608.0,0.0017033645417541265
5120.0,0.0023480933159589767
5632.0,0.00012861358118243515
6144.0,0.00027040753047913313
6656.0,-0.0024507399648427963
7168.0,0.0011706468649208546
7680.0,0.001358018722385168
8192.0,0.0005810618167743087
end
