version,3.0
numOfCh,1
type,point
parent_name,34766_0dot4-0dot01
ch_type,1_1
kcount,1
numberNandB,1
brightnessNandB,1
carpet pos,0
pc,0
Time (ms),CH1 Auto-Correlation
1.0,0.03434416279196739
2.0,0.033123310655355453
3.0,0.03199152648448944
4.0,0.03095000796020031
5.0,0.029970090836286545
6.0,0.029038868844509125
7.0,0.02815721556544304
8.0,0.027315380051732063
9.0,0.02653968334197998
10.0,0.02582460269331932
11.0,0.025146406143903732
12.0,0.024495992809534073
13.0,0.023844191804528236
14.0,0.02323448471724987
15.0,0.02262871153652668
16.0,0.02205808460712433
18.0,0.020950695499777794
20.0,0.019992878660559654
22.0,0.0191336702555418
24.0,0.018334535881876945
26.0,0.01761588826775551
28.0,0.01701723039150238
30.0,0.01643260009586811
32.0,0.01592538319528103
36.0,0.01514224149286747
40.0,0.014466347172856331
44.0,0.014016957953572273
48.0,0.013558118604123592
52.0,0.013039608485996723
56.0,0.012521401047706604
60.0,0.012022091075778008
64.0,0.01162384171038866
72.0,0.01081883441656828
80.0,0.009924592450261116
88.0,0.009001138620078564
96.0,0.008356043137609959
104.0,0.007989084348082542
112.0,0.007686306722462177
120.0,0.007315441034734249
128.0,0.006964989937841892
144.0,0.006963109597563744
160.0,0.005999282468110323
176.0,0.005503103137016296
192.0,0.0050553069449961185
208.0,0.005468904040753841
224.0,0.00622900715097785
240.0,0.006171826273202896
256.0,0.00584678677842021
288.0,0.0057318988256156445
320.0,0.0054473476484417915
352.0,0.005480408202856779
384.0,0.004925725981593132
416.0,0.0035124828573316336
448.0,0.003937761764973402
480.0,0.0039798421785235405
512.0,0.0031894375570118427
576.0,0.002992978785187006
640.0,0.002022677334025502
704.0,0.0014718460151925683
768.0,0.001957977656275034
832.0,0.0020822237711399794
896.0,0.0021216885652393103
960.0,0.0013590488815680146
1024.0,0.0007088189595378935
1152.0,-0.0006777239614166319
1280.0,-0.0016796139534562826
1408.0,-0.002623792504891753
1536.0,-0.002760492032393813
1664.0,-0.0019086734391748905
1792.0,-0.0028823462780565023
1920.0,-0.003791322000324726
2048.0,-0.00281221023760736
2304.0,-0.0015187818789854646
2560.0,-0.002344525419175625
2816.0,-0.002606067107990384
3072.0,0.0003016955452039838
3328.0,0.0029125050641596317
3584.0,0.0009432847145944834
3840.0,0.0013311289949342608
4096.0,0.0032299114391207695
4608.0,0.0017552146455273032
5120.0,-0.0029100370593369007
5632.0,-0.00534483278170228
6144.0,-0.006796808913350105
6656.0,-0.00230706506408751
7168.0,-9.599300392437726e-05
7680.0,0.0028700914699584246
8192.0,-1.9003882698598318e-05
end
