version,3.0
numOfCh,1
type,point
parent_name,fe81d_1dot0-0dot01
ch_type,1_1
kcount,1
numberNandB,1
brightnessNandB,1
carpet pos,0
pc,0
Time (ms),CH1 Auto-Correlation
1.0,0.04904341697692871
2.0,0.046201977878808975
3.0,0.043791260570287704
4.0,0.041683975607156754
5.0,0.03991806507110596
6.0,0.03823868930339813
7.0,0.036789171397686005
8.0,0.03544927015900612
9.0,0.03418334573507309
10.0,0.03311002999544144
11.0,0.03214710205793381
12.0,0.0312526598572731
13.0,0.030380254611372948
14.0,0.029537396505475044
15.0,0.028702648356556892
16.0,0.027928819879889488
18.0,0.02677888236939907
20.0,0.025715220719575882
22.0,0.02469351887702942
24.0,0.0237974151968956
26.0,0.02301565371453762
28.0,0.022027773782610893
30.0,0.021098507568240166
32.0,0.020290307700634003
36.0,0.019097043201327324
40.0,0.018090734258294106
44.0,0.017307542264461517
48.0,0.01640893518924713
52.0,0.015391852706670761
56.0,0.014739851467311382
60.0,0.01436283066868782
64.0,0.014102022163569927
72.0,0.012750842608511448
80.0,0.011192072182893753
88.0,0.009678557515144348
96.0,0.00800136849284172
104.0,0.007267196662724018
112.0,0.006863006390631199
120.0,0.0064216176979243755
128.0,0.006111410446465015
144.0,0.006055108737200499
160.0,0.006313208490610123
176.0,0.005707629956305027
192.0,0.006542544811964035
208.0,0.00713743269443512
224.0,0.005397950764745474
240.0,0.004248463083058596
256.0,0.0035409496631473303
288.0,0.004178184550255537
320.0,0.005097937770187855
352.0,0.00714190024882555
384.0,0.007394206710159779
416.0,0.006491871550679207
448.0,0.005728122778236866
480.0,0.005268865264952183
512.0,0.0062698968686163425
576.0,0.006711961235851049
640.0,0.00625070882961154
704.0,0.0054177227430045605
768.0,0.0045322938822209835
832.0,0.005368338897824287
896.0,0.00494956411421299
960.0,0.0026153577491641045
1024.0,0.004812043625861406
1152.0,0.00502723827958107
1280.0,0.001769223134033382
1408.0,0.0010351219680160284
1536.0,0.0005790959112346172
1664.0,0.003964591305702925
1792.0,-0.0013358758296817541
1920.0,-0.003508646273985505
2048.0,-0.001618717797100544
2304.0,-0.001740206847898662
2560.0,-0.0023628785274922848
2816.0,-0.0021080072037875652
3072.0,-0.005199041683226824
3328.0,-0.004259820561856031
3584.0,-0.002238494111225009
3840.0,-0.003085691248998046
4096.0,-0.0030555923003703356
4608.0,-0.0038181415293365717
5120.0,-0.004730083979666233
5632.0,-0.005161935463547707
6144.0,-0.0013591769384220243
6656.0,0.002814711071550846
7168.0,0.003365713870152831
7680.0,0.001002480392344296
8192.0,0.0017688910011202097
end
