version,3.0
numOfCh,1
type,point
parent_name,fe81d_1dot0-0dot01
ch_type,1_1
kcount,1
numberNandB,1
brightnessNandB,1
carpet pos,0
pc,0
Time (ms),CH1 Auto-Correlation
1.0,0.04058682546019554
2.0,0.03741827234625816
3.0,0.03464745730161667
4.0,0.03215966001152992
5.0,0.02987772598862648
6.0,0.027863357216119766
7.0,0.026139121502637863
8.0,0.02456780895590782
9.0,0.023183926939964294
10.0,0.021907979622483253
11.0,0.020783694460988045
12.0,0.019806038588285446
13.0,0.018874894827604294
14.0,0.018034420907497406
15.0,0.017255468294024467
16.0,0.016510451212525368
18.0,0.015336723998188972
20.0,0.014256995171308517
22.0,0.013242130167782307
24.0,0.012254479341208935
26.0,0.011481065303087234
28.0,0.01062308344990015
30.0,0.009916923940181732
32.0,0.009645354002714157
36.0,0.009750064462423325
40.0,0.009391273371875286
44.0,0.0085153728723526
48.0,0.007812773808836937
52.0,0.006943851243704557
56.0,0.006485643330961466
60.0,0.005999004002660513
64.0,0.005424943286925554
72.0,0.004283454269170761
80.0,0.0027625553775578737
88.0,0.0017262398032471538
96.0,0.000915484328288585
104.0,0.00015204229566734284
112.0,7.511121657444164e-05
120.0,-4.0243274270324036e-05
128.0,1.491026887379121e-05
144.0,-0.0009683619718998671
160.0,-0.001349788741208613
176.0,-0.0004988260334357619
192.0,-0.0005776371690444648
208.0,-0.0006231971783563495
224.0,-0.0007481236825697124
240.0,-0.0002710319240577519
256.0,0.0010679246624931693
288.0,0.0009572416893206537
320.0,0.0020325116347521544
352.0,0.0021749502047896385
384.0,0.0013682605931535363
416.0,-0.0004482792573980987
448.0,-0.0009056257549673319
480.0,-9.195855091093108e-05
512.0,-0.0009514805860817432
576.0,-0.001610471517778933
640.0,-0.0013474838342517614
704.0,0.0006850966019555926
768.0,0.00018338191148359329
832.0,-0.000314829230774194
896.0,-0.0008337505278177559
960.0,-0.0001844252838054672
1024.0,-8.33406375022605e-05
1152.0,-0.0013306511100381613
1280.0,0.0008146734326146543
1408.0,1.8848450054065324e-05
1536.0,-0.00045458535896614194
1664.0,0.000891225237865001
1792.0,-0.00029502963298000395
1920.0,-0.00023590921773575246
2048.0,0.00044022835209034383
2304.0,0.0012482180027291179
2560.0,-0.0009593476424925029
2816.0,-0.0015551024116575718
3072.0,-0.0008143538725562394
3328.0,-0.0002864425186999142
3584.0,-0.0003135496226605028
3840.0,0.000980083947069943
4096.0,0.00012848438927903771
4608.0,0.00017739945906214416
5120.0,-0.0005091511993668973
5632.0,-6.146467057988048e-05
6144.0,0.0011743896175175905
6656.0,-0.0007550901500508189
7168.0,0.0009274561307393014
7680.0,0.0009757056832313538
8192.0,0.0009353227214887738
end
