version,3.0
numOfCh,1
type,point
parent_name,fe81d_1dot0-0dot01
ch_type,1_1
kcount,1
numberNandB,1
brightnessNandB,1
carpet pos,0
pc,0
Time (ms),CH1 Auto-Correlation
1.0,0.046621982008218765
2.0,0.043428126722574234
3.0,0.040605030953884125
4.0,0.03824290260672569
5.0,0.036105427891016006
6.0,0.034243300557136536
7.0,0.03265777602791786
8.0,0.0311625674366951
9.0,0.029741141945123672
10.0,0.02843691036105156
11.0,0.027247874066233635
12.0,0.026262661442160606
13.0,0.025376902893185616
14.0,0.02454736828804016
15.0,0.023764226585626602
16.0,0.023017900064587593
18.0,0.021676354110240936
20.0,0.020475050434470177
22.0,0.019309934228658676
24.0,0.018286915495991707
26.0,0.017477169632911682
28.0,0.01669260859489441
30.0,0.015948396176099777
32.0,0.01529308408498764
36.0,0.014192810282111168
40.0,0.01321552786976099
44.0,0.012620128691196442
48.0,0.012119625695049763
52.0,0.011720945127308369
56.0,0.011437562294304371
60.0,0.011258888989686966
64.0,0.011156868189573288
72.0,0.010544135235249996
80.0,0.009661183692514896
88.0,0.00903865322470665
96.0,0.008621226996183395
104.0,0.008813847787678242
112.0,0.008594643324613571
120.0,0.007896696217358112
128.0,0.007514209020882845
144.0,0.0069097182713449
160.0,0.006843268871307373
176.0,0.0058954074047505856
192.0,0.005479857791215181
208.0,0.005650096107274294
224.0,0.004451777320355177
240.0,0.0032220841385424137
256.0,0.0030355858616530895
288.0,0.002582466695457697
320.0,0.0014300710754469037
352.0,0.0002611921227071434
384.0,0.00014820409705862403
416.0,-0.0004323884204495698
448.0,0.001060820766724646
480.0,0.0012876028195023537
512.0,0.0007975902408361435
576.0,-0.00021738641953561455
640.0,-0.000460266339359805
704.0,-0.0015475689433515072
768.0,0.00037169535062275827
832.0,0.0029993292409926653
896.0,0.0027749156579375267
960.0,0.0020710995886474848
1024.0,0.0008402394596487284
1152.0,0.0015791987534612417
1280.0,0.003003325778990984
1408.0,0.0008144023595377803
1536.0,0.0007250239723362029
1664.0,0.0018370135221630335
1792.0,0.0034338724799454212
1920.0,0.0016682181740179658
2048.0,0.0007394307176582515
2304.0,-0.002020948100835085
2560.0,-0.0002606655762065202
2816.0,0.001381102716550231
3072.0,0.0012483407044783235
3328.0,0.0014769694535061717
3584.0,-0.0010058822808787227
3840.0,-0.0010707422625273466
4096.0,0.0006480712327174842
4608.0,-0.001128196599893272
5120.0,-0.0011587162734940648
5632.0,-0.0004690539790317416
6144.0,-0.001513763563707471
6656.0,-0.0021991590037941933
7168.0,-0.001260188058950007
7680.0,-0.00015099439769983292
8192.0,-0.00413519237190485
end
