version,3.0
numOfCh,1
type,point
parent_name,fe81d_1dot0-0dot01
ch_type,1_1
kcount,1
numberNandB,1
brightnessNandB,1
carpet pos,0
pc,0
Time (ms),CH1 Auto-Correlation
1.0,0.5791391134262085
2.0,0.5767518281936646
3.0,0.5742973685264587
4.0,0.5719293355941772
5.0,0.5696918964385986
6.0,0.5675120949745178
7.0,0.5655008554458618
8.0,0.563505232334137
9.0,0.5616066455841064
10.0,0.5596420168876648
11.0,0.5577952861785889
12.0,0.5563083291053772
13.0,0.5548768639564514
14.0,0.5536282062530518
15.0,0.5524278879165649
16.0,0.5512712597846985
18.0,0.5488523244857788
20.0,0.5460087656974792
22.0,0.542951226234436
24.0,0.5396856069564819
26.0,0.536454439163208
28.0,0.5331428050994873
30.0,0.5300297737121582
32.0,0.5270332098007202
36.0,0.5219738483428955
40.0,0.5164849162101746
44.0,0.5109444260597229
48.0,0.5050170421600342
52.0,0.4989582300186157
56.0,0.49345704913139343
60.0,0.48828694224357605
64.0,0.4832344055175781
72.0,0.4736027121543884
80.0,0.4655504822731018
88.0,0.45724308490753174
96.0,0.447842538356781
104.0,0.4391602873802185
112.0,0.4319796860218048
120.0,0.42612800002098083
128.0,0.4194577634334564
144.0,0.40767237544059753
160.0,0.39388948678970337
176.0,0.3785523474216461
192.0,0.36240339279174805
208.0,0.3495679795742035
224.0,0.3386472761631012
240.0,0.33607685565948486
256.0,0.34040477871894836
288.0,0.34034213423728943
320.0,0.3307815492153168
352.0,0.3182360827922821
384.0,0.29401126503944397
416.0,0.2748485207557678
448.0,0.2540002763271332
480.0,0.22891783714294434
512.0,0.21805062890052795
576.0,0.19890686869621277
640.0,0.15795676410198212
704.0,0.12405233830213547
768.0,0.0729173794388771
832.0,0.035847194492816925
896.0,-0.004560904111713171
960.0,-0.04434353858232498
1024.0,-0.0616384781897068
1152.0,-0.06882533431053162
1280.0,-0.06617323309183121
1408.0,-0.06012873724102974
1536.0,-0.054136935621500015
1664.0,-0.05981975421309471
1792.0,-0.07058510929346085
1920.0,-0.08447159081697464
2048.0,-0.08149602264165878
2304.0,-0.13387161493301392
2560.0,-0.22843769192695618
2816.0,-0.34750884771347046
3072.0,-0.5555744171142578
3328.0,-0.5843454599380493
3584.0,-0.5811473727226257
end
