version,3.0
numOfCh,1
type,point
parent_name,fe81d_1dot0-0dot01
ch_type,1_1
kcount,1
numberNandB,1
brightnessNandB,1
carpet pos,0
pc,0
Time (ms),CH1 Auto-Correlation
1.0,0.04224840924143791
2.0,0.039090123027563095
3.0,0.03634658455848694
4.0,0.033933382481336594
5.0,0.03187653049826622
6.0,0.030134737491607666
7.0,0.02855919674038887
8.0,0.027150366455316544
9.0,0.025880150496959686
10.0,0.024670852348208427
11.0,0.023528197780251503
12.0,0.022427598014473915
13.0,0.021512653678655624
14.0,0.020685650408267975
15.0,0.019834835082292557
16.0,0.019061673432588577
18.0,0.017716974020004272
20.0,0.01648407243192196
22.0,0.0152907595038414
24.0,0.014088798314332962
26.0,0.012970495969057083
28.0,0.011973201297223568
30.0,0.011153568513691425
32.0,0.010459001176059246
36.0,0.009338336996734142
40.0,0.008109336718916893
44.0,0.007371933665126562
48.0,0.007096507586538792
52.0,0.006950062699615955
56.0,0.0068630860187113285
60.0,0.00654580257833004
64.0,0.006479344330728054
72.0,0.005919486749917269
80.0,0.005076456815004349
88.0,0.004255707375705242
96.0,0.00336537160910666
104.0,0.0028323328588157892
112.0,0.0028609801083803177
120.0,0.0037579049821943045
128.0,0.003501612227410078
144.0,0.00278261536732316
160.0,0.0015044778119772673
176.0,0.0014144255546852946
192.0,0.0011856345226988196
208.0,0.0005907245213165879
224.0,6.691358430543914e-05
240.0,-0.0009367921738885343
256.0,-0.00188493262976408
288.0,-0.0015964691992849112
320.0,-0.0005838260985910892
352.0,-0.000741753785405308
384.0,-0.002165598329156637
416.0,-0.002312479307875037
448.0,-0.0012304396368563175
480.0,-0.00017882033716887236
512.0,0.0003486344066914171
576.0,0.00041563212289474905
640.0,0.002106949919834733
704.0,0.0013660216936841607
768.0,-0.0011894714552909136
832.0,0.00035062755341641605
896.0,0.0013138996437191963
960.0,-0.000967255444265902
1024.0,-0.0006083081825636327
1152.0,0.0005675193970091641
1280.0,-0.0014908205484971404
1408.0,0.001133501180447638
1536.0,0.0021039543207734823
1664.0,-0.00037156714824959636
1792.0,-0.0017860282678157091
1920.0,-0.0025680451653897762
2048.0,0.00046052969992160797
2304.0,0.0006993758142925799
2560.0,-0.0010633000638335943
2816.0,-0.0009467696654610336
3072.0,-0.0003508235968183726
3328.0,-0.0011290572583675385
3584.0,-0.000524797651451081
3840.0,0.000509213306941092
4096.0,-0.0007951312582008541
4608.0,-0.0009404217707924545
5120.0,6.40338912489824e-05
5632.0,-0.00012862357834819704
6144.0,0.00014037336222827435
6656.0,0.0002533984661567956
7168.0,0.0009620027849450707
7680.0,0.0006701235543005168
8192.0,0.0009814444929361343
end
