version,3.0
numOfCh,1
type,point
parent_name,fe81d_1dot0-0dot01
ch_type,1_1
kcount,1
numberNandB,1
brightnessNandB,1
carpet pos,0
pc,0
Time (ms),CH1 Auto-Correlation
1.0,0.046139366924762726
2.0,0.04316922277212143
3.0,0.04060029983520508
4.0,0.03830932453274727
5.0,0.03620696812868118
6.0,0.034348826855421066
7.0,0.03268827870488167
8.0,0.031255025416612625
9.0,0.03002701885998249
10.0,0.029040208086371422
11.0,0.028101500123739243
12.0,0.02728532999753952
13.0,0.02659514546394348
14.0,0.02593022957444191
15.0,0.025246094912290573
16.0,0.024620359763503075
18.0,0.02341897040605545
20.0,0.02236286550760269
22.0,0.02147512137889862
24.0,0.02071814052760601
26.0,0.019848577678203583
28.0,0.018927259370684624
30.0,0.018070098012685776
32.0,0.017326347529888153
36.0,0.016364997252821922
40.0,0.01584995910525322
44.0,0.015283455140888691
48.0,0.014525839127600193
52.0,0.013479440473020077
56.0,0.012762345373630524
60.0,0.012566735967993736
64.0,0.012011785991489887
72.0,0.011472705751657486
80.0,0.011145352385938168
88.0,0.010754561051726341
96.0,0.010286149568855762
104.0,0.009127432480454445
112.0,0.007788041140884161
120.0,0.006930945441126823
128.0,0.006597273517400026
144.0,0.00606949208304286
160.0,0.006894155405461788
176.0,0.007505889981985092
192.0,0.00658450648188591
208.0,0.005220957566052675
224.0,0.0054737175814807415
240.0,0.0059662447310984135
256.0,0.005920559633523226
288.0,0.0038642268627882004
320.0,0.004475109279155731
352.0,0.00565537391230464
384.0,0.005294065922498703
416.0,0.004565718583762646
448.0,0.00413893535733223
480.0,0.004394862800836563
512.0,0.0037369849160313606
576.0,-0.000800801208242774
640.0,-0.002170722233131528
704.0,-0.0005707178497686982
768.0,0.002290395786985755
832.0,0.0026203568559139967
896.0,0.0013441123301163316
960.0,-0.0009400671115145087
1024.0,-0.002311000833287835
1152.0,-0.0005098744295537472
1280.0,0.001071325270459056
1408.0,-0.0016925765667110682
1536.0,-0.001470035407692194
1664.0,-0.0015377819072455168
1792.0,-0.003640872659161687
1920.0,-0.004773909226059914
2048.0,-0.0023107489105314016
2304.0,-0.0005595661350525916
2560.0,-0.002524130279198289
2816.0,-0.004062357824295759
3072.0,-0.0021869332995265722
3328.0,-0.0036495074164122343
3584.0,-0.002103419741615653
3840.0,-0.00010452228889334947
4096.0,-0.003108227625489235
4608.0,0.000632953830063343
5120.0,0.00209242245182395
5632.0,0.0009972123662009835
6144.0,0.002195819979533553
6656.0,-0.0006651428993791342
7168.0,0.0015621803468093276
7680.0,0.0010962325613945723
8192.0,-0.0010230425978079438
end
