version,3.0
numOfCh,1
type,point
parent_name,fe81d_1dot0-0dot01
ch_type,1_1
kcount,1
numberNandB,1
brightnessNandB,1
carpet pos,0
pc,0
Time (ms),CH1 Auto-Correlation
1.0,0.03862525150179863
2.0,0.03556005656719208
3.0,0.03294844925403595
4.0,0.030771855264902115
5.0,0.028826508671045303
6.0,0.027093185111880302
7.0,0.02547183260321617
8.0,0.024023743346333504
9.0,0.022732939571142197
10.0,0.021580783650279045
11.0,0.020504562184214592
12.0,0.019563376903533936
13.0,0.018753113225102425
14.0,0.017890330404043198
15.0,0.017078958451747894
16.0,0.016379263252019882
18.0,0.015186489559710026
20.0,0.014157052151858807
22.0,0.013271184638142586
24.0,0.012487471103668213
26.0,0.011758245527744293
28.0,0.010916227474808693
30.0,0.010356415063142776
32.0,0.010000941343605518
36.0,0.008992166258394718
40.0,0.00813389103859663
44.0,0.007581223733723164
48.0,0.006984288804233074
52.0,0.006216497626155615
56.0,0.0056380326859653
60.0,0.0051193442195653915
64.0,0.004922234918922186
72.0,0.004195215180516243
80.0,0.003803022438660264
88.0,0.004249971825629473
96.0,0.004556738305836916
104.0,0.004677056334912777
112.0,0.0036398551892489195
120.0,0.0023343961220234632
128.0,0.0016824284102767706
144.0,0.00047162885311990976
160.0,0.00014552597713191062
176.0,-2.4810127797536552e-05
192.0,0.0011669688392430544
208.0,0.0007627197192050517
224.0,-0.0003423764428589493
240.0,-0.001466542249545455
256.0,-0.00248030386865139
288.0,-0.001526260981336236
320.0,0.0011783968657255173
352.0,0.0027476754039525986
384.0,0.004076569806784391
416.0,0.003733225166797638
448.0,0.0035496402997523546
480.0,0.0022825715132057667
512.0,0.0006414261879399419
576.0,0.0005629475926980376
640.0,-0.0016681381966918707
704.0,-0.0014901147224009037
768.0,0.00043666071724146605
832.0,0.000500161258969456
896.0,0.002196074929088354
960.0,0.0019384933402761817
1024.0,-0.0006125414511188865
1152.0,-0.00034863586188293993
1280.0,0.0009723429102450609
1408.0,-0.00012816324306186289
1536.0,-0.0023418532218784094
1664.0,-0.001079282839782536
1792.0,-0.00019711135246325284
1920.0,-0.0016282141441479325
2048.0,-0.0005299842450767756
2304.0,-0.0005324730882421136
2560.0,0.0003792609495576471
2816.0,-0.00032411105348728597
3072.0,0.0005958299734629691
3328.0,-0.00081127934390679
3584.0,-0.0006798848044127226
3840.0,-0.00021040573483332992
4096.0,-0.0006177147151902318
4608.0,0.0003162387292832136
5120.0,0.000879505299963057
5632.0,0.0011950436746701598
6144.0,-0.0003127174568362534
6656.0,-0.0012776379007846117
7168.0,-0.0016108371783047915
7680.0,-0.0012103859335184097
8192.0,0.00020938095985911787
end
