version,3.0
numOfCh,1
type,point
parent_name,fe81d_1dot0-0dot01
ch_type,1_1
kcount,1
numberNandB,1
brightnessNandB,1
carpet pos,0
pc,0
Time (ms),CH1 Auto-Correlation
1.0,0.11498556286096573
2.0,0.11066453158855438
3.0,0.10690988600254059
4.0,0.10336312651634216
5.0,0.10021115094423294
6.0,0.09722942858934402
7.0,0.09431320428848267
8.0,0.09168429672718048
9.0,0.08921130001544952
10.0,0.08683102577924728
11.0,0.08459820598363876
12.0,0.0823468565940857
13.0,0.08029008656740189
14.0,0.07825566083192825
15.0,0.07627063989639282
16.0,0.07417122274637222
18.0,0.07006298750638962
20.0,0.06640207022428513
22.0,0.0627240315079689
24.0,0.059245090931653976
26.0,0.05582810565829277
28.0,0.05226869136095047
30.0,0.04867299646139145
32.0,0.04523847997188568
36.0,0.03635715693235397
40.0,0.030032524839043617
44.0,0.02425558865070343
48.0,0.01923728734254837
52.0,0.014759563840925694
56.0,0.012677803635597229
60.0,0.012889564037322998
64.0,0.013287975452840328
72.0,0.013185282237827778
80.0,0.012993237935006618
88.0,0.013563408516347408
96.0,0.014598486945033073
104.0,0.01464787870645523
112.0,0.013876579701900482
120.0,0.01460360363125801
128.0,0.015271828509867191
144.0,0.013309786096215248
160.0,0.013107997365295887
176.0,0.011793158017098904
192.0,0.00978123489767313
208.0,0.007355354260653257
224.0,0.00699168024584651
240.0,0.00576834985986352
256.0,0.003157168161123991
288.0,0.004834414459764957
320.0,0.004841690883040428
352.0,0.004891413729637861
384.0,0.003944946452975273
416.0,0.0005275566945783794
448.0,-0.00314319902099669
480.0,-0.005104184616357088
512.0,-0.003254900686442852
576.0,-0.002585607348009944
640.0,-0.0029919433873146772
704.0,-0.00248343194834888
768.0,-0.0019179453374817967
832.0,-0.00018336554057896137
896.0,3.247038330300711e-05
960.0,0.00036055746022611856
1024.0,-0.0024334914050996304
1152.0,0.0006512629333883524
1280.0,0.001500382786616683
1408.0,0.0012944953050464392
1536.0,-0.0006376010132953525
1664.0,-0.0015354561619460583
1792.0,-0.000957875105086714
1920.0,0.0019024458015337586
2048.0,0.004090217873454094
2304.0,0.0015956138959154487
2560.0,0.0020738982129842043
2816.0,0.0015017434488981962
3072.0,0.0008968975162133574
3328.0,0.0005294899456202984
3584.0,0.0006259420770220459
3840.0,-0.0009932476095855236
4096.0,-0.0007030854467302561
4608.0,0.0013630266766995192
5120.0,-0.00028460213798098266
5632.0,0.00033542397432029247
6144.0,-0.0008534356020390987
6656.0,0.000247892108745873
7168.0,-0.0015204160008579493
7680.0,-0.0003177989274263382
8192.0,0.002940656151622534
end
