version,3.0
numOfCh,1
type,point
parent_name,fe81d_1dot0-0dot01
ch_type,1_1
kcount,1
numberNandB,1
brightnessNandB,1
carpet pos,0
pc,0
Time (ms),CH1 Auto-Correlation
1.0,0.041619785130023956
2.0,0.03864286094903946
3.0,0.0361267514526844
4.0,0.0339382067322731
5.0,0.031914860010147095
6.0,0.03017018549144268
7.0,0.028613198548555374
8.0,0.027242448180913925
9.0,0.025998590514063835
10.0,0.024880552664399147
11.0,0.02392072230577469
12.0,0.023077234625816345
13.0,0.0223124697804451
14.0,0.02163200080394745
15.0,0.020937148481607437
16.0,0.020296381786465645
18.0,0.019192790612578392
20.0,0.018088510259985924
22.0,0.016980350017547607
24.0,0.01589227467775345
26.0,0.014712286181747913
28.0,0.013664314523339272
30.0,0.012671729549765587
32.0,0.011687315069139004
36.0,0.010401422157883644
40.0,0.009381333366036415
44.0,0.008481633849442005
48.0,0.007982307113707066
52.0,0.007625515107065439
56.0,0.007413086015731096
60.0,0.006986810360103846
64.0,0.006398291327059269
72.0,0.006119247060269117
80.0,0.006195459049195051
88.0,0.006048379000276327
96.0,0.0060825957916677
104.0,0.0060237315483391285
112.0,0.005635613109916449
120.0,0.004682676866650581
128.0,0.003820947837084532
144.0,0.002860784064978361
160.0,0.001484767533838749
176.0,0.00023388898989651352
192.0,0.000496286666020751
208.0,0.0015751281753182411
224.0,0.0022713071666657925
240.0,0.0007505689864046872
256.0,0.0010160692036151886
288.0,0.0013256885576993227
320.0,0.0005493918433785439
352.0,-0.0013049111003056169
384.0,-0.0008043560665100813
416.0,-0.0005112263606861234
448.0,-0.0008725252700969577
480.0,-0.000943514984101057
512.0,-0.0003144963120575994
576.0,-0.001106139039620757
640.0,-0.0011103127617388964
704.0,-0.0017496346263214946
768.0,-0.002302924171090126
832.0,-0.003391839796677232
896.0,-0.0011320693884044886
960.0,-0.0006652909214608371
1024.0,0.0008074329816736281
1152.0,-0.00196215882897377
1280.0,-0.0014967836905270815
1408.0,-0.00278281606733799
1536.0,-0.0006616360624320805
1664.0,-0.0012774118222296238
1792.0,-1.0660679436114151e-05
1920.0,0.001068967510946095
2048.0,0.002420519245788455
2304.0,0.0014749271795153618
2560.0,0.0007438820321112871
2816.0,1.3924222912464757e-05
3072.0,-0.00011281009210506454
3328.0,-0.0016146379057317972
3584.0,-0.0005401633097790182
3840.0,0.0007381439208984375
4096.0,0.0004526865086518228
4608.0,-0.00019671973132062703
5120.0,-0.0009311421308666468
5632.0,-0.0007817886653356254
6144.0,0.0018618220929056406
6656.0,0.00025697206729091704
7168.0,-0.0007904261583462358
7680.0,-0.0014110900228843093
8192.0,0.0011755058076232672
end
