version,3.0
numOfCh,1
type,point
parent_name,fe81d_1dot0-0dot01
ch_type,1_1
kcount,1
numberNandB,1
brightnessNandB,1
carpet pos,0
pc,0
Time (ms),CH1 Auto-Correlation
1.0,0.05388222262263298
2.0,0.0508662573993206
3.0,0.048291660845279694
4.0,0.046007126569747925
5.0,0.04403160884976387
6.0,0.04223388060927391
7.0,0.04074888676404953
8.0,0.0393315888941288
9.0,0.038100436329841614
10.0,0.03704989701509476
11.0,0.03605114296078682
12.0,0.03518305718898773
13.0,0.03435738384723663
14.0,0.03361166641116142
15.0,0.03277961164712906
16.0,0.031952500343322754
18.0,0.030356651172041893
20.0,0.028885582461953163
22.0,0.027657484635710716
24.0,0.02680984139442444
26.0,0.02603199891746044
28.0,0.02513989247381687
30.0,0.024333035573363304
32.0,0.02350735105574131
36.0,0.02214757911860943
40.0,0.02096698246896267
44.0,0.02013617567718029
48.0,0.01896306686103344
52.0,0.017637869343161583
56.0,0.016437312588095665
60.0,0.01514669880270958
64.0,0.014021161012351513
72.0,0.013125112280249596
80.0,0.012558810412883759
88.0,0.01316799595952034
96.0,0.013213172554969788
104.0,0.01276905182749033
112.0,0.011567473411560059
120.0,0.011137597262859344
128.0,0.010766372084617615
144.0,0.009615165181457996
160.0,0.009414751082658768
176.0,0.008802405558526516
192.0,0.0081079276278615
208.0,0.0074070352129638195
224.0,0.006807819940149784
240.0,0.006777876988053322
256.0,0.00668612215667963
288.0,0.005936252418905497
320.0,0.004443129990249872
352.0,0.0035935738123953342
384.0,0.005094173830002546
416.0,0.0043893796391785145
448.0,0.004054978024214506
480.0,0.004241544287651777
512.0,0.002789926715195179
576.0,0.002212181920185685
640.0,0.001419424545019865
704.0,0.0028825735207647085
768.0,0.0017670062370598316
832.0,-0.001372277271002531
896.0,-0.002070269314572215
960.0,-0.00018100388115271926
1024.0,0.0007834098651073873
1152.0,0.0021570788230746984
1280.0,0.0004468033730518073
1408.0,6.645519169978797e-05
1536.0,0.0005319160409271717
1664.0,0.0014162203297019005
1792.0,0.0007842424092814326
1920.0,0.00017886297428049147
2048.0,-0.0011749871773645282
2304.0,-0.0012549933744594455
2560.0,-0.0030391414184123278
2816.0,-0.003083965042605996
3072.0,-0.004720473662018776
3328.0,0.0004614580830093473
3584.0,0.002954545896500349
3840.0,0.0024558270815759897
4096.0,-9.168480028165504e-05
4608.0,-0.0029153567738831043
5120.0,-0.0014168622437864542
5632.0,-0.00044742674799636006
6144.0,-0.0010326592018827796
6656.0,-0.003571160603314638
7168.0,3.623468364821747e-05
7680.0,0.0005258916644379497
8192.0,-0.0033543554600328207
end
