version,3.0
numOfCh,1
type,point
parent_name,fe81d_1dot0-0dot01
ch_type,1_1
kcount,1
numberNandB,1
brightnessNandB,1
carpet pos,0
pc,0
Time (ms),CH1 Auto-Correlation
1.0,0.04238620772957802
2.0,0.039144888520240784
3.0,0.036450374871492386
4.0,0.0340983048081398
5.0,0.0320030152797699
6.0,0.030101438984274864
7.0,0.02842937409877777
8.0,0.026831746101379395
9.0,0.025510381907224655
10.0,0.024330157786607742
11.0,0.023309171199798584
12.0,0.02243233658373356
13.0,0.02161874808371067
14.0,0.02076919563114643
15.0,0.020019464194774628
16.0,0.0193985216319561
18.0,0.01822512596845627
20.0,0.01710635982453823
22.0,0.01617642305791378
24.0,0.015336185693740845
26.0,0.014692531898617744
28.0,0.014145818538963795
30.0,0.013631511479616165
32.0,0.013136537745594978
36.0,0.01194683089852333
40.0,0.010649070143699646
44.0,0.00966599490493536
48.0,0.008737446740269661
52.0,0.007743704132735729
56.0,0.006835944950580597
60.0,0.006470844615250826
64.0,0.006127136759459972
72.0,0.005626356694847345
80.0,0.004745936021208763
88.0,0.0038131221663206816
96.0,0.003217132994905114
104.0,0.0032397909089922905
112.0,0.003088918747380376
120.0,0.0031269819010049105
128.0,0.0030907161999493837
144.0,0.001326025347225368
160.0,0.0017761194612830877
176.0,0.0021596422884613276
192.0,0.0011330789420753717
208.0,0.0007927431142888963
224.0,-0.00029355494189076126
240.0,-0.0007741559529677033
256.0,-0.0004933880409225821
288.0,-0.0009803182911127806
320.0,-0.0006872279918752611
352.0,-0.00022737729887012392
384.0,-0.0004126176645513624
416.0,0.0009331931942142546
448.0,0.0014180452562868595
480.0,0.0015150188701227307
512.0,0.0006157429306767881
576.0,-0.0005962938303127885
640.0,0.0004986600833944976
704.0,0.0007320871227420866
768.0,0.0016136609483510256
832.0,0.00228827609680593
896.0,0.0024927728809416294
960.0,0.001548357424326241
1024.0,0.0013266591122373939
1152.0,0.0001739643485052511
1280.0,-0.000991932232864201
1408.0,-0.0015106014907360077
1536.0,-0.001571906148456037
1664.0,-0.000991772161796689
1792.0,0.0008921318221837282
1920.0,-0.0010396071011200547
2048.0,-0.0012845374876633286
2304.0,-0.00151916709728539
2560.0,0.00022794495453126729
2816.0,-0.00021645086235366762
3072.0,-0.00022138959320727736
3328.0,-0.0015590566908940673
3584.0,0.00040697018266655505
3840.0,-9.514839621260762e-05
4096.0,-0.0020924112759530544
4608.0,0.0006433131638914347
5120.0,0.0014941995032131672
5632.0,0.0008947914466261864
6144.0,0.0010611721081659198
6656.0,-0.0003328279126435518
7168.0,0.0007435158477164805
7680.0,-0.0014554274966940284
8192.0,-0.000869187293574214
end
