version,3.0
numOfCh,1
type,point
parent_name,19e3e_0dot4-1dot0
ch_type,1_1
kcount,1
numberNandB,1
brightnessNandB,1
carpet pos,0
pc,0
Time (ms),CH1 Auto-Correlation
1.0,0.10069650411605835
2.0,0.09678273648023605
3.0,0.09333733469247818
4.0,0.09026285260915756
5.0,0.08722969889640808
6.0,0.08441076427698135
7.0,0.0817173570394516
8.0,0.07920559495687485
9.0,0.076658695936203
10.0,0.07443615794181824
11.0,0.07233049720525742
12.0,0.07044701278209686
13.0,0.06847978383302689
14.0,0.06649745255708694
15.0,0.06461654603481293
16.0,0.06286405026912689
18.0,0.05981899052858353
20.0,0.056994665414094925
22.0,0.05439667031168938
24.0,0.05207810550928116
26.0,0.05006216838955879
28.0,0.04831673949956894
30.0,0.04682103917002678
32.0,0.04536197707056999
36.0,0.04239659011363983
40.0,0.03916003555059433
44.0,0.03626803308725357
48.0,0.033712103962898254
52.0,0.03112943097949028
56.0,0.02880859188735485
60.0,0.026713915169239044
64.0,0.024729158729314804
72.0,0.02163403294980526
80.0,0.01960669830441475
88.0,0.01764046773314476
96.0,0.014680391177535057
104.0,0.011928480118513107
112.0,0.010803249664604664
120.0,0.010148096829652786
128.0,0.009845669381320477
144.0,0.010340394452214241
160.0,0.011769955046474934
176.0,0.012258059345185757
192.0,0.010419202968478203
208.0,0.010634510777890682
224.0,0.010063323192298412
240.0,0.005694740917533636
256.0,0.000876929028891027
288.0,0.00021848456526640803
320.0,0.0034872661344707012
352.0,0.008795428089797497
384.0,0.009555067867040634
416.0,0.0026498090010136366
448.0,-0.002060041530057788
480.0,-0.0028327936306595802
512.0,-0.002476405119523406
576.0,-0.006929676979780197
640.0,-0.011200517416000366
704.0,-0.006497812923043966
768.0,-0.00013772955571766943
832.0,-0.0030591669492423534
896.0,0.0011802810477092862
960.0,-0.00572244543582201
1024.0,-0.012609546072781086
1152.0,-0.005473664030432701
1280.0,-0.009490955621004105
1408.0,-0.006797440815716982
1536.0,0.003001908306032419
1664.0,0.009039893746376038
1792.0,-0.0016350873047485948
1920.0,-0.0013280219864100218
2048.0,0.002405550330877304
2304.0,-0.0050348383374512196
2560.0,0.00017076413496397436
2816.0,0.002484362805262208
3072.0,0.0011992402141913772
3328.0,0.0011248965747654438
3584.0,3.375627056811936e-05
3840.0,-0.007068631239235401
4096.0,-0.0012334343045949936
4608.0,0.003136815270408988
5120.0,0.003948448225855827
5632.0,0.0008332625729963183
6144.0,-0.003494488773867488
6656.0,-0.002165455836802721
7168.0,0.003367215394973755
7680.0,-0.0014388288836926222
8192.0,-0.0038520572707057
end
