version,3.0
numOfCh,1
type,point
parent_name,19e3e_0dot4-1dot0
ch_type,1_1
kcount,1
numberNandB,1
brightnessNandB,1
carpet pos,0
pc,0
Time (ms),CH1 Auto-Correlation
1.0,0.11560041457414627
2.0,0.11130242049694061
3.0,0.10746456682682037
4.0,0.10393590480089188
5.0,0.1006665825843811
6.0,0.09752077609300613
7.0,0.09462717175483704
8.0,0.09197188913822174
9.0,0.08940280973911285
10.0,0.08688805997371674
11.0,0.08439945429563522
12.0,0.08199374377727509
13.0,0.07964068651199341
14.0,0.07743600755929947
15.0,0.07527817785739899
16.0,0.07328494638204575
18.0,0.06967083364725113
20.0,0.06644464284181595
22.0,0.06391136348247528
24.0,0.06182648241519928
26.0,0.05976351723074913
28.0,0.058009348809719086
30.0,0.05644477903842926
32.0,0.054917946457862854
36.0,0.05212913826107979
40.0,0.04973292723298073
44.0,0.04721732437610626
48.0,0.04459303244948387
52.0,0.04182128608226776
56.0,0.039012741297483444
60.0,0.0362602174282074
64.0,0.0337471105158329
72.0,0.029976556077599525
80.0,0.027601534500718117
88.0,0.02732817828655243
96.0,0.027483796700835228
104.0,0.027035558596253395
112.0,0.025544602423906326
120.0,0.023468267172574997
128.0,0.023160001263022423
144.0,0.02454608865082264
160.0,0.023607073351740837
176.0,0.022206459194421768
192.0,0.020255453884601593
208.0,0.021963069215416908
224.0,0.022227143868803978
240.0,0.023132992908358574
256.0,0.022629527375102043
288.0,0.017195725813508034
320.0,0.011428948491811752
352.0,0.006351678166538477
384.0,0.007684233598411083
416.0,0.006131879985332489
448.0,0.005670508369803429
480.0,0.006214057095348835
512.0,0.005868519656360149
576.0,0.0045196907594799995
640.0,0.002226234646514058
704.0,0.005562379024922848
768.0,0.007890060544013977
832.0,0.0071167899295687675
896.0,0.011548733338713646
960.0,0.009660016745328903
1024.0,0.005964151117950678
1152.0,0.004117459990084171
1280.0,0.0050483881495893
1408.0,0.006135123781859875
1536.0,0.01174742728471756
1664.0,0.014049496501684189
1792.0,0.01610802672803402
1920.0,0.014675836078822613
2048.0,0.009604431688785553
2304.0,0.005746167153120041
2560.0,0.009614731185138226
2816.0,0.005747865419834852
3072.0,-0.0015428179176524282
3328.0,0.0037856323178857565
3584.0,0.009938402101397514
3840.0,0.0054664588533341885
4096.0,-0.00588880805298686
4608.0,-0.003765696194022894
5120.0,-0.0027580137830227613
5632.0,-0.0006913482793606818
6144.0,-0.013371664099395275
6656.0,-0.010770546272397041
7168.0,-0.007860930636525154
7680.0,-0.013691100291907787
8192.0,-0.01007501594722271
end
