version,3.0
numOfCh,1
type,point
parent_name,19e3e_0dot4-1dot0
ch_type,1_1
kcount,1
numberNandB,1
brightnessNandB,1
carpet pos,0
pc,0
Time (ms),CH1 Auto-Correlation
1.0,0.10849311202764511
2.0,0.10446929931640625
3.0,0.10091458261013031
4.0,0.09749932587146759
5.0,0.09434951096773148
6.0,0.09149814397096634
7.0,0.0889272466301918
8.0,0.08641760796308517
9.0,0.08412166684865952
10.0,0.08202473819255829
11.0,0.07994023710489273
12.0,0.07802862673997879
13.0,0.07636313885450363
14.0,0.07485326379537582
15.0,0.0732981413602829
16.0,0.0716569721698761
18.0,0.0688529908657074
20.0,0.06631659716367722
22.0,0.06399132311344147
24.0,0.0618494376540184
26.0,0.059805210679769516
28.0,0.05793137103319168
30.0,0.056048210710287094
32.0,0.05422188714146614
36.0,0.05076679214835167
40.0,0.047511324286460876
44.0,0.04485109820961952
48.0,0.042877644300460815
52.0,0.041165221482515335
56.0,0.039837367832660675
60.0,0.03887157887220383
64.0,0.03838220611214638
72.0,0.036139264702796936
80.0,0.03432173281908035
88.0,0.03229212015867233
96.0,0.030986551195383072
104.0,0.0311981700360775
112.0,0.031175127252936363
120.0,0.029001465067267418
128.0,0.027355322614312172
144.0,0.026207398623228073
160.0,0.023747241124510765
176.0,0.02061430551111698
192.0,0.018503861501812935
208.0,0.015448038466274738
224.0,0.013240071944892406
240.0,0.012302390299737453
256.0,0.010915589518845081
288.0,0.010682683438062668
320.0,0.009503665380179882
352.0,0.009424638003110886
384.0,0.00642551202327013
416.0,0.0061556012369692326
448.0,0.0063804881647229195
480.0,0.008013416081666946
512.0,0.006309248972684145
576.0,0.0031276920344680548
640.0,0.0013685565209016204
704.0,-0.0013607512228190899
768.0,-0.008522658608853817
832.0,-0.008619583211839199
896.0,-0.003041341435164213
960.0,0.000986661878414452
1024.0,0.0005344561650417745
1152.0,-0.003417819272726774
1280.0,-0.0060776881873607635
1408.0,0.002594253746792674
1536.0,0.008628696203231812
1664.0,0.009825258515775204
1792.0,0.010720786638557911
1920.0,0.012074321508407593
2048.0,0.010589356534183025
2304.0,0.0019039898179471493
2560.0,0.004077085293829441
2816.0,0.0016778403660282493
3072.0,0.0032348514068871737
3328.0,0.0005136014660820365
3584.0,-0.004380057565867901
3840.0,-0.006419703364372253
4096.0,-0.0020150812342762947
4608.0,0.003336540190503001
5120.0,0.0070946719497442245
5632.0,0.004646267741918564
6144.0,-0.009375687688589096
6656.0,-0.0017323257634416223
7168.0,-0.008513754233717918
7680.0,-0.0023329351097345352
8192.0,-0.007168374489992857
end
