version,3.0
numOfCh,1
type,point
parent_name,19e3e_0dot4-1dot0
ch_type,1_1
kcount,1
numberNandB,1
brightnessNandB,1
carpet pos,0
pc,0
Time (ms),CH1 Auto-Correlation
1.0,0.09254255890846252
2.0,0.08858802914619446
3.0,0.08484615385532379
4.0,0.08133421838283539
5.0,0.07835939526557922
6.0,0.07544764131307602
7.0,0.07273000478744507
8.0,0.07012668251991272
9.0,0.06783983111381531
10.0,0.06549672782421112
11.0,0.0634494423866272
12.0,0.06142581254243851
13.0,0.05942307040095329
14.0,0.057650476694107056
15.0,0.05589297041296959
16.0,0.05419708788394928
18.0,0.05111267417669296
20.0,0.04801776260137558
22.0,0.045133113861083984
24.0,0.0427783727645874
26.0,0.04039684683084488
28.0,0.038348205387592316
30.0,0.03668012097477913
32.0,0.035243500024080276
36.0,0.03275129199028015
40.0,0.03044242598116398
44.0,0.02851182036101818
48.0,0.026757625862956047
52.0,0.025120796635746956
56.0,0.023203151300549507
60.0,0.02115742862224579
64.0,0.019694289192557335
72.0,0.016783250495791435
80.0,0.01580093428492546
88.0,0.015431227162480354
96.0,0.015012741088867188
104.0,0.014146863482892513
112.0,0.011953256092965603
120.0,0.010138673707842827
128.0,0.00879549141973257
144.0,0.006435093004256487
160.0,0.0038899460341781378
176.0,0.0031013390980660915
192.0,0.002440366894006729
208.0,0.0007689650519751012
224.0,0.0022248742170631886
240.0,0.004542811308056116
256.0,0.004851835779845715
288.0,0.006388768553733826
320.0,0.005200949963182211
352.0,0.004964182153344154
384.0,0.007245480082929134
416.0,0.005477221682667732
448.0,0.007499340455979109
480.0,0.008625730872154236
512.0,0.007450958248227835
576.0,0.007191004231572151
640.0,0.004888366907835007
704.0,0.00872044451534748
768.0,0.005377768073230982
832.0,0.0027716862969100475
896.0,0.002888997085392475
960.0,0.0053726923651993275
1024.0,0.00842016376554966
1152.0,0.002840307541191578
1280.0,0.0042897495441138744
1408.0,0.006733936723321676
1536.0,0.004082839470356703
1664.0,-0.0017646232154220343
1792.0,-0.004201814532279968
1920.0,-0.004771421197801828
2048.0,-0.002040178282186389
2304.0,-0.0006353916833177209
2560.0,-0.0026879908982664347
2816.0,-0.001572670298628509
3072.0,-0.00663726544007659
3328.0,-0.008326476439833641
3584.0,-0.001066057477146387
3840.0,-0.0027074776589870453
4096.0,-0.008220426738262177
4608.0,-0.0082829175516963
5120.0,-0.006272434256970882
5632.0,-0.003630339866504073
6144.0,-0.001710001495666802
6656.0,-0.0007852675043977797
7168.0,0.002578094368800521
7680.0,0.0007020325865596533
8192.0,-0.00027843136922456324
end
