version,3.0
numOfCh,1
type,point
parent_name,19e3e_0dot4-1dot0
ch_type,1_1
kcount,1
numberNandB,1
brightnessNandB,1
carpet pos,0
pc,0
Time (ms),CH1 Auto-Correlation
1.0,0.0981149822473526
2.0,0.09418315440416336
3.0,0.09069257229566574
4.0,0.08741872757673264
5.0,0.084540456533432
6.0,0.08188047260046005
7.0,0.0793653056025505
8.0,0.07700451463460922
9.0,0.07473264634609222
10.0,0.07254724204540253
11.0,0.07051289081573486
12.0,0.06854423135519028
13.0,0.0667661651968956
14.0,0.06509881466627121
15.0,0.0634089857339859
16.0,0.061854396015405655
18.0,0.058906085789203644
20.0,0.056116215884685516
22.0,0.05348827689886093
24.0,0.05116074159741402
26.0,0.04866029694676399
28.0,0.0461849719285965
30.0,0.04365934059023857
32.0,0.041321538388729095
36.0,0.03733108937740326
40.0,0.033600714057683945
44.0,0.03018828108906746
48.0,0.02721032314002514
52.0,0.024367308244109154
56.0,0.02210252545773983
60.0,0.020709211006760597
64.0,0.019222529605031013
72.0,0.01747986488044262
80.0,0.015484192408621311
88.0,0.01333946269005537
96.0,0.011589267291128635
104.0,0.010072396136820316
112.0,0.008576974272727966
120.0,0.007491700351238251
128.0,0.006983492523431778
144.0,0.006028441712260246
160.0,0.0048361290246248245
176.0,0.003561866469681263
192.0,0.005228187423199415
208.0,0.00662318617105484
224.0,0.007440740708261728
240.0,0.007091464940458536
256.0,0.005192771088331938
288.0,0.0034920822363346815
320.0,-0.0011523007415235043
352.0,-0.004037695936858654
384.0,-0.0023835552856326103
416.0,-0.0008617285639047623
448.0,0.0019327907357364893
480.0,0.0009901986923068762
512.0,-0.000828834599815309
576.0,-0.0016113482415676117
640.0,0.000505906471516937
704.0,-0.0025296127423644066
768.0,-0.006337486207485199
832.0,-0.008029500022530556
896.0,-0.0069257961586117744
960.0,-0.0014246025821194053
1024.0,-0.003964564297348261
1152.0,0.0013995285844430327
1280.0,0.007559376768767834
1408.0,0.0031711410265415907
1536.0,0.0012751002795994282
1664.0,-0.0024579947348684072
1792.0,-0.0018008287297561765
1920.0,0.002619352890178561
2048.0,-0.0036230727564543486
2304.0,-0.0048788548447191715
2560.0,0.0015544563066214323
2816.0,-0.002026207512244582
3072.0,-0.00726165808737278
3328.0,-0.0029387385584414005
3584.0,-0.003978439141064882
3840.0,0.00517334183678031
4096.0,0.0050859395414590836
4608.0,0.0045509967021644115
5120.0,0.0015311103779822588
5632.0,-0.00013930142449680716
6144.0,-0.0010682678548619151
6656.0,-0.0010733016533777118
7168.0,-0.005087829194962978
7680.0,-0.0038009672425687313
8192.0,0.0021099604200571775
end
