version,3.0
numOfCh,1
type,point
parent_name,19e3e_0dot4-1dot0
ch_type,1_1
kcount,1
numberNandB,1
brightnessNandB,1
carpet pos,0
pc,0
Time (ms),CH1 Auto-Correlation
1.0,0.0984727144241333
2.0,0.09369867295026779
3.0,0.08962394297122955
4.0,0.08605526387691498
5.0,0.08260494470596313
6.0,0.07974068075418472
7.0,0.07694011926651001
8.0,0.07431567460298538
9.0,0.07170616835355759
10.0,0.0693371519446373
11.0,0.06706779450178146
12.0,0.06502293795347214
13.0,0.06303370743989944
14.0,0.06126830726861954
15.0,0.059384603053331375
16.0,0.057608019560575485
18.0,0.054623402655124664
20.0,0.05201621353626251
22.0,0.04975683614611626
24.0,0.047724075615406036
26.0,0.045882247388362885
28.0,0.04414733871817589
30.0,0.042483922094106674
32.0,0.040863074362277985
36.0,0.03723074123263359
40.0,0.03332049772143364
44.0,0.029970375820994377
48.0,0.0271472055464983
52.0,0.02481471374630928
56.0,0.023274825885891914
60.0,0.02154907025396824
64.0,0.02008216828107834
72.0,0.01862703077495098
80.0,0.016910294070839882
88.0,0.01543380320072174
96.0,0.01301902811974287
104.0,0.010390827432274818
112.0,0.007498163729906082
120.0,0.006190084386616945
128.0,0.004745233803987503
144.0,0.003042072057723999
160.0,0.002821209141984582
176.0,0.001031859195791185
192.0,0.0004927951958961785
208.0,0.0029312935657799244
224.0,0.004420836456120014
240.0,0.005972850136458874
256.0,0.004685347434133291
288.0,0.0066260467283427715
320.0,0.007803621236234903
352.0,0.002269462216645479
384.0,-0.006027530413120985
416.0,-0.004697838332504034
448.0,-0.002919919556006789
480.0,-0.0030157144647091627
512.0,-9.435594256501645e-05
576.0,0.004249318968504667
640.0,0.0009293653420172632
704.0,-0.0018541371682658792
768.0,-0.005020186770707369
832.0,0.0007410267135128379
896.0,0.0024678909685462713
960.0,0.004768420476466417
1024.0,0.00572100980207324
1152.0,0.0018600978655740619
1280.0,-0.0033413490746170282
1408.0,-0.0002041834086412564
1536.0,0.004773886874318123
1664.0,0.000239422035519965
1792.0,-0.0024135462008416653
1920.0,-0.005267350003123283
2048.0,-0.002674283692613244
2304.0,-0.0006903576431795955
2560.0,0.002274559112265706
2816.0,-0.004885845351964235
3072.0,0.0009125331998802722
3328.0,-0.0026519016828387976
3584.0,-0.009170486591756344
3840.0,-0.006767510902136564
4096.0,-0.002997894072905183
4608.0,-0.0032678707502782345
5120.0,-0.0012564462376758456
5632.0,0.004191032610833645
6144.0,-0.0003949603997170925
6656.0,0.004432042129337788
7168.0,0.001181723433546722
7680.0,0.002567925024777651
8192.0,0.005453420802950859
end
