version,3.0
numOfCh,1
type,point
parent_name,19e3e_0dot4-1dot0
ch_type,1_1
kcount,1
numberNandB,1
brightnessNandB,1
carpet pos,0
pc,0
Time (ms),CH1 Auto-Correlation
1.0,0.0999261811375618
2.0,0.09592656791210175
3.0,0.09248323738574982
4.0,0.08932538330554962
5.0,0.08634398132562637
6.0,0.08357275277376175
7.0,0.08104126900434494
8.0,0.07869040966033936
9.0,0.07661604881286621
10.0,0.07463030517101288
11.0,0.07278382033109665
12.0,0.07089559733867645
13.0,0.06908917427062988
14.0,0.06739874929189682
15.0,0.06584920734167099
16.0,0.06433885544538498
18.0,0.06125710532069206
20.0,0.05836555361747742
22.0,0.05581606552004814
24.0,0.05339093133807182
26.0,0.051078006625175476
28.0,0.04892792925238609
30.0,0.04670751839876175
32.0,0.0447753444314003
36.0,0.04113594442605972
40.0,0.037811923772096634
44.0,0.03516290709376335
48.0,0.032868240028619766
52.0,0.030501533299684525
56.0,0.02878914400935173
60.0,0.02776135876774788
64.0,0.026986680924892426
72.0,0.02562754414975643
80.0,0.024103639647364616
88.0,0.0244201198220253
96.0,0.024325404316186905
104.0,0.02301471121609211
112.0,0.022027378901839256
120.0,0.021273361518979073
128.0,0.020535146817564964
144.0,0.018694929778575897
160.0,0.017216239124536514
176.0,0.014757166616618633
192.0,0.01060531847178936
208.0,0.006529679987579584
224.0,0.0055063082836568356
240.0,0.00739914970472455
256.0,0.008289266377687454
288.0,0.006851887330412865
320.0,0.0060487110167741776
352.0,0.0031821271404623985
384.0,-0.0017632829258218408
416.0,-0.0015848311595618725
448.0,0.0012546752113848925
480.0,0.0009016100666485727
512.0,0.0032750314567238092
576.0,0.005869411397725344
640.0,0.0026093809865415096
704.0,0.0015986866783350706
768.0,-0.0048485612496733665
832.0,0.0021511749364435673
896.0,-0.00023103637795429677
960.0,0.003381551941856742
1024.0,0.0023008203133940697
1152.0,0.0064405715093016624
1280.0,0.0032187176402658224
1408.0,-0.003252503229305148
1536.0,-0.0035900273360311985
1664.0,0.0004350988892838359
1792.0,-0.0014054800849407911
1920.0,-0.000843915855512023
2048.0,-0.00324783893302083
2304.0,-0.0010628658346831799
2560.0,-0.011225626803934574
2816.0,-0.009715933352708817
3072.0,-0.0076851616613566875
3328.0,0.0012670670403167605
3584.0,-0.008243907243013382
3840.0,-0.005030603148043156
4096.0,-0.004393772222101688
4608.0,-0.001979260705411434
5120.0,0.0056220414116978645
5632.0,0.005605220794677734
6144.0,-4.71554885734804e-05
6656.0,0.005765258800238371
7168.0,-0.0007707266486249864
7680.0,0.003638739697635174
8192.0,0.0026028554420918226
end
