version,3.0
numOfCh,1
type,point
parent_name,19e3e_0dot4-1dot0
ch_type,1_1
kcount,1
numberNandB,1
brightnessNandB,1
carpet pos,0
pc,0
Time (ms),CH1 Auto-Correlation
1.0,0.10543885827064514
2.0,0.10118357837200165
3.0,0.09742478281259537
4.0,0.09397910535335541
5.0,0.0908505842089653
6.0,0.0879116877913475
7.0,0.08528494089841843
8.0,0.08282241225242615
9.0,0.08054894953966141
10.0,0.07827094942331314
11.0,0.07616427540779114
12.0,0.07426191121339798
13.0,0.07234170287847519
14.0,0.07054778188467026
15.0,0.06887500733137131
16.0,0.06727220118045807
18.0,0.06426392495632172
20.0,0.061592742800712585
22.0,0.05917178839445114
24.0,0.0567198172211647
26.0,0.054344382137060165
28.0,0.05214845761656761
30.0,0.04997646063566208
32.0,0.04778240621089935
36.0,0.04385055974125862
40.0,0.04057322070002556
44.0,0.03776393458247185
48.0,0.03510907292366028
52.0,0.03240366280078888
56.0,0.030735548585653305
60.0,0.028802448883652687
64.0,0.02661961130797863
72.0,0.02280733734369278
80.0,0.019556691870093346
88.0,0.017719991505146027
96.0,0.01623683236539364
104.0,0.01487774308770895
112.0,0.01307605765759945
120.0,0.012456401251256466
128.0,0.011812700890004635
144.0,0.009413911029696465
160.0,0.007694771513342857
176.0,0.007231380790472031
192.0,0.0047766161151230335
208.0,0.0026337469462305307
224.0,0.004400267265737057
240.0,0.006336758844554424
256.0,0.0070183416828513145
288.0,0.006293671205639839
320.0,0.0014587001642212272
352.0,-0.0014554563676938415
384.0,-0.002300964668393135
416.0,0.0002791167062241584
448.0,-0.0027738562785089016
480.0,-0.007171148434281349
512.0,-0.007026935461908579
576.0,-0.005116760265082121
640.0,-0.003952811472117901
704.0,-0.004026136361062527
768.0,-0.00884443148970604
832.0,-0.008444119244813919
896.0,-0.010809707455337048
960.0,-0.006051246076822281
1024.0,-0.00569904362782836
1152.0,-0.008953757584095001
1280.0,-2.934172334789764e-05
1408.0,0.006356419529765844
1536.0,0.0005195533740334213
1664.0,0.0008913131314329803
1792.0,0.0018842722056433558
1920.0,0.0023084792774170637
2048.0,-0.0008384644170291722
2304.0,0.0019538900814950466
2560.0,-0.0016316516557708383
2816.0,-0.0055943941697478294
3072.0,-0.0012811790220439434
3328.0,-0.004507074132561684
3584.0,0.0027598498854786158
3840.0,0.0017378547927364707
4096.0,0.005807038862258196
4608.0,0.00019465443619992584
5120.0,-0.005865523125976324
5632.0,-0.001201595296151936
6144.0,0.0035107224248349667
6656.0,-0.0013856596779078245
7168.0,-0.0006246664561331272
7680.0,-0.003795728785917163
8192.0,0.0007780678570270538
end
