version,3.0
numOfCh,1
type,point
parent_name,19e3e_0dot4-1dot0
ch_type,1_1
kcount,1
numberNandB,1
brightnessNandB,1
carpet pos,0
pc,0
Time (ms),CH1 Auto-Correlation
1.0,0.11215592920780182
2.0,0.10789692401885986
3.0,0.10435257852077484
4.0,0.10124805569648743
5.0,0.09812869131565094
6.0,0.0952661857008934
7.0,0.09258914738893509
8.0,0.09011831134557724
9.0,0.08770602941513062
10.0,0.08537009358406067
11.0,0.08321971446275711
12.0,0.0811367928981781
13.0,0.07915646582841873
14.0,0.07720089703798294
15.0,0.07543186843395233
16.0,0.07381179183721542
18.0,0.07054503262042999
20.0,0.06742765009403229
22.0,0.06459874659776688
24.0,0.06213736906647682
26.0,0.05993058159947395
28.0,0.058191437274217606
30.0,0.0564783476293087
32.0,0.054605890065431595
36.0,0.05150691047310829
40.0,0.04894247278571129
44.0,0.04649246484041214
48.0,0.04392631724476814
52.0,0.04169799014925957
56.0,0.039273276925086975
60.0,0.03726645186543465
64.0,0.036062855273485184
72.0,0.03380843624472618
80.0,0.031152186915278435
88.0,0.02817087061703205
96.0,0.025884291157126427
104.0,0.02379072643816471
112.0,0.021602317690849304
120.0,0.02018144726753235
128.0,0.01960093155503273
144.0,0.015479814261198044
160.0,0.013853375799953938
176.0,0.01231362670660019
192.0,0.009417768567800522
208.0,0.006694064009934664
224.0,0.0033212662674486637
240.0,0.0036770894657820463
256.0,0.005466918461024761
288.0,0.007435460574924946
320.0,0.007732101250439882
352.0,0.007880586199462414
384.0,0.00895287562161684
416.0,0.0066211591474711895
448.0,0.008204157464206219
480.0,0.004967480432242155
512.0,0.0008331643184646964
576.0,-0.002520947717130184
640.0,-0.003286179853603244
704.0,-0.008245437406003475
768.0,8.644821355119348e-05
832.0,0.001871468615718186
896.0,0.006416207645088434
960.0,0.006731510628014803
1024.0,-0.0024323943071067333
1152.0,-0.0035556103102862835
1280.0,-0.003912908025085926
1408.0,-0.005561793688684702
1536.0,-0.00284758023917675
1664.0,-0.0003735180653166026
1792.0,0.008189443498849869
1920.0,-0.0039038981776684523
2048.0,-0.008009965531527996
2304.0,0.004745337180793285
2560.0,0.0004485327226575464
2816.0,0.005662926007062197
3072.0,-0.0024184049107134342
3328.0,-0.0013852157862856984
3584.0,-0.0024076702538877726
3840.0,-0.0016504080267623067
4096.0,-0.0035840217024087906
4608.0,0.003456307342275977
5120.0,-0.0017043632688000798
5632.0,-0.0038163778372108936
6144.0,-0.009181161411106586
6656.0,-0.008174307644367218
7168.0,-0.007780325133353472
7680.0,-0.0027568251825869083
8192.0,0.0023486081045120955
end
