version,3.0
numOfCh,1
type,point
parent_name,19e3e_0dot4-1dot0
ch_type,1_1
kcount,1
numberNandB,1
brightnessNandB,1
carpet pos,0
pc,0
Time (ms),CH1 Auto-Correlation
1.0,0.10662656277418137
2.0,0.10191874951124191
3.0,0.09785955399274826
4.0,0.09437383711338043
5.0,0.09111228585243225
6.0,0.08799390494823456
7.0,0.08507993817329407
8.0,0.08237828314304352
9.0,0.07996170222759247
10.0,0.07770413160324097
11.0,0.0757787823677063
12.0,0.07386673241853714
13.0,0.07190775871276855
14.0,0.07015286386013031
15.0,0.06850112229585648
16.0,0.06680251657962799
18.0,0.06379875540733337
20.0,0.06094243377447128
22.0,0.058555517345666885
24.0,0.056225117295980453
26.0,0.053926702588796616
28.0,0.051835279911756516
30.0,0.04996825382113457
32.0,0.04813040420413017
36.0,0.04486735537648201
40.0,0.041704654693603516
44.0,0.0390910804271698
48.0,0.03682705760002136
52.0,0.035013504326343536
56.0,0.033396948128938675
60.0,0.03199334815144539
64.0,0.030726233497262
72.0,0.028449412435293198
80.0,0.027005275711417198
88.0,0.025552449747920036
96.0,0.024076616391539574
104.0,0.024175506085157394
112.0,0.022799883037805557
120.0,0.020331889390945435
128.0,0.019232431426644325
144.0,0.019129831343889236
160.0,0.017334051430225372
176.0,0.016140185296535492
192.0,0.013513337820768356
208.0,0.010807879269123077
224.0,0.009269429370760918
240.0,0.005700625944882631
256.0,0.004023306537419558
288.0,0.0022874290589243174
320.0,-0.0014841413358226418
352.0,-0.0020855043549090624
384.0,-0.0034294507931917906
416.0,-0.005846609827131033
448.0,-0.008164514787495136
480.0,-0.008830050006508827
512.0,-0.006782763171941042
576.0,-0.0021549826487898827
640.0,-0.0018525024643167853
704.0,-0.004438632167875767
768.0,-0.0030458595138043165
832.0,-0.00463318545371294
896.0,0.0012631247518584132
960.0,-0.0022379287984222174
1024.0,0.0032925077248364687
1152.0,0.005278097931295633
1280.0,0.004627971909940243
1408.0,0.0077466098591685295
1536.0,0.00662807235494256
1664.0,-0.0017989377956837416
1792.0,-0.0016885404475033283
1920.0,0.0017168390331789851
2048.0,0.0027394520584493876
2304.0,0.0020468838047236204
2560.0,-0.00458739185705781
2816.0,-0.004408472683280706
3072.0,-0.0021620686165988445
3328.0,-0.0031093063298612833
3584.0,0.003871595486998558
3840.0,-0.008386627770960331
4096.0,-0.013246763497591019
4608.0,-0.0026066259015351534
5120.0,-0.004121753852814436
5632.0,-0.003208654001355171
6144.0,0.0028880771715193987
6656.0,0.0004047089896630496
7168.0,-0.00472426600754261
7680.0,0.003349537029862404
8192.0,-0.00327957677654922
end
