version,3.0
numOfCh,1
type,point
parent_name,19e3e_0dot4-1dot0
ch_type,1_1
kcount,1
numberNandB,1
brightnessNandB,1
carpet pos,0
pc,0
Time (ms),CH1 Auto-Correlation
1.0,0.10302175581455231
2.0,0.09889636188745499
3.0,0.09515412896871567
4.0,0.09157764166593552
5.0,0.08842972666025162
6.0,0.0853801816701889
7.0,0.08244568854570389
8.0,0.07972558587789536
9.0,0.07710418850183487
10.0,0.07472164183855057
11.0,0.07239189743995667
12.0,0.0701618567109108
13.0,0.0681033730506897
14.0,0.06645282357931137
15.0,0.0648176297545433
16.0,0.06323648989200592
18.0,0.06032352149486542
20.0,0.05743306502699852
22.0,0.05468073859810829
24.0,0.05222225934267044
26.0,0.04984612390398979
28.0,0.047608062624931335
30.0,0.04564114660024643
32.0,0.04392676427960396
36.0,0.04126274213194847
40.0,0.038909681141376495
44.0,0.03616796061396599
48.0,0.0338965579867363
52.0,0.03230705112218857
56.0,0.03166235610842705
60.0,0.03158284351229668
64.0,0.031181126832962036
72.0,0.03091844730079174
80.0,0.03075985051691532
88.0,0.030058249831199646
96.0,0.030046438798308372
104.0,0.029853740707039833
112.0,0.029444875195622444
120.0,0.029732078313827515
128.0,0.0296699870377779
144.0,0.027816779911518097
160.0,0.025694413110613823
176.0,0.022333849221467972
192.0,0.019007040187716484
208.0,0.018559129908680916
224.0,0.01966894418001175
240.0,0.018821129575371742
256.0,0.01593591645359993
288.0,0.008303006179630756
320.0,0.004830140620470047
352.0,0.004781442228704691
384.0,0.006375919096171856
416.0,0.0030518132261931896
448.0,0.0013174365740269423
480.0,0.0014200593577697873
512.0,0.0013087302213534713
576.0,-0.0023524751886725426
640.0,-0.006522465031594038
704.0,-0.005503308959305286
768.0,-0.003755253041163087
832.0,-0.00274875620380044
896.0,-0.007608951069414616
960.0,-0.005558534525334835
1024.0,-0.004288080148398876
1152.0,-0.0037638142239302397
1280.0,-0.0030469910707324743
1408.0,-0.0030364887788891792
1536.0,-0.002777092857286334
1664.0,0.0007887227111496031
1792.0,0.00546190794557333
1920.0,0.010713490657508373
2048.0,0.012966953217983246
2304.0,0.0060670701786875725
2560.0,-0.004212069790810347
2816.0,-0.0105400076135993
3072.0,-0.011839594691991806
3328.0,-0.008755777031183243
3584.0,-0.0032737385481595993
3840.0,-0.005753722041845322
4096.0,-0.0011462481925264
4608.0,0.00016234845679719
5120.0,0.004267715848982334
5632.0,0.0003383005387149751
6144.0,-0.00020719406893476844
6656.0,0.005683634430170059
7168.0,0.007457560859620571
7680.0,-0.015320065431296825
8192.0,-0.008843251504004002
end
