version,3.0
numOfCh,1
type,point
parent_name,19e3e_0dot4-1dot0
ch_type,1_1
kcount,1
numberNandB,1
brightnessNandB,1
carpet pos,0
pc,0
Time (ms),CH1 Auto-Correlation
1.0,0.0956050381064415
2.0,0.09162747114896774
3.0,0.08796870708465576
4.0,0.08480753004550934
5.0,0.08189693838357925
6.0,0.07926012575626373
7.0,0.07690701633691788
8.0,0.07453212887048721
9.0,0.07233500480651855
10.0,0.0701931044459343
11.0,0.06818492710590363
12.0,0.06626103818416595
13.0,0.0645587146282196
14.0,0.06289388239383698
15.0,0.06151318922638893
16.0,0.06001996248960495
18.0,0.057252127677202225
20.0,0.054721053689718246
22.0,0.05241011083126068
24.0,0.050216756761074066
26.0,0.047968026250600815
28.0,0.04575426131486893
30.0,0.04349246621131897
32.0,0.04119504243135452
36.0,0.037038590759038925
40.0,0.033274583518505096
44.0,0.030636489391326904
48.0,0.028577541932463646
52.0,0.026188107207417488
56.0,0.023964283987879753
60.0,0.022175829857587814
64.0,0.02090509980916977
72.0,0.019135091453790665
80.0,0.01834378018975258
88.0,0.018451550975441933
96.0,0.018720285966992378
104.0,0.018650291487574577
112.0,0.018536411225795746
120.0,0.01896171271800995
128.0,0.01902611553668976
144.0,0.018214499577879906
160.0,0.01772206649184227
176.0,0.015116225928068161
192.0,0.012937821447849274
208.0,0.010645490139722824
224.0,0.01055850274860859
240.0,0.010071119293570518
256.0,0.011310323141515255
288.0,0.009253011085093021
320.0,0.009311236441135406
352.0,0.008745639584958553
384.0,0.00822009239345789
416.0,0.006613373756408691
448.0,0.003942660056054592
480.0,0.0007792345713824034
512.0,-0.000517550390213728
576.0,-0.0012459297431632876
640.0,-0.004911332856863737
704.0,-0.00899043120443821
768.0,-0.011122412979602814
832.0,-0.009783608838915825
896.0,-0.012520873919129372
960.0,-0.011560168117284775
1024.0,-0.0031633805483579636
1152.0,-0.003590645967051387
1280.0,-0.004177510272711515
1408.0,-0.0016851373948156834
1536.0,0.004733417648822069
1664.0,0.00840478204190731
1792.0,0.008104706183075905
1920.0,0.010119954124093056
2048.0,0.010999034158885479
2304.0,0.0017016732599586248
2560.0,-0.006893163081258535
2816.0,-0.012923583388328552
3072.0,-0.007487999275326729
3328.0,0.0024543653707951307
3584.0,0.002813893835991621
3840.0,-0.0005119703128002584
4096.0,-0.005727571435272694
4608.0,-0.009682307951152325
5120.0,-0.00251047033816576
5632.0,0.006235190201550722
6144.0,-0.0010515594622120261
6656.0,0.004036244470626116
7168.0,0.008485200814902782
7680.0,0.003618085291236639
8192.0,-0.0018783366540446877
end
