version,3.0
numOfCh,1
type,point
parent_name,19e3e_0dot4-1dot0
ch_type,1_1
kcount,1
numberNandB,1
brightnessNandB,1
carpet pos,0
pc,0
Time (ms),CH1 Auto-Correlation
1.0,0.09418472647666931
2.0,0.09031326323747635
3.0,0.08694076538085938
4.0,0.08389073610305786
5.0,0.08101697266101837
6.0,0.07830895483493805
7.0,0.07577719539403915
8.0,0.07335268706083298
9.0,0.07098010927438736
10.0,0.06866515427827835
11.0,0.06662630289793015
12.0,0.06449173390865326
13.0,0.06247478723526001
14.0,0.06058584153652191
15.0,0.05890095978975296
16.0,0.05724123492836952
18.0,0.054152533411979675
20.0,0.05155477672815323
22.0,0.049161843955516815
24.0,0.046493396162986755
26.0,0.044193167239427567
28.0,0.04217340424656868
30.0,0.04013451188802719
32.0,0.03832610324025154
36.0,0.035328302532434464
40.0,0.03274918347597122
44.0,0.030971471220254898
48.0,0.029354959726333618
52.0,0.02810177393257618
56.0,0.026723310351371765
60.0,0.02567339688539505
64.0,0.024903932586312294
72.0,0.02381458692252636
80.0,0.023089701309800148
88.0,0.021283632144331932
96.0,0.020397629588842392
104.0,0.020111721009016037
112.0,0.020198773592710495
120.0,0.01998319663107395
128.0,0.018924476578831673
144.0,0.01620531640946865
160.0,0.014871194027364254
176.0,0.014089234173297882
192.0,0.012489047832787037
208.0,0.011898410506546497
224.0,0.010331750847399235
240.0,0.00774956913664937
256.0,0.006551399827003479
288.0,0.004599851556122303
320.0,0.006193752400577068
352.0,0.006442130543291569
384.0,0.003929249010980129
416.0,0.0019570745062083006
448.0,0.004806556738913059
480.0,0.002935871249064803
512.0,0.0017122648423537612
576.0,0.0047264606691896915
640.0,0.00209863786585629
704.0,0.003253584960475564
768.0,0.003442315151914954
832.0,0.0022360249422490597
896.0,0.008588846772909164
960.0,0.008386550471186638
1024.0,0.006120132282376289
1152.0,0.005025801714509726
1280.0,-0.00021744647528976202
1408.0,-0.002495516324415803
1536.0,0.00653795525431633
1664.0,0.0041368561796844006
1792.0,0.001675849431194365
1920.0,-0.0033862770069390535
2048.0,-0.003431054763495922
2304.0,-0.003901225281879306
2560.0,-0.00028026997460983694
2816.0,-0.0006880522123537958
3072.0,-0.00012206312385387719
3328.0,0.0003515732823871076
3584.0,0.0009730112506076694
3840.0,-0.007309917826205492
4096.0,-0.004380039870738983
4608.0,0.0020772400312125683
5120.0,-0.007579486817121506
5632.0,-0.008410737849771976
6144.0,-0.0020238959696143866
6656.0,-0.011097150854766369
7168.0,9.688454156275839e-05
7680.0,0.004156889859586954
8192.0,0.001393181853927672
end
