version,3.0
numOfCh,1
type,point
parent_name,19e3e_0dot4-1dot0
ch_type,1_1
kcount,1
numberNandB,1
brightnessNandB,1
carpet pos,0
pc,0
Time (ms),CH1 Auto-Correlation
1.0,0.10798454284667969
2.0,0.10414018481969833
3.0,0.10076425224542618
4.0,0.09756271541118622
5.0,0.09454512596130371
6.0,0.09168659150600433
7.0,0.08907893300056458
8.0,0.08652619272470474
9.0,0.08413893729448318
10.0,0.08179197460412979
11.0,0.0795929878950119
12.0,0.07738985121250153
13.0,0.07527105510234833
14.0,0.07317634671926498
15.0,0.07119394093751907
16.0,0.0693591758608818
18.0,0.06605667620897293
20.0,0.06286575645208359
22.0,0.060090791434049606
24.0,0.05758095532655716
26.0,0.055155277252197266
28.0,0.05299081653356552
30.0,0.05113678425550461
32.0,0.049399230629205704
36.0,0.045566532760858536
40.0,0.04158741980791092
44.0,0.03797762840986252
48.0,0.0351119339466095
52.0,0.03261389955878258
56.0,0.030363639816641808
60.0,0.02863544411957264
64.0,0.02716272510588169
72.0,0.02559962496161461
80.0,0.0242562685161829
88.0,0.023566490039229393
96.0,0.023526495322585106
104.0,0.02320380136370659
112.0,0.02340681664645672
120.0,0.023416336625814438
128.0,0.022896895185112953
144.0,0.022708218544721603
160.0,0.02381470613181591
176.0,0.023684194311499596
192.0,0.02299528382718563
208.0,0.020832842215895653
224.0,0.018140414729714394
240.0,0.01407897099852562
256.0,0.014244805090129375
288.0,0.0167456716299057
320.0,0.015936342999339104
352.0,0.011062033474445343
384.0,0.010747469961643219
416.0,0.014350205659866333
448.0,0.013631117530167103
480.0,0.011584555730223656
512.0,0.013466726057231426
576.0,0.012433577328920364
640.0,0.007384815253317356
704.0,0.00565079553052783
768.0,0.005327216349542141
832.0,0.003929185215383768
896.0,0.0026513244956731796
960.0,0.007573493756353855
1024.0,0.011039464734494686
1152.0,0.002543616807088256
1280.0,-0.0010171786416321993
1408.0,-0.0026817305479198694
1536.0,-0.0023425938561558723
1664.0,-0.0061157154850661755
1792.0,-0.005826141685247421
1920.0,-0.006514192558825016
2048.0,-0.0073715681210160255
2304.0,-0.010903643444180489
2560.0,-0.010647679679095745
2816.0,-0.010851206257939339
3072.0,-0.010772046633064747
3328.0,-0.007416887208819389
3584.0,-0.010321768000721931
3840.0,-0.004014430567622185
4096.0,-0.004908709321171045
4608.0,-0.002402966609224677
5120.0,0.00040684480336494744
5632.0,0.0054953573271632195
6144.0,0.0036638022866100073
6656.0,0.007476773113012314
7168.0,0.009877722710371017
7680.0,0.0034314983058720827
8192.0,-0.005174724385142326
end
