version,3.0
numOfCh,1
type,point
parent_name,19e3e_0dot4-1dot0
ch_type,1_1
kcount,1
numberNandB,1
brightnessNandB,1
carpet pos,0
pc,0
Time (ms),CH1 Auto-Correlation
1.0,0.09365618973970413
2.0,0.08971449732780457
3.0,0.08603399246931076
4.0,0.08276847004890442
5.0,0.07966241240501404
6.0,0.07678157836198807
7.0,0.07425099611282349
8.0,0.0718722939491272
9.0,0.06954296678304672
10.0,0.06743305176496506
11.0,0.06550316512584686
12.0,0.0635644793510437
13.0,0.061653342097997665
14.0,0.05983606353402138
15.0,0.057967498898506165
16.0,0.05625920742750168
18.0,0.053110603243112564
20.0,0.050108544528484344
22.0,0.047757185995578766
24.0,0.04543164744973183
26.0,0.043019894510507584
28.0,0.04074235260486603
30.0,0.038726892322301865
32.0,0.03667635843157768
36.0,0.032955776900053024
40.0,0.03045421838760376
44.0,0.02848774939775467
48.0,0.026572545990347862
52.0,0.024753209203481674
56.0,0.023333661258220673
60.0,0.02184349298477173
64.0,0.020896000787615776
72.0,0.019163871183991432
80.0,0.01692487671971321
88.0,0.014910216443240643
96.0,0.013814401812851429
104.0,0.013305895030498505
112.0,0.013514376245439053
120.0,0.0127595579251647
128.0,0.011723454110324383
144.0,0.01126493513584137
160.0,0.010149429552257061
176.0,0.008937246166169643
192.0,0.010418298654258251
208.0,0.011159240268170834
224.0,0.013165607117116451
240.0,0.014553193934261799
256.0,0.013390456326305866
288.0,0.006960168015211821
320.0,0.004868029151111841
352.0,0.002979949815198779
384.0,0.004391607828438282
416.0,0.003647466655820608
448.0,0.003123835427686572
480.0,0.0031306862365454435
512.0,2.463639248162508e-06
576.0,-0.0034233825281262398
640.0,-0.007835009135305882
704.0,-0.006789876148104668
768.0,-0.0005260440520942211
832.0,-0.00047179788816720247
896.0,-0.0004707197076641023
960.0,-0.00012302337563596666
1024.0,0.003067975863814354
1152.0,0.0027538856957107782
1280.0,0.003105791052803397
1408.0,0.0024623246863484383
1536.0,0.003966266289353371
1664.0,0.0026871238369494677
1792.0,0.00021918740822002292
1920.0,-0.005414813756942749
2048.0,-0.00906467903405428
2304.0,-0.009769345633685589
2560.0,-0.007102731615304947
2816.0,-0.002385276136919856
3072.0,-0.0016824727645143867
3328.0,-0.006948716472834349
3584.0,-0.010398780927062035
3840.0,-0.002739890478551388
4096.0,0.003348002675920725
4608.0,0.006224784068763256
5120.0,0.0026309790555387735
5632.0,-0.0005321602802723646
6144.0,0.005094799678772688
6656.0,-0.00044380154577083886
7168.0,-0.0026718745939433575
7680.0,0.0030992592219263315
8192.0,-0.008123043924570084
end
