version,3.0
numOfCh,1
type,point
parent_name,19e3e_0dot4-1dot0
ch_type,1_1
kcount,1
numberNandB,1
brightnessNandB,1
carpet pos,0
pc,0
Time (ms),CH1 Auto-Correlation
1.0,0.11399050056934357
2.0,0.10957258939743042
3.0,0.10570289194583893
4.0,0.10215804725885391
5.0,0.0988415777683258
6.0,0.09584668278694153
7.0,0.093263640999794
8.0,0.09064119309186935
9.0,0.08827516436576843
10.0,0.08617181330919266
11.0,0.08417250216007233
12.0,0.0822819247841835
13.0,0.08029308915138245
14.0,0.07853224873542786
15.0,0.07689615339040756
16.0,0.07529854029417038
18.0,0.07196371257305145
20.0,0.06896790862083435
22.0,0.06635025888681412
24.0,0.06401687115430832
26.0,0.06186492741107941
28.0,0.059748195111751556
30.0,0.057505618780851364
32.0,0.05527523159980774
36.0,0.051482994109392166
40.0,0.04817487299442291
44.0,0.044996969401836395
48.0,0.04227566719055176
52.0,0.03985191509127617
56.0,0.03738486021757126
60.0,0.03512679040431976
64.0,0.033484380692243576
72.0,0.03153465688228607
80.0,0.029081838205456734
88.0,0.026791801676154137
96.0,0.024607451632618904
104.0,0.024979958310723305
112.0,0.02454126439988613
120.0,0.023481320589780807
128.0,0.02178940549492836
144.0,0.021416356787085533
160.0,0.021819351240992546
176.0,0.021827775985002518
192.0,0.021574458107352257
208.0,0.02087569050490856
224.0,0.02008369192481041
240.0,0.018793104216456413
256.0,0.013774637132883072
288.0,0.008078104816377163
320.0,0.011776589788496494
352.0,0.016645358875393867
384.0,0.015586946159601212
416.0,0.009560652077198029
448.0,0.007516131270676851
480.0,0.007329300977289677
512.0,0.0039062360301613808
576.0,-0.0005798925994895399
640.0,-0.0031683521810919046
704.0,-0.0011157620465382934
768.0,0.0006908901850692928
832.0,0.0019225834403187037
896.0,-0.0033919718116521835
960.0,-0.008798681199550629
1024.0,-0.005634852685034275
1152.0,-0.008564939722418785
1280.0,-0.01058862917125225
1408.0,-0.005184509791433811
1536.0,-0.006540453061461449
1664.0,-0.007935312576591969
1792.0,-0.0057098898105323315
1920.0,-0.0061931065283715725
2048.0,-0.007708587218075991
2304.0,-0.009988786652684212
2560.0,-0.005187475122511387
2816.0,-0.00039523097802884877
3072.0,-0.0014950414188206196
3328.0,-0.00010690417548175901
3584.0,0.0029133791103959084
3840.0,0.0032711452804505825
4096.0,0.0025587743148207664
4608.0,0.0013505681417882442
5120.0,-0.005017474293708801
5632.0,-0.006040270905941725
6144.0,0.006012525409460068
6656.0,0.011764041148126125
7168.0,-0.0009729690500535071
7680.0,0.0011279825121164322
8192.0,0.0022421518806368113
end
