version,3.0
numOfCh,1
type,point
parent_name,19e3e_0dot4-1dot0
ch_type,1_1
kcount,1
numberNandB,1
brightnessNandB,1
carpet pos,0
pc,0
Time (ms),CH1 Auto-Correlation
1.0,0.10178747028112411
2.0,0.0975477546453476
3.0,0.09383562952280045
4.0,0.09029984474182129
5.0,0.08713734149932861
6.0,0.0843072310090065
7.0,0.0816405713558197
8.0,0.07908806204795837
9.0,0.0767674520611763
10.0,0.07455005496740341
11.0,0.07240824401378632
12.0,0.07032376527786255
13.0,0.06846042722463608
14.0,0.06653452664613724
15.0,0.06461804360151291
16.0,0.06284741312265396
18.0,0.05941075086593628
20.0,0.05644991248846054
22.0,0.05378611758351326
24.0,0.05110468342900276
26.0,0.04859375208616257
28.0,0.04636755213141441
30.0,0.04403221607208252
32.0,0.04174085333943367
36.0,0.0381573811173439
40.0,0.03498581051826477
44.0,0.03190980479121208
48.0,0.02943667583167553
52.0,0.027471426874399185
56.0,0.025401556864380836
60.0,0.023697977885603905
64.0,0.02211812511086464
72.0,0.019285809248685837
80.0,0.01686199940741062
88.0,0.015551723539829254
96.0,0.015879148617386818
104.0,0.016441363841295242
112.0,0.01528105791658163
120.0,0.01312461867928505
128.0,0.011627893894910812
144.0,0.010777580551803112
160.0,0.010042921639978886
176.0,0.009298751130700111
192.0,0.00998769886791706
208.0,0.009405871853232384
224.0,0.008789224550127983
240.0,0.007748725824058056
256.0,0.006251966115087271
288.0,0.004071670118719339
320.0,0.005625961814075708
352.0,0.004706183448433876
384.0,-0.001008752966299653
416.0,-0.004101430997252464
448.0,-0.007684546057134867
480.0,-0.006118313409388065
512.0,-0.004450748208910227
576.0,-0.0023634086828678846
640.0,-0.0023175578098744154
704.0,-0.002903732703998685
768.0,-0.0019657937809824944
832.0,-0.004870826844125986
896.0,0.001081553171388805
960.0,0.0029831433203071356
1024.0,0.0008988527697511017
1152.0,0.00025954938610084355
1280.0,-0.0055015855468809605
1408.0,-0.011278252117335796
1536.0,-0.007646632846444845
1664.0,-0.0068763792514801025
1792.0,-0.0016720283310860395
1920.0,0.001448489842005074
2048.0,0.0017509559402242303
2304.0,-0.0010859138565137982
2560.0,1.238991717400495e-05
2816.0,0.006663000676780939
3072.0,-0.0006476900307461619
3328.0,-0.0031903223134577274
3584.0,-0.0016099754720926285
3840.0,-0.0017982925055548549
4096.0,-0.00392371229827404
4608.0,0.0037784886080771685
5120.0,-0.004283869173377752
5632.0,-0.0012949822703376412
6144.0,-0.003229219000786543
6656.0,-0.00746151152998209
7168.0,0.005315775517374277
7680.0,0.0022626977879554033
8192.0,0.007897185161709785
end
