version,3.0
numOfCh,1
type,point
parent_name,19e3e_0dot4-1dot0
ch_type,1_1
kcount,1
numberNandB,1
brightnessNandB,1
carpet pos,0
pc,0
Time (ms),CH1 Auto-Correlation
1.0,0.11771741509437561
2.0,0.11364971101284027
3.0,0.11005356907844543
4.0,0.10666224360466003
5.0,0.10354793816804886
6.0,0.10070706158876419
7.0,0.09819641709327698
8.0,0.09574614465236664
9.0,0.09338194876909256
10.0,0.09113703668117523
11.0,0.08900038152933121
12.0,0.08696121722459793
13.0,0.08509638160467148
14.0,0.08330041170120239
15.0,0.08161246031522751
16.0,0.07999696582555771
18.0,0.07668472826480865
20.0,0.0737142488360405
22.0,0.07078306376934052
24.0,0.06812581419944763
26.0,0.06568432599306107
28.0,0.06347920000553131
30.0,0.06163666397333145
32.0,0.059887487441301346
36.0,0.056991852819919586
40.0,0.055164411664009094
44.0,0.053585585206747055
48.0,0.05149982124567032
52.0,0.049432359635829926
56.0,0.04781344160437584
60.0,0.04612656682729721
64.0,0.04419950768351555
72.0,0.0408540703356266
80.0,0.03826988488435745
88.0,0.03651011735200882
96.0,0.0338558703660965
104.0,0.032074544578790665
112.0,0.029816383495926857
120.0,0.028041010722517967
128.0,0.026250040158629417
144.0,0.023130880668759346
160.0,0.018458835780620575
176.0,0.01629132777452469
192.0,0.015765700489282608
208.0,0.0145473163574934
224.0,0.014848893508315086
240.0,0.016652707010507584
256.0,0.01625750958919525
288.0,0.018221281468868256
320.0,0.016594476997852325
352.0,0.018829384818673134
384.0,0.019504638388752937
416.0,0.020329279825091362
448.0,0.01564663089811802
480.0,0.016015926375985146
512.0,0.013822754845023155
576.0,0.008814984932541847
640.0,0.006101872771978378
704.0,0.009902844205498695
768.0,0.013426372781395912
832.0,0.011574330739676952
896.0,0.007339186500757933
960.0,0.0002925896842498332
1024.0,-0.004420520272105932
1152.0,0.0019798921421170235
1280.0,-0.000845914357341826
1408.0,0.0032489916775375605
1536.0,0.0017757657915353775
1664.0,0.0004274405655451119
1792.0,0.0006532940897159278
1920.0,0.004149120766669512
2048.0,0.004699389450252056
2304.0,0.0007106228149496019
2560.0,0.005646755453199148
2816.0,0.008541653864085674
3072.0,0.012948774732649326
3328.0,0.004790769889950752
3584.0,0.00012747115397360176
3840.0,-0.00918711256235838
4096.0,-0.00796260591596365
4608.0,-0.005597897805273533
5120.0,0.006782220676541328
5632.0,0.00479517038911581
6144.0,-0.001778061268851161
6656.0,-0.00591829139739275
7168.0,-0.008454330265522003
7680.0,-0.006655943114310503
8192.0,-0.0003020123112946749
end
