version,3.0
numOfCh,1
type,point
parent_name,19e3e_0dot4-1dot0
ch_type,1_1
kcount,1
numberNandB,1
brightnessNandB,1
carpet pos,0
pc,0
Time (ms),CH1 Auto-Correlation
1.0,0.1132517158985138
2.0,0.10934291779994965
3.0,0.1059069111943245
4.0,0.10258400440216064
5.0,0.0997350662946701
6.0,0.09711621701717377
7.0,0.09462625533342361
8.0,0.09226476401090622
9.0,0.08990301191806793
10.0,0.08781885355710983
11.0,0.08585456758737564
12.0,0.08398203551769257
13.0,0.08228336274623871
14.0,0.08052803575992584
15.0,0.07881218194961548
16.0,0.07734823226928711
18.0,0.07424376159906387
20.0,0.07155442982912064
22.0,0.06918907910585403
24.0,0.06723000109195709
26.0,0.06540978699922562
28.0,0.06346766650676727
30.0,0.0616844967007637
32.0,0.06022988632321358
36.0,0.057408880442380905
40.0,0.05483553931117058
44.0,0.052202027291059494
48.0,0.04944838210940361
52.0,0.04697055742144585
56.0,0.04522618651390076
60.0,0.04342817887663841
64.0,0.04164545238018036
72.0,0.03773006051778793
80.0,0.03528682515025139
88.0,0.033775631338357925
96.0,0.032137155532836914
104.0,0.030618757009506226
112.0,0.028741206973791122
120.0,0.026197021827101707
128.0,0.024386363103985786
144.0,0.021501662209630013
160.0,0.016482224687933922
176.0,0.0133050000295043
192.0,0.012978166341781616
208.0,0.012374584563076496
224.0,0.010924980975687504
240.0,0.010896722786128521
256.0,0.010559076443314552
288.0,0.011541326530277729
320.0,0.01400000974535942
352.0,0.01504372339695692
384.0,0.012294631451368332
416.0,0.010039024986326694
448.0,0.008850345388054848
480.0,0.00901999045163393
512.0,0.009098582901060581
576.0,0.005723413545638323
640.0,0.003294138703495264
704.0,0.0013020499609410763
768.0,0.003420958761125803
832.0,6.452418165281415e-05
896.0,0.0009820603299885988
960.0,0.0013602010440081358
1024.0,0.0004116440541110933
1152.0,-0.0027332657482475042
1280.0,-0.007551915943622589
1408.0,-0.009601091034710407
1536.0,-0.011403060518205166
1664.0,-0.007978779263794422
1792.0,-0.004335644189268351
1920.0,-0.010088691487908363
2048.0,-0.004689144901931286
2304.0,0.0009092040709219873
2560.0,0.01325892098248005
2816.0,0.010267164558172226
3072.0,0.010284515097737312
3328.0,0.017651669681072235
3584.0,0.00944904051721096
3840.0,-0.00024868815671652555
4096.0,-0.011990714818239212
4608.0,-0.006387469824403524
5120.0,-0.013237452134490013
5632.0,-0.0007867420790717006
6144.0,0.0012811064952984452
6656.0,0.007475427817553282
7168.0,0.005198444705456495
7680.0,-0.008143790066242218
8192.0,-0.01169036515057087
end
