version,3.0
numOfCh,1
type,point
parent_name,19e3e_0dot4-1dot0
ch_type,1_1
kcount,1
numberNandB,1
brightnessNandB,1
carpet pos,0
pc,0
Time (ms),CH1 Auto-Correlation
1.0,0.09398850053548813
2.0,0.08995803445577621
3.0,0.08624860644340515
4.0,0.0829952210187912
5.0,0.07993213832378387
6.0,0.07712586969137192
7.0,0.07441059499979019
8.0,0.07187649607658386
9.0,0.06951643526554108
10.0,0.06730888038873672
11.0,0.06522518396377563
12.0,0.06317921727895737
13.0,0.06136878579854965
14.0,0.0596393458545208
15.0,0.058055758476257324
16.0,0.05640314891934395
18.0,0.053365178406238556
20.0,0.05069878324866295
22.0,0.047990523278713226
24.0,0.04553964361548424
26.0,0.04334002733230591
28.0,0.0412469319999218
30.0,0.039402689784765244
32.0,0.038105256855487823
36.0,0.036055658012628555
40.0,0.03403361514210701
44.0,0.032625358551740646
48.0,0.031548500061035156
52.0,0.02995983324944973
56.0,0.028207112103700638
60.0,0.02648720145225525
64.0,0.024898983538150787
72.0,0.0224786214530468
80.0,0.02176600508391857
88.0,0.02040587179362774
96.0,0.018992245197296143
104.0,0.017614468932151794
112.0,0.016132880002260208
120.0,0.015264289453625679
128.0,0.013701602816581726
144.0,0.009640076197683811
160.0,0.006520201452076435
176.0,0.004748042207211256
192.0,0.005090855062007904
208.0,0.005268251057714224
224.0,0.0014438738580793142
240.0,-0.0010672548087313771
256.0,-0.000871704425662756
288.0,0.0008321864879690111
320.0,-0.0016895848093554378
352.0,-0.001754198456183076
384.0,0.0026589734479784966
416.0,0.003672246588394046
448.0,0.0032168636098504066
480.0,0.0018998972373083234
512.0,-0.0014246723148971796
576.0,0.0004034476005472243
640.0,-0.0037025839556008577
704.0,-0.00250557460822165
768.0,0.0025846208445727825
832.0,0.002688345964998007
896.0,0.005314519628882408
960.0,0.004044087138026953
1024.0,0.007868507876992226
1152.0,0.006857849191874266
1280.0,0.004163987934589386
1408.0,-0.0043932050466537476
1536.0,-0.0042821732349693775
1664.0,0.0035799185279756784
1792.0,0.008888376876711845
1920.0,0.007320126984268427
2048.0,0.006286774296313524
2304.0,0.00043399326386861503
2560.0,-0.007001630030572414
2816.0,0.0030017062090337276
3072.0,-0.0006312213954515755
3328.0,-0.004118284210562706
3584.0,-0.0034754928201436996
3840.0,-0.00014391906734090298
4096.0,-0.002816565800458193
4608.0,-0.007480687461793423
5120.0,-0.003650953294709325
5632.0,-0.0015050931833684444
6144.0,-0.002132080728188157
6656.0,-0.0008197230054065585
7168.0,-0.0019644591957330704
7680.0,0.004478147719055414
8192.0,-0.0016361578600481153
end
