version,3.0
numOfCh,1
type,point
parent_name,19e3e_0dot4-1dot0
ch_type,1_1
kcount,1
numberNandB,1
brightnessNandB,1
carpet pos,0
pc,0
Time (ms),CH1 Auto-Correlation
1.0,0.10682808607816696
2.0,0.10238093137741089
3.0,0.09845630079507828
4.0,0.09500067681074142
5.0,0.09188107401132584
6.0,0.08858684450387955
7.0,0.08560769259929657
8.0,0.08309473842382431
9.0,0.08069716393947601
10.0,0.0783645510673523
11.0,0.07640424370765686
12.0,0.07444115728139877
13.0,0.07257400453090668
14.0,0.0707952007651329
15.0,0.06902366876602173
16.0,0.06734740734100342
18.0,0.064151331782341
20.0,0.06115201488137245
22.0,0.058496300131082535
24.0,0.05608749762177467
26.0,0.05373537540435791
28.0,0.05187506973743439
30.0,0.04981061443686485
32.0,0.04769610986113548
36.0,0.043224118649959564
40.0,0.038909006863832474
44.0,0.03545768931508064
48.0,0.0321430042386055
52.0,0.029439326375722885
56.0,0.027782168239355087
60.0,0.02653123065829277
64.0,0.025192296132445335
72.0,0.023270437493920326
80.0,0.02106369100511074
88.0,0.019101157784461975
96.0,0.019049013033509254
104.0,0.01946880668401718
112.0,0.019072258844971657
120.0,0.017338505014777184
128.0,0.014737452380359173
144.0,0.013721035793423653
160.0,0.01474494393914938
176.0,0.015796037390828133
192.0,0.015079930424690247
208.0,0.015947816893458366
224.0,0.013698671944439411
240.0,0.011957751587033272
256.0,0.009629713371396065
288.0,0.008851718157529831
320.0,0.010402470827102661
352.0,0.011528469622135162
384.0,0.011999930255115032
416.0,0.006668850313872099
448.0,0.001403400325216353
480.0,0.0020331714767962694
512.0,0.006975175347179174
576.0,0.00847464520484209
640.0,-0.0012189619010314345
704.0,-0.0008251069230027497
768.0,-9.039435826707631e-05
832.0,-0.0020686157513409853
896.0,0.003958428278565407
960.0,0.011773684993386269
1024.0,0.0025599489454180002
1152.0,0.0019472675630822778
1280.0,0.0014351855497807264
1408.0,-0.007099394220858812
1536.0,0.0018085935153067112
1664.0,-0.001678223954513669
1792.0,-0.003834005445241928
1920.0,-0.003819717327132821
2048.0,-0.002416364848613739
2304.0,0.0010207033483311534
2560.0,-0.0007377332076430321
2816.0,-0.005040173418819904
3072.0,-0.009287814609706402
3328.0,-0.009839310310781002
3584.0,-0.008373836055397987
3840.0,-0.008111435920000076
4096.0,-0.008050854317843914
4608.0,0.0007620599935762584
5120.0,0.001102382317185402
5632.0,-0.0005185093614272773
6144.0,0.002185271354392171
6656.0,0.003208046080544591
7168.0,-0.0009451183723285794
7680.0,0.0032295105047523975
8192.0,0.0009087545913644135
end
