version,3.0
numOfCh,1
type,point
parent_name,484af_0dot08-1dot0
ch_type,1_1
kcount,1
numberNandB,1
brightnessNandB,1
carpet pos,0
pc,0
Time (ms),CH1 Auto-Correlation
1.0,0.019547050818800926
2.0,0.019341817125678062
3.0,0.019155751913785934
4.0,0.018978221341967583
5.0,0.018796097487211227
6.0,0.01862010918557644
7.0,0.018453428521752357
8.0,0.01828484982252121
9.0,0.01811070367693901
10.0,0.01793575845658779
11.0,0.017769353464245796
12.0,0.017599552869796753
13.0,0.01743278279900551
14.0,0.017264951020479202
15.0,0.017105506733059883
16.0,0.016948562115430832
18.0,0.016641849651932716
20.0,0.01634310744702816
22.0,0.016036778688430786
24.0,0.015731479972600937
26.0,0.015442751348018646
28.0,0.01518342550843954
30.0,0.01492474414408207
32.0,0.014673612080514431
36.0,0.014217639341950417
40.0,0.013799200765788555
44.0,0.013417495414614677
48.0,0.013065052218735218
52.0,0.012709461152553558
56.0,0.012378541752696037
60.0,0.012091616168618202
64.0,0.011835254728794098
72.0,0.011216971091926098
80.0,0.010579016990959644
88.0,0.010032149031758308
96.0,0.009595394134521484
104.0,0.009179532527923584
112.0,0.008847224526107311
120.0,0.00851759035140276
128.0,0.008195173926651478
144.0,0.007477456238120794
160.0,0.006833317689597607
176.0,0.006275913678109646
192.0,0.005775561090558767
208.0,0.005366048309952021
224.0,0.00507100485265255
240.0,0.004718817304819822
256.0,0.004217412788420916
288.0,0.0034715316724032164
320.0,0.0028806468471884727
352.0,0.0025182715617120266
384.0,0.0019201673567295074
416.0,0.0013589630834758282
448.0,0.000980628072284162
480.0,0.0010343745816498995
512.0,0.0008988464833237231
576.0,0.000118090640171431
640.0,-0.00010090645810123533
704.0,-0.00044268343481235206
768.0,-0.0012668091803789139
832.0,-0.0017405652906745672
896.0,-0.0015787348384037614
960.0,-0.0009477094281464815
1024.0,-0.0004698261618614197
1152.0,-0.0005367828998714685
1280.0,-0.0011826520785689354
1408.0,-0.0006843872251920402
1536.0,-0.0014005637494847178
1664.0,0.00014435849152505398
1792.0,0.001373527804389596
1920.0,0.001979841385036707
2048.0,0.002845281269401312
2304.0,0.001109116361476481
2560.0,-0.0015955232083797455
2816.0,-0.004451250657439232
3072.0,-0.004322052467614412
3328.0,-0.002078939927741885
3584.0,-0.0011157820699736476
3840.0,0.0017534041544422507
4096.0,0.0006785579607822001
4608.0,-0.0024666760582476854
5120.0,-0.0008051072945818305
5632.0,0.000475678505608812
6144.0,0.00145230651833117
6656.0,-0.0006500582676380873
7168.0,-0.00013210538600105792
7680.0,0.0032231230288743973
8192.0,-0.001637042616494
end
