version,3.0
numOfCh,1
type,point
parent_name,484af_0dot08-1dot0
ch_type,1_1
kcount,1
numberNandB,1
brightnessNandB,1
carpet pos,0
pc,0
Time (ms),CH1 Auto-Correlation
1.0,0.02203199453651905
2.0,0.021710339933633804
3.0,0.021365424618124962
4.0,0.02119547128677368
5.0,0.02102663740515709
6.0,0.020865291357040405
7.0,0.02071627974510193
8.0,0.020562337711453438
9.0,0.02040070854127407
10.0,0.020235154777765274
11.0,0.020088350400328636
12.0,0.019938742741942406
13.0,0.019794315099716187
14.0,0.019643139094114304
15.0,0.019491618499159813
16.0,0.019343076273798943
18.0,0.019051359966397285
20.0,0.0187594685703516
22.0,0.01848144829273224
24.0,0.018199102953076363
26.0,0.017926819622516632
28.0,0.017667194828391075
30.0,0.017413482069969177
32.0,0.01715533807873726
36.0,0.01669931411743164
40.0,0.016261065378785133
44.0,0.015827279537916183
48.0,0.015372487716376781
52.0,0.014961758628487587
56.0,0.014590295031666756
60.0,0.01423353236168623
64.0,0.013900944031774998
72.0,0.013318519107997417
80.0,0.012841586023569107
88.0,0.012354462407529354
96.0,0.011890588328242302
104.0,0.011352627538144588
112.0,0.010762860998511314
120.0,0.010161668993532658
128.0,0.00964594166725874
144.0,0.008860738947987556
160.0,0.008205936290323734
176.0,0.007721095345914364
192.0,0.0073614586144685745
208.0,0.006977003533393145
224.0,0.006614310201257467
240.0,0.00612670136615634
256.0,0.005612429231405258
288.0,0.005535311531275511
320.0,0.006014155223965645
352.0,0.006269156467169523
384.0,0.006155837327241898
416.0,0.0059010642580688
448.0,0.005437133833765984
480.0,0.0053701577708125114
512.0,0.005312833935022354
576.0,0.0049663810059428215
640.0,0.005162954796105623
704.0,0.005808258894830942
768.0,0.006480387412011623
832.0,0.006752280052751303
896.0,0.005522886756807566
960.0,0.0034840654116123915
1024.0,0.0022761786822229624
1152.0,0.000445758894784376
1280.0,-0.0013093453599140048
1408.0,-0.001863634679466486
1536.0,-0.0013478881446644664
1664.0,-0.0007623190758749843
1792.0,-0.0018608163809403777
1920.0,-0.002459696028381586
2048.0,-0.003031059866771102
2304.0,-0.0014200699515640736
2560.0,-0.001160290208645165
2816.0,-0.0007547808927483857
3072.0,0.0007625452126376331
3328.0,-0.00028419328737072647
3584.0,-0.0018245677929371595
3840.0,-0.0012968035880476236
4096.0,-0.0014330152189359069
4608.0,-0.0030357656069099903
5120.0,-0.002280358225107193
5632.0,-3.788286994677037e-05
6144.0,0.0012763991253450513
6656.0,0.001847043982706964
7168.0,-0.0010310104116797447
7680.0,-0.0007533470634371042
8192.0,0.0007026753155514598
end
