version,3.0
numOfCh,1
type,point
parent_name,484af_0dot08-1dot0
ch_type,1_1
kcount,1
numberNandB,1
brightnessNandB,1
carpet pos,0
pc,0
Time (ms),CH1 Auto-Correlation
1.0,0.019311804324388504
2.0,0.019110150635242462
3.0,0.01891898363828659
4.0,0.01872512511909008
5.0,0.018538346514105797
6.0,0.018351713195443153
7.0,0.018178356811404228
8.0,0.01800558716058731
9.0,0.017841244116425514
10.0,0.017677564173936844
11.0,0.01751486025750637
12.0,0.017358791083097458
13.0,0.01720358058810234
14.0,0.017055122181773186
15.0,0.016908638179302216
16.0,0.016760896891355515
18.0,0.016481760889291763
20.0,0.01621869020164013
22.0,0.015960566699504852
24.0,0.015704242512583733
26.0,0.015453769825398922
28.0,0.015213195234537125
30.0,0.014965803362429142
32.0,0.014730806462466717
36.0,0.01428411528468132
40.0,0.013845524750649929
44.0,0.013394036330282688
48.0,0.01294834166765213
52.0,0.012484048493206501
56.0,0.011990915052592754
60.0,0.011532086879014969
64.0,0.011112012900412083
72.0,0.010297911241650581
80.0,0.009521324187517166
88.0,0.008869141340255737
96.0,0.008348741568624973
104.0,0.007966917008161545
112.0,0.007668361067771912
120.0,0.007240519393235445
128.0,0.006815175525844097
144.0,0.006155407056212425
160.0,0.005682696122676134
176.0,0.005298718344420195
192.0,0.004896135535091162
208.0,0.004660230129957199
224.0,0.00435646390542388
240.0,0.004130036570131779
256.0,0.003978244960308075
288.0,0.0038314724806696177
320.0,0.0038051330484449863
352.0,0.003974436316639185
384.0,0.0042106411419808865
416.0,0.004403884056955576
448.0,0.0039547826163470745
480.0,0.0028849374502897263
512.0,0.0018907471094280481
576.0,0.0008045881404541433
640.0,0.0006818539695814252
704.0,0.000562612374778837
768.0,0.000641750986687839
832.0,-4.882496068603359e-05
896.0,-0.000560700660571456
960.0,-0.0005305863451212645
1024.0,-0.0017443998949602246
1152.0,-0.0013358789728954434
1280.0,0.0005650832899846137
1408.0,0.00028067509992979467
1536.0,-0.0006665154360234737
1664.0,-0.001294986461289227
1792.0,-0.0020571581553667784
1920.0,-0.0001840823533711955
2048.0,-0.001105490606278181
2304.0,-0.0015824398724362254
2560.0,0.00030192299163900316
2816.0,0.0011771336430683732
3072.0,0.0007822239422239363
3328.0,0.0008696669829078019
3584.0,-0.0028755301609635353
3840.0,-0.0021436496172100306
4096.0,-0.0006791914929635823
4608.0,0.00163154280744493
5120.0,0.0011453161714598536
5632.0,-0.0010178954107686877
6144.0,-0.0035177990794181824
6656.0,-0.00512956827878952
7168.0,-0.00398598425090313
7680.0,0.0020656881388276815
8192.0,0.0026639343705028296
end
