version,3.0
numOfCh,1
type,point
parent_name,484af_0dot08-1dot0
ch_type,1_1
kcount,1
numberNandB,1
brightnessNandB,1
carpet pos,0
pc,0
Time (ms),CH1 Auto-Correlation
1.0,0.030659504234790802
2.0,0.030474625527858734
3.0,0.030296798795461655
4.0,0.030129892751574516
5.0,0.029967276379466057
6.0,0.02980540134012699
7.0,0.02965148538351059
8.0,0.02949775941669941
9.0,0.029351040720939636
10.0,0.02920692414045334
11.0,0.029060326516628265
12.0,0.028917275369167328
13.0,0.02877349779009819
14.0,0.028634026646614075
15.0,0.028491925448179245
16.0,0.02835335023701191
18.0,0.028078408911824226
20.0,0.027818284928798676
22.0,0.027565130963921547
24.0,0.02731681801378727
26.0,0.02707778476178646
28.0,0.026854436844587326
30.0,0.026636416092514992
32.0,0.02643505111336708
36.0,0.02602980099618435
40.0,0.025622261688113213
44.0,0.02524281106889248
48.0,0.024841150268912315
52.0,0.024434631690382957
56.0,0.024033114314079285
60.0,0.02363653853535652
64.0,0.023254916071891785
72.0,0.022552581503987312
80.0,0.02198023721575737
88.0,0.021496620029211044
96.0,0.02107630856335163
104.0,0.020624861121177673
112.0,0.02012745849788189
120.0,0.01972014643251896
128.0,0.019388480111956596
144.0,0.018722867593169212
160.0,0.01812869869172573
176.0,0.017560716718435287
192.0,0.017026105895638466
208.0,0.016510868445038795
224.0,0.015849681571125984
240.0,0.015109201893210411
256.0,0.014526323415338993
288.0,0.013447840698063374
320.0,0.0124225914478302
352.0,0.011221220716834068
384.0,0.009502425789833069
416.0,0.007724880240857601
448.0,0.006291552912443876
480.0,0.005440082401037216
512.0,0.004756822716444731
576.0,0.0032299875747412443
640.0,0.003019143594428897
704.0,0.0031411838717758656
768.0,0.0027235145680606365
832.0,0.0021736212074756622
896.0,0.0011479445965960622
960.0,0.00045732170110568404
1024.0,-0.00023101651459001005
1152.0,-0.001881894888356328
1280.0,-0.005322850309312344
1408.0,-0.007646914105862379
1536.0,-0.008265495300292969
1664.0,-0.00932539813220501
1792.0,-0.009568736888468266
1920.0,-0.00955244805663824
2048.0,-0.009647319093346596
2304.0,-0.008165445178747177
2560.0,-0.009641268290579319
2816.0,-0.006114402785897255
3072.0,-0.0008744600345380604
3328.0,0.001964191673323512
3584.0,0.002223607851192355
3840.0,0.004631869029253721
4096.0,0.009671521373093128
4608.0,0.010734215378761292
5120.0,-0.001138659892603755
5632.0,-0.007307548075914383
6144.0,-0.005182334221899509
6656.0,-0.002767010126262903
7168.0,-0.003708382835611701
7680.0,0.002615912351757288
8192.0,0.005043403245508671
end
