version,3.0
numOfCh,1
type,point
parent_name,484af_0dot08-1dot0
ch_type,1_1
kcount,1
numberNandB,1
brightnessNandB,1
carpet pos,0
pc,0
Time (ms),CH1 Auto-Correlation
1.0,0.02074076235294342
2.0,0.020542291924357414
3.0,0.020352592691779137
4.0,0.020163875073194504
5.0,0.01998128369450569
6.0,0.019802171736955643
7.0,0.019629277288913727
8.0,0.01945836842060089
9.0,0.01929548755288124
10.0,0.01913217455148697
11.0,0.01896374300122261
12.0,0.018798576667904854
13.0,0.01863677240908146
14.0,0.01847946085035801
15.0,0.01832546666264534
16.0,0.018171507865190506
18.0,0.017881179228425026
20.0,0.017596108838915825
22.0,0.017313649877905846
24.0,0.017035670578479767
26.0,0.016765590757131577
28.0,0.01650853455066681
30.0,0.016248442232608795
32.0,0.015981970354914665
36.0,0.015471083112061024
40.0,0.014994142577052116
44.0,0.014567224308848381
48.0,0.014161732979118824
52.0,0.01377397496253252
56.0,0.013387197628617287
60.0,0.012990144081413746
64.0,0.01262969896197319
72.0,0.011999870650470257
80.0,0.0114379758015275
88.0,0.010910550132393837
96.0,0.010442095808684826
104.0,0.010116688907146454
112.0,0.009876684285700321
120.0,0.009716077707707882
128.0,0.009590819478034973
144.0,0.009274688549339771
160.0,0.008781706914305687
176.0,0.008317410945892334
192.0,0.007961435243487358
208.0,0.007760568521916866
224.0,0.007590079214423895
240.0,0.007418514229357243
256.0,0.007291122805327177
288.0,0.007376230787485838
320.0,0.00727477902546525
352.0,0.007171187549829483
384.0,0.00668761320412159
416.0,0.006087537854909897
448.0,0.0053670103661715984
480.0,0.004719994962215424
512.0,0.004272816237062216
576.0,0.004332779906690121
640.0,0.003718727035447955
704.0,0.0034903138875961304
768.0,0.003088576951995492
832.0,0.0026657504495233297
896.0,0.002265860326588154
960.0,0.001605900702998042
1024.0,0.001801029546186328
1152.0,0.0026143204886466265
1280.0,0.002012486569583416
1408.0,0.003125449176877737
1536.0,0.0035939726512879133
1664.0,0.004198386333882809
1792.0,0.003917207010090351
1920.0,0.0033153651747852564
2048.0,0.00290108984336257
2304.0,0.0014514053473249078
2560.0,0.0004446371167432517
2816.0,-0.0006532289553433657
3072.0,0.00013648014282807708
3328.0,-0.0007007520762272179
3584.0,-0.0016382858157157898
3840.0,-0.001808762433938682
4096.0,-0.0018665860407054424
4608.0,0.0003531776019372046
5120.0,-0.0018615047447383404
5632.0,-0.003944517578929663
6144.0,-0.0019816856365650892
6656.0,-0.0019146662671118975
7168.0,-0.004592358134686947
7680.0,-0.005961771123111248
8192.0,-0.002089575631543994
end
