version,3.0
numOfCh,1
type,point
parent_name,484af_0dot08-1dot0
ch_type,1_1
kcount,1
numberNandB,1
brightnessNandB,1
carpet pos,0
pc,0
Time (ms),CH1 Auto-Correlation
1.0,0.020485233515501022
2.0,0.02027846686542034
3.0,0.02009039930999279
4.0,0.01991179771721363
5.0,0.01974138617515564
6.0,0.01958533003926277
7.0,0.01942707784473896
8.0,0.01927250437438488
9.0,0.01911383494734764
10.0,0.018955672159790993
11.0,0.018802473321557045
12.0,0.018649904057383537
13.0,0.018500247970223427
14.0,0.018349837511777878
15.0,0.018201380968093872
16.0,0.01805615983903408
18.0,0.017772648483514786
20.0,0.017497481778264046
22.0,0.017224859446287155
24.0,0.016963999718427658
26.0,0.016717107966542244
28.0,0.01648951880633831
30.0,0.01626967079937458
32.0,0.016056278720498085
36.0,0.0156306941062212
40.0,0.015216456726193428
44.0,0.01479071844369173
48.0,0.014368904754519463
52.0,0.01396682858467102
56.0,0.013570809736847878
60.0,0.013182858936488628
64.0,0.012800623662769794
72.0,0.01201547309756279
80.0,0.011279573664069176
88.0,0.010505531914532185
96.0,0.00973894540220499
104.0,0.009093337692320347
112.0,0.008537724614143372
120.0,0.008058631792664528
128.0,0.00755962124094367
144.0,0.006589767523109913
160.0,0.005752779543399811
176.0,0.004947857931256294
192.0,0.004248942714184523
208.0,0.0035536703653633595
224.0,0.0031636874191462994
240.0,0.002941398648545146
256.0,0.0027410578913986683
288.0,0.00243462179787457
320.0,0.0022475288715213537
352.0,0.0021138645242899656
384.0,0.0016335699474439025
416.0,0.0008723688079044223
448.0,0.0006844254676252604
480.0,0.0008776693721301854
512.0,0.0010479966877028346
576.0,0.0020034906920045614
640.0,0.0025928763207048178
704.0,0.00293413526378572
768.0,0.003573845839127898
832.0,0.003430753480643034
896.0,0.003013750072568655
960.0,0.0023449945729225874
1024.0,0.0015818520914763212
1152.0,0.0010093592572957277
1280.0,0.00016949848213698715
1408.0,0.0008906254079192877
1536.0,0.00017662062600720674
1664.0,-0.0014509863685816526
1792.0,-0.0007824377971701324
1920.0,-7.291132351383567e-05
2048.0,-3.6672630812972784e-05
2304.0,-0.0016057408647611737
2560.0,0.00022737793915439397
2816.0,0.0009170919074676931
3072.0,-0.0025118915364146233
3328.0,-0.0011048432206735015
3584.0,0.0011615334078669548
3840.0,-0.0005880266544409096
4096.0,0.0021318201906979084
4608.0,-0.00039404453127644956
5120.0,0.0017325709341093898
5632.0,-0.0018556436989456415
6144.0,-2.280474109284114e-05
6656.0,-0.0020291192922741175
7168.0,-0.002794461091980338
7680.0,-0.002656690776348114
8192.0,-0.004354433156549931
end
