version,3.0
numOfCh,1
type,point
parent_name,484af_0dot08-1dot0
ch_type,1_1
kcount,1
numberNandB,1
brightnessNandB,1
carpet pos,0
pc,0
Time (ms),CH1 Auto-Correlation
1.0,0.023654883727431297
2.0,0.023426424711942673
3.0,0.023199934512376785
4.0,0.022982463240623474
5.0,0.022769218310713768
6.0,0.02256067469716072
7.0,0.022353818640112877
8.0,0.022153109312057495
9.0,0.021961556747555733
10.0,0.02178141474723816
11.0,0.02160608395934105
12.0,0.021430794149637222
13.0,0.021253027021884918
14.0,0.021070869639515877
15.0,0.02089710161089897
16.0,0.020736249163746834
18.0,0.020428912714123726
20.0,0.020150763913989067
22.0,0.019874757155776024
24.0,0.01959954760968685
26.0,0.019331185147166252
28.0,0.019068388268351555
30.0,0.018804434686899185
32.0,0.01854853145778179
36.0,0.018030798062682152
40.0,0.017516206949949265
44.0,0.01700190082192421
48.0,0.016508204862475395
52.0,0.016049018129706383
56.0,0.015648186206817627
60.0,0.015253417193889618
64.0,0.014877961948513985
72.0,0.014232480898499489
80.0,0.013682435266673565
88.0,0.013097472488880157
96.0,0.012510373257100582
104.0,0.011886109597980976
112.0,0.011340096592903137
120.0,0.010921498760581017
128.0,0.010554943233728409
144.0,0.009970367886126041
160.0,0.009446359239518642
176.0,0.009093893691897392
192.0,0.008790109306573868
208.0,0.008402766659855843
224.0,0.00798413809388876
240.0,0.0074704173021018505
256.0,0.006962047424167395
288.0,0.006109738256782293
320.0,0.005184115841984749
352.0,0.005199568811804056
384.0,0.0054237814620137215
416.0,0.005569294560700655
448.0,0.004942538682371378
480.0,0.004349035676568747
512.0,0.004181044641882181
576.0,0.0035244545433670282
640.0,0.002844643546268344
704.0,0.0012776313815265894
768.0,0.001173259923234582
832.0,0.0010060174390673637
896.0,0.00041535115451551974
960.0,0.001101225963793695
1024.0,0.0013238195097073913
1152.0,-0.0009164768271148205
1280.0,-0.000817268097307533
1408.0,0.0011926528532058
1536.0,0.0015483718598261476
1664.0,0.0005496094818226993
1792.0,-0.0014664571499451995
1920.0,-0.0009787502931430936
2048.0,-0.0017691919347271323
2304.0,-0.0016889598919078708
2560.0,0.00020216281700413674
2816.0,0.0019982391968369484
3072.0,0.0008109537302516401
3328.0,0.0004232916689943522
3584.0,-0.002218089997768402
3840.0,-0.0012611784040927887
4096.0,0.0008013095939531922
4608.0,-0.0021056784316897392
5120.0,-0.004028304945677519
5632.0,-0.004100569058209658
6144.0,-0.0018952201353386045
6656.0,0.00454351119697094
7168.0,0.0040016015991568565
7680.0,0.005018097814172506
8192.0,0.00465042982250452
end
