version,3.0
numOfCh,1
type,point
parent_name,484af_0dot08-1dot0
ch_type,1_1
kcount,1
numberNandB,1
brightnessNandB,1
carpet pos,0
pc,0
Time (ms),CH1 Auto-Correlation
1.0,0.031162340193986893
2.0,0.030960556119680405
3.0,0.03076745942234993
4.0,0.030576307326555252
5.0,0.030382482334971428
6.0,0.030199212953448296
7.0,0.030026327818632126
8.0,0.02985147200524807
9.0,0.029677020385861397
10.0,0.029498426243662834
11.0,0.029331551864743233
12.0,0.029166847467422485
13.0,0.02900276519358158
14.0,0.028837958350777626
15.0,0.028676167130470276
16.0,0.02851802296936512
18.0,0.02821730077266693
20.0,0.027921630069613457
22.0,0.027628635987639427
24.0,0.02734687365591526
26.0,0.027062634006142616
28.0,0.026766447350382805
30.0,0.026492727920413017
32.0,0.026222942396998405
36.0,0.025716878473758698
40.0,0.025237664580345154
44.0,0.024764059111475945
48.0,0.024331914260983467
52.0,0.02393045462667942
56.0,0.023548388853669167
60.0,0.02321532554924488
64.0,0.022912906482815742
72.0,0.022369468584656715
80.0,0.021889222785830498
88.0,0.021381022408604622
96.0,0.02081715688109398
104.0,0.020235052332282066
112.0,0.019696688279509544
120.0,0.019248660653829575
128.0,0.01888747699558735
144.0,0.018222542479634285
160.0,0.017493348568677902
176.0,0.016572287306189537
192.0,0.015750383958220482
208.0,0.015178576111793518
224.0,0.014711719937622547
240.0,0.014332737773656845
256.0,0.013866642490029335
288.0,0.01324140653014183
320.0,0.012355479411780834
352.0,0.011814340017735958
384.0,0.011556215584278107
416.0,0.011191824451088905
448.0,0.010616273619234562
480.0,0.009598142467439175
512.0,0.008192580193281174
576.0,0.005918982904404402
640.0,0.004005651455372572
704.0,0.002837884472683072
768.0,0.0015142090851441026
832.0,0.0012134830467402935
896.0,0.0007180941174738109
960.0,-0.00043458814616315067
1024.0,-0.001468768808990717
1152.0,-0.003263324499130249
1280.0,-0.00211895233951509
1408.0,-0.0017439088551327586
1536.0,-0.0030847296584397554
1664.0,-0.003534346353262663
1792.0,-0.0019765100441873074
1920.0,-0.002843104302883148
2048.0,-0.003260708646848798
2304.0,-0.00513651454821229
2560.0,-0.00892679300159216
2816.0,-0.00882756244391203
3072.0,-0.0060800486244261265
3328.0,-0.002401620615273714
3584.0,0.004369004163891077
3840.0,0.007027581334114075
4096.0,0.006438683718442917
4608.0,-0.0017712083645164967
5120.0,-0.006212090142071247
5632.0,0.00042153598042204976
6144.0,0.0012697245692834258
6656.0,0.0013308932539075613
7168.0,0.0037012032698839903
7680.0,0.01147649809718132
8192.0,0.004145160783082247
end
