version,3.0
numOfCh,1
type,point
parent_name,484af_0dot08-1dot0
ch_type,1_1
kcount,1
numberNandB,1
brightnessNandB,1
carpet pos,0
pc,0
Time (ms),CH1 Auto-Correlation
1.0,0.019407736137509346
2.0,0.01916893571615219
3.0,0.01894926279783249
4.0,0.018748560920357704
5.0,0.018556445837020874
6.0,0.018374575302004814
7.0,0.01820073276758194
8.0,0.018033545464277267
9.0,0.017873184755444527
10.0,0.017704583704471588
11.0,0.017542045563459396
12.0,0.017373600974678993
13.0,0.017211981117725372
14.0,0.017054880037903786
15.0,0.01689826138317585
16.0,0.016750935465097427
18.0,0.01646723598241806
20.0,0.01619059219956398
22.0,0.015905208885669708
24.0,0.015630707144737244
26.0,0.015365487895905972
28.0,0.015109498053789139
30.0,0.014866209588944912
32.0,0.014640018343925476
36.0,0.01420601923018694
40.0,0.013780851848423481
44.0,0.013379606418311596
48.0,0.013006622903048992
52.0,0.012628605589270592
56.0,0.012265114113688469
60.0,0.011906104162335396
64.0,0.01154061034321785
72.0,0.010856246575713158
80.0,0.010273166000843048
88.0,0.00982783455401659
96.0,0.009382777847349644
104.0,0.008954591117799282
112.0,0.00856863334774971
120.0,0.00817488506436348
128.0,0.007818929851055145
144.0,0.007400805596262217
160.0,0.006948672700673342
176.0,0.006355415564030409
192.0,0.005764169618487358
208.0,0.005342198070138693
224.0,0.004985935986042023
240.0,0.0045469775795936584
256.0,0.004150897730141878
288.0,0.0035656318068504333
320.0,0.0034900547470897436
352.0,0.0038708909414708614
384.0,0.004093504045158625
416.0,0.0038625947199761868
448.0,0.003406414296478033
480.0,0.0030475729145109653
512.0,0.0027658373583108187
576.0,0.0024080208968371153
640.0,0.00123684445861727
704.0,0.00041114704799838364
768.0,0.0006680165533907712
832.0,0.0005975113599561155
896.0,-7.099162303347839e-06
960.0,-8.34305101307109e-05
1024.0,0.00014115542580839247
1152.0,0.00021675595780834556
1280.0,0.0010107344714924693
1408.0,0.001017319387756288
1536.0,0.0001476159377489239
1664.0,-0.0006741826655343175
1792.0,-0.0008070648764260113
1920.0,-0.000815771461930126
2048.0,-0.002531749662011862
2304.0,-0.0003304775746073574
2560.0,0.0003906675265170634
2816.0,-0.0009268822032026947
3072.0,-0.0017629977082833648
3328.0,-0.0022737549152225256
3584.0,-0.002394955838099122
3840.0,-0.0024597514420747757
4096.0,-0.0026824066881090403
4608.0,-0.00033070059726014733
5120.0,0.0019506841199472547
5632.0,0.0007053550216369331
6144.0,-0.0002933042123913765
6656.0,-0.001086005475372076
7168.0,-0.0017165805911645293
7680.0,-0.002044257242232561
8192.0,-0.002170764608308673
end
