version,3.0
numOfCh,1
type,point
parent_name,484af_0dot08-1dot0
ch_type,1_1
kcount,1
numberNandB,1
brightnessNandB,1
carpet pos,0
pc,0
Time (ms),CH1 Auto-Correlation
1.0,0.020806604996323586
2.0,0.020585376769304276
3.0,0.020370228216052055
4.0,0.020170461386442184
5.0,0.019979489967226982
6.0,0.019791627302765846
7.0,0.019610179588198662
8.0,0.019435271620750427
9.0,0.019263731315732002
10.0,0.019096212461590767
11.0,0.018938139081001282
12.0,0.01878715306520462
13.0,0.018636420369148254
14.0,0.018489323556423187
15.0,0.018355103209614754
16.0,0.018225030973553658
18.0,0.017964694648981094
20.0,0.01771961897611618
22.0,0.017483428120613098
24.0,0.01726263016462326
26.0,0.017044827342033386
28.0,0.016840962693095207
30.0,0.016649330034852028
32.0,0.01646565832197666
36.0,0.016090260818600655
40.0,0.015715396031737328
44.0,0.015342682600021362
48.0,0.01500767469406128
52.0,0.014692656695842743
56.0,0.014415065757930279
60.0,0.014136404730379581
64.0,0.013824227266013622
72.0,0.013220308348536491
80.0,0.012605518102645874
88.0,0.012079443782567978
96.0,0.011633788235485554
104.0,0.011180007830262184
112.0,0.010706450790166855
120.0,0.010212413966655731
128.0,0.00970373023301363
144.0,0.008944123052060604
160.0,0.008235970512032509
176.0,0.007443608250468969
192.0,0.006753938272595406
208.0,0.006202710326761007
224.0,0.005661425180733204
240.0,0.005233678501099348
256.0,0.004908304661512375
288.0,0.004186720587313175
320.0,0.003750683506950736
352.0,0.00335670099593699
384.0,0.003244113177061081
416.0,0.003346255049109459
448.0,0.003509440226480365
480.0,0.0036980437580496073
512.0,0.004129895009100437
576.0,0.00416029617190361
640.0,0.004087450448423624
704.0,0.003941285889595747
768.0,0.0035938057117164135
832.0,0.0033321119844913483
896.0,0.0029346351511776447
960.0,0.0028663231059908867
1024.0,0.002697570947930217
1152.0,0.002194115659222007
1280.0,0.00026904878905043006
1408.0,-0.0010281163267791271
1536.0,-0.00040969144902192056
1664.0,0.001014153123833239
1792.0,0.0003133839927613735
1920.0,0.000284408190054819
2048.0,-0.0002932438219431788
2304.0,0.0003153308352921158
2560.0,-0.000736033427529037
2816.0,-0.001536822528578341
3072.0,-0.0014546470483765006
3328.0,-0.002354281721636653
3584.0,-0.0042733317241072655
3840.0,-0.0025802303571254015
4096.0,-0.002966849599033594
4608.0,-0.004183344077318907
5120.0,-0.0038046943955123425
5632.0,-0.003002355806529522
6144.0,-0.0020820817444473505
6656.0,-0.000653630995657295
7168.0,-0.00034983630757778883
7680.0,-0.001135662430897355
8192.0,0.00156750890891999
end
