version,3.0
numOfCh,1
type,point
parent_name,484af_0dot08-1dot0
ch_type,1_1
kcount,1
numberNandB,1
brightnessNandB,1
carpet pos,0
pc,0
Time (ms),CH1 Auto-Correlation
1.0,0.017761878669261932
2.0,0.0175583828240633
3.0,0.01737249828875065
4.0,0.01718617044389248
5.0,0.017003744840621948
6.0,0.016827380284667015
7.0,0.016658775508403778
8.0,0.016496101394295692
9.0,0.01633726805448532
10.0,0.01618696004152298
11.0,0.016041653230786324
12.0,0.015894731506705284
13.0,0.015746669843792915
14.0,0.015599062666296959
15.0,0.015453419648110867
16.0,0.015305979177355766
18.0,0.015019014477729797
20.0,0.014741815626621246
22.0,0.014478439465165138
24.0,0.014221115037798882
26.0,0.013974731788039207
28.0,0.013744154013693333
30.0,0.013516520150005817
32.0,0.013287464156746864
36.0,0.012836159206926823
40.0,0.012387432157993317
44.0,0.011957742273807526
48.0,0.011561261489987373
52.0,0.011199225671589375
56.0,0.010813000611960888
60.0,0.010423600673675537
64.0,0.010047147050499916
72.0,0.009408530779182911
80.0,0.008817140944302082
88.0,0.008257887326180935
96.0,0.007765177637338638
104.0,0.007314059417694807
112.0,0.006887572351843119
120.0,0.0064345840364694595
128.0,0.006015654653310776
144.0,0.005270947702229023
160.0,0.004729649517685175
176.0,0.004223004449158907
192.0,0.0037708128802478313
208.0,0.0034005786292254925
224.0,0.003174494719132781
240.0,0.003065638942644
256.0,0.0029820941854268312
288.0,0.002559869084507227
320.0,0.0023055286146700382
352.0,0.0023016941267997026
384.0,0.0020897998474538326
416.0,0.001738934894092381
448.0,0.0012914271792396903
480.0,0.0010603673290461302
512.0,0.0014828816056251526
576.0,0.001387447351589799
640.0,0.0005699347238987684
704.0,-0.00023918495571706444
768.0,-0.0011496543884277344
832.0,-0.001399761880747974
896.0,-0.0008538761758245528
960.0,3.4056786262226524e-06
1024.0,-0.0005831032176502049
1152.0,0.00014144917076919228
1280.0,0.0008491133921779692
1408.0,0.0008407343411818147
1536.0,0.0011298718163743615
1664.0,-5.534244337468408e-05
1792.0,-0.00039942419971339405
1920.0,-0.0006498430157080293
2048.0,-7.628749881405383e-05
2304.0,-0.00016159987717401236
2560.0,0.000654696486890316
2816.0,0.0008621194283477962
3072.0,0.0019476395100355148
3328.0,0.0015869444468989968
3584.0,0.001401158981025219
3840.0,0.0003609595587477088
4096.0,-0.001607920159585774
4608.0,-0.002341177547350526
5120.0,-0.0012902473099529743
5632.0,-0.0012744070263579488
6144.0,-0.002293884754180908
6656.0,-0.0012837460963055491
7168.0,-0.0006704979459755123
7680.0,-0.0007544992840848863
8192.0,-0.0017288830131292343
end
