version,3.0
numOfCh,1
type,point
parent_name,484af_0dot08-1dot0
ch_type,1_1
kcount,1
numberNandB,1
brightnessNandB,1
carpet pos,0
pc,0
Time (ms),CH1 Auto-Correlation
1.0,0.02102239429950714
2.0,0.020842812955379486
3.0,0.020662354305386543
4.0,0.02048245444893837
5.0,0.020304018631577492
6.0,0.020125411450862885
7.0,0.019949860870838165
8.0,0.01978171057999134
9.0,0.01962064579129219
10.0,0.019453687593340874
11.0,0.01928628608584404
12.0,0.01911931112408638
13.0,0.01896217092871666
14.0,0.018813392147421837
15.0,0.018667621538043022
16.0,0.018526632338762283
18.0,0.018243394792079926
20.0,0.01795593649148941
22.0,0.01766742393374443
24.0,0.017391500994563103
26.0,0.017133668065071106
28.0,0.016887901350855827
30.0,0.016644055023789406
32.0,0.016397632658481598
36.0,0.015914540737867355
40.0,0.01545035745948553
44.0,0.0149905476719141
48.0,0.014544130302965641
52.0,0.014134435914456844
56.0,0.013760650530457497
60.0,0.013418289832770824
64.0,0.013089337386190891
72.0,0.012464173138141632
80.0,0.011861798353493214
88.0,0.011362358927726746
96.0,0.01089426502585411
104.0,0.010445045307278633
112.0,0.010140467435121536
120.0,0.009934195317327976
128.0,0.009752663783729076
144.0,0.00942292995750904
160.0,0.009029083885252476
176.0,0.008657807484269142
192.0,0.00840837974101305
208.0,0.008035650476813316
224.0,0.007824988104403019
240.0,0.007725822273641825
256.0,0.007543277461081743
288.0,0.007546762935817242
320.0,0.007515031844377518
352.0,0.007006597705185413
384.0,0.006111854687333107
416.0,0.005004439037293196
448.0,0.004609508439898491
480.0,0.004405145533382893
512.0,0.003915277309715748
576.0,0.003298301948234439
640.0,0.003387677716091275
704.0,0.0030246747191995382
768.0,0.0031067044474184513
832.0,0.0037986605893820524
896.0,0.004369519185274839
960.0,0.005124722607433796
1024.0,0.004466195125132799
1152.0,0.00444910628721118
1280.0,0.0050437976606190205
1408.0,0.004538385197520256
1536.0,0.003808508859947324
1664.0,0.004614655394107103
1792.0,0.0049657938070595264
1920.0,0.005009935703128576
2048.0,0.003677539061754942
2304.0,0.0020175615791231394
2560.0,0.0005611326778307557
2816.0,0.0009871450020000339
3072.0,0.0007413342245854437
3328.0,0.0001426766684744507
3584.0,0.0007001486956141889
3840.0,0.00018114603881258518
4096.0,-0.0010317772394046187
4608.0,-0.003483779029920697
5120.0,-0.004290650133043528
5632.0,-0.0029779099859297276
6144.0,-0.0038922952953726053
6656.0,-0.0033655993174761534
7168.0,-0.001375214895233512
7680.0,-0.004673204384744167
8192.0,-0.00503332307562232
end
