version,3.0
numOfCh,1
type,point
parent_name,484af_0dot08-1dot0
ch_type,1_1
kcount,1
numberNandB,1
brightnessNandB,1
carpet pos,0
pc,0
Time (ms),CH1 Auto-Correlation
1.0,0.025164103135466576
2.0,0.02493753843009472
3.0,0.02471747249364853
4.0,0.024518009275197983
5.0,0.02433982864022255
6.0,0.024172542616724968
7.0,0.024009671062231064
8.0,0.02385532855987549
9.0,0.02369912900030613
10.0,0.023534167557954788
11.0,0.023376505821943283
12.0,0.023217013105750084
13.0,0.023061197251081467
14.0,0.02290351316332817
15.0,0.02275252342224121
16.0,0.022593731060624123
18.0,0.022311603650450706
20.0,0.022056352347135544
22.0,0.02180199883878231
24.0,0.021553702652454376
26.0,0.021282311528921127
28.0,0.021014045923948288
30.0,0.020754121243953705
32.0,0.020483193919062614
36.0,0.019945401698350906
40.0,0.019422519952058792
44.0,0.018906323239207268
48.0,0.01840466819703579
52.0,0.017930038273334503
56.0,0.01748768612742424
60.0,0.01707647182047367
64.0,0.016705801710486412
72.0,0.015958944335579872
80.0,0.015266227535903454
88.0,0.014608758501708508
96.0,0.014013323001563549
104.0,0.013466562144458294
112.0,0.012914465740323067
120.0,0.012364629656076431
128.0,0.01185572985559702
144.0,0.010760328732430935
160.0,0.009831156581640244
176.0,0.00908252689987421
192.0,0.008477902971208096
208.0,0.00784117542207241
224.0,0.007142765447497368
240.0,0.006668832618743181
256.0,0.006262354087084532
288.0,0.005764230154454708
320.0,0.005239489953964949
352.0,0.004703654907643795
384.0,0.004130592104047537
416.0,0.0031694844365119934
448.0,0.0023540703114122152
480.0,0.0019587832503020763
512.0,0.002011145232245326
576.0,0.0022631685715168715
640.0,0.002431957982480526
704.0,0.002281138440594077
768.0,0.0015475902473554015
832.0,0.0006752636400051415
896.0,0.000606714456807822
960.0,0.0004533632309176028
1024.0,0.00023847733973525465
1152.0,-0.0018857198301702738
1280.0,-0.0010834207059815526
1408.0,-0.0006631279247812927
1536.0,0.00036567976349033415
1664.0,0.001172569114714861
1792.0,0.0017160961870104074
1920.0,0.002780512673780322
2048.0,0.004739659838378429
2304.0,0.003353721695020795
2560.0,-0.0012440417194738984
2816.0,-0.002678769174963236
3072.0,-0.002531487261876464
3328.0,-0.0030397395603358746
3584.0,-0.001274379319511354
3840.0,0.0008100643754005432
4096.0,-0.0006480913143604994
4608.0,-0.003565731691196561
5120.0,-0.004958145786076784
5632.0,-0.0021947063505649567
6144.0,0.0005279668839648366
6656.0,0.0008693867712281644
7168.0,-0.0031011230312287807
7680.0,0.0005073943757452071
8192.0,0.0024625358637422323
end
