version,3.0
numOfCh,1
type,point
parent_name,484af_0dot08-1dot0
ch_type,1_1
kcount,1
numberNandB,1
brightnessNandB,1
carpet pos,0
pc,0
Time (ms),CH1 Auto-Correlation
1.0,0.028966162353754044
2.0,0.02875479683279991
3.0,0.028554972261190414
4.0,0.028356730937957764
5.0,0.028162695467472076
6.0,0.027980901300907135
7.0,0.0277930349111557
8.0,0.027603672817349434
9.0,0.027421824634075165
10.0,0.02724105678498745
11.0,0.027059726417064667
12.0,0.026878850534558296
13.0,0.026701370254158974
14.0,0.026531711220741272
15.0,0.026362333446741104
16.0,0.02619960717856884
18.0,0.025868240743875504
20.0,0.02555498667061329
22.0,0.02525508590042591
24.0,0.024967029690742493
26.0,0.02469298429787159
28.0,0.02441250905394554
30.0,0.02413269877433777
32.0,0.023874390870332718
36.0,0.02335381880402565
40.0,0.022837383672595024
44.0,0.02236095629632473
48.0,0.021889081224799156
52.0,0.02141633629798889
56.0,0.020945444703102112
60.0,0.020493971183896065
64.0,0.020071126520633698
72.0,0.019288474693894386
80.0,0.018576763570308685
88.0,0.017917342483997345
96.0,0.017292490229010582
104.0,0.016680629923939705
112.0,0.016055461019277573
120.0,0.015438362024724483
128.0,0.014888913370668888
144.0,0.013818805105984211
160.0,0.012802939862012863
176.0,0.011929409578442574
192.0,0.011145600117743015
208.0,0.010419451631605625
224.0,0.009685192257165909
240.0,0.009030375629663467
256.0,0.00839990098029375
288.0,0.007316772826015949
320.0,0.006861780304461718
352.0,0.006831980310380459
384.0,0.006532453000545502
416.0,0.006251578219234943
448.0,0.005667988210916519
480.0,0.005431649275124073
512.0,0.004983499646186829
576.0,0.004340624902397394
640.0,0.00411674240604043
704.0,0.0033301408402621746
768.0,0.0017247672658413649
832.0,8.575052197556943e-05
896.0,2.153901004930958e-05
960.0,0.0009290886227972806
1024.0,0.0012115357676520944
1152.0,0.0007179349195212126
1280.0,0.0017656247364357114
1408.0,0.0024931125808507204
1536.0,0.00029965228168293834
1664.0,-0.0007937651826068759
1792.0,-0.0011031115427613258
1920.0,-0.0006450577639043331
2048.0,0.00017672195099294186
2304.0,0.0019214518833905458
2560.0,0.0004063899104949087
2816.0,-0.0012877308763563633
3072.0,-0.002614094875752926
3328.0,-0.004822128918021917
3584.0,-0.0034164669923484325
3840.0,-0.0017201106529682875
4096.0,-0.003116006264463067
4608.0,-0.0009487898787483573
5120.0,0.001876777969300747
5632.0,0.0003638819616753608
6144.0,0.005156578030437231
6656.0,0.003530618268996477
7168.0,0.0022164692636579275
7680.0,-0.001453221426345408
8192.0,-0.004162541590631008
end
