version,3.0
numOfCh,1
type,point
parent_name,484af_0dot08-1dot0
ch_type,1_1
kcount,1
numberNandB,1
brightnessNandB,1
carpet pos,0
pc,0
Time (ms),CH1 Auto-Correlation
1.0,0.0222459826618433
2.0,0.02204654924571514
3.0,0.02185968868434429
4.0,0.02168150246143341
5.0,0.021509917452931404
6.0,0.02134181186556816
7.0,0.021177956834435463
8.0,0.02102062664926052
9.0,0.02086634933948517
10.0,0.02072022296488285
11.0,0.020578205585479736
12.0,0.02043324150145054
13.0,0.02028973586857319
14.0,0.020149124786257744
15.0,0.020010096952319145
16.0,0.019866596907377243
18.0,0.01958184316754341
20.0,0.019314955919981003
22.0,0.019057227298617363
24.0,0.018809327855706215
26.0,0.018561502918601036
28.0,0.018316710367798805
30.0,0.01807551272213459
32.0,0.017832016572356224
36.0,0.017374908551573753
40.0,0.01693692058324814
44.0,0.01650175452232361
48.0,0.01607624441385269
52.0,0.01566106267273426
56.0,0.015264919959008694
60.0,0.014875577762722969
64.0,0.01449598278850317
72.0,0.013798370026051998
80.0,0.013129519298672676
88.0,0.012488254345953465
96.0,0.011883704923093319
104.0,0.011317112483084202
112.0,0.010776731185615063
120.0,0.010229303501546383
128.0,0.009731283411383629
144.0,0.009007671847939491
160.0,0.008223199285566807
176.0,0.007474957033991814
192.0,0.006963605526834726
208.0,0.006794413086026907
224.0,0.006681701634079218
240.0,0.006629956886172295
256.0,0.006654286291450262
288.0,0.006542321760207415
320.0,0.00612705247476697
352.0,0.005459464155137539
384.0,0.005040766671299934
416.0,0.004511693958193064
448.0,0.003596677677705884
480.0,0.0026620053686201572
512.0,0.0021889281924813986
576.0,0.002371380338445306
640.0,0.0024426658637821674
704.0,0.0014055895153433084
768.0,-0.0004007323586847633
832.0,-0.002078579505905509
896.0,-0.002399464137852192
960.0,-0.00211594277061522
1024.0,-0.0017271487740799785
1152.0,-4.1624934965511784e-05
1280.0,0.0014886560384184122
1408.0,0.0015408144099637866
1536.0,0.0019965798128396273
1664.0,0.0030509999487549067
1792.0,0.0037929562386125326
1920.0,0.00377224525436759
2048.0,0.004363589454442263
2304.0,0.0019572419114410877
2560.0,-0.0008247973746620119
2816.0,-0.0010587298311293125
3072.0,-0.001161684631370008
3328.0,0.00047121415263973176
3584.0,0.0014904369600117207
3840.0,7.451429701177403e-05
4096.0,-0.0015251862350851297
4608.0,-0.0022207479923963547
5120.0,0.00029131732298992574
5632.0,-0.0018332811305299401
6144.0,-0.004525046795606613
6656.0,-0.003855302231386304
7168.0,-0.003544272156432271
7680.0,-0.003556082956492901
8192.0,-0.0030461337883025408
end
