version,3.0
numOfCh,1
type,point
parent_name,484af_0dot08-1dot0
ch_type,1_1
kcount,1
numberNandB,1
brightnessNandB,1
carpet pos,0
pc,0
Time (ms),CH1 Auto-Correlation
1.0,0.021947063505649567
2.0,0.021712657064199448
3.0,0.02150897867977619
4.0,0.02131478674709797
5.0,0.02112671174108982
6.0,0.020939309149980545
7.0,0.02074873261153698
8.0,0.020566975697875023
9.0,0.02038722299039364
10.0,0.020216163247823715
11.0,0.02005603536963463
12.0,0.01989818550646305
13.0,0.019740143790841103
14.0,0.019584452733397484
15.0,0.019428111612796783
16.0,0.01927776262164116
18.0,0.018981099128723145
20.0,0.01868266984820366
22.0,0.018391532823443413
24.0,0.018113989382982254
26.0,0.01785055175423622
28.0,0.017597129568457603
30.0,0.01736706681549549
32.0,0.017147725448012352
36.0,0.016705960035324097
40.0,0.016275964677333832
44.0,0.015883224084973335
48.0,0.015495111234486103
52.0,0.015101923607289791
56.0,0.014722362160682678
60.0,0.014393922872841358
64.0,0.014092201367020607
72.0,0.013479948043823242
80.0,0.01292331051081419
88.0,0.012386779300868511
96.0,0.011935453861951828
104.0,0.011527673341333866
112.0,0.0111389746889472
120.0,0.010696446523070335
128.0,0.010252569802105427
144.0,0.009825929068028927
160.0,0.009415749460458755
176.0,0.008724940940737724
192.0,0.007859748788177967
208.0,0.0071838549338281155
224.0,0.006752814166247845
240.0,0.006348304450511932
256.0,0.005927603226155043
288.0,0.005041456315666437
320.0,0.003952332306653261
352.0,0.0028971023857593536
384.0,0.0025634365156292915
416.0,0.002388899214565754
448.0,0.0020072469487786293
480.0,0.0016230770852416754
512.0,0.0011097817914560437
576.0,0.00029958877712488174
640.0,-0.0011638900032266974
704.0,-0.001883596763946116
768.0,-0.0017995825037360191
832.0,-0.0016974208410829306
896.0,-0.0021052933298051357
960.0,-0.0029492469038814306
1024.0,-0.004193084314465523
1152.0,-0.0049539185129106045
1280.0,-0.004495630506426096
1408.0,-0.0045987702906131744
1536.0,-0.0058559393510222435
1664.0,-0.0053888470865786076
1792.0,-0.004058778751641512
1920.0,-0.0025254401843994856
2048.0,-0.0011772823054343462
2304.0,0.0028899458702653646
2560.0,0.00467812642455101
2816.0,0.0032036348711699247
3072.0,0.0011324072256684303
3328.0,-0.001334672560915351
3584.0,-0.0031438879668712616
3840.0,-0.004598808009177446
4096.0,-0.003959712106734514
4608.0,0.0018587595550343394
5120.0,0.0025250802282243967
5632.0,0.0014524845173582435
6144.0,-0.0031057968735694885
6656.0,0.0009159620385617018
7168.0,0.002621161285787821
7680.0,0.0013768187491223216
8192.0,-0.004012789577245712
end
