version,3.0
numOfCh,1
type,point
parent_name,484af_0dot08-1dot0
ch_type,1_1
kcount,1
numberNandB,1
brightnessNandB,1
carpet pos,0
pc,0
Time (ms),CH1 Auto-Correlation
1.0,0.024125635623931885
2.0,0.02390185371041298
3.0,0.0236781258136034
4.0,0.023459898307919502
5.0,0.023255934938788414
6.0,0.023049360141158104
7.0,0.02286134660243988
8.0,0.02267085202038288
9.0,0.02248416654765606
10.0,0.022299401462078094
11.0,0.02211969904601574
12.0,0.02194257080554962
13.0,0.021766306832432747
14.0,0.021589742973446846
15.0,0.02141617424786091
16.0,0.02125472016632557
18.0,0.020921867340803146
20.0,0.02059258706867695
22.0,0.020283356308937073
24.0,0.01997995190322399
26.0,0.019669601693749428
28.0,0.019368374720215797
30.0,0.019083106890320778
32.0,0.01880817860364914
36.0,0.018268940970301628
40.0,0.01774567738175392
44.0,0.01726391352713108
48.0,0.01683410443365574
52.0,0.01643262431025505
56.0,0.016042839735746384
60.0,0.01570197567343712
64.0,0.015353030525147915
72.0,0.014641257002949715
80.0,0.013921167701482773
88.0,0.013356925919651985
96.0,0.012836826033890247
104.0,0.012333229184150696
112.0,0.011886362917721272
120.0,0.011492308229207993
128.0,0.011095781810581684
144.0,0.010409366339445114
160.0,0.009758582338690758
176.0,0.009171816520392895
192.0,0.008691187016665936
208.0,0.008212562650442123
224.0,0.007668897043913603
240.0,0.007083173841238022
256.0,0.006620926782488823
288.0,0.005574513226747513
320.0,0.004843344446271658
352.0,0.00455681886523962
384.0,0.004577577114105225
416.0,0.004474626388400793
448.0,0.003759521059691906
480.0,0.003144994378089905
512.0,0.002987226704135537
576.0,0.003289633896201849
640.0,0.0030048484914004803
704.0,0.001811447786167264
768.0,0.0011105804005637765
832.0,0.00025639194063842297
896.0,-0.00027969034272246063
960.0,0.0007920952048152685
1024.0,0.0018125963397324085
1152.0,0.0011929123429581523
1280.0,0.0003223653184249997
1408.0,0.0014181348960846663
1536.0,0.0013127017300575972
1664.0,0.0008957383106462657
1792.0,-0.0009172435966320336
1920.0,-0.0034012796822935343
2048.0,-0.003936890512704849
2304.0,-0.0012902707094326615
2560.0,0.000810556928627193
2816.0,-0.0004127415013499558
3072.0,-0.0015057743294164538
3328.0,-0.0017329681431874633
3584.0,-2.2770527721149847e-05
3840.0,0.0005942801362834871
4096.0,0.00033210040419362485
4608.0,-0.0019558563362807035
5120.0,0.0013415580615401268
5632.0,-0.0024055817630141973
6144.0,-0.0029780964832752943
6656.0,-0.0017383943777531385
7168.0,-0.006553485989570618
7680.0,-0.0007236437522806227
8192.0,-0.004689808934926987
end
