version,3.0
numOfCh,1
type,point
parent_name,484af_0dot08-1dot0
ch_type,1_1
kcount,1
numberNandB,1
brightnessNandB,1
carpet pos,0
pc,0
Time (ms),CH1 Auto-Correlation
1.0,0.023292966187000275
2.0,0.023100225254893303
3.0,0.022914454340934753
4.0,0.02272775210440159
5.0,0.022555571049451828
6.0,0.022393397986888885
7.0,0.0222333837300539
8.0,0.022085318341851234
9.0,0.021937858313322067
10.0,0.021783242002129555
11.0,0.021627338603138924
12.0,0.021478302776813507
13.0,0.021328860893845558
14.0,0.021183554083108902
15.0,0.02104106731712818
16.0,0.020895274356007576
18.0,0.020616449415683746
20.0,0.02033178135752678
22.0,0.020058132708072662
24.0,0.019797176122665405
26.0,0.019552521407604218
28.0,0.01931689865887165
30.0,0.019093994051218033
32.0,0.018876373767852783
36.0,0.01848752424120903
40.0,0.018128693103790283
44.0,0.0177886001765728
48.0,0.017429901286959648
52.0,0.01708180457353592
56.0,0.016749903559684753
60.0,0.016440432518720627
64.0,0.016162849962711334
72.0,0.015642214566469193
80.0,0.015075773000717163
88.0,0.014491376467049122
96.0,0.013853968121111393
104.0,0.013204087503254414
112.0,0.012696261517703533
120.0,0.012201227247714996
128.0,0.01170281320810318
144.0,0.010714120231568813
160.0,0.009795868769288063
176.0,0.008996467106044292
192.0,0.008284390904009342
208.0,0.007778098341077566
224.0,0.007403693161904812
240.0,0.006736912298947573
256.0,0.006162354722619057
288.0,0.004932521842420101
320.0,0.003663848852738738
352.0,0.002717255614697933
384.0,0.002182592637836933
416.0,0.0018248235573992133
448.0,0.0017554603982716799
480.0,0.001506767817772925
512.0,0.00118071970064193
576.0,0.0004152515030000359
640.0,0.0010566730052232742
704.0,0.0025460163597017527
768.0,0.00345121743157506
832.0,0.0035420896019786596
896.0,0.0038124604616314173
960.0,0.004250863566994667
1024.0,0.0033788857981562614
1152.0,0.0013748971978202462
1280.0,-0.0014438137877732515
1408.0,-0.002348087029531598
1536.0,-0.001154250930994749
1664.0,0.0003577806055545807
1792.0,0.0006741725374013186
1920.0,0.0022645690478384495
2048.0,0.004222954623401165
2304.0,0.003145697293803096
2560.0,0.0019786679185926914
2816.0,0.002721003722399473
3072.0,-0.0005412846221588552
3328.0,-0.0046040513552725315
3584.0,-0.005223334301263094
3840.0,-0.004403425846248865
4096.0,-0.005263583268970251
4608.0,-0.0011929587926715612
5120.0,0.0003454092366155237
5632.0,0.0008906997391022742
6144.0,-0.0026663143653422594
6656.0,3.1265521101886407e-05
7168.0,0.0012852574000135064
7680.0,0.003760450752452016
8192.0,0.0010920955101028085
end
