version,3.0
numOfCh,1
type,point
parent_name,484af_0dot08-1dot0
ch_type,1_1
kcount,1
numberNandB,1
brightnessNandB,1
carpet pos,0
pc,0
Time (ms),CH1 Auto-Correlation
1.0,0.022218303754925728
2.0,0.022017763927578926
3.0,0.021827319636940956
4.0,0.021641839295625687
5.0,0.02147182822227478
6.0,0.02130529284477234
7.0,0.021144261583685875
8.0,0.02097860537469387
9.0,0.020806048065423965
10.0,0.0206402987241745
11.0,0.02048124000430107
12.0,0.020323392003774643
13.0,0.020164137706160545
14.0,0.020012743771076202
15.0,0.019861148670315742
16.0,0.019713403657078743
18.0,0.01942138560116291
20.0,0.019132068380713463
22.0,0.018854612484574318
24.0,0.018587501719594002
26.0,0.018336080014705658
28.0,0.01809791475534439
30.0,0.01786496862769127
32.0,0.01763593591749668
36.0,0.01719999499619007
40.0,0.01675254851579666
44.0,0.01631743833422661
48.0,0.015879284590482712
52.0,0.015434487722814083
56.0,0.01504429243505001
60.0,0.014706892892718315
64.0,0.014391115866601467
72.0,0.013793767429888248
80.0,0.01323337946087122
88.0,0.012667125090956688
96.0,0.012083921581506729
104.0,0.011539764702320099
112.0,0.011034234426915646
120.0,0.010573484934866428
128.0,0.010107992216944695
144.0,0.009128625504672527
160.0,0.008216305635869503
176.0,0.007301738485693932
192.0,0.006445735692977905
208.0,0.005782123189419508
224.0,0.005181462503969669
240.0,0.0045728664845228195
256.0,0.003930937498807907
288.0,0.0021746191196143627
320.0,0.0007667102036066353
352.0,-0.0003114195424132049
384.0,-0.0010079171042889357
416.0,-0.00132174720056355
448.0,-0.0017099574906751513
480.0,-0.0017814666498452425
512.0,-0.0016659467946738005
576.0,-0.00209873472340405
640.0,-0.0028705052100121975
704.0,-0.0026185475289821625
768.0,-0.00228190328925848
832.0,-0.0018566978396847844
896.0,-0.0020160102285444736
960.0,-0.002143588848412037
1024.0,-0.002335195429623127
1152.0,-0.0005659132148139179
1280.0,0.0021739692892879248
1408.0,0.0021091578528285027
1536.0,-7.875502774368215e-07
1664.0,-0.0005463738925755024
1792.0,-0.0005783243686892092
1920.0,0.00011977946269325912
2048.0,0.0009662450174801052
2304.0,0.00011407298734411597
2560.0,0.002348873298615217
2816.0,0.002969087567180395
3072.0,0.0003124632057733834
3328.0,-5.779852290288545e-05
3584.0,-0.0023611322976648808
3840.0,-0.003662524977698922
4096.0,-0.0008407174609601498
4608.0,-5.900858013774268e-05
5120.0,-0.0012145515065640211
5632.0,0.001219604047946632
6144.0,0.001622379175387323
6656.0,-0.003910137806087732
7168.0,-0.002622901229187846
7680.0,0.0020374038722366095
8192.0,-0.0019727982580661774
end
