version,3.0
numOfCh,1
type,point
parent_name,484af_0dot08-1dot0
ch_type,1_1
kcount,1
numberNandB,1
brightnessNandB,1
carpet pos,0
pc,0
Time (ms),CH1 Auto-Correlation
1.0,0.016662005335092545
2.0,0.01646813005208969
3.0,0.016282740980386734
4.0,0.01610439084470272
5.0,0.015929555520415306
6.0,0.01575995795428753
7.0,0.015596933662891388
8.0,0.015426700003445148
9.0,0.015265686437487602
10.0,0.015109964646399021
11.0,0.014952152036130428
12.0,0.014795352704823017
13.0,0.01464912761002779
14.0,0.01450828555971384
15.0,0.014370703138411045
16.0,0.014234533533453941
18.0,0.013974865898489952
20.0,0.013719881884753704
22.0,0.013475744985044003
24.0,0.013233312405645847
26.0,0.012991704046726227
28.0,0.012754944153130054
30.0,0.01252532284706831
32.0,0.012308252975344658
36.0,0.011901644989848137
40.0,0.011513058096170425
44.0,0.011147260665893555
48.0,0.010800625197589397
52.0,0.010455435141921043
56.0,0.01012308057397604
60.0,0.00981487799435854
64.0,0.009489994496107101
72.0,0.008861434645950794
80.0,0.008309152908623219
88.0,0.00783963967114687
96.0,0.007496994454413652
104.0,0.007192312739789486
112.0,0.0068750265054404736
120.0,0.006600110325962305
128.0,0.0064224484376609325
144.0,0.0061599393375217915
160.0,0.005835909862071276
176.0,0.005387382116168737
192.0,0.00499747646972537
208.0,0.004509217571467161
224.0,0.004060445353388786
240.0,0.003691562684252858
256.0,0.0033521822188049555
288.0,0.0027938757557421923
320.0,0.002701663179323077
352.0,0.0028169676661491394
384.0,0.0027136628050357103
416.0,0.0024978474248200655
448.0,0.0018820888362824917
480.0,0.0012892077211290598
512.0,0.0008332477300427854
576.0,0.0001954177423613146
640.0,0.00011462689872132614
704.0,0.00014666799688711762
768.0,-5.878722367924638e-05
832.0,-0.0006707626744173467
896.0,-0.0012636141618713737
960.0,-0.0010573766194283962
1024.0,-0.0010068026604130864
1152.0,6.445481994887814e-05
1280.0,-0.0007733925594948232
1408.0,-0.0019381575984880328
1536.0,-0.00145743228495121
1664.0,-0.0005012999172322452
1792.0,0.0010502052027732134
1920.0,4.181322219665162e-05
2048.0,0.0006322485278360546
2304.0,0.001719165127724409
2560.0,0.0010830718092620373
2816.0,0.002081441693007946
3072.0,0.0018550963141024113
3328.0,-0.0009074154659174383
3584.0,-0.002579855266958475
3840.0,-0.002408731495961547
4096.0,-0.001350172096863389
4608.0,-0.0021706935949623585
5120.0,-0.0023708720691502094
5632.0,-0.0023334899451583624
6144.0,8.425984560744837e-05
6656.0,-0.00040076300501823425
7168.0,-0.0008579497807659209
7680.0,-0.004096622113138437
8192.0,-0.0013406140496954322
end
