version,3.0
numOfCh,1
type,point
parent_name,484af_0dot08-1dot0
ch_type,1_1
kcount,1
numberNandB,1
brightnessNandB,1
carpet pos,0
pc,0
Time (ms),CH1 Auto-Correlation
1.0,0.02514045685529709
2.0,0.024939510971307755
3.0,0.024748526513576508
4.0,0.024557145312428474
5.0,0.024373196065425873
6.0,0.02419382520020008
7.0,0.024020517244935036
8.0,0.02385134994983673
9.0,0.02368168905377388
10.0,0.023515479639172554
11.0,0.023350659757852554
12.0,0.023185400292277336
13.0,0.023021256551146507
14.0,0.022860927507281303
15.0,0.022697042673826218
16.0,0.022532399743795395
18.0,0.02221623808145523
20.0,0.021901234984397888
22.0,0.021595222875475883
24.0,0.021298089995980263
26.0,0.021010568365454674
28.0,0.0207357257604599
30.0,0.020461497828364372
32.0,0.020196663215756416
36.0,0.019675463438034058
40.0,0.019176607951521873
44.0,0.018717775121331215
48.0,0.018272344022989273
52.0,0.017831267789006233
56.0,0.017417749390006065
60.0,0.01700340025126934
64.0,0.016632217913866043
72.0,0.015987182036042213
80.0,0.015419457107782364
88.0,0.01490145456045866
96.0,0.014397376216948032
104.0,0.014000088907778263
112.0,0.013671732507646084
120.0,0.013391374610364437
128.0,0.013163771480321884
144.0,0.012825390323996544
160.0,0.012482005171477795
176.0,0.011941925622522831
192.0,0.01154488418251276
208.0,0.011243150569498539
224.0,0.011000649072229862
240.0,0.010731244459748268
256.0,0.010366866365075111
288.0,0.009652474895119667
320.0,0.008748291991651058
352.0,0.008192552253603935
384.0,0.0077999550849199295
416.0,0.0073019834235310555
448.0,0.00676338467746973
480.0,0.006521220784634352
512.0,0.006375583820044994
576.0,0.0049929022789001465
640.0,0.0030480942223221064
704.0,0.002586518181487918
768.0,0.0024646290112286806
832.0,0.0015584544744342566
896.0,0.0011480163084343076
960.0,0.0019476062152534723
1024.0,0.002094225026667118
1152.0,0.0006950825918465853
1280.0,2.1847647076356225e-05
1408.0,-0.0010012781713157892
1536.0,-0.0026457093190401793
1664.0,-0.003414589911699295
1792.0,-0.0037533179856836796
1920.0,-0.004530181642621756
2048.0,-0.005175326485186815
2304.0,-0.005310417618602514
2560.0,-0.005914884153753519
2816.0,-0.005173240788280964
3072.0,-0.006339821964502335
3328.0,-0.004255759064108133
3584.0,-0.0014921968104317784
3840.0,0.0018901905277743936
4096.0,9.60632496571634e-06
4608.0,-0.0032615645322948694
5120.0,-0.0014028061414137483
5632.0,-0.0006415137322619557
6144.0,0.0014252013061195612
6656.0,0.006821440998464823
7168.0,0.005340100731700659
7680.0,0.00595492497086525
8192.0,0.0030700350180268288
end
