version,3.0
numOfCh,1
type,point
parent_name,484af_0dot08-1dot0
ch_type,1_1
kcount,1
numberNandB,1
brightnessNandB,1
carpet pos,0
pc,0
Time (ms),CH1 Auto-Correlation
1.0,0.02743416093289852
2.0,0.027194350957870483
3.0,0.02697627805173397
4.0,0.02677018754184246
5.0,0.026564059779047966
6.0,0.02636643499135971
7.0,0.026173684746026993
8.0,0.025994235649704933
9.0,0.025816306471824646
10.0,0.025652173906564713
11.0,0.025490663945674896
12.0,0.025332065299153328
13.0,0.02517801709473133
14.0,0.02502812072634697
15.0,0.0248829647898674
16.0,0.024736149236559868
18.0,0.02445249818265438
20.0,0.024184927344322205
22.0,0.023920875042676926
24.0,0.02365880273282528
26.0,0.023395175114274025
28.0,0.02313755638897419
30.0,0.022900329902768135
32.0,0.022682134062051773
36.0,0.022242719307541847
40.0,0.02183154784142971
44.0,0.02145301178097725
48.0,0.02107757143676281
52.0,0.0207083597779274
56.0,0.020358126610517502
60.0,0.02002648636698723
64.0,0.01969962567090988
72.0,0.018940052017569542
80.0,0.0181948971003294
88.0,0.017518991604447365
96.0,0.016892166808247566
104.0,0.016315285116434097
112.0,0.01576719805598259
120.0,0.015192607417702675
128.0,0.014660853892564774
144.0,0.013868112117052078
160.0,0.01310271117836237
176.0,0.012349268421530724
192.0,0.01163449790328741
208.0,0.010793841443955898
224.0,0.009745722636580467
240.0,0.00878475047647953
256.0,0.008027439936995506
288.0,0.006969558075070381
320.0,0.005949702113866806
352.0,0.005197498481720686
384.0,0.004569418262690306
416.0,0.004444957710802555
448.0,0.004612736403942108
480.0,0.004575017374008894
512.0,0.004634597338736057
576.0,0.004267233423888683
640.0,0.0037488406524062157
704.0,0.002666725078597665
768.0,0.002582385903224349
832.0,0.002028860617429018
896.0,0.0015472397208213806
960.0,0.00230121286585927
1024.0,0.0030012379866093397
1152.0,0.0031901018228381872
1280.0,0.0013775663683190942
1408.0,-0.0003925955097656697
1536.0,-0.00121504464186728
1664.0,-0.0028980281203985214
1792.0,-0.0025385329499840736
1920.0,-0.0014251909451559186
2048.0,-0.0009593727299943566
2304.0,0.0006470833905041218
2560.0,0.002383293816819787
2816.0,0.0011600153520703316
3072.0,-0.0003862270386889577
3328.0,0.0002989104832522571
3584.0,0.0005574435344897211
3840.0,-0.0023994380608201027
4096.0,-0.0036345934495329857
4608.0,-0.0025184755213558674
5120.0,-0.0005143961170688272
5632.0,-0.0012134310090914369
6144.0,0.001512426184490323
6656.0,0.0007782120956107974
7168.0,-0.0026541680563241243
7680.0,0.00010868078970815986
8192.0,-0.004744878038764
end
