version,3.0
numOfCh,1
type,point
parent_name,484af_0dot08-1dot0
ch_type,1_1
kcount,1
numberNandB,1
brightnessNandB,1
carpet pos,0
pc,0
Time (ms),CH1 Auto-Correlation
1.0,0.02012268640100956
2.0,0.019929682835936546
3.0,0.0197520200163126
4.0,0.019582528620958328
5.0,0.019421860575675964
6.0,0.01926136575639248
7.0,0.019101526588201523
8.0,0.018949367105960846
9.0,0.01879618875682354
10.0,0.018644990399479866
11.0,0.01850162446498871
12.0,0.018369821831583977
13.0,0.01823432184755802
14.0,0.018100542947649956
15.0,0.017971226945519447
16.0,0.017843035981059074
18.0,0.017579635605216026
20.0,0.017316708341240883
22.0,0.017062092199921608
24.0,0.01682117208838463
26.0,0.01657814346253872
28.0,0.01634122058749199
30.0,0.01610514335334301
32.0,0.01586841605603695
36.0,0.015397273004055023
40.0,0.014920594170689583
44.0,0.01447258610278368
48.0,0.014057685621082783
52.0,0.013655995018780231
56.0,0.013289082795381546
60.0,0.012947329320013523
64.0,0.01260336022824049
72.0,0.011932145804166794
80.0,0.01128330733627081
88.0,0.010649921372532845
96.0,0.010010512545704842
104.0,0.009450389072299004
112.0,0.008961190469563007
120.0,0.00851510465145111
128.0,0.008059640415012836
144.0,0.0071822707541286945
160.0,0.006411117035895586
176.0,0.005800091195851564
192.0,0.0053164283744990826
208.0,0.004890077281743288
224.0,0.00454435870051384
240.0,0.004290881101042032
256.0,0.004119885619729757
288.0,0.0039072055369615555
320.0,0.003526937449350953
352.0,0.0031974641606211662
384.0,0.00293911574408412
416.0,0.0020846559200435877
448.0,0.001504910527728498
480.0,0.0011100093834102154
512.0,0.000741255353204906
576.0,0.0010808154474943876
640.0,0.0014742850326001644
704.0,0.0022110173013061285
768.0,0.003433495294302702
832.0,0.0037456508725881577
896.0,0.0027714883908629417
960.0,0.0022777908015996218
1024.0,0.001396389794535935
1152.0,0.0017452958272770047
1280.0,0.0009640294010750949
1408.0,0.00030181562760844827
1536.0,0.0017789272824302316
1664.0,0.0018354100175201893
1792.0,0.0012229186249896884
1920.0,0.001042473129928112
2048.0,9.414606029167771e-05
2304.0,0.0011092229979112744
2560.0,0.002987481653690338
2816.0,0.002142517361789942
3072.0,0.0016877911984920502
3328.0,0.0008377004414796829
3584.0,0.0011073742061853409
3840.0,0.001973796868696809
4096.0,0.0006461290176957846
4608.0,-0.00033582677133381367
5120.0,-0.000362342776497826
5632.0,-0.0018350104801356792
6144.0,-0.0008830265724100173
6656.0,0.00041390900150872767
7168.0,0.0015907491324469447
7680.0,6.374776421580464e-05
8192.0,-0.0011687151854857802
end
