version,3.0
numOfCh,1
type,point
parent_name,484af_0dot08-1dot0
ch_type,1_1
kcount,1
numberNandB,1
brightnessNandB,1
carpet pos,0
pc,0
Time (ms),CH1 Auto-Correlation
1.0,0.02485295571386814
2.0,0.024596108123660088
3.0,0.02436721697449684
4.0,0.02414824068546295
5.0,0.023944204673171043
6.0,0.023751862347126007
7.0,0.023562029004096985
8.0,0.023376019671559334
9.0,0.023188166320323944
10.0,0.023005494847893715
11.0,0.022830944508314133
12.0,0.02265753224492073
13.0,0.02248194068670273
14.0,0.022310318425297737
15.0,0.022141406312584877
16.0,0.02196713164448738
18.0,0.021628133952617645
20.0,0.02130548283457756
22.0,0.02100466750562191
24.0,0.02072150446474552
26.0,0.02044166810810566
28.0,0.02014939673244953
30.0,0.019856663420796394
32.0,0.019548602402210236
36.0,0.018985414877533913
40.0,0.018461517989635468
44.0,0.017981724813580513
48.0,0.017520923167467117
52.0,0.017114894464612007
56.0,0.016730718314647675
60.0,0.01637621782720089
64.0,0.016040049493312836
72.0,0.015390610322356224
80.0,0.01475254725664854
88.0,0.014067649841308594
96.0,0.013383517041802406
104.0,0.012797238305211067
112.0,0.01224676612764597
120.0,0.011762323789298534
128.0,0.011197560466825962
144.0,0.010172812268137932
160.0,0.009550066664814949
176.0,0.009221130050718784
192.0,0.009026526473462582
208.0,0.008960540406405926
224.0,0.00887498538941145
240.0,0.008686580695211887
256.0,0.008411991409957409
288.0,0.00775877945125103
320.0,0.00688680075109005
352.0,0.006259032525122166
384.0,0.00588794844225049
416.0,0.005760944914072752
448.0,0.005642961710691452
480.0,0.005417135544121265
512.0,0.00579230859875679
576.0,0.0058006178587675095
640.0,0.006063135806471109
704.0,0.00612528994679451
768.0,0.005807755049318075
832.0,0.005765426903963089
896.0,0.006315063685178757
960.0,0.007065979298204184
1024.0,0.006756304297596216
1152.0,0.005597938317805529
1280.0,0.0037364871241152287
1408.0,0.002564214402809739
1536.0,0.004373191390186548
1664.0,0.006406137719750404
1792.0,0.007285900879651308
1920.0,0.006474832072854042
2048.0,0.0072900475934147835
2304.0,0.002354710130020976
2560.0,0.00299440766684711
2816.0,0.00527903251349926
3072.0,0.0030789978336542845
3328.0,0.0026584763545542955
3584.0,0.0033928370103240013
3840.0,0.0031041991896927357
4096.0,0.00045628068619407713
4608.0,-0.0012576490407809615
5120.0,-0.0022505910601466894
5632.0,-0.002055180026218295
6144.0,-0.002628518035635352
6656.0,-0.006884651258587837
7168.0,-0.0033055017702281475
7680.0,-0.005198348313570023
8192.0,-0.006775632966309786
end
