version,3.0
numOfCh,1
type,point
parent_name,fe81d_1dot0-1dot0
ch_type,1_1
kcount,1
numberNandB,1
brightnessNandB,1
carpet pos,0
pc,0
Time (ms),CH1 Auto-Correlation
1.0,0.025812454521656036
2.0,0.023556413128972054
3.0,0.021629706025123596
4.0,0.019996218383312225
5.0,0.01863938197493553
6.0,0.017371876165270805
7.0,0.016249321401119232
8.0,0.0152090759947896
9.0,0.014320054091513157
10.0,0.013538047671318054
11.0,0.012799114920198917
12.0,0.012231465429067612
13.0,0.01170920766890049
14.0,0.0112277427688241
15.0,0.010695523582398891
16.0,0.010207190178334713
18.0,0.009342066943645477
20.0,0.008462286554276943
22.0,0.007709542289376259
24.0,0.00711475033313036
26.0,0.006549364887177944
28.0,0.006063351407647133
30.0,0.005742632318288088
32.0,0.005646631121635437
36.0,0.00551941292360425
40.0,0.005376283545047045
44.0,0.00473177433013916
48.0,0.00410767737776041
52.0,0.0038719959557056427
56.0,0.003719822969287634
60.0,0.003588797291740775
64.0,0.0033176885917782784
72.0,0.0030325320549309254
80.0,0.0029709830414503813
88.0,0.0031397317070513964
96.0,0.0033491591457277536
104.0,0.002916343742981553
112.0,0.002132996916770935
120.0,0.001441479311324656
128.0,0.0011966682504862547
144.0,0.0016028983518481255
160.0,0.0027207641396671534
176.0,0.0024460419081151485
192.0,0.0016261335695162416
208.0,0.0004151747561991215
224.0,0.00013380416203290224
240.0,0.000314291100949049
256.0,0.0007809677626937628
288.0,0.0010910497512668371
320.0,0.0008647369686514139
352.0,0.0012572644045576453
384.0,0.0010848932433873415
416.0,0.0006699179066345096
448.0,0.0003715837956406176
480.0,0.0001641268900129944
512.0,0.00019356710254214704
576.0,-0.0007271463982760906
640.0,-0.0012961805332452059
704.0,-0.0006185665261000395
768.0,-0.0007284549064934254
832.0,-0.00038489134749397635
896.0,-0.0009530986426398158
960.0,-0.0002613512333482504
1024.0,-0.000844157300889492
1152.0,0.0005529152695089579
1280.0,0.0004262204165570438
1408.0,0.0009626518585719168
1536.0,0.002095830161124468
1664.0,0.0011919898679479957
1792.0,0.0008327965042553842
1920.0,-0.0007770425290800631
2048.0,-0.0017408865969628096
2304.0,-0.0011468342272564769
2560.0,-0.0008003092953003943
2816.0,-0.00035209025372751057
3072.0,0.000933520554099232
3328.0,-0.00024212132848333567
3584.0,-0.0009415806853212416
3840.0,-0.0008511203923262656
4096.0,-0.0001990361197385937
4608.0,-0.00044911718578077853
5120.0,0.00038219772977754474
5632.0,0.00041872309520840645
6144.0,-0.00011103518045274541
6656.0,-0.0009515907731838524
7168.0,-0.00014444789849221706
7680.0,-0.00035986400325782597
8192.0,9.558886813465506e-05
end
