version,3.0
numOfCh,1
type,point
parent_name,fe81d_1dot0-1dot0
ch_type,1_1
kcount,1
numberNandB,1
brightnessNandB,1
carpet pos,0
pc,0
Time (ms),CH1 Auto-Correlation
1.0,0.03159580007195473
2.0,0.02936025895178318
3.0,0.027420779690146446
4.0,0.0257307980209589
5.0,0.024274688214063644
6.0,0.02300313115119934
7.0,0.021876955404877663
8.0,0.02086523547768593
9.0,0.01988179050385952
10.0,0.018983937799930573
11.0,0.018105490133166313
12.0,0.01730596274137497
13.0,0.016552748158574104
14.0,0.015896020457148552
15.0,0.015303623862564564
16.0,0.014760784804821014
18.0,0.013737625442445278
20.0,0.012900750152766705
22.0,0.012114816345274448
24.0,0.01144457794725895
26.0,0.010815475136041641
28.0,0.010439807549118996
30.0,0.010117645375430584
32.0,0.009765812195837498
36.0,0.009034426882863045
40.0,0.008332887664437294
44.0,0.007621218450367451
48.0,0.006854534149169922
52.0,0.006086946465075016
56.0,0.005532376002520323
60.0,0.005137949716299772
64.0,0.0045753344893455505
72.0,0.003852107096463442
80.0,0.0037582614459097385
88.0,0.0034398294519633055
96.0,0.00278690317645669
104.0,0.003073484171181917
112.0,0.003203472588211298
120.0,0.002940507372841239
128.0,0.00266384263522923
144.0,0.0021151984110474586
160.0,0.0014190184883773327
176.0,0.00046670122537761927
192.0,-0.0004153237969148904
208.0,-0.0007868543616496027
224.0,-0.0004470685962587595
240.0,-0.0006335899815894663
256.0,-0.0007033435977064073
288.0,-0.0002112512884195894
320.0,-0.00018114049453288317
352.0,0.00012807411258108914
384.0,-8.314615115523338e-05
416.0,0.00014103602734394372
448.0,0.00044747634092345834
480.0,0.0003237555793020874
512.0,-0.00027954994584433734
576.0,-0.0007714246748946607
640.0,-0.000994841568171978
704.0,0.00023664328909944743
768.0,0.0011158821871504188
832.0,0.0006633516168221831
896.0,0.0005938575486652553
960.0,0.00021273425954859704
1024.0,0.0012815383961424232
1152.0,-9.854947711573914e-05
1280.0,-0.0012371813645586371
1408.0,0.00018615413864608854
1536.0,-0.0006040635053068399
1664.0,-0.0012741616228595376
1792.0,0.0003339518152642995
1920.0,-0.00046595532330684364
2048.0,-0.0009562953491695225
2304.0,-0.0004132209869567305
2560.0,0.0004390463582240045
2816.0,-0.00019301730208098888
3072.0,-0.0026311094406992197
3328.0,0.0010384403867647052
3584.0,-0.0009082908509299159
3840.0,-0.0009539506281726062
4096.0,-0.001741161453537643
4608.0,0.0008942444110289216
5120.0,-0.0003697803185787052
5632.0,-0.0006557805463671684
6144.0,0.0010138681391254067
6656.0,-4.395870564621873e-05
7168.0,-1.9509750927682035e-05
7680.0,0.0014907284639775753
8192.0,-0.0010692887008190155
end
