version,3.0
numOfCh,1
type,point
parent_name,fe81d_1dot0-1dot0
ch_type,1_1
kcount,1
numberNandB,1
brightnessNandB,1
carpet pos,0
pc,0
Time (ms),CH1 Auto-Correlation
1.0,0.026180265471339226
2.0,0.02388470061123371
3.0,0.021930288523435593
4.0,0.020253852009773254
5.0,0.018808305263519287
6.0,0.017545372247695923
7.0,0.016416411846876144
8.0,0.015374479815363884
9.0,0.014420590363442898
10.0,0.013583729043602943
11.0,0.012835479341447353
12.0,0.01215422060340643
13.0,0.011464851908385754
14.0,0.010870258323848248
15.0,0.010396325960755348
16.0,0.009994476102292538
18.0,0.009236592799425125
20.0,0.008681172505021095
22.0,0.008231058716773987
24.0,0.007825509645044804
26.0,0.007454130332916975
28.0,0.007039940450340509
30.0,0.006747621577233076
32.0,0.006319787353277206
36.0,0.005714560858905315
40.0,0.0054274657741189
44.0,0.0050840782932937145
48.0,0.005035418551415205
52.0,0.004824414383620024
56.0,0.004784013144671917
60.0,0.0046234349720180035
64.0,0.004485903307795525
72.0,0.004099720623344183
80.0,0.0033073085360229015
88.0,0.00217837980017066
96.0,0.0018857407849282026
104.0,0.001958088018000126
112.0,0.001942425617016852
120.0,0.0018092753598466516
128.0,0.00166051066480577
144.0,0.0022391139063984156
160.0,0.002635569078847766
176.0,0.0026856311596930027
192.0,0.00242130970582366
208.0,0.0019320386927574873
224.0,0.001732117380015552
240.0,0.0014210965018719435
256.0,0.00021159325842745602
288.0,0.0014116207603365183
320.0,0.0015366208972409368
352.0,0.0012757169315591455
384.0,0.001058937981724739
416.0,0.0004785330966114998
448.0,0.0003369905462022871
480.0,0.000768125697504729
512.0,0.0014319560723379254
576.0,0.0004152896290179342
640.0,-0.0009795335354283452
704.0,0.0004406452353578061
768.0,-0.00016801629681140184
832.0,-0.00011762727808672935
896.0,1.2153628858868615e-07
960.0,0.00048232940025627613
1024.0,0.0002460263785906136
1152.0,-0.0005195097182877362
1280.0,0.00030487595358863473
1408.0,0.00096090481383726
1536.0,0.0008442796533927321
1664.0,0.0018825262086465955
1792.0,0.0019283464644104242
1920.0,0.0012234210735186934
2048.0,0.0005187619244679809
2304.0,0.0012498911237344146
2560.0,8.092111238511279e-05
2816.0,0.0005947243189439178
3072.0,-0.00022214312048163265
3328.0,0.0006139992619864643
3584.0,-0.00015692951274104416
3840.0,-0.0005544494488276541
4096.0,-0.0008602624293416739
4608.0,0.0006234348984435201
5120.0,-0.00025864283088594675
5632.0,-0.0010889994446188211
6144.0,-0.0002415281196590513
6656.0,0.0003634248860180378
7168.0,-3.130703044007532e-05
7680.0,-0.0010852089617401361
8192.0,-0.0010654224315658212
end
