version,3.0
numOfCh,1
type,point
parent_name,fe81d_1dot0-1dot0
ch_type,1_1
kcount,1
numberNandB,1
brightnessNandB,1
carpet pos,0
pc,0
Time (ms),CH1 Auto-Correlation
1.0,0.028678735718131065
2.0,0.026467183604836464
3.0,0.024562453851103783
4.0,0.022906968370079994
5.0,0.021435320377349854
6.0,0.020137151703238487
7.0,0.019046517089009285
8.0,0.018082892522215843
9.0,0.01713557541370392
10.0,0.016274726018309593
11.0,0.01553527731448412
12.0,0.014885563403367996
13.0,0.014295306988060474
14.0,0.013744630850851536
15.0,0.013199985958635807
16.0,0.012655400671064854
18.0,0.011615573428571224
20.0,0.01067151129245758
22.0,0.009912088513374329
24.0,0.009319432079792023
26.0,0.008848082274198532
28.0,0.008488602936267853
30.0,0.00824146531522274
32.0,0.00802022684365511
36.0,0.00741437915712595
40.0,0.006914787460118532
44.0,0.006457810290157795
48.0,0.005910143256187439
52.0,0.005389858968555927
56.0,0.004972191993147135
60.0,0.004484901204705238
64.0,0.004298305604606867
72.0,0.003940996248275042
80.0,0.0033146885689347982
88.0,0.0025588665157556534
96.0,0.002186992671340704
104.0,0.0018236299511045218
112.0,0.0017960231052711606
120.0,0.0019931290298700333
128.0,0.0015357239171862602
144.0,0.00017174675303976983
160.0,-0.00038987412699498236
176.0,-0.0003711157769430429
192.0,-0.0007858612225390971
208.0,-0.0005038097151555121
224.0,-0.0001131304306909442
240.0,-0.00020795997988898307
256.0,-0.0002972158254124224
288.0,0.000754598411731422
320.0,0.0008872209000401199
352.0,0.0014116362435743213
384.0,0.0021568755619227886
416.0,0.001975619699805975
448.0,0.0016688347095623612
480.0,0.00047465829993598163
512.0,-0.00046166472020559013
576.0,-1.4647835996584035e-05
640.0,0.0006240911316126585
704.0,0.0007885079830884933
768.0,0.0005117238615639508
832.0,0.0004977468634024262
896.0,-0.0002471740008331835
960.0,-0.00027747824788093567
1024.0,-0.001762673258781433
1152.0,-0.001950260833837092
1280.0,0.00028296958771534264
1408.0,-0.000507857883349061
1536.0,-0.00047456141328439116
1664.0,5.395754851633683e-05
1792.0,-0.0002016752550844103
1920.0,0.00023974510258994997
2048.0,0.0009056655107997358
2304.0,-9.901163866743445e-05
2560.0,0.00044573310879059136
2816.0,0.001257675583474338
3072.0,-0.0005559431738220155
3328.0,-0.00011105965677415952
3584.0,-0.0005190889933146536
3840.0,-0.0008931659394875169
4096.0,-0.0008855489431880414
4608.0,0.0001204535219585523
5120.0,-0.0006776826339773834
5632.0,-0.00010053665755549446
6144.0,1.218029956362443e-05
6656.0,-0.0008390424191020429
7168.0,-0.0017811325378715992
7680.0,-0.0011813284363597631
8192.0,0.0009347483864985406
end
