version,3.0
numOfCh,1
type,point
parent_name,fe81d_1dot0-1dot0
ch_type,1_1
kcount,1
numberNandB,1
brightnessNandB,1
carpet pos,0
pc,0
Time (ms),CH1 Auto-Correlation
1.0,0.02770891971886158
2.0,0.02542169764637947
3.0,0.023549523204565048
4.0,0.021822553128004074
5.0,0.020384717732667923
6.0,0.01920582354068756
7.0,0.018183577805757523
8.0,0.017306121066212654
9.0,0.016497138887643814
10.0,0.0157613605260849
11.0,0.01507421862334013
12.0,0.014427206479012966
13.0,0.013773207552731037
14.0,0.013076997362077236
15.0,0.012448943220078945
16.0,0.011847025714814663
18.0,0.010943030007183552
20.0,0.010247376747429371
22.0,0.00973972026258707
24.0,0.009274088777601719
26.0,0.008918189443647861
28.0,0.008599604479968548
30.0,0.008394160307943821
32.0,0.00825474876910448
36.0,0.007867789827287197
40.0,0.007318500895053148
44.0,0.006636422593146563
48.0,0.0059414030984044075
52.0,0.005203572101891041
56.0,0.0045892829075455666
60.0,0.004203524440526962
64.0,0.003777857171371579
72.0,0.003555512987077236
80.0,0.0037605520337820053
88.0,0.0036938569974154234
96.0,0.0036523023154586554
104.0,0.0038571215700358152
112.0,0.0036841563414782286
120.0,0.002951347501948476
128.0,0.0022303806617856026
144.0,0.001859842101112008
160.0,0.0017759136389940977
176.0,0.001171134877949953
192.0,0.0011154694948345423
208.0,0.001013102475553751
224.0,0.0014603062300011516
240.0,0.0015444133896380663
256.0,0.0013625520514324307
288.0,0.0005632246029563248
320.0,-0.0002928941394202411
352.0,-0.00043640602962113917
384.0,0.00033392730983905494
416.0,0.0014766999520361423
448.0,-3.745527646970004e-05
480.0,-0.0003061234892811626
512.0,0.001063976320438087
576.0,-0.0006247305427677929
640.0,-0.0006607117829844356
704.0,-0.0014678876614198089
768.0,-0.002143651247024536
832.0,-0.0014244510093703866
896.0,0.0005366961122490466
960.0,0.001447799033485353
1024.0,0.0019293095683678985
1152.0,0.0002657829609233886
1280.0,0.0011472876649349928
1408.0,0.0015616232994943857
1536.0,0.0005857984651811421
1664.0,-0.0006844581221230328
1792.0,-0.0005565965548157692
1920.0,-0.0008780088392086327
2048.0,-0.0021649766713380814
2304.0,-0.000828308577183634
2560.0,0.0002777426561806351
2816.0,4.227097088005394e-05
3072.0,-0.0015670034335926175
3328.0,-0.001416588551364839
3584.0,-0.00036166212521493435
3840.0,-0.0003134756407234818
4096.0,0.0004163164703641087
4608.0,-0.0005337335751391947
5120.0,-0.0002153911191271618
5632.0,2.9720917154918425e-05
6144.0,-0.00020981725538149476
6656.0,0.001279280986636877
7168.0,0.0012991896364837885
7680.0,6.068362927180715e-05
8192.0,-3.6212237318977714e-05
end
