version,3.0
numOfCh,1
type,point
parent_name,fe81d_1dot0-1dot0
ch_type,1_1
kcount,1
numberNandB,1
brightnessNandB,1
carpet pos,0
pc,0
Time (ms),CH1 Auto-Correlation
1.0,0.027897905558347702
2.0,0.02575807273387909
3.0,0.023943332955241203
4.0,0.022358961403369904
5.0,0.020967870950698853
6.0,0.019757449626922607
7.0,0.018672475591301918
8.0,0.01776278205215931
9.0,0.016905857250094414
10.0,0.01615486666560173
11.0,0.015428713522851467
12.0,0.014856848865747452
13.0,0.014290065504610538
14.0,0.013773616403341293
15.0,0.013334919698536396
16.0,0.012866318225860596
18.0,0.01202540472149849
20.0,0.011305445805191994
22.0,0.01061089988797903
24.0,0.010108700953423977
26.0,0.009665672667324543
28.0,0.009285087697207928
30.0,0.008895164355635643
32.0,0.008424186147749424
36.0,0.007798212114721537
40.0,0.0069265589118003845
44.0,0.006178632378578186
48.0,0.005722579080611467
52.0,0.005368820391595364
56.0,0.0048841070383787155
60.0,0.004383580293506384
64.0,0.0038440143689513206
72.0,0.0026961348485201597
80.0,0.0026019562501460314
88.0,0.0026276905555278063
96.0,0.002072205999866128
104.0,0.0014225478516891599
112.0,0.0008687947411090136
120.0,0.0009322385303676128
128.0,0.001335137989372015
144.0,0.0013082261430099607
160.0,0.0010212690103799105
176.0,0.0007208136958070099
192.0,-8.812663509161212e-06
208.0,-0.0009666411788202822
224.0,-0.0006519341841340065
240.0,0.0005705711082555354
256.0,0.000820161250885576
288.0,-0.00019265741866547614
320.0,0.0006281196838244796
352.0,0.0018124771304428577
384.0,0.002203290117904544
416.0,0.002266303403303027
448.0,0.0012755445204675198
480.0,0.0008130924543365836
512.0,0.0016717598773539066
576.0,0.0009744595154188573
640.0,0.0007544323452748358
704.0,-0.0006160305929370224
768.0,-0.0005794086609967053
832.0,-0.00010985980770783499
896.0,0.0007727208430878818
960.0,0.0018078632419928908
1024.0,0.0019315403187647462
1152.0,-6.561666668858379e-05
1280.0,-0.00017908586596604437
1408.0,0.0011439674999564886
1536.0,-0.0010465593077242374
1664.0,-0.00033018988324329257
1792.0,9.24163032323122e-05
1920.0,0.0007933158776722848
2048.0,-4.7292651288444176e-05
2304.0,0.000739176815841347
2560.0,-0.0007292914669960737
2816.0,0.0004988093860447407
3072.0,-0.001170546398498118
3328.0,-3.735210339073092e-05
3584.0,-0.0007510466384701431
3840.0,-4.937957783113234e-05
4096.0,-0.0010117979254573584
4608.0,-0.00036375445779412985
5120.0,-0.0006938781589269638
5632.0,-0.00018894116510637105
6144.0,-0.000756037246901542
6656.0,-0.0012442580191418529
7168.0,0.00034890425740741193
7680.0,-0.00012125278590247035
8192.0,-0.0011393289314582944
end
