version,3.0
numOfCh,1
type,point
parent_name,fe81d_1dot0-1dot0
ch_type,1_1
kcount,1
numberNandB,1
brightnessNandB,1
carpet pos,0
pc,0
Time (ms),CH1 Auto-Correlation
1.0,0.027275465428829193
2.0,0.025148164480924606
3.0,0.023322749882936478
4.0,0.02175474725663662
5.0,0.02036753110587597
6.0,0.019188635051250458
7.0,0.0180716123431921
8.0,0.017152613028883934
9.0,0.016317345201969147
10.0,0.015539437532424927
11.0,0.014821822755038738
12.0,0.014220580458641052
13.0,0.013683488592505455
14.0,0.013172095641493797
15.0,0.012742499820888042
16.0,0.012389701791107655
18.0,0.011754147708415985
20.0,0.01115625910460949
22.0,0.01061296183615923
24.0,0.010159257799386978
26.0,0.009676958434283733
28.0,0.00918599497526884
30.0,0.008645804598927498
32.0,0.008111837320029736
36.0,0.007172139827162027
40.0,0.006307630799710751
44.0,0.005486933048814535
48.0,0.005110348109155893
52.0,0.004911359399557114
56.0,0.004743595141917467
60.0,0.0043985056690871716
64.0,0.0038944415282458067
72.0,0.0031851937528699636
80.0,0.003110437886789441
88.0,0.0030720154754817486
96.0,0.0026753549464046955
104.0,0.0023639879655092955
112.0,0.0020236405543982983
120.0,0.0019338420825079083
128.0,0.001987017225474119
144.0,0.001400409615598619
160.0,0.0014212480746209621
176.0,0.0011705297511070967
192.0,0.0013151131570339203
208.0,0.0007935967296361923
224.0,-0.0003456571721471846
240.0,-0.00018658915359992534
256.0,0.0001496415789006278
288.0,0.0015795201761648059
320.0,0.0017132225912064314
352.0,0.0009021150763146579
384.0,0.00016489620611537248
416.0,-0.00026878362405113876
448.0,-0.001832289737649262
480.0,-0.0020375214517116547
512.0,-0.001170314266346395
576.0,-0.0023000543005764484
640.0,-0.000851340766530484
704.0,-0.00016949903510976583
768.0,6.086245775804855e-05
832.0,0.00035406570532359183
896.0,-0.000445937184849754
960.0,0.00017332621791865677
1024.0,0.0009254223550669849
1152.0,0.0010585885029286146
1280.0,0.0002035191428149119
1408.0,-0.00014617416309192777
1536.0,0.00014814884343650192
1664.0,-0.0012462703743949533
1792.0,-0.0005214436096139252
1920.0,-0.0005333148292265832
2048.0,-0.0008925109286792576
2304.0,-0.000507709919475019
2560.0,6.951053364900872e-05
2816.0,0.00041527108987793326
3072.0,-0.00040218193316832185
3328.0,-8.483842975692824e-05
3584.0,0.0013186283176764846
3840.0,0.00019757237168960273
4096.0,-0.0009801636915653944
4608.0,-0.0007045696256682277
5120.0,5.9919559134868905e-05
5632.0,-0.0006038623978383839
6144.0,0.0008948387112468481
6656.0,6.53566385153681e-05
7168.0,-0.0005256226286292076
7680.0,0.0008430794696323574
8192.0,-0.001642948598600924
end
