version,3.0
numOfCh,1
type,point
parent_name,fe81d_1dot0-1dot0
ch_type,1_1
kcount,1
numberNandB,1
brightnessNandB,1
carpet pos,0
pc,0
Time (ms),CH1 Auto-Correlation
1.0,0.02667655237019062
2.0,0.024389630183577538
3.0,0.022504260763525963
4.0,0.020866693928837776
5.0,0.019420787692070007
6.0,0.018097395077347755
7.0,0.01692844182252884
8.0,0.015893619507551193
9.0,0.015048169530928135
10.0,0.014288119971752167
11.0,0.013518350198864937
12.0,0.012817610055208206
13.0,0.012143631465733051
14.0,0.011530308052897453
15.0,0.011049579828977585
16.0,0.0106202382594347
18.0,0.009791912510991096
20.0,0.009114294312894344
22.0,0.00854399148374796
24.0,0.008019807748496532
26.0,0.007510561030358076
28.0,0.0069315312430262566
30.0,0.006620088592171669
32.0,0.006374048069119453
36.0,0.005785331130027771
40.0,0.0050276219844818115
44.0,0.004662724677473307
48.0,0.004411004483699799
52.0,0.004135539755225182
56.0,0.003841302590444684
60.0,0.003380364738404751
64.0,0.002918011276051402
72.0,0.0021828385069966316
80.0,0.001597646507434547
88.0,0.001616410561837256
96.0,0.0019191509345546365
104.0,0.0018630309496074915
112.0,0.0010033749276772141
120.0,0.0009256263147108257
128.0,0.0011592154623940587
144.0,0.001077240682207048
160.0,0.0005821259110234678
176.0,-0.00021487349295057356
192.0,-0.0013697980903089046
208.0,-0.0015675399918109179
224.0,-0.000680202036164701
240.0,-0.0008669342496432364
256.0,-0.0014793968293815851
288.0,-0.0019301703432574868
320.0,-0.0018820080440491438
352.0,-0.0014658835716545582
384.0,-0.0010855629807338119
416.0,-0.0008935145451687276
448.0,-0.00028606801060959697
480.0,0.0004180551040917635
512.0,0.0008004975388757885
576.0,0.0005122124566696584
640.0,-0.0008452329784631729
704.0,-0.0009845966706052423
768.0,-0.0009431201033294201
832.0,-0.00015611405251547694
896.0,-0.000491725339088589
960.0,0.00036138881114311516
1024.0,-0.0008217445574700832
1152.0,0.0005249276291579008
1280.0,0.0013320890720933676
1408.0,0.0007924217497929931
1536.0,0.0003516136493999511
1664.0,-0.0006254136096686125
1792.0,-0.000638738158158958
1920.0,-0.001231575501151383
2048.0,0.0010976175544783473
2304.0,-0.0007722136215306818
2560.0,0.00017340993508696556
2816.0,0.0007157896179705858
3072.0,-0.0005468027666211128
3328.0,0.0006108429515734315
3584.0,-0.0011117662070319057
3840.0,-0.0015304526314139366
4096.0,0.00017752421263139695
4608.0,6.740094249835238e-05
5120.0,-0.000496477005071938
5632.0,0.00011447775614215061
6144.0,-0.0005788470152765512
6656.0,0.00016257292008958757
7168.0,0.0001201146369567141
7680.0,0.00027277052868157625
8192.0,-0.00019681823323480785
end
