version,3.0
numOfCh,1
type,point
parent_name,fe81d_1dot0-1dot0
ch_type,1_1
kcount,1
numberNandB,1
brightnessNandB,1
carpet pos,0
pc,0
Time (ms),CH1 Auto-Correlation
1.0,0.026575464755296707
2.0,0.024411745369434357
3.0,0.022523635998368263
4.0,0.0208810493350029
5.0,0.019443510100245476
6.0,0.018153801560401917
7.0,0.01700880564749241
8.0,0.015988921746611595
9.0,0.015096163377165794
10.0,0.014345182105898857
11.0,0.013648389838635921
12.0,0.012918854132294655
13.0,0.01231732964515686
14.0,0.01174443494528532
15.0,0.011178387328982353
16.0,0.010629301890730858
18.0,0.00958328228443861
20.0,0.008642385713756084
22.0,0.00786217488348484
24.0,0.007155438885092735
26.0,0.006518397945910692
28.0,0.005933261010795832
30.0,0.005447987001389265
32.0,0.005082654766738415
36.0,0.004578294698148966
40.0,0.003964087925851345
44.0,0.003416408086195588
48.0,0.0031607626006007195
52.0,0.002839350141584873
56.0,0.00263484800234437
60.0,0.002385333413258195
64.0,0.002088675508275628
72.0,0.0021478550042957067
80.0,0.0018448705086484551
88.0,0.001391959493048489
96.0,0.0010613163467496634
104.0,0.001112123136408627
112.0,0.001350394799374044
120.0,0.0014837756752967834
128.0,0.0012339650420472026
144.0,0.0005926386802457273
160.0,0.0002566776529420167
176.0,0.00031132393633015454
192.0,0.0005412273458205163
208.0,0.00013558310456573963
224.0,-6.782337732147425e-05
240.0,0.0003392293583601713
256.0,0.0003568962565623224
288.0,-0.0001471267460146919
320.0,0.0008082931744866073
352.0,0.0007828263333067298
384.0,0.0011443707626312971
416.0,0.001027749152854085
448.0,0.0019160064402967691
480.0,0.001369865145534277
512.0,0.00044772407272830606
576.0,0.0003145506198052317
640.0,-0.00038198058609850705
704.0,0.0006032036035321653
768.0,0.002026582369580865
832.0,0.001348415040411055
896.0,0.0017104331636801362
960.0,0.0005344173987396061
1024.0,-0.0002762076328508556
1152.0,-0.0008853052277117968
1280.0,0.00023424747632816434
1408.0,-0.000873094133567065
1536.0,-0.0018609327962622046
1664.0,-0.000913590716663748
1792.0,-0.0012101115426048636
1920.0,-0.0014867889694869518
2048.0,-0.0012727882713079453
2304.0,-0.0005604518810287118
2560.0,-0.00033899382106028497
2816.0,-0.000814778555650264
3072.0,-0.0004713766975328326
3328.0,0.000715278962161392
3584.0,-6.287250289460644e-05
3840.0,-0.00017007467977236956
4096.0,0.000254883780144155
4608.0,0.00102998036891222
5120.0,0.0009252324234694242
5632.0,0.00046917807776480913
6144.0,-0.0004621354164555669
6656.0,-0.0008910151664167643
7168.0,-0.0010090514551848173
7680.0,0.000548562326002866
8192.0,-7.855533476686105e-05
end
