version,3.0
numOfCh,1
type,point
parent_name,fe81d_1dot0-1dot0
ch_type,1_1
kcount,1
numberNandB,1
brightnessNandB,1
carpet pos,0
pc,0
Time (ms),CH1 Auto-Correlation
1.0,0.026827333495020866
2.0,0.024671943858265877
3.0,0.022831013426184654
4.0,0.0212874598801136
5.0,0.019933238625526428
6.0,0.018758680671453476
7.0,0.017688486725091934
8.0,0.01674713008105755
9.0,0.015872156247496605
10.0,0.015060397796332836
11.0,0.014272370375692844
12.0,0.013563432730734348
13.0,0.012950874865055084
14.0,0.012286410667002201
15.0,0.011651745066046715
16.0,0.011078673414885998
18.0,0.010158914141356945
20.0,0.009366010315716267
22.0,0.008655274286866188
24.0,0.008093245327472687
26.0,0.007566376123577356
28.0,0.007084089331328869
30.0,0.006565668620169163
32.0,0.006078239064663649
36.0,0.005176594015210867
40.0,0.004657852463424206
44.0,0.004120209254324436
48.0,0.0037089569959789515
52.0,0.0031612967140972614
56.0,0.0026429223362356424
60.0,0.002413023728877306
64.0,0.0021798100788146257
72.0,0.0018638971960172057
80.0,0.0023063134867697954
88.0,0.0027172835543751717
96.0,0.0021839693654328585
104.0,0.0018975111888721585
112.0,0.0020030131563544273
120.0,0.0016998662613332272
128.0,0.0013600521488115191
144.0,0.0005744662485085428
160.0,8.056571095949039e-05
176.0,0.00043729160097427666
192.0,0.0003937808214686811
208.0,2.7962079911958426e-05
224.0,-5.419698572950438e-05
240.0,0.0005073706270195544
256.0,0.0010316409170627594
288.0,-8.179341966751963e-05
320.0,0.00022253155475482345
352.0,0.0004473449371289462
384.0,0.0005587608320638537
416.0,0.0007318812422454357
448.0,0.0002761766954790801
480.0,0.00029135445947758853
512.0,0.0005966312601231039
576.0,0.0016140890074893832
640.0,0.0008995956159196794
704.0,-0.0010703717125579715
768.0,-0.0009874316165223718
832.0,-0.0011434482876211405
896.0,-0.0007735019316896796
960.0,-0.0006366496672853827
1024.0,0.000147458296851255
1152.0,-0.00022672330669593066
1280.0,-0.0016733597731217742
1408.0,-0.0011306439992040396
1536.0,-8.563258597860113e-05
1664.0,-0.0005529358168132603
1792.0,-0.0018416853854432702
1920.0,-0.00042421105899848044
2048.0,-5.727705865865573e-05
2304.0,0.00044651186908595264
2560.0,0.00031612656312063336
2816.0,0.001242693280801177
3072.0,-0.0006174711161293089
3328.0,0.0014089182950556278
3584.0,-0.0005985957104712725
3840.0,0.0012114368146285415
4096.0,-0.0006515408749692142
4608.0,-0.0008291711565107107
5120.0,-0.0005396661581471562
5632.0,-0.0001084460673155263
6144.0,-0.00019851987599395216
6656.0,0.0005643721087835729
7168.0,-0.0003467325004749
7680.0,-0.00041079329093918204
8192.0,-0.0012900937581434846
end
