version,3.0
numOfCh,1
type,point
parent_name,fe81d_1dot0-1dot0
ch_type,1_1
kcount,1
numberNandB,1
brightnessNandB,1
carpet pos,0
pc,0
Time (ms),CH1 Auto-Correlation
1.0,0.02748313546180725
2.0,0.025345854461193085
3.0,0.02355067990720272
4.0,0.022012904286384583
5.0,0.020675664767622948
6.0,0.01951303705573082
7.0,0.018454452976584435
8.0,0.017540305852890015
9.0,0.016724247485399246
10.0,0.015910783782601357
11.0,0.015125647187232971
12.0,0.014393767341971397
13.0,0.013695800676941872
14.0,0.013149958103895187
15.0,0.012663129717111588
16.0,0.012178882025182247
18.0,0.011134687811136246
20.0,0.010117181576788425
22.0,0.009423852898180485
24.0,0.00897221639752388
26.0,0.008611636236310005
28.0,0.008148861117661
30.0,0.007622616831213236
32.0,0.007223726715892553
36.0,0.0064692930318415165
40.0,0.005850402172654867
44.0,0.00528342928737402
48.0,0.004714235197752714
52.0,0.004210191313177347
56.0,0.0038350021932274103
60.0,0.0035453438758850098
64.0,0.003229583613574505
72.0,0.0028598567005246878
80.0,0.002440651645883918
88.0,0.002008055569604039
96.0,0.002146633807569742
104.0,0.0021571905817836523
112.0,0.002363978186622262
120.0,0.0024081033188849688
128.0,0.0020401880610734224
144.0,0.0015814240323379636
160.0,0.0011932725319638848
176.0,0.0009233082528226078
192.0,0.0004825892683584243
208.0,0.0004844097711611539
224.0,0.00014637736603617668
240.0,0.00048598903231322765
256.0,0.0008014097693376243
288.0,0.0003324677818454802
320.0,0.0008846232667565346
352.0,0.0002642276813276112
384.0,-0.0012590333353728056
416.0,-0.0017261217581108212
448.0,-0.0006595427403226495
480.0,-0.00020461496023926884
512.0,-0.0009104331838898361
576.0,-0.0016326577169820666
640.0,-0.0016145624686032534
704.0,0.0005112112266942859
768.0,8.573928789701313e-05
832.0,0.0005760974599979818
896.0,0.0011493148049339652
960.0,0.0011495946673676372
1024.0,4.359829472377896e-05
1152.0,0.00024742327514104545
1280.0,-7.737186024314724e-06
1408.0,-0.0002537699183449149
1536.0,-0.00012289852020330727
1664.0,-0.0012382663553580642
1792.0,0.00021518627181649208
1920.0,0.0005866359570063651
2048.0,0.0004662683350034058
2304.0,0.000474766333354637
2560.0,-0.0012346856528893113
2816.0,-0.0012648649280890822
3072.0,0.0006516626453958452
3328.0,0.0009614279842935503
3584.0,-0.0004301055450923741
3840.0,-0.0003148287069052458
4096.0,0.00024142605252563953
4608.0,-0.0001010434134514071
5120.0,-0.0015326625434681773
5632.0,-0.0010497666662558913
6144.0,0.0001895263121696189
6656.0,0.00029695118428207934
7168.0,0.0005040373071096838
7680.0,0.0005810809088870883
8192.0,0.0012580460170283914
end
