version,3.0
numOfCh,1
type,point
parent_name,fe81d_1dot0-1dot0
ch_type,1_1
kcount,1
numberNandB,1
brightnessNandB,1
carpet pos,0
pc,0
Time (ms),CH1 Auto-Correlation
1.0,0.027121206745505333
2.0,0.024907799437642097
3.0,0.02305641956627369
4.0,0.021452171728014946
5.0,0.020073572173714638
6.0,0.0188429094851017
7.0,0.017667138949036598
8.0,0.016556350514292717
9.0,0.01563229039311409
10.0,0.014796805568039417
11.0,0.01405966654419899
12.0,0.013393585570156574
13.0,0.012705032713711262
14.0,0.012082725763320923
15.0,0.011551707983016968
16.0,0.011005453765392303
18.0,0.009989116340875626
20.0,0.009181026369333267
22.0,0.008651737123727798
24.0,0.008200615644454956
26.0,0.007800412364304066
28.0,0.007420769892632961
30.0,0.006945040542632341
32.0,0.006564239971339703
36.0,0.005822147708386183
40.0,0.005217033438384533
44.0,0.004675325471907854
48.0,0.003987621050328016
52.0,0.003438920248299837
56.0,0.002930127549916506
60.0,0.0027092923410236835
64.0,0.0026310759130865335
72.0,0.0020616771653294563
80.0,0.0014787657419219613
88.0,0.0011612452799454331
96.0,0.0007772703538648784
104.0,0.0008114918018691242
112.0,0.000962387362960726
120.0,0.0005117652472108603
128.0,-0.00019844082999043167
144.0,-0.0002839974476955831
160.0,0.0006491801468655467
176.0,0.0008593291277065873
192.0,0.0005887221777811646
208.0,0.0001300975272897631
224.0,4.0977654862217605e-05
240.0,-0.00039204800850711763
256.0,-0.0007731305086053908
288.0,0.00012960990716237575
320.0,0.00010025131632573903
352.0,0.001525777275674045
384.0,0.000435974303400144
416.0,-0.0013207076117396355
448.0,-0.0006057798746041954
480.0,0.0002462073462083936
512.0,0.0006774832145310938
576.0,-0.00018072689999826252
640.0,0.0004530096484813839
704.0,0.000504005525726825
768.0,0.000992815475910902
832.0,-2.6378946131444536e-05
896.0,0.0005308231920935214
960.0,-0.0007210623589344323
1024.0,-0.0012716627679765224
1152.0,-0.0004613898345269263
1280.0,0.00015021933359093964
1408.0,-0.0008253584383055568
1536.0,-0.0010251016356050968
1664.0,-0.0013838623417541385
1792.0,0.00029251075466163456
1920.0,-0.00013055531599093229
2048.0,-0.00013807357754558325
2304.0,-0.0003163783985655755
2560.0,0.0006266050622798502
2816.0,-0.00042466403101570904
3072.0,-0.0006697070202790201
3328.0,0.00014593449304811656
3584.0,-0.00011425840057199821
3840.0,-4.7157831431832165e-05
4096.0,-0.0012518861331045628
4608.0,-0.0002787511330097914
5120.0,0.00025938916951417923
5632.0,0.0002935848315246403
6144.0,0.0008832465973682702
6656.0,0.00047905315295793116
7168.0,2.5444236598559655e-05
7680.0,0.0005860510864295065
8192.0,-0.0007302773301489651
end
