version,3.0
numOfCh,1
type,point
parent_name,fe81d_1dot0-1dot0
ch_type,1_1
kcount,1
numberNandB,1
brightnessNandB,1
carpet pos,0
pc,0
Time (ms),CH1 Auto-Correlation
1.0,0.029310278594493866
2.0,0.027039973065257072
3.0,0.025083867833018303
4.0,0.023356296122074127
5.0,0.02180319093167782
6.0,0.020466262474656105
7.0,0.019292544573545456
8.0,0.01826128363609314
9.0,0.017367908731102943
10.0,0.016527149826288223
11.0,0.01579432748258114
12.0,0.015142475254833698
13.0,0.01455060113221407
14.0,0.013988310471177101
15.0,0.013490358367562294
16.0,0.013011559844017029
18.0,0.012182801961898804
20.0,0.011496633291244507
22.0,0.010691176168620586
24.0,0.010009950026869774
26.0,0.009398752823472023
28.0,0.00893382728099823
30.0,0.008496396243572235
32.0,0.00807191152125597
36.0,0.007394958287477493
40.0,0.00707410741597414
44.0,0.006748086307197809
48.0,0.0061920708976686
52.0,0.005806232802569866
56.0,0.005641076248139143
60.0,0.005432356148958206
64.0,0.005195894278585911
72.0,0.004786459729075432
80.0,0.004896685015410185
88.0,0.004769750405102968
96.0,0.004385677166283131
104.0,0.003588726744055748
112.0,0.003037472488358617
120.0,0.0030994806438684464
128.0,0.003039858303964138
144.0,0.002975764684379101
160.0,0.0022358973510563374
176.0,0.001623986754566431
192.0,0.0012574634747579694
208.0,0.0015614076983183622
224.0,0.0018114086706191301
240.0,0.001785651664249599
256.0,0.0015799066750332713
288.0,0.0001287755585508421
320.0,-0.0008832735475152731
352.0,0.0007636970840394497
384.0,0.0014207785716280341
416.0,0.0012717819772660732
448.0,0.0007985205738805234
480.0,0.0015785376308485866
512.0,0.001903932774439454
576.0,0.0014023955445736647
640.0,0.0011402779491618276
704.0,-0.0003724915732163936
768.0,-0.00039291143184527755
832.0,-0.0008716119918972254
896.0,-0.0009920077864080667
960.0,-0.0008769314154051244
1024.0,-0.002902774838730693
1152.0,-0.0036898802500218153
1280.0,-0.0009207094553858042
1408.0,-0.0010416938457638025
1536.0,-0.0021836799569427967
1664.0,-0.001882531214505434
1792.0,-0.00021820238907821476
1920.0,-0.0006968448287807405
2048.0,0.0001606938021723181
2304.0,0.0013251252239570022
2560.0,0.0010480561759322882
2816.0,0.0011577337281778455
3072.0,0.0005933846696279943
3328.0,-0.0012740053934976459
3584.0,-0.0007655086228623986
3840.0,-0.002165696118026972
4096.0,-0.00011656022252282128
4608.0,0.001500665326602757
5120.0,0.0016687994357198477
5632.0,-0.000442604097770527
6144.0,-0.0019000713946297765
6656.0,-0.0005886044818907976
7168.0,-0.00023250833328347653
7680.0,0.000687170831952244
8192.0,-0.000593374075833708
end
