version,3.0
numOfCh,1
type,point
parent_name,fe81d_1dot0-1dot0
ch_type,1_1
kcount,1
numberNandB,1
brightnessNandB,1
carpet pos,0
pc,0
Time (ms),CH1 Auto-Correlation
1.0,0.026478342711925507
2.0,0.02429935708642006
3.0,0.022470958530902863
4.0,0.020923854783177376
5.0,0.019564170390367508
6.0,0.018391549587249756
7.0,0.017322402447462082
8.0,0.0163609366863966
9.0,0.015506475232541561
10.0,0.014642037451267242
11.0,0.0138357263058424
12.0,0.013115459121763706
13.0,0.012426224537193775
14.0,0.011853985488414764
15.0,0.01133752427995205
16.0,0.010820126160979271
18.0,0.009832623414695263
20.0,0.009017611853778362
22.0,0.00833081267774105
24.0,0.007696919608861208
26.0,0.007008570246398449
28.0,0.006540697533637285
30.0,0.006156598683446646
32.0,0.005810885690152645
36.0,0.005183061119168997
40.0,0.004606671165674925
44.0,0.004166837316006422
48.0,0.0037202194798737764
52.0,0.0031758190598338842
56.0,0.0029055371414870024
60.0,0.0024716106709092855
64.0,0.002208819380030036
72.0,0.0016707404283806682
80.0,0.001380242290906608
88.0,0.0012453611707314849
96.0,0.0013920575147494674
104.0,0.001960691763088107
112.0,0.0019697865936905146
120.0,0.0015690842410549521
128.0,0.0013488903641700745
144.0,0.0013307020999491215
160.0,0.0006539911264553666
176.0,0.0004988935543224216
192.0,0.0012967013753950596
208.0,0.0011383331147953868
224.0,-6.471644883276895e-05
240.0,-0.0009592642891220748
256.0,-0.0012643644586205482
288.0,-0.001684965449385345
320.0,-0.0009289571898989379
352.0,-0.00010289710917277262
384.0,-0.0006786861922591925
416.0,-0.0007144504343159497
448.0,-0.0013649454340338707
480.0,-0.0004629272734746337
512.0,-0.000573894998524338
576.0,-0.00032779882894828916
640.0,0.0005149602657184005
704.0,0.0006519187591038644
768.0,0.0002656595315784216
832.0,-3.0611715828854358e-06
896.0,-0.00019442553457338363
960.0,-0.0007238597609102726
1024.0,0.000459406670415774
1152.0,-0.0007800805033184588
1280.0,0.0006396198295988142
1408.0,0.0008846258278936148
1536.0,-0.0005556695396080613
1664.0,5.957009125268087e-05
1792.0,0.000677893462125212
1920.0,1.1001891834894195e-05
2048.0,-0.0006466935155913234
2304.0,-0.0008524770382791758
2560.0,-0.0007511788280680776
2816.0,0.00010294236562913284
3072.0,0.00021529619698412716
3328.0,0.0005131874931976199
3584.0,-0.0004284846945665777
3840.0,-0.001986011629924178
4096.0,0.0010355545673519373
4608.0,-7.355393609032035e-05
5120.0,-0.0004272667283657938
5632.0,1.124870959756663e-05
6144.0,0.0005574679817073047
6656.0,-0.0005395950865931809
7168.0,-0.00029332496342249215
7680.0,0.0009259525104425848
8192.0,0.00016476854216307402
end
