version,3.0
numOfCh,1
type,point
parent_name,fe81d_1dot0-1dot0
ch_type,1_1
kcount,1
numberNandB,1
brightnessNandB,1
carpet pos,0
pc,0
Time (ms),CH1 Auto-Correlation
1.0,0.026690548285841942
2.0,0.02443130686879158
3.0,0.02255239523947239
4.0,0.020996714010834694
5.0,0.019571488723158836
6.0,0.018344564363360405
7.0,0.017213283106684685
8.0,0.01612662337720394
9.0,0.015191974118351936
10.0,0.014337780885398388
11.0,0.013563134707510471
12.0,0.012868952937424183
13.0,0.012222600169479847
14.0,0.011689743958413601
15.0,0.011236893013119698
16.0,0.010775257833302021
18.0,0.009960528463125229
20.0,0.009227546863257885
22.0,0.008579008281230927
24.0,0.008028127253055573
26.0,0.007388734724372625
28.0,0.006794974207878113
30.0,0.006269013974815607
32.0,0.005753987934440374
36.0,0.0050568548031151295
40.0,0.004717988893389702
44.0,0.004404190927743912
48.0,0.0041223629377782345
52.0,0.003646652912721038
56.0,0.0033186799846589565
60.0,0.0031560456845909357
64.0,0.002881542081013322
72.0,0.002628353191539645
80.0,0.0024541488382965326
88.0,0.0024865043815225363
96.0,0.0025494671426713467
104.0,0.0024827811866998672
112.0,0.0021904981695115566
120.0,0.0017535029910504818
128.0,0.0020214656833559275
144.0,0.0018807349260896444
160.0,0.0016683810390532017
176.0,0.001666563213802874
192.0,0.0008013780461624265
208.0,0.0009312931215390563
224.0,0.0007716544205322862
240.0,0.00018511831876821816
256.0,-0.00024870611377991736
288.0,0.00035409527481533587
320.0,0.0009446485782973468
352.0,0.0002357567718718201
384.0,0.00047834927681833506
416.0,-0.0006641300860792398
448.0,-0.0008268734673038125
480.0,0.0001732878590701148
512.0,-0.00015380204422399402
576.0,4.660374179366045e-05
640.0,0.001298648421652615
704.0,3.776118319365196e-05
768.0,-0.0007231889758259058
832.0,-0.0016867959639057517
896.0,-0.0008566119940951467
960.0,-0.0011052334448322654
1024.0,-1.0911576282524038e-05
1152.0,-0.00035638586268760264
1280.0,-0.00018510784138925374
1408.0,-0.0011975230881944299
1536.0,-0.0008331493590958416
1664.0,-3.526323416735977e-05
1792.0,0.001505575841292739
1920.0,0.00014715998258907348
2048.0,-0.00015630300913471729
2304.0,0.00026738448650576174
2560.0,0.0002117761323461309
2816.0,0.0002963298175018281
3072.0,0.00011013561015715823
3328.0,-0.001509786699898541
3584.0,-0.0008685102802701294
3840.0,-0.0008017007494345307
4096.0,-0.00046123735955916345
4608.0,0.0011660937452688813
5120.0,-0.0007141917594708502
5632.0,-0.0009197529288940132
6144.0,0.00037815383984707296
6656.0,5.3363739425549284e-05
7168.0,0.00024292562738992274
7680.0,0.0002955054515041411
8192.0,-0.0008885178249329329
end
