version,3.0
numOfCh,1
type,point
parent_name,fe81d_1dot0-1dot0
ch_type,1_1
kcount,1
numberNandB,1
brightnessNandB,1
carpet pos,0
pc,0
Time (ms),CH1 Auto-Correlation
1.0,0.025603482499718666
2.0,0.023479441180825233
3.0,0.021687669679522514
4.0,0.020118912681937218
5.0,0.018720321357250214
6.0,0.017471272498369217
7.0,0.01638437621295452
8.0,0.01540633849799633
9.0,0.014556332491338253
10.0,0.013828103430569172
11.0,0.01320665143430233
12.0,0.012640589848160744
13.0,0.012105259113013744
14.0,0.01155739463865757
15.0,0.011060118675231934
16.0,0.010541724041104317
18.0,0.009747916832566261
20.0,0.008936516009271145
22.0,0.008263465017080307
24.0,0.007679904345422983
26.0,0.007130730431526899
28.0,0.006668846122920513
30.0,0.006286523770540953
32.0,0.005880859214812517
36.0,0.005379734560847282
40.0,0.005023017060011625
44.0,0.004758775699883699
48.0,0.004298284649848938
52.0,0.0038858200423419476
56.0,0.0034930475521832705
60.0,0.0032804461661726236
64.0,0.003082442795857787
72.0,0.003220572602003813
80.0,0.0035966665018349886
88.0,0.003076770808547735
96.0,0.0026376426685601473
104.0,0.0023591704666614532
112.0,0.0019509015837684274
120.0,0.0011644583428278565
128.0,0.0008437884389422834
144.0,8.13628503237851e-05
160.0,0.000268807343672961
176.0,0.0008437882061116397
192.0,0.0010619761887937784
208.0,0.0011571845971047878
224.0,0.0010009267134591937
240.0,0.001075777574442327
256.0,0.0007301633595488966
288.0,0.000680749595630914
320.0,0.0008580899448134005
352.0,0.0014895874774083495
384.0,0.0024408423341810703
416.0,0.0013508512638509274
448.0,0.0017274486599490047
480.0,0.0014001204399392009
512.0,0.0009412116487510502
576.0,0.00022730804630555212
640.0,0.0004624518333002925
704.0,0.0009938194416463375
768.0,0.0012718014186248183
832.0,0.0003933037514798343
896.0,0.0009331763722002506
960.0,0.0008264589123427868
1024.0,-2.6099072783836164e-05
1152.0,-0.0006241657538339496
1280.0,-0.0014637516578659415
1408.0,-0.001298584509640932
1536.0,-0.00024417886743322015
1664.0,-0.0009828365873545408
1792.0,-0.00030927566695027053
1920.0,0.0005945889861322939
2048.0,-0.0004832310078199953
2304.0,-0.0003225202381145209
2560.0,-0.0008228468359448016
2816.0,-9.868356573861092e-05
3072.0,-0.001039697672240436
3328.0,-0.0014951986959204078
3584.0,-0.0012261392548680305
3840.0,0.0005142895970493555
4096.0,-0.0004077004559803754
4608.0,0.0001384492206852883
5120.0,0.00017491585458628833
5632.0,0.0003903021279256791
6144.0,0.0008247505757026374
6656.0,0.0011402451200410724
7168.0,-0.0002724170917645097
7680.0,-0.001390728517435491
8192.0,-0.0012240760261192918
end
