version,3.0
numOfCh,1
type,point
parent_name,fe81d_1dot0-1dot0
ch_type,1_1
kcount,1
numberNandB,1
brightnessNandB,1
carpet pos,0
pc,0
Time (ms),CH1 Auto-Correlation
1.0,0.025929784402251244
2.0,0.023765821009874344
3.0,0.021964488551020622
4.0,0.020376358181238174
5.0,0.01893034763634205
6.0,0.017686201259493828
7.0,0.01656412146985531
8.0,0.015524415299296379
9.0,0.014630474150180817
10.0,0.013805937953293324
11.0,0.013078808784484863
12.0,0.012338627129793167
13.0,0.011624567210674286
14.0,0.010962708853185177
15.0,0.010359026491641998
16.0,0.009861537255346775
18.0,0.009018228389322758
20.0,0.008290659636259079
22.0,0.007603084668517113
24.0,0.006931367330253124
26.0,0.0063019078224897385
28.0,0.005722991190850735
30.0,0.00534484488889575
32.0,0.0050321039743721485
36.0,0.0044265794567763805
40.0,0.0037225312553346157
44.0,0.003328741528093815
48.0,0.00308410357683897
52.0,0.0030234043952077627
56.0,0.0031293758656829596
60.0,0.003047073492780328
64.0,0.0029571708291769028
72.0,0.0028824175242334604
80.0,0.00201184069737792
88.0,0.0013946412364020944
96.0,0.0011656900169327855
104.0,0.0009329874883405864
112.0,0.0006856892141513526
120.0,0.0009273856994695961
128.0,0.0013025826774537563
144.0,0.0015310877934098244
160.0,0.0010485734092071652
176.0,0.001037385780364275
192.0,0.0008605569018982351
208.0,0.0005979517591185868
224.0,-0.0002865307324100286
240.0,-0.0001610245817573741
256.0,-0.0005402953247539699
288.0,-0.0007419817266054451
320.0,-0.0009222074877470732
352.0,0.0006205025129020214
384.0,-5.967012111796066e-05
416.0,-0.0006871267687529325
448.0,-0.0008218548609875143
480.0,-0.00020508661691565067
512.0,-0.0002391830348642543
576.0,-0.0006605900125578046
640.0,-0.0005183755420148373
704.0,-0.0003362693823873997
768.0,0.00011737367458408698
832.0,0.00023934537603054196
896.0,0.001273329253308475
960.0,-0.0005270623951219022
1024.0,-0.0002996450930368155
1152.0,-0.0004511462466325611
1280.0,-0.0005606924532912672
1408.0,7.00160235282965e-05
1536.0,0.00020117858366575092
1664.0,0.00015071564121171832
1792.0,0.00023021789093036205
1920.0,-0.0007927014958113432
2048.0,0.0003060501767322421
2304.0,0.0002574726822786033
2560.0,8.587716001784429e-05
2816.0,-0.0004905569949187338
3072.0,-0.0007360417512245476
3328.0,-0.00027549374499358237
3584.0,0.0003049143997486681
3840.0,0.0003346431185491383
4096.0,-0.0010937004117295146
4608.0,-0.0005344251403585076
5120.0,-1.575154237798415e-05
5632.0,-0.00025091288262046874
6144.0,-0.0005422719987109303
6656.0,-0.000494924548547715
7168.0,0.0002842139801941812
7680.0,0.0006919485749676824
8192.0,-7.31581894797273e-05
end
