version,3.0
numOfCh,1
type,point
parent_name,fe81d_1dot0-1dot0
ch_type,1_1
kcount,1
numberNandB,1
brightnessNandB,1
carpet pos,0
pc,0
Time (ms),CH1 Auto-Correlation
1.0,0.027526050806045532
2.0,0.025339605286717415
3.0,0.023401154205203056
4.0,0.021732622757554054
5.0,0.020298084244132042
6.0,0.019076749682426453
7.0,0.017917407676577568
8.0,0.016879361122846603
9.0,0.015963146463036537
10.0,0.015097329393029213
11.0,0.014443175867199898
12.0,0.013844547793269157
13.0,0.013256617821753025
14.0,0.012722278945147991
15.0,0.012169567868113518
16.0,0.011639130301773548
18.0,0.010850540362298489
20.0,0.010199487209320068
22.0,0.009623430669307709
24.0,0.009157433174550533
26.0,0.008619333617389202
28.0,0.0080665722489357
30.0,0.007633281871676445
32.0,0.007333836983889341
36.0,0.006553868297487497
40.0,0.005914117209613323
44.0,0.0052764336578547955
48.0,0.004679450299590826
52.0,0.0043237884528934956
56.0,0.004127346444875002
60.0,0.00386891164816916
64.0,0.0035723864566534758
72.0,0.002744030673056841
80.0,0.0019976156763732433
88.0,0.0017217439599335194
96.0,0.0015377195086330175
104.0,0.0018005853053182364
112.0,0.001491532544605434
120.0,0.0014667946379631758
128.0,0.0014077521627768874
144.0,0.0018957239808514714
160.0,0.0010154577903449535
176.0,0.0004425514489412308
192.0,0.0003681073721963912
208.0,0.00015172295388765633
224.0,0.0005288288812153041
240.0,0.0011437524808570743
256.0,0.0011710503604263067
288.0,0.000607403926551342
320.0,0.00025005004135891795
352.0,0.0023903059773147106
384.0,0.0029513698536902666
416.0,0.001984216971322894
448.0,0.002029267605394125
480.0,0.0015058511635288596
512.0,0.0015357944648712873
576.0,0.00013554726319853216
640.0,0.0007514873286709189
704.0,0.0011957997921854258
768.0,0.0003623614611569792
832.0,0.0017916125943884254
896.0,0.0014915082138031721
960.0,0.001955746440216899
1024.0,0.0013396898284554482
1152.0,0.0001615925575606525
1280.0,0.0002910809125751257
1408.0,-6.0453956393757835e-05
1536.0,0.0006305512506514788
1664.0,-0.001008766470476985
1792.0,-0.000619786384049803
1920.0,1.685468873802165e-06
2048.0,-0.0016984676476567984
2304.0,-0.0006575750303454697
2560.0,-0.00025856419233605266
2816.0,-0.0004782889736816287
3072.0,-0.0010083112865686417
3328.0,-0.00023597889230586588
3584.0,0.0001714066747808829
3840.0,0.0007539012003690004
4096.0,0.00036618998274207115
4608.0,0.0009608403779566288
5120.0,0.00034133560257032514
5632.0,4.236579843563959e-05
6144.0,-0.000899147242307663
6656.0,-0.0017102616839110851
7168.0,-0.0016710128402337432
7680.0,-0.0019224733114242554
8192.0,-0.0013039227342233062
end
