version,3.0
numOfCh,1
type,point
parent_name,fe81d_1dot0-1dot0
ch_type,1_1
kcount,1
numberNandB,1
brightnessNandB,1
carpet pos,0
pc,0
Time (ms),CH1 Auto-Correlation
1.0,0.03025922179222107
2.0,0.02805842086672783
3.0,0.026191938668489456
4.0,0.024567563086748123
5.0,0.023162774741649628
6.0,0.021885085850954056
7.0,0.020716046914458275
8.0,0.01972254179418087
9.0,0.018834995105862617
10.0,0.018018774688243866
11.0,0.01719270832836628
12.0,0.016407573595643044
13.0,0.015738552436232567
14.0,0.01509035937488079
15.0,0.014499004930257797
16.0,0.013941018842160702
18.0,0.013057580217719078
20.0,0.01223629992455244
22.0,0.011481305584311485
24.0,0.010813135653734207
26.0,0.010194080881774426
28.0,0.009624769911170006
30.0,0.009185855276882648
32.0,0.008765147067606449
36.0,0.007945822551846504
40.0,0.007356299087405205
44.0,0.006831481587141752
48.0,0.006731356959789991
52.0,0.006704577244818211
56.0,0.006472225766628981
60.0,0.0064569925889372826
64.0,0.005955108441412449
72.0,0.005211136303842068
80.0,0.004916416481137276
88.0,0.004313590936362743
96.0,0.003194560529664159
104.0,0.002581292297691107
112.0,0.0023366366513073444
120.0,0.002257329411804676
128.0,0.0021049955394119024
144.0,0.0020350671838968992
160.0,0.0016231423942372203
176.0,0.0014673228142783046
192.0,0.0016201140824705362
208.0,0.0015471017686650157
224.0,0.0006155938608571887
240.0,-7.063525799821946e-07
256.0,-0.0004200552066322416
288.0,-0.00044772980618290603
320.0,-0.000452554872026667
352.0,0.0007776131387799978
384.0,0.00026306166546419263
416.0,0.0008575193933211267
448.0,-0.0003892246459145099
480.0,-0.0005187600036151707
512.0,-0.0006614220910705626
576.0,-0.0015663098311051726
640.0,-0.001509808818809688
704.0,-0.0012145491782575846
768.0,-0.0007891737041063607
832.0,-0.0014249355299398303
896.0,-0.0016405793139711022
960.0,-0.0013954838505014777
1024.0,-0.0005782576627098024
1152.0,0.0012016261462122202
1280.0,0.0014572909567505121
1408.0,0.0001398649183101952
1536.0,0.000733336026314646
1664.0,0.00018228228145744652
1792.0,-0.0009572763810865581
1920.0,-0.0014708047965541482
2048.0,-0.0017312426352873445
2304.0,0.0005917439120821655
2560.0,0.0005631931126117706
2816.0,2.061206259895698e-06
3072.0,-7.591003736706625e-07
3328.0,-0.000499845074955374
3584.0,0.0010423364583402872
3840.0,0.0019252162892371416
4096.0,-0.00026792404241859913
4608.0,0.0005551534122787416
5120.0,-0.0004477973561733961
5632.0,0.0006580055924132466
6144.0,-0.0009490856900811195
6656.0,-0.0006052972166799009
7168.0,-0.0005917024100199342
7680.0,0.00014939607353881001
8192.0,-0.0013722646981477737
end
