version,3.0
numOfCh,1
type,point
parent_name,fe81d_1dot0-1dot0
ch_type,1_1
kcount,1
numberNandB,1
brightnessNandB,1
carpet pos,0
pc,0
Time (ms),CH1 Auto-Correlation
1.0,0.027857495471835136
2.0,0.02558651752769947
3.0,0.023726413026452065
4.0,0.022118141874670982
5.0,0.020771851763129234
6.0,0.019534798339009285
7.0,0.01847514696419239
8.0,0.017489561811089516
9.0,0.016583358868956566
10.0,0.015744589269161224
11.0,0.015014863573014736
12.0,0.014294255524873734
13.0,0.013693167828023434
14.0,0.013097270391881466
15.0,0.012539740651845932
16.0,0.012022932060062885
18.0,0.011033347807824612
20.0,0.01029159128665924
22.0,0.00974069070070982
24.0,0.009358077310025692
26.0,0.00884580984711647
28.0,0.008259987458586693
30.0,0.007813433185219765
32.0,0.007407720200717449
36.0,0.006494169123470783
40.0,0.005801353137940168
44.0,0.005255105905234814
48.0,0.004573497921228409
52.0,0.003779731458052993
56.0,0.0032725108321756124
60.0,0.003086017444729805
64.0,0.0030412168707698584
72.0,0.0027024708688259125
80.0,0.0019884698558598757
88.0,0.0009063737816177309
96.0,0.0004485242534428835
104.0,0.0001764658372849226
112.0,0.00047140897368080914
120.0,0.0002850985329132527
128.0,-0.00026445480762049556
144.0,-0.00016221439000219107
160.0,-0.0005576067487709224
176.0,-0.0006812369683757424
192.0,-0.0003465045301709324
208.0,-0.00032945023849606514
224.0,-0.0001778042787918821
240.0,0.0004827008815482259
256.0,0.00011524355068104342
288.0,0.0006663761450909078
320.0,0.0012978051090613008
352.0,0.0011874174233525991
384.0,0.00033721840009093285
416.0,-0.0004830686957575381
448.0,-0.0007126226555556059
480.0,-0.0003303347621113062
512.0,-0.0010576089844107628
576.0,-0.0007817895384505391
640.0,0.000531722151208669
704.0,4.657813042285852e-05
768.0,-0.0010922258952632546
832.0,-0.0010942505905404687
896.0,-8.861862443154678e-05
960.0,0.00017904044943861663
1024.0,0.00011354399612173438
1152.0,0.00016769602370914072
1280.0,0.0005924086435697973
1408.0,-0.00015192826685961336
1536.0,-0.0006036604754626751
1664.0,0.0005800796207040548
1792.0,0.00016426434740424156
1920.0,-0.0003633852757047862
2048.0,0.0004144443664699793
2304.0,-0.00042618377483449876
2560.0,-0.0006164959049783647
2816.0,5.2456809498835355e-05
3072.0,-0.00032570434268563986
3328.0,-0.0012249972205609083
3584.0,-0.00015970878303050995
3840.0,0.0010910644195973873
4096.0,0.00041765955393202603
4608.0,0.0005111944628879428
5120.0,0.0001137248837039806
5632.0,0.0001300019648624584
6144.0,0.0004175885987933725
6656.0,-0.0006327104638330638
7168.0,-0.0009062167955562472
7680.0,-0.00029327746597118676
8192.0,-0.0003432452504057437
end
