version,3.0
numOfCh,1
type,point
parent_name,fe81d_1dot0-1dot0
ch_type,1_1
kcount,1
numberNandB,1
brightnessNandB,1
carpet pos,0
pc,0
Time (ms),CH1 Auto-Correlation
1.0,0.030962999910116196
2.0,0.02766326814889908
3.0,0.025773631408810616
4.0,0.02407221496105194
5.0,0.022615956142544746
6.0,0.021332725882530212
7.0,0.020131289958953857
8.0,0.01905054599046707
9.0,0.01811239682137966
10.0,0.017313741147518158
11.0,0.016655799001455307
12.0,0.01611161418259144
13.0,0.015638496726751328
14.0,0.015188092365860939
15.0,0.014696478843688965
16.0,0.014155212789773941
18.0,0.013273785822093487
20.0,0.012521663680672646
22.0,0.011853420175611973
24.0,0.010930323041975498
26.0,0.010228157043457031
28.0,0.00976253580302
30.0,0.009342781268060207
32.0,0.009122224524617195
36.0,0.008484069257974625
40.0,0.007890462875366211
44.0,0.00756038399413228
48.0,0.007213637698441744
52.0,0.007020915858447552
56.0,0.006858985871076584
60.0,0.006643330678343773
64.0,0.006627188995480537
72.0,0.006327904295176268
80.0,0.0058586555533111095
88.0,0.005112213548272848
96.0,0.004632475785911083
104.0,0.0045082783326506615
112.0,0.003955129999667406
120.0,0.003961363807320595
128.0,0.004188764374703169
144.0,0.004062914289534092
160.0,0.003850581357255578
176.0,0.0030513606034219265
192.0,0.0023836875334382057
208.0,0.0022950777783989906
224.0,0.0022372473031282425
240.0,0.0029174932278692722
256.0,0.0024702437222003937
288.0,0.0013903956860303879
320.0,0.0008356614271178842
352.0,0.00015476931002922356
384.0,-0.000675308343488723
416.0,-0.0011515492806211114
448.0,-0.001918397843837738
480.0,-0.0031726621091365814
512.0,-0.0038891504518687725
576.0,-0.002372498158365488
640.0,-0.0005498058744706213
704.0,-0.00037902186159044504
768.0,-0.0008789403364062309
832.0,0.0005281660705804825
896.0,0.0001701627334114164
960.0,0.0008193342946469784
1024.0,0.0011094805086031556
1152.0,0.00012511502427514642
1280.0,-0.00020531335030682385
1408.0,-0.0005432327161543071
1536.0,-0.0004380762402433902
1664.0,4.799008820555173e-05
1792.0,0.0015166258672252297
1920.0,0.0018411646597087383
2048.0,0.0016999399522319436
2304.0,-0.0006435924442484975
2560.0,-0.00044926407281309366
2816.0,0.0021373473573476076
3072.0,0.0008819292415864766
3328.0,-0.0007112026796676219
3584.0,0.00020886621496174484
3840.0,0.0004367804795037955
4096.0,-0.0002120744902640581
4608.0,-0.00044315712875686586
5120.0,-0.0010593782644718885
5632.0,0.000936851545702666
6144.0,-0.000722407188732177
6656.0,-0.0011497553205117583
7168.0,-0.0008293798891827464
7680.0,0.0002577768173068762
8192.0,-0.0034542721696197987
end
