version,3.0
numOfCh,1
type,point
parent_name,fe81d_1dot0-1dot0
ch_type,1_1
kcount,1
numberNandB,1
brightnessNandB,1
carpet pos,0
pc,0
Time (ms),CH1 Auto-Correlation
1.0,0.0278081726282835
2.0,0.025626353919506073
3.0,0.02376965619623661
4.0,0.022150307893753052
5.0,0.020674970000982285
6.0,0.019458003342151642
7.0,0.018358346074819565
8.0,0.017328327521681786
9.0,0.016428502276539803
10.0,0.015555433928966522
11.0,0.014692251570522785
12.0,0.013941753655672073
13.0,0.013222996145486832
14.0,0.01258959248661995
15.0,0.012004091404378414
16.0,0.011459830217063427
18.0,0.010572322644293308
20.0,0.00967720989137888
22.0,0.008834672160446644
24.0,0.008066403679549694
26.0,0.007300919853150845
28.0,0.006645485758781433
30.0,0.006201945245265961
32.0,0.005643727257847786
36.0,0.004708999302238226
40.0,0.0040870774537324905
44.0,0.00385625334456563
48.0,0.0036258939653635025
52.0,0.0028940807096660137
56.0,0.0023322394117712975
60.0,0.0017601975705474615
64.0,0.0013319846475496888
72.0,0.0007849920657463372
80.0,0.0007039753836579621
88.0,0.0007648634491488338
96.0,0.0006526312790811062
104.0,0.000860081345308572
112.0,0.0006287718424573541
120.0,0.00028550406568683684
128.0,8.234220877056941e-05
144.0,-0.0009088933002203703
160.0,-0.0008396158809773624
176.0,0.00015637389151379466
192.0,0.0005661971517838538
208.0,0.0005511874333024025
224.0,0.0008811135776340961
240.0,0.0009324150159955025
256.0,0.00017088046297430992
288.0,0.0001696062390692532
320.0,0.0010711478535085917
352.0,0.0006238401401787996
384.0,0.0004913998418487608
416.0,0.0013476875610649586
448.0,0.0017890711314976215
480.0,0.0016739793354645371
512.0,0.0016016499139368534
576.0,-0.00017304216453339905
640.0,0.0008751078275963664
704.0,0.0009093174012377858
768.0,-0.0007028673426248133
832.0,-3.95266069972422e-05
896.0,1.8639109839568846e-05
960.0,0.0004010011616628617
1024.0,-0.0003188808332197368
1152.0,-0.00034005503403022885
1280.0,0.0002750899293459952
1408.0,-0.00048517834511585534
1536.0,-0.0007199975079856813
1664.0,-1.7918795492732897e-05
1792.0,0.0007004333892837167
1920.0,0.0009553259005770087
2048.0,-0.00035852103610523045
2304.0,0.0004729177162516862
2560.0,-7.357893628068268e-05
2816.0,-0.0005315731978043914
3072.0,6.985913205426186e-05
3328.0,-0.0006968642701394856
3584.0,-0.0005193421384319663
3840.0,-0.00022436118160840124
4096.0,0.0001304220932070166
4608.0,0.0006583646172657609
5120.0,0.00021799950627610087
5632.0,-0.0005091454368084669
6144.0,-0.0006849777419120073
6656.0,-0.0007393583073280752
7168.0,-1.1650573469523806e-05
7680.0,0.0004895605379715562
8192.0,-0.0007184580317698419
end
