version,3.0
numOfCh,1
type,point
parent_name,40-cuts
ch_type,1_1
kcount,1
numberNandB,1
brightnessNandB,1
carpet pos,0
pc,0
Time (ms),CH1 Auto-Correlation
1.0,0.06415212899446487
2.0,0.06291845440864563
3.0,0.06172937527298927
4.0,0.06062391772866249
5.0,0.059515371918678284
6.0,0.05842103809118271
7.0,0.057359348982572556
8.0,0.056361112743616104
9.0,0.05539565160870552
10.0,0.054478611797094345
11.0,0.053565602749586105
12.0,0.05264192819595337
13.0,0.05179104954004288
14.0,0.05096033215522766
15.0,0.05016004294157028
16.0,0.049374163150787354
18.0,0.047848112881183624
20.0,0.046422332525253296
22.0,0.045035939663648605
24.0,0.043680574744939804
26.0,0.04235567897558212
28.0,0.04114775359630585
30.0,0.039962176233530045
32.0,0.03881532698869705
36.0,0.03658212348818779
40.0,0.03450366482138634
44.0,0.0327000766992569
48.0,0.03100409358739853
52.0,0.02944604679942131
56.0,0.027910346165299416
60.0,0.026303080841898918
64.0,0.024677954614162445
72.0,0.02210548333823681
80.0,0.02038012258708477
88.0,0.018962502479553223
96.0,0.017727896571159363
104.0,0.016483740881085396
112.0,0.015299749560654163
120.0,0.014484192244708538
128.0,0.013494100421667099
144.0,0.011457672342658043
160.0,0.009204758331179619
176.0,0.007483247201889753
192.0,0.006635566242039204
208.0,0.006589928641915321
224.0,0.006740911863744259
240.0,0.007057489827275276
256.0,0.007101729046553373
288.0,0.006784583907574415
320.0,0.004668784327805042
352.0,0.003930879291146994
384.0,0.002373072784394026
416.0,-6.344357825582847e-05
448.0,-0.0022370414808392525
480.0,-0.005281680729240179
512.0,-0.007174625061452389
576.0,-0.007538731209933758
640.0,-0.006391400471329689
704.0,-0.004345985129475594
768.0,-0.005028205923736095
832.0,-0.005711117759346962
896.0,-0.004704745020717382
960.0,-0.002543035661801696
1024.0,-0.002715847222134471
1152.0,-0.0005805545952171087
1280.0,0.0009601912461221218
1408.0,-0.0018937819404527545
1536.0,-0.002496604574844241
1664.0,-0.0044714012183249
1792.0,-0.0015524057671427727
1920.0,-0.0035056096967309713
2048.0,0.0008679594029672444
2304.0,0.00393529050052166
2560.0,0.0024096539709717035
2816.0,0.0017947661690413952
3072.0,0.0031662459950894117
3328.0,0.002600726904347539
3584.0,-0.0037074487190693617
3840.0,-0.009327251464128494
4096.0,-0.006424459163099527
4608.0,0.00043657023343257606
5120.0,-0.004040658939629793
5632.0,0.002332644537091255
6144.0,-0.006118281278759241
6656.0,0.0032291423995047808
7168.0,-0.002206159522756934
7680.0,0.003994608297944069
8192.0,-0.005781566724181175
9216.0,0.00018166808877140284
10240.0,0.0026615355163812637
11264.0,-0.0025660316459834576
12288.0,0.0032672439701855183
13312.0,-0.004790232516825199
14336.0,0.0017229191726073623
end
