version,3.0
numOfCh,1
type,point
parent_name,40-cuts
ch_type,1_1
kcount,1
numberNandB,1
brightnessNandB,1
carpet pos,0
pc,0
Time (ms),CH1 Auto-Correlation
1.0,0.020279133692383766
2.0,0.019842451438307762
3.0,0.01942206360399723
4.0,0.019014975056052208
5.0,0.018618622794747353
6.0,0.018239816650748253
7.0,0.017871854826807976
8.0,0.017528152093291283
9.0,0.017187342047691345
10.0,0.016869036480784416
11.0,0.016560453921556473
12.0,0.016264988109469414
13.0,0.01598437875509262
14.0,0.015721915289759636
15.0,0.01546434685587883
16.0,0.015214934945106506
18.0,0.014726710505783558
20.0,0.014238615520298481
22.0,0.0137705709785223
24.0,0.013318633660674095
26.0,0.012877563014626503
28.0,0.012491594068706036
30.0,0.012142041698098183
32.0,0.01180647499859333
36.0,0.011162756942212582
40.0,0.010579340159893036
44.0,0.010023796930909157
48.0,0.009526213631033897
52.0,0.009094199165701866
56.0,0.008686142042279243
60.0,0.008294345811009407
64.0,0.007971029728651047
72.0,0.007280491292476654
80.0,0.006640393286943436
88.0,0.0061902571469545364
96.0,0.0058370912447571754
104.0,0.00552426278591156
112.0,0.005069014150649309
120.0,0.004405866377055645
128.0,0.0038012422155588865
144.0,0.0031062758062034845
160.0,0.0028655712958425283
176.0,0.002449154620990157
192.0,0.0020863227546215057
208.0,0.0016657669330015779
224.0,0.0012146353255957365
240.0,0.0008443606784567237
256.0,0.00040904738125391304
288.0,-8.384829561691731e-05
320.0,6.977651355555281e-05
352.0,4.8086400056490675e-05
384.0,-0.0004933513118885458
416.0,-0.0007774588884785771
448.0,-0.001114092068746686
480.0,-0.0011593166273087263
512.0,-0.0007815083954483271
576.0,-0.0014639034634456038
640.0,-0.000937662785872817
704.0,0.0004303721943870187
768.0,0.0003416180843487382
832.0,0.0006547504453919828
896.0,0.0006316669750958681
960.0,0.0009352384367957711
1024.0,0.000641568040009588
1152.0,-0.0004913091543130577
1280.0,-0.00035208818735554814
1408.0,-0.0011261983308941126
1536.0,-0.00038408199907280505
1664.0,-0.0007186747388914227
1792.0,-0.0004477417387533933
1920.0,-0.00044268061174079776
2048.0,-0.0013570240698754787
2304.0,0.0005312844295985997
2560.0,8.191135566448793e-05
2816.0,-0.0020342087373137474
3072.0,-0.0006873172242194414
3328.0,-0.0019341740990057588
3584.0,-0.0018052897648885846
3840.0,-0.0005191888194531202
4096.0,0.0018684582319110632
4608.0,0.00030272259027697146
5120.0,0.00012283946853131056
5632.0,-5.8653098676586524e-05
6144.0,0.0011185113107785583
6656.0,-0.0002871168253477663
7168.0,0.00015545918722636998
7680.0,-0.00182705232873559
8192.0,0.0006104422500357032
9216.0,0.0001751111849443987
10240.0,0.00017707343795336783
11264.0,0.0004341827880125493
12288.0,-0.0012431904906406999
13312.0,0.0009453551610931754
14336.0,-0.0016670507611706853
end
