version,3.0
numOfCh,1
type,point
parent_name,40-cuts
ch_type,1_1
kcount,1
numberNandB,1
brightnessNandB,1
carpet pos,0
pc,0
Time (ms),CH1 Auto-Correlation
1.0,0.031569771468639374
2.0,0.03090777061879635
3.0,0.03025447390973568
4.0,0.02961708977818489
5.0,0.029017619788646698
6.0,0.028432084247469902
7.0,0.027850693091750145
8.0,0.027309177443385124
9.0,0.026785898953676224
10.0,0.026291625574231148
11.0,0.025800062343478203
12.0,0.025317447260022163
13.0,0.024850575253367424
14.0,0.024402890354394913
15.0,0.023959055542945862
16.0,0.023553015664219856
18.0,0.02277877926826477
20.0,0.02203797549009323
22.0,0.021362915635108948
24.0,0.020722223445773125
26.0,0.020130688324570656
28.0,0.019564274698495865
30.0,0.01900373585522175
32.0,0.018490787595510483
36.0,0.017518648877739906
40.0,0.016582617536187172
44.0,0.0156926978379488
48.0,0.014762640930712223
52.0,0.013845638372004032
56.0,0.012938978150486946
60.0,0.0121437544003129
64.0,0.011424699798226357
72.0,0.010017902590334415
80.0,0.008551384322345257
88.0,0.0071852258406579494
96.0,0.0061331321485340595
104.0,0.005392678547650576
112.0,0.004847360774874687
120.0,0.004299708176404238
128.0,0.0036169320810586214
144.0,0.002237771637737751
160.0,0.0008333373698405921
176.0,2.8365380785544403e-05
192.0,-0.00020281098841223866
208.0,-0.00011563364387257025
224.0,0.0003226233529858291
240.0,0.0003993197751697153
256.0,0.0006533740670420229
288.0,0.0008919862448237836
320.0,-0.00033545217593200505
352.0,-0.0018995258724316955
384.0,-0.002702365629374981
416.0,-0.0023703952319920063
448.0,-0.0016239839605987072
480.0,-6.357490201480687e-05
512.0,-0.0002441951655782759
576.0,-0.0005188536015339196
640.0,0.00010133041359949857
704.0,0.0007090625003911555
768.0,0.002493825741112232
832.0,0.00039416065555997193
896.0,0.0007322177407331765
960.0,-7.15951609890908e-05
1024.0,0.00034059351310133934
1152.0,-0.00010640922118909657
1280.0,0.0016351311933249235
1408.0,0.001194734824821353
1536.0,-0.0020619386341422796
1664.0,-0.0021309941075742245
1792.0,-0.0025109548587352037
1920.0,0.00012863636948168278
2048.0,0.001988921081647277
2304.0,0.0012471595546230674
2560.0,-0.0016940782079473138
2816.0,-0.0008802457596175373
3072.0,0.0005617173737846315
3328.0,0.000927050830796361
3584.0,-0.0019015916623175144
3840.0,-0.0006139222532510757
4096.0,-0.00028464518254622817
4608.0,0.0002363174717174843
5120.0,0.0002037007361650467
5632.0,-0.0016666346928104758
6144.0,-0.000865395471919328
6656.0,0.0004573009500745684
7168.0,-0.0008824018877930939
7680.0,-0.0017744144424796104
8192.0,-0.00013807459617964923
9216.0,-0.0004621452826540917
10240.0,0.0010717008262872696
11264.0,0.00024552116519771516
12288.0,-0.003412498626857996
13312.0,0.0014152026269584894
14336.0,0.0016705839661881328
end
