version,3.0
numOfCh,1
type,point
parent_name,40-cuts
ch_type,1_1
kcount,1
numberNandB,1
brightnessNandB,1
carpet pos,0
pc,0
Time (ms),CH1 Auto-Correlation
1.0,0.06574983149766922
2.0,0.06437910348176956
3.0,0.06305979192256927
4.0,0.061771683394908905
5.0,0.06052904203534126
6.0,0.059384606778621674
7.0,0.05823813006281853
8.0,0.05710702762007713
9.0,0.05603373795747757
10.0,0.054971542209386826
11.0,0.05398864299058914
12.0,0.05299568548798561
13.0,0.05205488204956055
14.0,0.051143351942300797
15.0,0.050240665674209595
16.0,0.04935647174715996
18.0,0.04769347608089447
20.0,0.04602328687906265
22.0,0.04445511847734451
24.0,0.04301479831337929
26.0,0.04161452874541283
28.0,0.04034695401787758
30.0,0.03913769870996475
32.0,0.03798934817314148
36.0,0.03577180579304695
40.0,0.03386241942644119
44.0,0.03229856863617897
48.0,0.030940623953938484
52.0,0.029700711369514465
56.0,0.028690895065665245
60.0,0.02779470756649971
64.0,0.02710704132914543
72.0,0.025682417675852776
80.0,0.02378181368112564
88.0,0.022021401673555374
96.0,0.020756129175424576
104.0,0.0199861079454422
112.0,0.01918196491897106
120.0,0.018633592873811722
128.0,0.01809471845626831
144.0,0.01585719734430313
160.0,0.013508276082575321
176.0,0.011201654560863972
192.0,0.009145933203399181
208.0,0.007665310986340046
224.0,0.00707315793260932
240.0,0.005837498232722282
256.0,0.0036469183396548033
288.0,0.0031123666558414698
320.0,0.0018897494301199913
352.0,0.0024786009453237057
384.0,0.0016621233662590384
416.0,0.002164991106837988
448.0,0.0022746033500880003
480.0,0.0019946610555052757
512.0,0.002137258183211088
576.0,0.0017416039481759071
640.0,0.0016238780226558447
704.0,0.0038710543885827065
768.0,0.003345465287566185
832.0,0.00520075298845768
896.0,0.004721003584563732
960.0,0.004885480739176273
1024.0,0.0023661938030272722
1152.0,-0.005682017654180527
1280.0,-0.0032687741331756115
1408.0,0.0023914084304124117
1536.0,0.003937205765396357
1664.0,0.0034062499180436134
1792.0,-0.00035610521445050836
1920.0,-0.0003594983136281371
2048.0,-0.0008679163875058293
2304.0,0.003864735597744584
2560.0,0.006130957044661045
2816.0,-0.0023982017301023006
3072.0,0.0014768572291359305
3328.0,0.00013514376769308
3584.0,-0.0022426671348512173
3840.0,-0.0022633930202573538
4096.0,0.0002960124402306974
4608.0,-0.007634005043655634
5120.0,0.0005493743810802698
5632.0,-0.00223164027556777
6144.0,-0.0006923889741301537
6656.0,-0.0006364137516357005
7168.0,-0.002831771969795227
7680.0,-0.0025776606053113937
8192.0,-0.0026628582272678614
9216.0,0.0005888244486413896
10240.0,-0.005509566515684128
11264.0,0.0004510229337029159
12288.0,-0.00035288117942400277
13312.0,-0.0007985070114955306
14336.0,0.0024502878077328205
end
