version,3.0
numOfCh,1
type,point
parent_name,40-cuts
ch_type,1_1
kcount,1
numberNandB,1
brightnessNandB,1
carpet pos,0
pc,0
Time (ms),CH1 Auto-Correlation
1.0,0.015582331456243992
2.0,0.015181303024291992
3.0,0.014792519621551037
4.0,0.014420319348573685
5.0,0.014056314714252949
6.0,0.013697920367121696
7.0,0.013350294902920723
8.0,0.01301081757992506
9.0,0.012692428193986416
10.0,0.012380304746329784
11.0,0.012080076150596142
12.0,0.011779804714024067
13.0,0.011487402021884918
14.0,0.011211610399186611
15.0,0.01094204094260931
16.0,0.010689291171729565
18.0,0.01020632591098547
20.0,0.009760409593582153
22.0,0.009337764233350754
24.0,0.008951880037784576
26.0,0.008579205721616745
28.0,0.008218996226787567
30.0,0.007872886955738068
32.0,0.007535060402005911
36.0,0.006849126890301704
40.0,0.006218405440449715
44.0,0.005674627609550953
48.0,0.005197787657380104
52.0,0.004746232647448778
56.0,0.004333950113505125
60.0,0.003971709404140711
64.0,0.0036009668838232756
72.0,0.0030101591255515814
80.0,0.0024572229012846947
88.0,0.0020006780978292227
96.0,0.0016240277327597141
104.0,0.0013468458782881498
112.0,0.0011038973461836576
120.0,0.0008113709045574069
128.0,0.0003530927933752537
144.0,-0.00041934242472052574
160.0,-0.0007722000009380281
176.0,-0.0008427812717854977
192.0,-0.0006244275136850774
208.0,-0.0007897513569332659
224.0,-0.0008611261146143079
240.0,-0.0004318506980780512
256.0,9.521560059511103e-06
288.0,0.0009074250119738281
320.0,0.001408809912391007
352.0,0.0012692173477262259
384.0,0.0009686473640613258
416.0,0.0006419970886781812
448.0,0.00012056050763931125
480.0,-0.00032070910674519837
512.0,-0.0006836910033598542
576.0,-0.0013729794882237911
640.0,-0.0009582576458342373
704.0,0.00019299532868899405
768.0,0.00018065088079310954
832.0,0.0008128637564368546
896.0,-0.0003067066427320242
960.0,-0.0012897104024887085
1024.0,-0.0007332091918215156
1152.0,-0.0007244326989166439
1280.0,-0.0007781218737363815
1408.0,0.0010283899027854204
1536.0,0.0008954860968515277
1664.0,0.0005864211125299335
1792.0,-3.980363999289693e-06
1920.0,0.0006532984552904963
2048.0,-0.0009643154917284846
2304.0,8.028460433706641e-05
2560.0,0.00021107557404320687
2816.0,-0.0004062433436047286
3072.0,-0.0005810664733871818
3328.0,0.0005889469757676125
3584.0,-0.000285409769276157
3840.0,0.00018515369447413832
4096.0,0.00027172110276296735
4608.0,-0.0006608373369090259
5120.0,-6.859240329504246e-06
5632.0,-0.00016843868070282042
6144.0,-0.00033711374271661043
6656.0,0.00014145980821922421
7168.0,-0.0007561377715319395
7680.0,-7.065730460453779e-05
8192.0,0.00031757476972416043
9216.0,-3.2516298233531415e-05
10240.0,0.00041937694186344743
11264.0,-0.0002055858203675598
12288.0,0.0003653084277175367
13312.0,-0.0007133558392524719
14336.0,0.0006910313386470079
end
