version,3.0
numOfCh,1
type,point
parent_name,40-cuts
ch_type,1_1
kcount,1
numberNandB,1
brightnessNandB,1
carpet pos,0
pc,0
Time (ms),CH1 Auto-Correlation
1.0,0.02316707745194435
2.0,0.022739257663488388
3.0,0.022322790697216988
4.0,0.02192770130932331
5.0,0.021535256877541542
6.0,0.021155502647161484
7.0,0.02079831063747406
8.0,0.020449690520763397
9.0,0.020113131031394005
10.0,0.01979152113199234
11.0,0.019481923431158066
12.0,0.0191769041121006
13.0,0.018877994269132614
14.0,0.018586881458759308
15.0,0.01829680986702442
16.0,0.01800890825688839
18.0,0.01744953915476799
20.0,0.01690354011952877
22.0,0.016398711130023003
24.0,0.01593409851193428
26.0,0.015492839738726616
28.0,0.015060320496559143
30.0,0.014636944979429245
32.0,0.01422605849802494
36.0,0.01342987921088934
40.0,0.01273601595312357
44.0,0.012125038541853428
48.0,0.011596888303756714
52.0,0.011063415557146072
56.0,0.010608225129544735
60.0,0.010226910933852196
64.0,0.009871433489024639
72.0,0.0091624790802598
80.0,0.00845237448811531
88.0,0.007879200391471386
96.0,0.007290693931281567
104.0,0.006691071204841137
112.0,0.006066090427339077
120.0,0.005520440638065338
128.0,0.005185630638152361
144.0,0.00460537476465106
160.0,0.004220759030431509
176.0,0.003971841651946306
192.0,0.0037994449958205223
208.0,0.0035523143596947193
224.0,0.002863765461370349
240.0,0.0021638115867972374
256.0,0.0014329422265291214
288.0,0.0006998091703280807
320.0,0.00047947082202881575
352.0,-0.00029954902129247785
384.0,-0.0010390870738774538
416.0,-0.0015434477245435119
448.0,-0.0010606105206534266
480.0,-0.000575796642806381
512.0,-0.00014479800302069634
576.0,0.0001539788645459339
640.0,0.0002348129783058539
704.0,0.000848221592605114
768.0,0.001711671706289053
832.0,0.001252476591616869
896.0,-0.0008569336496293545
960.0,-0.0012122580083087087
1024.0,-0.0016718927072361112
1152.0,-0.0026870081201195717
1280.0,-0.001362755079753697
1408.0,-0.0023836735635995865
1536.0,-0.0006816880195401609
1664.0,-0.0010567846475169063
1792.0,0.0002558486594352871
1920.0,-0.0014424897963181138
2048.0,-0.002457750029861927
2304.0,-0.0008423215476796031
2560.0,2.2064907170715742e-05
2816.0,-0.0007682975847274065
3072.0,-0.0005841230740770698
3328.0,-0.00045900364057160914
3584.0,-0.0005163978785276413
3840.0,0.0009788128081709146
4096.0,0.0007675100350752473
4608.0,0.001944212825037539
5120.0,-0.0014405202819034457
5632.0,-0.0008145939791575074
6144.0,0.001468854257836938
6656.0,0.002388264983892441
7168.0,0.00010987168934661895
7680.0,-0.002373364521190524
8192.0,-0.0018304563127458096
9216.0,0.0022341683506965637
10240.0,0.0008584744646213949
11264.0,0.0011351120192557573
12288.0,-0.0020652234088629484
13312.0,0.00032639672281220555
14336.0,-0.0023934454657137394
end
