version,3.0
numOfCh,1
type,point
parent_name,40-cuts
ch_type,1_1
kcount,1
numberNandB,1
brightnessNandB,1
carpet pos,0
pc,0
Time (ms),CH1 Auto-Correlation
1.0,0.029988624155521393
2.0,0.02941243350505829
3.0,0.02885323390364647
4.0,0.028308935463428497
5.0,0.027786972001194954
6.0,0.027289044111967087
7.0,0.026790928095579147
8.0,0.026288898661732674
9.0,0.02579532191157341
10.0,0.02531401626765728
11.0,0.024862496182322502
12.0,0.02443915233016014
13.0,0.024013884365558624
14.0,0.023598311468958855
15.0,0.023206714540719986
16.0,0.02282652258872986
18.0,0.02212592586874962
20.0,0.0214881282299757
22.0,0.020876407623291016
24.0,0.020308775827288628
26.0,0.019819585606455803
28.0,0.01935652829706669
30.0,0.01888297311961651
32.0,0.018424244597554207
36.0,0.017606597393751144
40.0,0.016872968524694443
44.0,0.016271626576781273
48.0,0.015764879062771797
52.0,0.015356718562543392
56.0,0.014952881261706352
60.0,0.01460464671254158
64.0,0.014245238155126572
72.0,0.01349844504147768
80.0,0.012938378378748894
88.0,0.012418507598340511
96.0,0.011816944926977158
104.0,0.011091421358287334
112.0,0.01033476460725069
120.0,0.009747103787958622
128.0,0.00920363049954176
144.0,0.008022339083254337
160.0,0.007354367058724165
176.0,0.007304699160158634
192.0,0.007001024205237627
208.0,0.006302487570792437
224.0,0.005748400930315256
240.0,0.005350268445909023
256.0,0.004607376176863909
288.0,0.0035320057068020105
320.0,0.0015295312041416764
352.0,0.0004363185726106167
384.0,-0.0004741151351481676
416.0,-0.0009818862890824676
448.0,-0.0009023514576256275
480.0,-0.0015015725512057543
512.0,-0.0018351315520703793
576.0,-0.0021298977080732584
640.0,-0.0008597514824941754
704.0,0.00018514995463192463
768.0,0.0006129759130999446
832.0,0.0008378831553272903
896.0,0.0019800274167209864
960.0,0.001973496749997139
1024.0,0.0016666044248268008
1152.0,-0.00016343090101145208
1280.0,-0.0007677705143578351
1408.0,-0.0010778445284813643
1536.0,-0.0005965958698652685
1664.0,0.0002522544236853719
1792.0,-0.0010237912647426128
1920.0,-0.0032194105442613363
2048.0,-0.003924311138689518
2304.0,-0.00029025535332039
2560.0,0.0051820348016917706
2816.0,0.0029949296731501818
3072.0,-8.945388253778219e-05
3328.0,0.0023487184662371874
3584.0,0.0015572060365229845
3840.0,0.0024111249949783087
4096.0,0.0029579540714621544
4608.0,-0.0012128399685025215
5120.0,0.0011075874790549278
5632.0,-0.0026124657597392797
6144.0,-0.003819710575044155
6656.0,0.0025909936521202326
7168.0,0.004045839887112379
7680.0,-0.0010515976464375854
8192.0,-0.0014599193818867207
9216.0,-0.002299992134794593
10240.0,-0.0029751667752861977
11264.0,-0.0019276706734672189
12288.0,0.0007950304425321519
13312.0,-0.00560701685026288
14336.0,0.0002684997161850333
end
