version,3.0
numOfCh,1
type,point
parent_name,40-cuts
ch_type,1_1
kcount,1
numberNandB,1
brightnessNandB,1
carpet pos,0
pc,0
Time (ms),CH1 Auto-Correlation
1.0,0.05890393629670143
2.0,0.057335224002599716
3.0,0.05576850473880768
4.0,0.054271552711725235
5.0,0.052826907485723495
6.0,0.05144122615456581
7.0,0.05015312507748604
8.0,0.04891014099121094
9.0,0.04772832244634628
10.0,0.046596359461545944
11.0,0.04551839083433151
12.0,0.04443923383951187
13.0,0.04340676963329315
14.0,0.042414985597133636
15.0,0.04144292324781418
16.0,0.04046947509050369
18.0,0.03860928490757942
20.0,0.036871641874313354
22.0,0.03523622453212738
24.0,0.033655356615781784
26.0,0.03214462101459503
28.0,0.03077789582312107
30.0,0.029460662975907326
32.0,0.028251729905605316
36.0,0.026104554533958435
40.0,0.024170013144612312
44.0,0.02248082123696804
48.0,0.021057169884443283
52.0,0.01973993517458439
56.0,0.018399270251393318
60.0,0.016959775239229202
64.0,0.015681644901633263
72.0,0.013831081800162792
80.0,0.01225358061492443
88.0,0.010734070092439651
96.0,0.009381572715938091
104.0,0.008001587353646755
112.0,0.007070659194141626
120.0,0.006334686651825905
128.0,0.006035070866346359
144.0,0.004613606259226799
160.0,0.0031081950291991234
176.0,0.0024123925250023603
192.0,0.001608633087016642
208.0,-0.00033618867746554315
224.0,-0.0016035789158195257
240.0,-0.0020667584612965584
256.0,-0.002479294780641794
288.0,-0.0004055626632180065
320.0,-0.0010795287089422345
352.0,-0.002781650284305215
384.0,-0.002578066661953926
416.0,-0.002735396381467581
448.0,-0.003226175904273987
480.0,-0.0016661696135997772
512.0,-0.001828617649152875
576.0,-3.597754766815342e-05
640.0,0.0006404182640835643
704.0,-0.0030320717487484217
768.0,-0.004449903964996338
832.0,-0.004140748642385006
896.0,-0.0034336450044065714
960.0,-0.0009305445710197091
1024.0,-0.0004134751798119396
1152.0,0.004341792780905962
1280.0,0.0018461591098457575
1408.0,0.0026939387898892164
1536.0,0.0016537089832127094
1664.0,0.0002989422937389463
1792.0,-0.0007232060306705534
1920.0,-0.004210818093270063
2048.0,-0.0024587528314441442
2304.0,0.0025231975596398115
2560.0,0.003325723810121417
2816.0,0.0009241891675628722
3072.0,-0.0017883859109133482
3328.0,-0.0029205346945673227
3584.0,0.003169902367517352
3840.0,7.36842093829182e-06
4096.0,0.002761647803708911
4608.0,0.001823414582759142
5120.0,-0.0020524405408650637
5632.0,0.0007898728363215923
6144.0,-0.003089135279878974
6656.0,-0.0013976843329146504
7168.0,-0.0013588502770289779
7680.0,-2.0272367692086846e-05
8192.0,-0.0013384043704718351
9216.0,0.0005486954469233751
10240.0,-0.0020309167448431253
11264.0,-0.0010209993924945593
12288.0,0.0009055426344275475
13312.0,-0.0028932082932442427
14336.0,0.0030572395771741867
end
