version,3.0
numOfCh,1
type,point
parent_name,40-cuts
ch_type,1_1
kcount,1
numberNandB,1
brightnessNandB,1
carpet pos,0
pc,0
Time (ms),CH1 Auto-Correlation
1.0,0.06687025725841522
2.0,0.06556108593940735
3.0,0.06432443857192993
4.0,0.06314459443092346
5.0,0.06202281266450882
6.0,0.06093435734510422
7.0,0.059888288378715515
8.0,0.05885584279894829
9.0,0.057892847806215286
10.0,0.05695683881640434
11.0,0.056066371500492096
12.0,0.05521945655345917
13.0,0.05439406633377075
14.0,0.0535757876932621
15.0,0.05278647318482399
16.0,0.05198293551802635
18.0,0.05039456486701965
20.0,0.048874516040086746
22.0,0.04738476127386093
24.0,0.04605136811733246
26.0,0.04479742422699928
28.0,0.04352901503443718
30.0,0.042296700179576874
32.0,0.04110163450241089
36.0,0.03887256234884262
40.0,0.036910705268383026
44.0,0.03521411120891571
48.0,0.03371875733137131
52.0,0.03224943205714226
56.0,0.030750147998332977
60.0,0.029653403908014297
64.0,0.028934184461832047
72.0,0.027551714330911636
80.0,0.025874121114611626
88.0,0.023905819281935692
96.0,0.021880757063627243
104.0,0.01990831084549427
112.0,0.018215497955679893
120.0,0.017037495970726013
128.0,0.016067015007138252
144.0,0.014275875873863697
160.0,0.012541355565190315
176.0,0.010613293386995792
192.0,0.009036676958203316
208.0,0.007796431425958872
224.0,0.0066286250948905945
240.0,0.005008286330848932
256.0,0.0026277629658579826
288.0,0.0007243897998705506
320.0,5.218729347689077e-05
352.0,-0.000231350859394297
384.0,0.00027782347751781344
416.0,0.000712732202373445
448.0,-0.0002469215542078018
480.0,-0.0002497657551430166
512.0,0.0010215389775112271
576.0,0.0033014602959156036
640.0,0.0023829343263059855
704.0,0.001505149994045496
768.0,0.0016351575031876564
832.0,-0.0003416251565795392
896.0,-0.0026887571439146996
960.0,-0.00509285181760788
1024.0,-0.004166934639215469
1152.0,0.004344364628195763
1280.0,0.006529173348098993
1408.0,0.006010233424603939
1536.0,0.002000250853598118
1664.0,0.0026440387591719627
1792.0,0.002135626273229718
1920.0,-0.0015001496067270637
2048.0,-0.0015645889798179269
2304.0,0.003970952704548836
2560.0,-0.0006410141359083354
2816.0,-0.004695877432823181
3072.0,0.0006288978038355708
3328.0,-0.001189404632896185
3584.0,0.005925942678004503
3840.0,0.0004896065802313387
4096.0,-0.0011547250906005502
4608.0,0.0019570167642086744
5120.0,0.001418137107975781
5632.0,-0.002985907718539238
6144.0,0.0030920386780053377
6656.0,0.00292936316691339
7168.0,-6.77346542943269e-05
7680.0,0.0007990168523974717
8192.0,-0.0016072294674813747
9216.0,-0.00963499303907156
10240.0,-0.002352133160457015
11264.0,-0.00233315397053957
12288.0,-0.007315457332879305
13312.0,-0.00296383467502892
14336.0,-0.0011136946268379688
end
