version,3.0
numOfCh,1
type,point
parent_name,40-cuts
ch_type,1_1
kcount,1
numberNandB,1
brightnessNandB,1
carpet pos,0
pc,0
Time (ms),CH1 Auto-Correlation
1.0,0.07188624888658524
2.0,0.07051143050193787
3.0,0.06915579736232758
4.0,0.06788665056228638
5.0,0.06664841622114182
6.0,0.06545151770114899
7.0,0.06425663083791733
8.0,0.0631154403090477
9.0,0.06201015040278435
10.0,0.0609559640288353
11.0,0.05996158719062805
12.0,0.05899391323328018
13.0,0.05804209038615227
14.0,0.05707847699522972
15.0,0.05614864453673363
16.0,0.055262550711631775
18.0,0.05346909537911415
20.0,0.0517168752849102
22.0,0.04999998211860657
24.0,0.048383016139268875
26.0,0.046905767172575
28.0,0.04554056376218796
30.0,0.04425022751092911
32.0,0.04300205409526825
36.0,0.040731169283390045
40.0,0.038579415529966354
44.0,0.03651051968336105
48.0,0.0346914678812027
52.0,0.03298297896981239
56.0,0.031409673392772675
60.0,0.030069943517446518
64.0,0.028904667124152184
72.0,0.02646070159971714
80.0,0.024081619456410408
88.0,0.022038742899894714
96.0,0.0199448112398386
104.0,0.017962947487831116
112.0,0.016548756510019302
120.0,0.014929207973182201
128.0,0.013508114963769913
144.0,0.010630959644913673
160.0,0.008789009414613247
176.0,0.007200381252914667
192.0,0.0058070216327905655
208.0,0.004271139390766621
224.0,0.0024597158189862967
240.0,0.000706717895809561
256.0,-0.0008722820784896612
288.0,-0.0010910307755693793
320.0,-0.0009452598751522601
352.0,-0.0010926390532404184
384.0,-0.0004942539380863309
416.0,0.0023514681961387396
448.0,0.00643725972622633
480.0,0.006578483618795872
512.0,0.006019984371960163
576.0,0.0023418073542416096
640.0,0.001981539186090231
704.0,0.001603038632310927
768.0,-0.00020610612409655005
832.0,0.00129994610324502
896.0,0.007585704792290926
960.0,0.011894669383764267
1024.0,0.009691352024674416
1152.0,0.006200981326401234
1280.0,0.0020948192104697227
1408.0,-0.0007917563780210912
1536.0,0.0054526678286492825
1664.0,0.004907804541289806
1792.0,0.0015262154629454017
1920.0,0.003891663160175085
2048.0,0.00847844872623682
2304.0,-0.0020137550309300423
2560.0,-0.001965511357411742
2816.0,-0.0019439070019870996
3072.0,-0.0014853893080726266
3328.0,-0.0018747701542451978
3584.0,0.0005678751040250063
3840.0,-0.002609708346426487
4096.0,-0.005195487290620804
4608.0,-0.006199317518621683
5120.0,-0.0013195291394367814
5632.0,-0.003942715469747782
6144.0,-0.0044231656938791275
6656.0,-0.0026875468902289867
7168.0,-0.0024817795492708683
7680.0,-0.002763111377134919
8192.0,-0.0037706876173615456
9216.0,0.0031709561590105295
10240.0,0.004731826484203339
11264.0,0.002711716340854764
12288.0,0.0009351947228424251
13312.0,-0.009978212416172028
14336.0,-0.013092913664877415
end
