version,3.0
numOfCh,1
type,point
parent_name,40-cuts
ch_type,1_1
kcount,1
numberNandB,1
brightnessNandB,1
carpet pos,0
pc,0
Time (ms),CH1 Auto-Correlation
1.0,0.03368070721626282
2.0,0.033021338284015656
3.0,0.03238183632493019
4.0,0.031754691153764725
5.0,0.031143778935074806
6.0,0.030571259558200836
7.0,0.030033160001039505
8.0,0.029507284983992577
9.0,0.029003823176026344
10.0,0.028488196432590485
11.0,0.027976086363196373
12.0,0.027500974014401436
13.0,0.027047451585531235
14.0,0.02657329849898815
15.0,0.026115186512470245
16.0,0.02567058987915516
18.0,0.024833016097545624
20.0,0.02405117265880108
22.0,0.023302201181650162
24.0,0.022588510066270828
26.0,0.02192549780011177
28.0,0.021298710256814957
30.0,0.020712153986096382
32.0,0.020097896456718445
36.0,0.01897289976477623
40.0,0.017992619425058365
44.0,0.01713595911860466
48.0,0.01635238155722618
52.0,0.015603149309754372
56.0,0.014860104769468307
60.0,0.014280482195317745
64.0,0.013882934115827084
72.0,0.013167652301490307
80.0,0.012189678847789764
88.0,0.011336770839989185
96.0,0.010525341145694256
104.0,0.009877974167466164
112.0,0.009410974569618702
120.0,0.009072178043425083
128.0,0.008711211383342743
144.0,0.007985040545463562
160.0,0.007364590186625719
176.0,0.006765358615666628
192.0,0.006086486391723156
208.0,0.005430758465081453
224.0,0.004627153277397156
240.0,0.004109513014554977
256.0,0.003844499820843339
288.0,0.0038245643954724073
320.0,0.0036281077191233635
352.0,0.0028154724277555943
384.0,0.0010021633934229612
416.0,-0.00039973005186766386
448.0,-0.0012638680636882782
480.0,-0.0010544962715357542
512.0,-0.00037653231993317604
576.0,-0.0016288921469822526
640.0,-0.003719247877597809
704.0,-0.003314944449812174
768.0,-0.002984624356031418
832.0,-0.002098125172778964
896.0,-0.0012557426234707236
960.0,-0.0010239840485155582
1024.0,-0.00043744384311139584
1152.0,-0.0015644925879314542
1280.0,-3.27957168337889e-05
1408.0,-0.0005561828147619963
1536.0,-0.0034728506579995155
1664.0,-0.004594691097736359
1792.0,-0.003911374602466822
1920.0,-0.002614575205370784
2048.0,-0.00312917772680521
2304.0,-0.0031784644816070795
2560.0,-0.0012164493091404438
2816.0,0.0004366635112091899
3072.0,0.002333682728931308
3328.0,0.0020539527758955956
3584.0,0.002202578354626894
3840.0,0.0007457643514499068
4096.0,0.0017974345246329904
4608.0,0.0007356375572271645
5120.0,-0.003389887046068907
5632.0,-0.0021653820294886827
6144.0,-0.0013579294318333268
6656.0,-0.0016180237289518118
7168.0,0.002755719004198909
7680.0,0.003585794474929571
8192.0,0.0015672524459660053
9216.0,-0.0024959470611065626
10240.0,-0.0013716849498450756
11264.0,0.0032269442453980446
12288.0,0.0005569413769990206
13312.0,-0.004763945005834103
14336.0,0.0017907430883497
end
