version,3.0
numOfCh,1
type,point
parent_name,40-cuts
ch_type,1_1
kcount,1
numberNandB,1
brightnessNandB,1
carpet pos,0
pc,0
Time (ms),CH1 Auto-Correlation
1.0,0.0586952343583107
2.0,0.05736314877867699
3.0,0.0560968816280365
4.0,0.05488375946879387
5.0,0.053704578429460526
6.0,0.05257180705666542
7.0,0.051432013511657715
8.0,0.05033343657851219
9.0,0.04926422983407974
10.0,0.04827146977186203
11.0,0.04731957986950874
12.0,0.04640398919582367
13.0,0.04549175128340721
14.0,0.044639457017183304
15.0,0.04380447044968605
16.0,0.043006863445043564
18.0,0.04139777272939682
20.0,0.0398186594247818
22.0,0.038313694298267365
24.0,0.03692534938454628
26.0,0.03563258796930313
28.0,0.03439485281705856
30.0,0.033268071711063385
32.0,0.03221914917230606
36.0,0.03031644970178604
40.0,0.0286205243319273
44.0,0.027010925114154816
48.0,0.02560465969145298
52.0,0.024546923115849495
56.0,0.023642219603061676
60.0,0.022717658430337906
64.0,0.021832846105098724
72.0,0.020135678350925446
80.0,0.01816134713590145
88.0,0.016323259100317955
96.0,0.014982429333031178
104.0,0.013445100747048855
112.0,0.012020925059914589
120.0,0.010886047966778278
128.0,0.010029586963355541
144.0,0.00903413537889719
160.0,0.007387534715235233
176.0,0.005122932605445385
192.0,0.0040399786084890366
208.0,0.0033810532186180353
224.0,0.0029330861289054155
240.0,0.0025508683174848557
256.0,0.0020641740411520004
288.0,-0.00022648731828667223
320.0,-0.0024633139837533236
352.0,-0.0026682396419346333
384.0,-0.003594889771193266
416.0,-0.004086676985025406
448.0,-0.004264062736183405
480.0,-0.005183345638215542
512.0,-0.0052083199843764305
576.0,-0.006496699992567301
640.0,-0.006370131392031908
704.0,-0.006071578711271286
768.0,-0.0030598975718021393
832.0,0.0001827108790166676
896.0,0.0001801665930543095
960.0,0.0015691060107201338
1024.0,0.005558682605624199
1152.0,0.005990991834551096
1280.0,0.007769918069243431
1408.0,0.004841577261686325
1536.0,0.0014958406100049615
1664.0,-0.0014332800637930632
1792.0,-0.003720696782693267
1920.0,-0.0030666477978229523
2048.0,-0.0025718812830746174
2304.0,-0.00459952000528574
2560.0,-3.323862256365828e-05
2816.0,0.0027893183287233114
3072.0,0.002680890029296279
3328.0,-0.00801163911819458
3584.0,-0.008541158400475979
3840.0,-0.0034925362560898066
4096.0,0.008982234634459019
4608.0,-0.002593710320070386
5120.0,-0.002056107157841325
5632.0,0.005428410600870848
6144.0,-0.008578548207879066
6656.0,-0.0007068380364216864
7168.0,0.0018322381656616926
7680.0,-0.005039062350988388
8192.0,0.004023911897093058
9216.0,0.002073042094707489
10240.0,0.0008218135335482657
11264.0,-0.0005300050252117217
12288.0,-0.0022183405235409737
13312.0,-0.0005333207664079964
14336.0,0.00010449345427332446
end
