version,3.0
numOfCh,1
type,point
parent_name,40-cuts
ch_type,1_1
kcount,1
numberNandB,1
brightnessNandB,1
carpet pos,0
pc,0
Time (ms),CH1 Auto-Correlation
1.0,0.037227023392915726
2.0,0.03651991859078407
3.0,0.035845160484313965
4.0,0.03518316522240639
5.0,0.034532126039266586
6.0,0.03389720246195793
7.0,0.033294349908828735
8.0,0.03270764276385307
9.0,0.03214537724852562
10.0,0.03160052001476288
11.0,0.031088825315237045
12.0,0.030610308051109314
13.0,0.030155954882502556
14.0,0.029723597690463066
15.0,0.0292977262288332
16.0,0.02889314666390419
18.0,0.028064558282494545
20.0,0.027269041165709496
22.0,0.026481276378035545
24.0,0.025683579966425896
26.0,0.024919940158724785
28.0,0.02423105016350746
30.0,0.02355726808309555
32.0,0.022935615852475166
36.0,0.021793702617287636
40.0,0.02078988589346409
44.0,0.019807400181889534
48.0,0.018941067159175873
52.0,0.01817118003964424
56.0,0.01744222827255726
60.0,0.016767950728535652
64.0,0.016190843656659126
72.0,0.015338723547756672
80.0,0.014413811266422272
88.0,0.013346631079912186
96.0,0.01225411705672741
104.0,0.0111848758533597
112.0,0.01040642149746418
120.0,0.009942038916051388
128.0,0.009781332686543465
144.0,0.010121296159923077
160.0,0.010546937584877014
176.0,0.010363824665546417
192.0,0.009934529662132263
208.0,0.0094955675303936
224.0,0.00911744125187397
240.0,0.008495466783642769
256.0,0.008019435219466686
288.0,0.006916265469044447
320.0,0.006095781456679106
352.0,0.00518459128215909
384.0,0.004241003189235926
416.0,0.002783023752272129
448.0,0.0020813781302422285
480.0,0.0014847377315163612
512.0,0.0012900768779218197
576.0,-0.00030687745311297476
640.0,-0.0010761187877506018
704.0,-0.0012340834364295006
768.0,-0.0007027602405287325
832.0,0.0004498212074395269
896.0,0.0011793458834290504
960.0,-0.0007634299108758569
1024.0,-0.001539845485240221
1152.0,-0.0028317244723439217
1280.0,-0.0031683079432696104
1408.0,-0.0027325081173330545
1536.0,-0.004512124694883823
1664.0,-0.003329881466925144
1792.0,-0.002003913978114724
1920.0,0.0003480888844933361
2048.0,0.002971908077597618
2304.0,0.003010228741914034
2560.0,0.0008195695118047297
2816.0,-0.00011724307842087
3072.0,-0.0008118737605400383
3328.0,-0.0024424372240900993
3584.0,-0.004228339996188879
3840.0,-0.003143547335639596
4096.0,-0.001943128532730043
4608.0,-0.0007305748877115548
5120.0,-0.0020207923371344805
5632.0,-0.0038946685381233692
6144.0,-0.0027448406908661127
6656.0,7.843699131626636e-05
7168.0,0.004189876839518547
7680.0,-0.0006144549115560949
8192.0,-0.0015845299931243062
9216.0,0.0027139666490256786
10240.0,0.006916823796927929
11264.0,-0.0006403912557289004
12288.0,-0.00016503810184076428
13312.0,-0.004904296714812517
14336.0,-0.005128200631588697
end
