version,3.0
numOfCh,1
type,point
parent_name,40-cuts
ch_type,1_1
kcount,1
numberNandB,1
brightnessNandB,1
carpet pos,0
pc,0
Time (ms),CH1 Auto-Correlation
1.0,0.08305831998586655
2.0,0.08167368173599243
3.0,0.08033519238233566
4.0,0.07901190966367722
5.0,0.07777411490678787
6.0,0.07656443864107132
7.0,0.07536840438842773
8.0,0.07426107674837112
9.0,0.07317976653575897
10.0,0.07215059548616409
11.0,0.07114076614379883
12.0,0.07017339766025543
13.0,0.06923531740903854
14.0,0.06828276067972183
15.0,0.0673929825425148
16.0,0.0665256530046463
18.0,0.06491072475910187
20.0,0.06337829679250717
22.0,0.06192843243479729
24.0,0.06048628315329552
26.0,0.05898579955101013
28.0,0.05750421807169914
30.0,0.0560980960726738
32.0,0.05466972663998604
36.0,0.051930349320173264
40.0,0.04950223118066788
44.0,0.0474063977599144
48.0,0.04561174288392067
52.0,0.04397357255220413
56.0,0.04241761192679405
60.0,0.04110562056303024
64.0,0.039812713861465454
72.0,0.03723767772316933
80.0,0.03509173169732094
88.0,0.03258461132645607
96.0,0.03030184842646122
104.0,0.028305891901254654
112.0,0.02648673579096794
120.0,0.02477596327662468
128.0,0.023517819121479988
144.0,0.021130306646227837
160.0,0.01873192749917507
176.0,0.01644447073340416
192.0,0.014733443036675453
208.0,0.013795169070363045
224.0,0.012911184690892696
240.0,0.011908845975995064
256.0,0.011805233545601368
288.0,0.011332058347761631
320.0,0.009396981447935104
352.0,0.007003783714026213
384.0,0.005586136598140001
416.0,0.0024065594188869
448.0,-0.002196854678913951
480.0,-0.004780470859259367
512.0,-0.005859481170773506
576.0,-0.002504491014406085
640.0,-0.00017742058844305575
704.0,0.0011875068303197622
768.0,0.0006395480595529079
832.0,0.0031425238121300936
896.0,0.006508451420813799
960.0,0.008660740219056606
1024.0,0.004693811759352684
1152.0,0.0038982483092695475
1280.0,0.002843141322955489
1408.0,-0.001368829165585339
1536.0,-0.004434749949723482
1664.0,-0.005914725828915834
1792.0,-0.0075415391474962234
1920.0,-0.0072701480239629745
2048.0,-0.004567657131701708
2304.0,-0.004293903708457947
2560.0,-0.0010632844641804695
2816.0,0.0026984598953276873
3072.0,0.0019392450340092182
3328.0,0.0017593802185729146
3584.0,0.003971598576754332
3840.0,-0.004230367951095104
4096.0,-0.005681637208908796
4608.0,-0.008096140809357166
5120.0,-0.005645370576530695
5632.0,-0.005770392250269651
6144.0,0.003992036916315556
6656.0,0.007233875337988138
7168.0,7.377067845482088e-07
7680.0,0.0021854389924556017
8192.0,-0.01068713515996933
9216.0,0.004121360834687948
10240.0,0.005381717346608639
11264.0,-0.0011666108621284366
12288.0,-0.0023516446817666292
13312.0,-0.003295100526884198
14336.0,-0.009886516258120537
end
