version,3.0
numOfCh,1
type,point
parent_name,40-cuts
ch_type,1_1
kcount,1
numberNandB,1
brightnessNandB,1
carpet pos,0
pc,0
Time (ms),CH1 Auto-Correlation
1.0,0.023205239325761795
2.0,0.02276984415948391
3.0,0.022350400686264038
4.0,0.021959315985441208
5.0,0.02158144861459732
6.0,0.021212179213762283
7.0,0.02086714096367359
8.0,0.020533505827188492
9.0,0.02021520584821701
10.0,0.019898053258657455
11.0,0.019578848034143448
12.0,0.019259417429566383
13.0,0.018938591703772545
14.0,0.018637627363204956
15.0,0.018361777067184448
16.0,0.018096059560775757
18.0,0.017579199746251106
20.0,0.01706799678504467
22.0,0.01656343787908554
24.0,0.016076261177659035
26.0,0.01560427900403738
28.0,0.015151621773838997
30.0,0.014735684730112553
32.0,0.014344587922096252
36.0,0.013652854599058628
40.0,0.013027162291109562
44.0,0.012501437216997147
48.0,0.012014341540634632
52.0,0.011593678966164589
56.0,0.0112091563642025
60.0,0.01086380798369646
64.0,0.010559591464698315
72.0,0.009962644428014755
80.0,0.009303462691605091
88.0,0.00871989130973816
96.0,0.00828616600483656
104.0,0.008047070354223251
112.0,0.007873392663896084
120.0,0.007703583687543869
128.0,0.007525127846747637
144.0,0.007212633732706308
160.0,0.006716988515108824
176.0,0.0060611627995967865
192.0,0.0053290450014173985
208.0,0.004623528569936752
224.0,0.003714025719091296
240.0,0.002657023724168539
256.0,0.0016963189700618386
288.0,0.0010045187082141638
320.0,0.0007163779810070992
352.0,0.0007563302060589194
384.0,0.00047604055725969374
416.0,0.0009187762043438852
448.0,0.0010431399568915367
480.0,0.0006809999467805028
512.0,0.0006112910923548043
576.0,0.000644122192170471
640.0,0.00025341930449940264
704.0,-6.62307720631361e-05
768.0,-0.0005654297419823706
832.0,0.0008378468919545412
896.0,0.0016373952385038137
960.0,0.0009030674700625241
1024.0,0.0013630776666104794
1152.0,0.00021335150813683867
1280.0,0.0008734999573789537
1408.0,0.0020176765974611044
1536.0,0.0019025913206860423
1664.0,0.0004751952365040779
1792.0,-0.0007853615679778159
1920.0,-0.001025211764499545
2048.0,-0.002507239580154419
2304.0,-0.0015157151501625776
2560.0,-0.0004391646070871502
2816.0,-0.0011489886092022061
3072.0,-0.0031058546155691147
3328.0,-0.002056242898106575
3584.0,-0.0019427638035267591
3840.0,-0.0004715292889159173
4096.0,-0.0003716773062478751
4608.0,-0.0037695353385061026
5120.0,-0.002348897513002157
5632.0,7.315319180634106e-06
6144.0,0.00047368701780214906
6656.0,0.0008059240644797683
7168.0,0.0019188696751371026
7680.0,0.003861169097945094
8192.0,0.0018839710392057896
9216.0,5.194976256461814e-05
10240.0,-0.0019792846869677305
11264.0,-0.0005949768237769604
12288.0,-0.0008475917275063694
13312.0,-0.0019555860199034214
14336.0,0.0012366112787276506
end
