version,3.0
numOfCh,1
type,point
parent_name,40-cuts
ch_type,1_1
kcount,1
numberNandB,1
brightnessNandB,1
carpet pos,0
pc,0
Time (ms),CH1 Auto-Correlation
1.0,0.02440168708562851
2.0,0.02396288327872753
3.0,0.023549174889922142
4.0,0.023148005828261375
5.0,0.022760482504963875
6.0,0.022383395582437515
7.0,0.022015448659658432
8.0,0.021641530096530914
9.0,0.021295469254255295
10.0,0.020967356860637665
11.0,0.020646508783102036
12.0,0.020317867398262024
13.0,0.020002439618110657
14.0,0.019692856818437576
15.0,0.019394179806113243
16.0,0.01909433677792549
18.0,0.018512701615691185
20.0,0.017955921590328217
22.0,0.01738739386200905
24.0,0.01684216596186161
26.0,0.016317494213581085
28.0,0.015811972320079803
30.0,0.015299097634851933
32.0,0.014812631532549858
36.0,0.013947962783277035
40.0,0.013213272206485271
44.0,0.012538764625787735
48.0,0.011942770332098007
52.0,0.011374074034392834
56.0,0.010846138000488281
60.0,0.010371762327849865
64.0,0.009996081702411175
72.0,0.009267737157642841
80.0,0.008576599881052971
88.0,0.007914899848401546
96.0,0.007271029986441135
104.0,0.006669823545962572
112.0,0.006186952814459801
120.0,0.005737274419516325
128.0,0.005323425866663456
144.0,0.004760841839015484
160.0,0.004224094562232494
176.0,0.003742166329175234
192.0,0.0032759644091129303
208.0,0.002877446124330163
224.0,0.002683853032067418
240.0,0.003048853250220418
256.0,0.0032181923743337393
288.0,0.003003096906468272
320.0,0.002117027761414647
352.0,0.00039321774966083467
384.0,-0.0012405706802383065
416.0,-0.0012147808447480202
448.0,-0.0005951664061285555
480.0,-0.0009269671281799674
512.0,-0.0007843515486456454
576.0,0.00014603626914322376
640.0,-4.5008120650891215e-05
704.0,0.000528487260453403
768.0,0.0012769523309543729
832.0,0.0004535772604867816
896.0,0.0001189677495858632
960.0,0.0005127380136400461
1024.0,0.0011606652988120914
1152.0,0.0014457156648859382
1280.0,0.0010367116192355752
1408.0,-0.00033122344757430255
1536.0,-0.0008918472449295223
1664.0,-0.0028431080281734467
1792.0,-0.0023773149587213993
1920.0,-0.0010179869132116437
2048.0,0.0008697448647581041
2304.0,0.0014615062391385436
2560.0,-0.0006249478319659829
2816.0,0.0004444607184268534
3072.0,-0.0002998526906594634
3328.0,8.416020864387974e-05
3584.0,-0.0006506579811684787
3840.0,-0.003094462910667062
4096.0,-0.0006853989907540381
4608.0,-0.0025302369613200426
5120.0,-0.00220656325109303
5632.0,-0.0014759533805772662
6144.0,-0.0019512472208589315
6656.0,0.0020433925092220306
7168.0,-8.408551366301253e-05
7680.0,0.0016837302828207612
8192.0,-0.0003551872505340725
9216.0,0.00201401743106544
10240.0,0.002828975673764944
11264.0,-0.0009385407902300358
12288.0,-0.0012220622738823295
13312.0,-0.002052887575700879
14336.0,-0.0027308366261422634
end
