version,3.0
numOfCh,1
type,point
parent_name,40-cuts
ch_type,1_1
kcount,1
numberNandB,1
brightnessNandB,1
carpet pos,0
pc,0
Time (ms),CH1 Auto-Correlation
1.0,0.03201541677117348
2.0,0.03135908767580986
3.0,0.030728081241250038
4.0,0.03010551445186138
5.0,0.029501883313059807
6.0,0.028902379795908928
7.0,0.02831214852631092
8.0,0.027738085016608238
9.0,0.027174003422260284
10.0,0.02663765847682953
11.0,0.026136405766010284
12.0,0.02564786933362484
13.0,0.0251688901335001
14.0,0.024703916162252426
15.0,0.02424907684326172
16.0,0.023796653375029564
18.0,0.02294681966304779
20.0,0.022108018398284912
22.0,0.02132359705865383
24.0,0.02060246840119362
26.0,0.019886696711182594
28.0,0.01917973719537258
30.0,0.018509119749069214
32.0,0.01790326088666916
36.0,0.016790511086583138
40.0,0.01574546843767166
44.0,0.014772852882742882
48.0,0.01380093488842249
52.0,0.012851233594119549
56.0,0.011979463510215282
60.0,0.011227932758629322
64.0,0.010464607737958431
72.0,0.008986621163785458
80.0,0.00783312227576971
88.0,0.006799662951380014
96.0,0.005960327107459307
104.0,0.005305393598973751
112.0,0.004674151074141264
120.0,0.0038983775302767754
128.0,0.003274607239291072
144.0,0.003115330822765827
160.0,0.002987869316712022
176.0,0.0026030854787677526
192.0,0.0024798859376460314
208.0,0.0018415609374642372
224.0,0.001419189851731062
240.0,0.0008372882730327547
256.0,0.0007418599561788142
288.0,0.0013376673450693488
320.0,0.001657217857427895
352.0,0.0019216618966311216
384.0,0.000933316070586443
416.0,0.0003395297972019762
448.0,-0.0005153468227945268
480.0,-0.0011510724434629083
512.0,-0.0008644136833027005
576.0,-0.00024861012934707105
640.0,-0.0018240386852994561
704.0,-0.002526292111724615
768.0,-0.0020536507945507765
832.0,-0.0016142994863912463
896.0,-0.001367750228382647
960.0,0.00018775410717353225
1024.0,-0.0003794637741521001
1152.0,-0.0003131593985017389
1280.0,-0.0011292797280475497
1408.0,0.0015986337093636394
1536.0,0.0015063672326505184
1664.0,0.0023400213103741407
1792.0,0.0009949596133083105
1920.0,0.00046870068763382733
2048.0,-0.00036166392965242267
2304.0,-0.0031257099471986294
2560.0,-0.0012330033350735903
2816.0,-0.0008113085059449077
3072.0,-0.002117954660207033
3328.0,-0.000242887283093296
3584.0,0.0008814904140308499
3840.0,-0.001221313839778304
4096.0,4.3171497964067385e-05
4608.0,-0.001053046784363687
5120.0,-0.0001982660760404542
5632.0,-0.00044317092397250235
6144.0,0.0009360522381030023
6656.0,0.0020753026474267244
7168.0,0.0010934564052149653
7680.0,-0.00023483950644731522
8192.0,0.0013314691605046391
9216.0,-0.003119648201391101
10240.0,0.0001689494092715904
11264.0,0.0004441806231625378
12288.0,-0.001960882917046547
13312.0,-0.0001829659886425361
14336.0,0.002823683898895979
end
