version,3.0
numOfCh,1
type,point
parent_name,40-cuts
ch_type,1_1
kcount,1
numberNandB,1
brightnessNandB,1
carpet pos,0
pc,0
Time (ms),CH1 Auto-Correlation
1.0,0.06636106967926025
2.0,0.06510405987501144
3.0,0.06388793885707855
4.0,0.0627041906118393
5.0,0.061520420014858246
6.0,0.06033569201827049
7.0,0.05921037495136261
8.0,0.05812239646911621
9.0,0.05705760791897774
10.0,0.05598108097910881
11.0,0.05492635443806648
12.0,0.05392499640583992
13.0,0.05296681821346283
14.0,0.052039239555597305
15.0,0.051174096763134
16.0,0.05031643062829971
18.0,0.04864903911948204
20.0,0.04701043665409088
22.0,0.04543299600481987
24.0,0.043903205543756485
26.0,0.042470257729291916
28.0,0.04113750904798508
30.0,0.03983130678534508
32.0,0.0386384017765522
36.0,0.03636668249964714
40.0,0.03421204537153244
44.0,0.0322968065738678
48.0,0.030440153554081917
52.0,0.02859344519674778
56.0,0.026921991258859634
60.0,0.025448085740208626
64.0,0.02413228526711464
72.0,0.021808335557579994
80.0,0.019681785255670547
88.0,0.01732967421412468
96.0,0.015494907274842262
104.0,0.014205110259354115
112.0,0.01338428258895874
120.0,0.012621484696865082
128.0,0.011893201619386673
144.0,0.009969834238290787
160.0,0.008004775270819664
176.0,0.006970835849642754
192.0,0.006078478414565325
208.0,0.005514596123248339
224.0,0.0049747382290661335
240.0,0.004688262473791838
256.0,0.003982043359428644
288.0,0.0045919171534478664
320.0,0.005433567799627781
352.0,0.0056012338027358055
384.0,0.005513156298547983
416.0,0.004185721278190613
448.0,0.0019638543017208576
480.0,0.0007292488589882851
512.0,-0.0008483232813887298
576.0,-0.002522207796573639
640.0,-0.0019389771623536944
704.0,-0.0023443070240318775
768.0,-0.001646858872845769
832.0,0.0006610320415347815
896.0,0.002186441794037819
960.0,0.0001705727627268061
1024.0,-0.0021153241395950317
1152.0,0.005416340194642544
1280.0,0.00893768947571516
1408.0,0.004792889580130577
1536.0,0.0020283223129808903
1664.0,0.005401744972914457
1792.0,0.004341676831245422
1920.0,-0.0014505407307296991
2048.0,-0.004612760618329048
2304.0,-0.004453638568520546
2560.0,0.0015161939663812518
2816.0,0.00046267814468592405
3072.0,0.0060809277929365635
3328.0,-0.0029638255946338177
3584.0,-0.002685169456526637
3840.0,-0.00041255331598222256
4096.0,0.0031949602998793125
4608.0,-0.00010791030217660591
5120.0,-0.0035820738412439823
5632.0,-4.9561138439457864e-05
6144.0,-0.005188112612813711
6656.0,-0.007505281362682581
7168.0,0.0002783689124044031
7680.0,-0.0035863209050148726
8192.0,-0.005658551584929228
9216.0,-0.0012756644282490015
10240.0,0.0004951826413162053
11264.0,-0.0024798382073640823
12288.0,-0.0036998491268604994
13312.0,0.004404893610626459
14336.0,0.009434067644178867
end
