version,3.0
numOfCh,1
type,point
parent_name,40-cuts
ch_type,1_1
kcount,1
numberNandB,1
brightnessNandB,1
carpet pos,0
pc,0
Time (ms),CH1 Auto-Correlation
1.0,0.0594652034342289
2.0,0.05820159986615181
3.0,0.056996170431375504
4.0,0.055816128849983215
5.0,0.054684385657310486
6.0,0.05357464402914047
7.0,0.05249018222093582
8.0,0.051425982266664505
9.0,0.05042504519224167
10.0,0.049465324729681015
11.0,0.04854937270283699
12.0,0.04767926037311554
13.0,0.04684177413582802
14.0,0.046059750020504
15.0,0.04531886428594589
16.0,0.04457138851284981
18.0,0.04317575693130493
20.0,0.04190797358751297
22.0,0.04077364504337311
24.0,0.039759498089551926
26.0,0.03874140605330467
28.0,0.037753816694021225
30.0,0.03683767840266228
32.0,0.03602435812354088
36.0,0.03427724167704582
40.0,0.03251311928033829
44.0,0.030831601470708847
48.0,0.029234014451503754
52.0,0.0276632197201252
56.0,0.026206837967038155
60.0,0.02476988174021244
64.0,0.023516641929745674
72.0,0.02134476974606514
80.0,0.019315611571073532
88.0,0.017584683373570442
96.0,0.016544178128242493
104.0,0.01580631174147129
112.0,0.015057806856930256
120.0,0.014745098538696766
128.0,0.014638775028288364
144.0,0.014279644936323166
160.0,0.014112225733697414
176.0,0.012886099517345428
192.0,0.011145565658807755
208.0,0.008592822588980198
224.0,0.007071193773299456
240.0,0.00671854754909873
256.0,0.005908855237066746
288.0,0.005035442300140858
320.0,0.004430875647813082
352.0,0.003632377367466688
384.0,0.002346254186704755
416.0,0.002307178918272257
448.0,0.002128069056198001
480.0,0.0023183536250144243
512.0,0.00238225981593132
576.0,-0.0004120144294574857
640.0,-0.0024903682060539722
704.0,-0.004682437051087618
768.0,-0.006394453812390566
832.0,-0.004633078817278147
896.0,-0.002982787089422345
960.0,-0.0014970737975090742
1024.0,-0.0006398066179826856
1152.0,-0.00229768268764019
1280.0,-0.002361706458032131
1408.0,-0.0035031663719564676
1536.0,-0.003945962060242891
1664.0,0.0011641132878139615
1792.0,0.0027483562007546425
1920.0,0.0018537924624979496
2048.0,0.0039773546159267426
2304.0,0.007073501590639353
2560.0,0.006418407894670963
2816.0,0.0017822423251345754
3072.0,-0.002896480495110154
3328.0,-0.004578912630677223
3584.0,-0.0016193967312574387
3840.0,0.0009887770283967257
4096.0,-0.0014885826967656612
4608.0,-0.0027047363109886646
5120.0,5.055978908785619e-05
5632.0,-0.002697400748729706
6144.0,-0.0010760719887912273
6656.0,-0.00507277762517333
7168.0,-0.000998007832095027
7680.0,0.0037372326478362083
8192.0,-0.0024141911417245865
9216.0,0.0009272256284020841
10240.0,-0.004093673080205917
11264.0,0.0034835846163332462
12288.0,-0.0047972071915864944
13312.0,0.0024891006760299206
14336.0,-0.0022625834681093693
end
