version,3.0
numOfCh,1
type,point
parent_name,40-cuts
ch_type,1_1
kcount,1
numberNandB,1
brightnessNandB,1
carpet pos,0
pc,0
Time (ms),CH1 Auto-Correlation
1.0,0.06120466813445091
2.0,0.05992116406559944
3.0,0.05869321525096893
4.0,0.05750587582588196
5.0,0.05638503283262253
6.0,0.05528132617473602
7.0,0.054197873920202255
8.0,0.05316882207989693
9.0,0.05220131203532219
10.0,0.05127909407019615
11.0,0.05038539320230484
12.0,0.049477774649858475
13.0,0.048597872257232666
14.0,0.04774622991681099
15.0,0.04692177101969719
16.0,0.04611882194876671
18.0,0.0445624403655529
20.0,0.04312880337238312
22.0,0.04180137813091278
24.0,0.04053066298365593
26.0,0.03932011500000954
28.0,0.038204967975616455
30.0,0.03722481057047844
32.0,0.0362563356757164
36.0,0.034340836107730865
40.0,0.03257644549012184
44.0,0.030914412811398506
48.0,0.029298830777406693
52.0,0.027912277728319168
56.0,0.026705054566264153
60.0,0.025567278265953064
64.0,0.02454376593232155
72.0,0.022701654583215714
80.0,0.0209954846650362
88.0,0.019438890740275383
96.0,0.01821497455239296
104.0,0.017163826152682304
112.0,0.016034545376896858
120.0,0.014868688769638538
128.0,0.014011369086802006
144.0,0.012093424797058105
160.0,0.010690342634916306
176.0,0.010901142843067646
192.0,0.010124294087290764
208.0,0.008429601788520813
224.0,0.0068907239474356174
240.0,0.005978693719953299
256.0,0.004573436453938484
288.0,0.0024932012893259525
320.0,0.0026944479905068874
352.0,0.003945030737668276
384.0,0.004777442663908005
416.0,0.002442660741508007
448.0,0.0010353716788813472
480.0,-0.0006260943482629955
512.0,-0.0013415396679192781
576.0,-0.0017993011279031634
640.0,-0.007860375568270683
704.0,-0.00719834491610527
768.0,-0.0030999379232525826
832.0,-0.0013910353882238269
896.0,5.624782261293149e-06
960.0,0.0035868133418262005
1024.0,0.0015680992510169744
1152.0,0.0028119049966335297
1280.0,0.0038416977040469646
1408.0,0.003380203852429986
1536.0,-0.0005097121465951204
1664.0,-0.0074011036194860935
1792.0,-0.0059095160104334354
1920.0,0.0018426935421302915
2048.0,0.005651768762618303
2304.0,0.0044768014922738075
2560.0,0.0024958134163171053
2816.0,-0.0019149209838360548
3072.0,-0.004035794176161289
3328.0,-0.004457253962755203
3584.0,-0.003135508392006159
3840.0,-0.002109166933223605
4096.0,0.0014142888830974698
4608.0,-0.0016608869191259146
5120.0,-2.1358027879614383e-05
5632.0,-0.005106337834149599
6144.0,0.003179859835654497
6656.0,-0.0002892824122682214
7168.0,0.0009268060675822198
7680.0,-0.0010200863471254706
8192.0,0.00015180731134023517
9216.0,-6.964510248508304e-05
10240.0,-0.0033772687893360853
11264.0,-0.002735438523814082
12288.0,0.00023850839352235198
13312.0,0.0008184200269170105
14336.0,0.0020770265255123377
end
