version,3.0
numOfCh,1
type,point
parent_name,40-cuts
ch_type,1_1
kcount,1
numberNandB,1
brightnessNandB,1
carpet pos,0
pc,0
Time (ms),CH1 Auto-Correlation
1.0,0.027673933655023575
2.0,0.02706170827150345
3.0,0.026463529095053673
4.0,0.025866325944662094
5.0,0.025283269584178925
6.0,0.02468223311007023
7.0,0.02410266175866127
8.0,0.023547079414129257
9.0,0.023003265261650085
10.0,0.02249041572213173
11.0,0.021990498527884483
12.0,0.02150990627706051
13.0,0.021048974245786667
14.0,0.020611552521586418
15.0,0.02017076313495636
16.0,0.019751541316509247
18.0,0.018921274691820145
20.0,0.01813475415110588
22.0,0.017386730760335922
24.0,0.01669892482459545
26.0,0.01608523726463318
28.0,0.015541521832346916
30.0,0.015009820461273193
32.0,0.014498292468488216
36.0,0.013539094477891922
40.0,0.01264400314539671
44.0,0.011775651946663857
48.0,0.01096646673977375
52.0,0.010288089513778687
56.0,0.009703184477984905
60.0,0.009094608947634697
64.0,0.008441836573183537
72.0,0.007117158267647028
80.0,0.00599645683541894
88.0,0.005152236670255661
96.0,0.004582756198942661
104.0,0.004306803923100233
112.0,0.00397153664380312
120.0,0.003900205949321389
128.0,0.0035787723027169704
144.0,0.002101006219163537
160.0,0.0007908326224423945
176.0,0.0003268052823841572
192.0,-0.00017409509746357799
208.0,-0.000426683749537915
224.0,-0.00043913876288570464
240.0,2.0896164642181247e-05
256.0,1.6676787709002383e-05
288.0,-0.00016601046081632376
320.0,0.00015459631686098874
352.0,-0.0009481719462200999
384.0,-0.0016954286256805062
416.0,-0.0018818179378286004
448.0,-0.002682632068172097
480.0,-0.004102929960936308
512.0,-0.0040159751661121845
576.0,-0.0033862381242215633
640.0,-0.0027606883086264133
704.0,-0.0023045302368700504
768.0,-0.0020191718358546495
832.0,-0.0011283854255452752
896.0,-0.0017185539472848177
960.0,-0.0020270892418920994
1024.0,-0.0008112513460218906
1152.0,0.0007363887852989137
1280.0,-0.0003581474884413183
1408.0,-0.0003791349590755999
1536.0,0.0015792767517268658
1664.0,-0.00010698371625039726
1792.0,8.019556503313652e-07
1920.0,-0.0015751942992210388
2048.0,0.0005813887692056596
2304.0,0.0017750047845765948
2560.0,0.002003264846280217
2816.0,-8.89115035533905e-05
3072.0,-0.0036439907271414995
3328.0,-0.0006818586261942983
3584.0,0.0009801284177228808
3840.0,-0.0006227921112440526
4096.0,-0.0005015403730794787
4608.0,0.0007837853045202792
5120.0,-0.00016297103138640523
5632.0,-0.001116050872951746
6144.0,0.000491043902002275
6656.0,0.00034216197673231363
7168.0,-0.0004282997688278556
7680.0,4.7386138248839416e-06
8192.0,0.0003769346803892404
9216.0,0.0005266210646368563
10240.0,-0.00011227801587665454
11264.0,4.565758354146965e-05
12288.0,-0.0009136671433225274
13312.0,0.0002162626915378496
14336.0,-0.0008218237198889256
end
