version,3.0
numOfCh,1
type,point
parent_name,40-cuts
ch_type,1_1
kcount,1
numberNandB,1
brightnessNandB,1
carpet pos,0
pc,0
Time (ms),CH1 Auto-Correlation
1.0,0.060580890625715256
2.0,0.059319838881492615
3.0,0.05806645005941391
4.0,0.05684623494744301
5.0,0.0556512251496315
6.0,0.05451401695609093
7.0,0.05339286848902702
8.0,0.05229516699910164
9.0,0.051240742206573486
10.0,0.05023118853569031
11.0,0.04927569627761841
12.0,0.048329517245292664
13.0,0.04740152135491371
14.0,0.046483855694532394
15.0,0.04559595510363579
16.0,0.04476718232035637
18.0,0.043279655277729034
20.0,0.04178842529654503
22.0,0.040332019329071045
24.0,0.03889938443899155
26.0,0.03748083859682083
28.0,0.03607404604554176
30.0,0.03475317358970642
32.0,0.033466849476099014
36.0,0.030943816527724266
40.0,0.028695298358798027
44.0,0.02671167440712452
48.0,0.024955645203590393
52.0,0.023258043453097343
56.0,0.02171953395009041
60.0,0.020377324894070625
64.0,0.019125450402498245
72.0,0.017186803743243217
80.0,0.01571350172162056
88.0,0.014539142139256
96.0,0.013839236460626125
104.0,0.01314488798379898
112.0,0.012414448894560337
120.0,0.011684145778417587
128.0,0.01096358336508274
144.0,0.009855357930064201
160.0,0.008384710177779198
176.0,0.006925514433532953
192.0,0.006041557062417269
208.0,0.0061414348892867565
224.0,0.0058699254877865314
240.0,0.005141817964613438
256.0,0.0034079281613230705
288.0,0.0012098836014047265
320.0,0.003211342729628086
352.0,0.005196892190724611
384.0,0.007095751818269491
416.0,0.00856491643935442
448.0,0.008225400932133198
480.0,0.005425492767244577
512.0,0.002653385978192091
576.0,0.005595136899501085
640.0,0.0020320394542068243
704.0,-0.001031862455420196
768.0,-0.00030232846620492637
832.0,-3.997887688456103e-05
896.0,-0.0015132399275898933
960.0,-0.0018305020639672875
1024.0,-0.003576059127226472
1152.0,-0.0003013850364368409
1280.0,-0.0020579879637807608
1408.0,-0.001460515079088509
1536.0,0.004651715513318777
1664.0,0.004697917494922876
1792.0,-0.001187221147119999
1920.0,-0.002049267990514636
2048.0,0.00013464799849316478
2304.0,-0.00030800668173469603
2560.0,-0.004189611412584782
2816.0,-0.001041191047988832
3072.0,0.0023069807793945074
3328.0,0.0002985815517604351
3584.0,0.002096026437357068
3840.0,0.005950673948973417
4096.0,0.0016168705187737942
4608.0,-0.00018099404405802488
5120.0,-0.001999152824282646
5632.0,-0.0029694270342588425
6144.0,-0.005725097376853228
6656.0,-0.007315161172300577
7168.0,-0.001988810021430254
7680.0,-0.0010730366921052337
8192.0,-0.002382025821134448
9216.0,-0.0017108138417825103
10240.0,-0.0031911530531942844
11264.0,0.0009545784560032189
12288.0,0.003105719340965152
13312.0,0.001415745704434812
14336.0,0.001676740706898272
end
