version,3.0
numOfCh,1
type,point
parent_name,40-cuts
ch_type,1_1
kcount,1
numberNandB,1
brightnessNandB,1
carpet pos,0
pc,0
Time (ms),CH1 Auto-Correlation
1.0,0.05686540529131889
2.0,0.05547424778342247
3.0,0.05414406210184097
4.0,0.052886463701725006
5.0,0.05169616639614105
6.0,0.050540991127491
7.0,0.04941490292549133
8.0,0.04832247644662857
9.0,0.04726318642497063
10.0,0.04626040905714035
11.0,0.04529699683189392
12.0,0.04436682537198067
13.0,0.04346596449613571
14.0,0.04260794073343277
15.0,0.041772156953811646
16.0,0.04094155505299568
18.0,0.03936150670051575
20.0,0.037918590009212494
22.0,0.03655644878745079
24.0,0.03519020974636078
26.0,0.033889807760715485
28.0,0.032645758241415024
30.0,0.03151209279894829
32.0,0.03043753281235695
36.0,0.028415638953447342
40.0,0.02649076282978058
44.0,0.024710509926080704
48.0,0.023234449326992035
52.0,0.02186114713549614
56.0,0.020807571709156036
60.0,0.019883358851075172
64.0,0.018881559371948242
72.0,0.017205849289894104
80.0,0.015981009230017662
88.0,0.014560891315340996
96.0,0.013428865000605583
104.0,0.01241033710539341
112.0,0.01149194035679102
120.0,0.010802585631608963
128.0,0.010468137450516224
144.0,0.009651964530348778
160.0,0.009971532970666885
176.0,0.010484963655471802
192.0,0.011110801249742508
208.0,0.010422538965940475
224.0,0.009287755936384201
240.0,0.009101875126361847
256.0,0.009311076253652573
288.0,0.009401429444551468
320.0,0.007466765586286783
352.0,0.006208973471075296
384.0,0.005320754833519459
416.0,0.004847047384828329
448.0,0.0031294734217226505
480.0,0.0015355192590504885
512.0,0.0006778555107302964
576.0,-0.0008283504284918308
640.0,-0.0024898466654121876
704.0,-0.004154345020651817
768.0,-0.004525746684521437
832.0,-0.0006674252217635512
896.0,-0.0007765120244584978
960.0,-0.004417900461703539
1024.0,-0.0034560300409793854
1152.0,-0.0019196260254830122
1280.0,-0.0005514664808288217
1408.0,-0.002974751638248563
1536.0,-0.0023984569124877453
1664.0,-0.0029233088716864586
1792.0,-0.0008892954792827368
1920.0,-0.000131209337268956
2048.0,0.0018722722306847572
2304.0,0.005445907823741436
2560.0,0.005018162075430155
2816.0,0.0008295143488794565
3072.0,-0.005140767898410559
3328.0,-0.00992511585354805
3584.0,-0.007445817347615957
3840.0,-0.003495523938909173
4096.0,-0.0015644892118871212
4608.0,-0.00011007548164343461
5120.0,0.00012153061834396794
5632.0,-0.0038795126602053642
6144.0,4.0569975681137294e-05
6656.0,0.001668077427893877
7168.0,0.0018884148448705673
7680.0,0.002271214034408331
8192.0,-0.002257967833429575
9216.0,0.00047805692884139717
10240.0,-0.0023720739409327507
11264.0,0.0008268696255981922
12288.0,-0.0019025730434805155
13312.0,0.0015074058901518583
14336.0,-0.00014342545182444155
end
