version,3.0
numOfCh,1
type,point
parent_name,40-cuts
ch_type,1_1
kcount,1
numberNandB,1
brightnessNandB,1
carpet pos,0
pc,0
Time (ms),CH1 Auto-Correlation
1.0,0.027896443381905556
2.0,0.027256280183792114
3.0,0.026640571653842926
4.0,0.02605329267680645
5.0,0.02548196353018284
6.0,0.02493135817348957
7.0,0.024397334083914757
8.0,0.023888971656560898
9.0,0.02340991422533989
10.0,0.022946691140532494
11.0,0.022494137287139893
12.0,0.022052867338061333
13.0,0.021618738770484924
14.0,0.021201515570282936
15.0,0.020805222913622856
16.0,0.020412063226103783
18.0,0.01965806633234024
20.0,0.01897389627993107
22.0,0.018351446837186813
24.0,0.017805516719818115
26.0,0.017273936420679092
28.0,0.01677747070789337
30.0,0.01628567837178707
32.0,0.015837088227272034
36.0,0.014979681931436062
40.0,0.01422049105167389
44.0,0.01339408103376627
48.0,0.012648419477045536
52.0,0.011992990039288998
56.0,0.011337853036820889
60.0,0.010711327195167542
64.0,0.010178829543292522
72.0,0.009217284619808197
80.0,0.008465574122965336
88.0,0.007715379353612661
96.0,0.007116690278053284
104.0,0.006641948129981756
112.0,0.0061112018302083015
120.0,0.0053806970827281475
128.0,0.004613638389855623
144.0,0.003670753911137581
160.0,0.0032164612784981728
176.0,0.002571773249655962
192.0,0.0023619101848453283
208.0,0.0022733821533620358
224.0,0.0019339888822287321
240.0,0.0016508400440216064
256.0,0.0012256635818630457
288.0,0.0006393445073626935
320.0,-0.00022600224474444985
352.0,-0.002118463162332773
384.0,-0.0031466225627809763
416.0,-0.0018847447354346514
448.0,-0.001245417632162571
480.0,-0.0006448711501434445
512.0,0.0003899939183611423
576.0,0.0006496706046164036
640.0,-0.00099276308901608
704.0,-0.0007161170360632241
768.0,-0.0003336147346999496
832.0,-0.001925876596942544
896.0,-0.0036661671474575996
960.0,-0.0024493841920048
1024.0,-0.00045459059765562415
1152.0,0.00021725412807427347
1280.0,-0.0009514337871223688
1408.0,-0.00041674618842080235
1536.0,0.0012811438646167517
1664.0,0.0017564950976520777
1792.0,-1.404414661010378e-06
1920.0,-0.0001047047771862708
2048.0,-0.0024402057752013206
2304.0,-0.0022784583270549774
2560.0,-0.0015933928079903126
2816.0,0.0017879129154607654
3072.0,0.003898987313732505
3328.0,0.001620844705030322
3584.0,-0.0024542936589568853
3840.0,-0.00312210526317358
4096.0,-0.0017820121720433235
4608.0,0.0007015609298832715
5120.0,-0.0008466190192848444
5632.0,-0.0006023606401868165
6144.0,0.0012270794250071049
6656.0,0.000991018139757216
7168.0,-0.0005652299732901156
7680.0,0.0010587673168629408
8192.0,-0.0017832835437729955
9216.0,0.00011728650861186907
10240.0,0.0005231613758951426
11264.0,0.000820979883428663
12288.0,0.00041322107426822186
13312.0,-0.0019658522214740515
14336.0,-0.0020865818951278925
end
