version,3.0
numOfCh,1
type,point
parent_name,40-cuts
ch_type,1_1
kcount,1
numberNandB,1
brightnessNandB,1
carpet pos,0
pc,0
Time (ms),CH1 Auto-Correlation
1.0,0.0285380519926548
2.0,0.027893424034118652
3.0,0.02728356048464775
4.0,0.026708291843533516
5.0,0.026161091402173042
6.0,0.025635654106736183
7.0,0.02512252703309059
8.0,0.024644246324896812
9.0,0.02416290156543255
10.0,0.02369457483291626
11.0,0.023234952241182327
12.0,0.022795742377638817
13.0,0.022383004426956177
14.0,0.021966909989714622
15.0,0.021561043336987495
16.0,0.021162472665309906
18.0,0.02042311057448387
20.0,0.01974705420434475
22.0,0.019122963771224022
24.0,0.018535200506448746
26.0,0.017953036352992058
28.0,0.0174066424369812
30.0,0.016907652840018272
32.0,0.016437886282801628
36.0,0.01548153255134821
40.0,0.014547920785844326
44.0,0.013659610413014889
48.0,0.012848012149333954
52.0,0.012106684036552906
56.0,0.011487772688269615
60.0,0.01088626403361559
64.0,0.010375984944403172
72.0,0.00958984438329935
80.0,0.008906150236725807
88.0,0.008567514829337597
96.0,0.0082364771515131
104.0,0.008009756915271282
112.0,0.007708235178142786
120.0,0.007402393501251936
128.0,0.0070119742304086685
144.0,0.006134967785328627
160.0,0.005527795292437077
176.0,0.005047145299613476
192.0,0.004624199587851763
208.0,0.004140475299209356
224.0,0.0036301943473517895
240.0,0.002933966228738427
256.0,0.0022464036010205746
288.0,0.0015937644056975842
320.0,0.0014678963925689459
352.0,0.00022063040523789823
384.0,-0.0005811801529489458
416.0,-0.001275557209737599
448.0,-0.0015364311402663589
480.0,-0.001628342317417264
512.0,-0.002226573182269931
576.0,-0.0019137223716825247
640.0,0.00031182466773316264
704.0,0.001001402153633535
768.0,-0.00028908895910717547
832.0,-0.0004326310008764267
896.0,-0.0007791111711412668
960.0,-0.0008790754363872111
1024.0,-0.0006385816959664226
1152.0,-0.0024563183542340994
1280.0,-0.0024347305297851562
1408.0,-0.001382271177135408
1536.0,-0.002326962538063526
1664.0,0.0004740462463814765
1792.0,-0.0008968166075646877
1920.0,-0.0018098534783348441
2048.0,-0.001100518275052309
2304.0,0.00012841295392718166
2560.0,0.001225081505253911
2816.0,-0.0015785533469170332
3072.0,-0.0018026696052402258
3328.0,-1.309015442529926e-05
3584.0,-0.0001584251003805548
3840.0,-0.0004708200867753476
4096.0,0.00102044187951833
4608.0,3.107768134213984e-05
5120.0,0.0002133150410372764
5632.0,0.0005640494637191296
6144.0,-0.00013379720621742308
6656.0,-0.0017389452550560236
7168.0,0.00035969074815511703
7680.0,-0.00030372198671102524
8192.0,0.0007246964378282428
9216.0,-0.0004202691197860986
10240.0,0.003555379109457135
11264.0,-0.0020539509132504463
12288.0,-0.004248568322509527
13312.0,0.0011032400652766228
14336.0,0.0037488595116883516
end
