version,3.0
numOfCh,1
type,point
parent_name,40-cuts
ch_type,1_1
kcount,1
numberNandB,1
brightnessNandB,1
carpet pos,0
pc,0
Time (ms),CH1 Auto-Correlation
1.0,0.06201406568288803
2.0,0.06059950217604637
3.0,0.0592312254011631
4.0,0.05791664868593216
5.0,0.05668649077415466
6.0,0.05549919605255127
7.0,0.05436251312494278
8.0,0.05325944721698761
9.0,0.052167389541864395
10.0,0.051133833825588226
11.0,0.0501181036233902
12.0,0.049116864800453186
13.0,0.048160310834646225
14.0,0.047220855951309204
15.0,0.04630758613348007
16.0,0.0454140305519104
18.0,0.04372930899262428
20.0,0.042033836245536804
22.0,0.040408216416835785
24.0,0.03891679644584656
26.0,0.03745661675930023
28.0,0.03602110594511032
30.0,0.0346163846552372
32.0,0.03321089595556259
36.0,0.03065369836986065
40.0,0.028090089559555054
44.0,0.025935856625437737
48.0,0.02405930869281292
52.0,0.02223566547036171
56.0,0.0204152911901474
60.0,0.018641458824276924
64.0,0.01706433668732643
72.0,0.014298933558166027
80.0,0.012137293815612793
88.0,0.010499811731278896
96.0,0.009389431215822697
104.0,0.008516674861311913
112.0,0.00790332816541195
120.0,0.007462674751877785
128.0,0.007245381362736225
144.0,0.006525421515107155
160.0,0.006864689756184816
176.0,0.0071114543825387955
192.0,0.006734536960721016
208.0,0.006655511911958456
224.0,0.006254822481423616
240.0,0.005607180297374725
256.0,0.004824757110327482
288.0,0.0017405212856829166
320.0,-0.0013288500485941768
352.0,-0.002834029495716095
384.0,-0.0009445056202821434
416.0,0.0017026803689077497
448.0,0.0014764086809009314
480.0,0.0005203043692745268
512.0,-0.0002850700111594051
576.0,-0.0012027359334751964
640.0,-0.0018456567777320743
704.0,-8.117736433632672e-05
768.0,0.003921212162822485
832.0,0.004313116427510977
896.0,-0.001536312629468739
960.0,-0.0002406085841357708
1024.0,0.0008534169755876064
1152.0,-0.0009338185773231089
1280.0,-0.0032250983640551567
1408.0,-3.641110743046738e-05
1536.0,0.0020197678823024035
1664.0,0.0013495421735569835
1792.0,-0.0012735520722344518
1920.0,-0.0018594597931951284
2048.0,-0.00010329304495826364
2304.0,0.0024106465280056
2560.0,-0.0034446613863110542
2816.0,-0.002768564270809293
3072.0,-6.206495891092345e-05
3328.0,-0.0018222022335976362
3584.0,-0.006960415281355381
3840.0,-0.004405215848237276
4096.0,0.0009727217839099467
4608.0,-0.00019091965805273503
5120.0,-0.003005157457664609
5632.0,0.003029771614819765
6144.0,0.006395744159817696
6656.0,-0.0018705487018451095
7168.0,0.0014937171945348382
7680.0,-0.0026917660143226385
8192.0,-0.005299588665366173
9216.0,-0.002130137523636222
10240.0,-0.004239795263856649
11264.0,0.003784111002460122
12288.0,0.0018925933400169015
13312.0,0.0033933797385543585
14336.0,-0.0012670501600950956
end
