version,3.0
numOfCh,1
type,point
parent_name,40-cuts
ch_type,1_1
kcount,1
numberNandB,1
brightnessNandB,1
carpet pos,0
pc,0
Time (ms),CH1 Auto-Correlation
1.0,0.020908154547214508
2.0,0.020447807386517525
3.0,0.020000502467155457
4.0,0.019569439813494682
5.0,0.01914713904261589
6.0,0.018741928040981293
7.0,0.018350424244999886
8.0,0.017972201108932495
9.0,0.017602620646357536
10.0,0.01725095696747303
11.0,0.016910117119550705
12.0,0.016581622883677483
13.0,0.016252264380455017
14.0,0.01593172736465931
15.0,0.015611406415700912
16.0,0.015305321663618088
18.0,0.014707446098327637
20.0,0.014134649187326431
22.0,0.01358953956514597
24.0,0.013057999312877655
26.0,0.012558474205434322
28.0,0.01207688171416521
30.0,0.011636408977210522
32.0,0.011219648644328117
36.0,0.010459912940859795
40.0,0.009783212095499039
44.0,0.009178654290735722
48.0,0.008682635612785816
52.0,0.00829970184713602
56.0,0.00794773455709219
60.0,0.007632049731910229
64.0,0.007316121365875006
72.0,0.00678265281021595
80.0,0.006218476686626673
88.0,0.0056836167350411415
96.0,0.005254683550447226
104.0,0.0048757013864815235
112.0,0.004287958610802889
120.0,0.0036565044429153204
128.0,0.0031455266289412975
144.0,0.0023824635427445173
160.0,0.0020545562729239464
176.0,0.001869555446319282
192.0,0.0013277138350531459
208.0,0.0010129287838935852
224.0,0.0009178704931400716
240.0,0.0008513645152561367
256.0,0.0009005978936329484
288.0,0.0008233339758589864
320.0,0.0006446077604778111
352.0,0.0006486698403023183
384.0,0.0002140684810001403
416.0,0.0002966489992104471
448.0,-0.0002729007974267006
480.0,-0.0017242530593648553
512.0,-0.002467927522957325
576.0,-0.0020861478988081217
640.0,-0.0013324044412001967
704.0,-0.0008754765149205923
768.0,-0.00011842620006063953
832.0,0.0015988419763743877
896.0,0.0014233842957764864
960.0,0.0014341999776661396
1024.0,0.001484001986682415
1152.0,0.0016093506710603833
1280.0,0.00039564090548083186
1408.0,-0.0010812829714268446
1536.0,-0.00045704006333835423
1664.0,-0.0005332928849384189
1792.0,-0.0010491544380784035
1920.0,-0.0009887402411550283
2048.0,-0.0013959672069177032
2304.0,-0.0007713789236731827
2560.0,0.00010671171912690625
2816.0,-0.0011161960428580642
3072.0,-0.001674966188147664
3328.0,0.000509443401824683
3584.0,0.001699727727100253
3840.0,3.4309516195207834e-05
4096.0,-0.0014607319608330727
4608.0,0.0016938409535214305
5120.0,-0.001326374476775527
5632.0,0.0010949695715680718
6144.0,0.00018796139920596033
6656.0,0.0005683294730260968
7168.0,4.878545951214619e-05
7680.0,-0.0011791782453656197
8192.0,0.00017045173444785178
9216.0,0.0002658762678038329
10240.0,-0.00024530163500458
11264.0,-0.0008137641125358641
12288.0,-0.00011977720714639872
13312.0,9.272063471144065e-05
14336.0,-0.0003466753114480525
end
