version,3.0
numOfCh,1
type,point
parent_name,40-cuts
ch_type,1_1
kcount,1
numberNandB,1
brightnessNandB,1
carpet pos,0
pc,0
Time (ms),CH1 Auto-Correlation
1.0,0.02422533743083477
2.0,0.023604266345500946
3.0,0.023008247837424278
4.0,0.02243936061859131
5.0,0.021871119737625122
6.0,0.021318737417459488
7.0,0.020797859877347946
8.0,0.020306777209043503
9.0,0.01983535662293434
10.0,0.01936042308807373
11.0,0.01890382543206215
12.0,0.018452974036335945
13.0,0.01802968606352806
14.0,0.01762325130403042
15.0,0.017236199229955673
16.0,0.01686740666627884
18.0,0.016225606203079224
20.0,0.015629589557647705
22.0,0.015085148625075817
24.0,0.01456364430487156
26.0,0.014045405201613903
28.0,0.013544146902859211
30.0,0.013045153580605984
32.0,0.012558894231915474
36.0,0.01169486716389656
40.0,0.010910593904554844
44.0,0.01022776123136282
48.0,0.009609331376850605
52.0,0.009029904380440712
56.0,0.008582837879657745
60.0,0.008226838894188404
64.0,0.00790244061499834
72.0,0.007294975221157074
80.0,0.006881210952997208
88.0,0.0063925134018063545
96.0,0.005890047177672386
104.0,0.005377237219363451
112.0,0.004717544186860323
120.0,0.004122515674680471
128.0,0.0036799649242311716
144.0,0.0032103178091347218
160.0,0.002820792607963085
176.0,0.002601333661004901
192.0,0.0024753527250140905
208.0,0.0020191995427012444
224.0,0.001684716553427279
240.0,0.0017238783184438944
256.0,0.0023019041400402784
288.0,0.003155495971441269
320.0,0.0029219170100986958
352.0,0.0032403110526502132
384.0,0.0025412116665393114
416.0,0.0012617702595889568
448.0,0.0012801612028852105
480.0,0.0013919895282015204
512.0,0.0017766548553481698
576.0,0.0016117790946736932
640.0,0.002040283055976033
704.0,0.001476960489526391
768.0,-0.000720546639058739
832.0,-0.0016294857487082481
896.0,-0.0005881541292183101
960.0,-0.0002982948790304363
1024.0,0.0006022913148626685
1152.0,-0.0009231533040292561
1280.0,-0.0003188603150192648
1408.0,0.00017898506484925747
1536.0,0.0006795107037760317
1664.0,-0.0005611268570646644
1792.0,-0.00020180444698780775
1920.0,-5.3493757150135934e-05
2048.0,-0.0012653972953557968
2304.0,-0.0005100442795082927
2560.0,0.00032577288220636547
2816.0,0.0003060779708903283
3072.0,-0.0009507098002359271
3328.0,-0.0015207126270979643
3584.0,-0.00110025389585644
3840.0,-0.0013105907710269094
4096.0,-0.0009086974314413965
4608.0,-0.0012675666948780417
5120.0,-0.0010451184352859855
5632.0,-0.0033014491200447083
6144.0,-0.0020979929249733686
6656.0,0.00044271614751778543
7168.0,0.0013328245840966702
7680.0,0.00098680320661515
8192.0,-0.00015325119602493942
9216.0,0.0019861215259879827
10240.0,-0.00047333253314718604
11264.0,0.0017823738744482398
12288.0,0.0013070277636870742
13312.0,-0.002190046478062868
14336.0,-0.0015601188642904162
end
