version,3.0
numOfCh,1
type,point
parent_name,40-cuts
ch_type,1_1
kcount,1
numberNandB,1
brightnessNandB,1
carpet pos,0
pc,0
Time (ms),CH1 Auto-Correlation
1.0,0.030356554314494133
2.0,0.029696591198444366
3.0,0.02905810810625553
4.0,0.02845984324812889
5.0,0.02787664532661438
6.0,0.02730415016412735
7.0,0.02673085778951645
8.0,0.02615921013057232
9.0,0.02560325711965561
10.0,0.025089135393500328
11.0,0.024582291021943092
12.0,0.02409733459353447
13.0,0.023642361164093018
14.0,0.023198464885354042
15.0,0.022736340761184692
16.0,0.022280573844909668
18.0,0.021412065252661705
20.0,0.020579233765602112
22.0,0.019785521551966667
24.0,0.01903543807566166
26.0,0.018299853429198265
28.0,0.017599085345864296
30.0,0.016922732815146446
32.0,0.01626543514430523
36.0,0.01508216094225645
40.0,0.013905828818678856
44.0,0.012791835702955723
48.0,0.011885249055922031
52.0,0.01108179334551096
56.0,0.01033750269562006
60.0,0.009624986909329891
64.0,0.009020528756082058
72.0,0.007793909404426813
80.0,0.006770788691937923
88.0,0.006192849949002266
96.0,0.0056378464214503765
104.0,0.005154992453753948
112.0,0.004675384610891342
120.0,0.004018832929432392
128.0,0.0034294549841433764
144.0,0.002428768202662468
160.0,0.0014574633678421378
176.0,0.0006976904114708304
192.0,-6.930530798854306e-05
208.0,-0.0003486314381007105
224.0,-0.0007695154054090381
240.0,-0.0006688564317300916
256.0,-0.0005558984121307731
288.0,-4.7200897824950516e-05
320.0,-4.298469139030203e-05
352.0,0.00039117023698054254
384.0,0.0008451753528788686
416.0,0.0009273737668991089
448.0,0.0011010695016011596
480.0,0.0008639026782475412
512.0,-0.0003292805340606719
576.0,-0.0002049408940365538
640.0,-0.0020764695946127176
704.0,0.0012326922733336687
768.0,0.002808782272040844
832.0,0.003568375250324607
896.0,0.002905432367697358
960.0,0.0007788295042701066
1024.0,-0.00036801735404878855
1152.0,-0.0005759000196121633
1280.0,5.118397166370414e-05
1408.0,-0.0009723874973133206
1536.0,-0.0035035964101552963
1664.0,-0.001329515129327774
1792.0,0.0007074341992847621
1920.0,0.0003883474855683744
2048.0,0.001023092889226973
2304.0,-0.0011146001052111387
2560.0,-0.002173964399844408
2816.0,0.0007549368310719728
3072.0,-0.00020726888033095747
3328.0,-0.0004247186880093068
3584.0,0.0025786426849663258
3840.0,0.002247846219688654
4096.0,0.002233934123069048
4608.0,-0.0010839548194780946
5120.0,-0.00033313443418592215
5632.0,-0.0017049032030627131
6144.0,0.00018831747001968324
6656.0,-0.0007021045894362032
7168.0,0.0012124665081501007
7680.0,-0.00042596380808390677
8192.0,-0.0003920466115232557
9216.0,-0.0011781612411141396
10240.0,0.0004027374379802495
11264.0,0.000611544179264456
12288.0,-0.0014823846286162734
13312.0,-0.0003901147865690291
14336.0,0.00020841510558966547
end
