version,3.0
numOfCh,1
type,point
parent_name,40-cuts
ch_type,1_1
kcount,1
numberNandB,1
brightnessNandB,1
carpet pos,0
pc,0
Time (ms),CH1 Auto-Correlation
1.0,0.041724782437086105
2.0,0.041049327701330185
3.0,0.04039710760116577
4.0,0.039755724370479584
5.0,0.039131391793489456
6.0,0.03853004425764084
7.0,0.03795657679438591
8.0,0.03739255666732788
9.0,0.03683442249894142
10.0,0.03628511354327202
11.0,0.03574209287762642
12.0,0.03520263358950615
13.0,0.03467525914311409
14.0,0.03416025638580322
15.0,0.033653624355793
16.0,0.033151786774396896
18.0,0.0322146974503994
20.0,0.031361792236566544
22.0,0.030563190579414368
24.0,0.029796350747346878
26.0,0.029092302545905113
28.0,0.028411272913217545
30.0,0.02774995006620884
32.0,0.027124883607029915
36.0,0.026003699749708176
40.0,0.025004079565405846
44.0,0.024040140211582184
48.0,0.02312438376247883
52.0,0.022324856370687485
56.0,0.021585561335086823
60.0,0.02086549811065197
64.0,0.020286262035369873
72.0,0.019203508272767067
80.0,0.018025461584329605
88.0,0.016711974516510963
96.0,0.015658002346754074
104.0,0.014680007472634315
112.0,0.013879847712814808
120.0,0.01323407981544733
128.0,0.012679154053330421
144.0,0.011312199756503105
160.0,0.009974326007068157
176.0,0.00908902008086443
192.0,0.008309148252010345
208.0,0.007171205244958401
224.0,0.005964740179479122
240.0,0.005663822405040264
256.0,0.005562367849051952
288.0,0.00569197116419673
320.0,0.0043281675316393375
352.0,0.002772208536043763
384.0,0.0022001215256750584
416.0,0.0016893837600946426
448.0,0.0015318908262997866
480.0,0.0003472833486739546
512.0,-0.0010612586047500372
576.0,-0.0013745002215728164
640.0,-0.0020731682889163494
704.0,-0.0018041850998997688
768.0,-0.0023207897320389748
832.0,-0.0033275363966822624
896.0,-0.0023338657338172197
960.0,-0.000563971814699471
1024.0,-0.00044967239955440164
1152.0,0.0006186758982948959
1280.0,0.002243209397420287
1408.0,0.0025361748412251472
1536.0,0.00030238472390919924
1664.0,0.001722916727885604
1792.0,0.0016497410833835602
1920.0,0.0011138756526634097
2048.0,-0.0005169750074855983
2304.0,-0.0009345830185338855
2560.0,0.0010785702615976334
2816.0,0.0002449188905302435
3072.0,0.00018386960437055677
3328.0,-0.00035083963302895427
3584.0,-0.001742664841003716
3840.0,-0.0026455018669366837
4096.0,-0.0022637464571744204
4608.0,0.0003993296704720706
5120.0,-0.006334671285003424
5632.0,0.000742437900044024
6144.0,0.000819676963146776
6656.0,0.002892222022637725
7168.0,0.0032840357162058353
7680.0,-0.001438846462406218
8192.0,-0.003351478837430477
9216.0,0.002113708294928074
10240.0,-0.0040487307123839855
11264.0,-0.0002035811630776152
12288.0,-0.004186434671282768
13312.0,0.0003169052361045033
14336.0,-0.005873310379683971
end
