version,3.0
numOfCh,1
type,point
parent_name,40-cuts
ch_type,1_1
kcount,1
numberNandB,1
brightnessNandB,1
carpet pos,0
pc,0
Time (ms),CH1 Auto-Correlation
1.0,0.06757331639528275
2.0,0.0663088783621788
3.0,0.06506266444921494
4.0,0.06386648863554001
5.0,0.06272745132446289
6.0,0.06163458898663521
7.0,0.060568492859601974
8.0,0.05950802564620972
9.0,0.05847775563597679
10.0,0.057467348873615265
11.0,0.056558120995759964
12.0,0.05568593367934227
13.0,0.05487256497144699
14.0,0.054043568670749664
15.0,0.05321524292230606
16.0,0.052390649914741516
18.0,0.05087308585643768
20.0,0.04952147230505943
22.0,0.04821499064564705
24.0,0.04691261798143387
26.0,0.04564199596643448
28.0,0.04443275183439255
30.0,0.04324550926685333
32.0,0.04211105406284332
36.0,0.04007668420672417
40.0,0.0383182018995285
44.0,0.03688092529773712
48.0,0.03548268601298332
52.0,0.034049563109874725
56.0,0.032605431973934174
60.0,0.03128601238131523
64.0,0.030029430985450745
72.0,0.02756163477897644
80.0,0.025139743462204933
88.0,0.022586923092603683
96.0,0.020456762984395027
104.0,0.019303182139992714
112.0,0.018617520108819008
120.0,0.017938869073987007
128.0,0.017490481957793236
144.0,0.016929063946008682
160.0,0.014988661743700504
176.0,0.01237382274121046
192.0,0.009954960085451603
208.0,0.007174472790211439
224.0,0.005010096821933985
240.0,0.0035866142716258764
256.0,0.0023959691170603037
288.0,0.00011695099965436384
320.0,9.046737250173464e-05
352.0,-0.0002095105010084808
384.0,0.0010935601312667131
416.0,0.0011271699331700802
448.0,0.0011685768840834498
480.0,-0.001909235492348671
512.0,-0.0050684623420238495
576.0,-0.011416785418987274
640.0,-0.014117761515080929
704.0,-0.01574217528104782
768.0,-0.01401760894805193
832.0,-0.008789628744125366
896.0,-0.007270580157637596
960.0,-0.004789289552718401
1024.0,-0.0006353703793138266
1152.0,0.0011295494623482227
1280.0,0.005293484311550856
1408.0,0.008952016942203045
1536.0,0.00850486010313034
1664.0,0.004076906014233828
1792.0,0.003323088400065899
1920.0,-0.0010100420331582427
2048.0,-0.007389395497739315
2304.0,-0.0019702413119375706
2560.0,0.0005007068975828588
2816.0,0.0014292958658188581
3072.0,0.002584755653515458
3328.0,0.002961261197924614
3584.0,-0.00267291022464633
3840.0,0.0011843316024169326
4096.0,0.0004147948056925088
4608.0,0.0024696369655430317
5120.0,-0.008630638010799885
5632.0,3.192044823663309e-05
6144.0,0.0045915329828858376
6656.0,-0.007391659542918205
7168.0,-0.003111700527369976
7680.0,0.006722560152411461
8192.0,-0.00283200666308403
9216.0,-0.003061191877350211
10240.0,0.0001887819671537727
11264.0,0.0007242188439704478
12288.0,-0.0014887197175994515
13312.0,0.0018975549610331655
14336.0,0.003617639886215329
end
