version,3.0
numOfCh,1
type,point
parent_name,40-cuts
ch_type,1_1
kcount,1
numberNandB,1
brightnessNandB,1
carpet pos,0
pc,0
Time (ms),CH1 Auto-Correlation
1.0,0.025309232994914055
2.0,0.02487810328602791
3.0,0.024465005844831467
4.0,0.02407127432525158
5.0,0.02368282340466976
6.0,0.02330785244703293
7.0,0.022949084639549255
8.0,0.02260456793010235
9.0,0.02228739485144615
10.0,0.021972736343741417
11.0,0.0216684527695179
12.0,0.021368592977523804
13.0,0.02108716033399105
14.0,0.02081572823226452
15.0,0.020547516644001007
16.0,0.020276859402656555
18.0,0.019750436767935753
20.0,0.01925852708518505
22.0,0.018796270713210106
24.0,0.018350256606936455
26.0,0.017916010692715645
28.0,0.017489507794380188
30.0,0.017075717449188232
32.0,0.016658470034599304
36.0,0.01587837189435959
40.0,0.015170576982200146
44.0,0.014524322934448719
48.0,0.01392862107604742
52.0,0.01338510774075985
56.0,0.012828982435166836
60.0,0.012248854152858257
64.0,0.011725438758730888
72.0,0.010820969007909298
80.0,0.01013092789798975
88.0,0.009410051628947258
96.0,0.008814970962703228
104.0,0.008299574255943298
112.0,0.00768198212608695
120.0,0.00711747957393527
128.0,0.006741259712725878
144.0,0.006301023997366428
160.0,0.006296376697719097
176.0,0.0064557865262031555
192.0,0.006613985635340214
208.0,0.006250887643545866
224.0,0.005849835462868214
240.0,0.005518889520317316
256.0,0.005530201364308596
288.0,0.005500566214323044
320.0,0.005252096336334944
352.0,0.004939625039696693
384.0,0.004307739436626434
416.0,0.004211690276861191
448.0,0.004199075512588024
480.0,0.0034458895679563284
512.0,0.0028567584231495857
576.0,0.0019634964410215616
640.0,0.001853751135058701
704.0,0.0019300257554277778
768.0,0.0005752804572694004
832.0,-0.00029008364072069526
896.0,0.0006627155235037208
960.0,0.00036992909736
1024.0,-0.00044096450437791646
1152.0,-0.002454293193295598
1280.0,-0.0014948673779144883
1408.0,-0.0017130624037235975
1536.0,-0.002179967239499092
1664.0,-0.0009136878652498126
1792.0,-0.002168703591451049
1920.0,-0.0027518996503204107
2048.0,-0.004480432253330946
2304.0,-0.005116676911711693
2560.0,-0.002474717330187559
2816.0,-0.0026230684015899897
3072.0,0.000476041401270777
3328.0,0.0012428673217073083
3584.0,0.00100613699760288
3840.0,3.9080525311874226e-05
4096.0,0.0018317255889996886
4608.0,0.0019931751303374767
5120.0,-2.8968437618459575e-05
5632.0,-0.0002903785207308829
6144.0,-0.0005922571290284395
6656.0,-0.0010157984215766191
7168.0,-0.0003816118696704507
7680.0,-0.0025066311936825514
8192.0,-0.002059778431430459
9216.0,0.00465245358645916
10240.0,0.00025067589012905955
11264.0,-0.00647661741822958
12288.0,-0.0026166171301156282
13312.0,0.005316485650837421
14336.0,0.005223825573921204
end
