version,3.0
numOfCh,1
type,point
parent_name,40-cuts
ch_type,1_1
kcount,1
numberNandB,1
brightnessNandB,1
carpet pos,0
pc,0
Time (ms),CH1 Auto-Correlation
1.0,0.06403845548629761
2.0,0.06270574033260345
3.0,0.06145135313272476
4.0,0.06024358794093132
5.0,0.05909203737974167
6.0,0.05797429382801056
7.0,0.05690095201134682
8.0,0.05585923045873642
9.0,0.054845768958330154
10.0,0.05384862795472145
11.0,0.05288005620241165
12.0,0.051950011402368546
13.0,0.05106479674577713
14.0,0.0501786507666111
15.0,0.049325764179229736
16.0,0.04855358600616455
18.0,0.04707890748977661
20.0,0.045665230602025986
22.0,0.04422137513756752
24.0,0.04279804602265358
26.0,0.04139869660139084
28.0,0.04003947600722313
30.0,0.03872929513454437
32.0,0.037439532577991486
36.0,0.03491927683353424
40.0,0.03267021104693413
44.0,0.030466224998235703
48.0,0.028507977724075317
52.0,0.026906361803412437
56.0,0.025666894391179085
60.0,0.024483349174261093
64.0,0.02337476797401905
72.0,0.021054241806268692
80.0,0.019157078117132187
88.0,0.017933247610926628
96.0,0.016822829842567444
104.0,0.016199076548218727
112.0,0.015742328017950058
120.0,0.015381376259028912
128.0,0.014685801230370998
144.0,0.012554525397717953
160.0,0.010706630535423756
176.0,0.009650276042521
192.0,0.009430342353880405
208.0,0.009092406369745731
224.0,0.009013657458126545
240.0,0.00908026285469532
256.0,0.008819524198770523
288.0,0.007107172627002001
320.0,0.005715598817914724
352.0,0.003216257318854332
384.0,0.0003793436917476356
416.0,-0.003971991594880819
448.0,-0.006632224190980196
480.0,-0.007251087110489607
512.0,-0.0058611417189240456
576.0,-0.001084882183931768
640.0,-0.0012907754862681031
704.0,-0.0052279033698141575
768.0,-0.006760890129953623
832.0,-0.004880438558757305
896.0,-0.002580806380137801
960.0,0.0006472904933616519
1024.0,0.0026090056635439396
1152.0,0.003606584854424
1280.0,0.005726529285311699
1408.0,0.0016985478578135371
1536.0,-0.00377545109950006
1664.0,-0.005308721214532852
1792.0,-0.0067397598177194595
1920.0,-0.008511831983923912
2048.0,-0.005621401593089104
2304.0,0.0008558757253922522
2560.0,0.0021358956582844257
2816.0,-0.001770205213688314
3072.0,-0.0003036715497728437
3328.0,0.004918553866446018
3584.0,0.004087285604327917
3840.0,0.0006622082437388599
4096.0,0.0014324116054922342
4608.0,0.0007547586574219167
5120.0,-0.005174835678189993
5632.0,-0.006765415426343679
6144.0,-0.0037357343826442957
6656.0,-0.0018956384155899286
7168.0,0.005007261876016855
7680.0,0.001594309345819056
8192.0,0.0061503807082772255
9216.0,-0.005043775774538517
10240.0,-0.0014317966997623444
11264.0,0.005898310337215662
12288.0,-0.0002932365459855646
13312.0,-0.005740348249673843
14336.0,-0.0005668967496603727
end
