version,3.0
numOfCh,1
type,point
parent_name,40-cuts
ch_type,1_1
kcount,1
numberNandB,1
brightnessNandB,1
carpet pos,0
pc,0
Time (ms),CH1 Auto-Correlation
1.0,0.021925747394561768
2.0,0.021467002108693123
3.0,0.020998496562242508
4.0,0.02055804617702961
5.0,0.020145263522863388
6.0,0.019739780575037003
7.0,0.01934954710304737
8.0,0.018971474841237068
9.0,0.01860421523451805
10.0,0.018227960914373398
11.0,0.017877446487545967
12.0,0.017546243965625763
13.0,0.017231503501534462
14.0,0.016924509778618813
15.0,0.01661764457821846
16.0,0.016326846554875374
18.0,0.01577933132648468
20.0,0.015277871862053871
22.0,0.014790192246437073
24.0,0.014314595609903336
26.0,0.013831724412739277
28.0,0.013344253413379192
30.0,0.012852871790528297
32.0,0.012386920861899853
36.0,0.01158508937805891
40.0,0.010809987783432007
44.0,0.010057411156594753
48.0,0.009419389069080353
52.0,0.008852296508848667
56.0,0.008328990079462528
60.0,0.007882986217737198
64.0,0.007420551497489214
72.0,0.006488030776381493
80.0,0.00569111667573452
88.0,0.004970461130142212
96.0,0.004314218647778034
104.0,0.003934822510927916
112.0,0.0036398046649992466
120.0,0.0032371808774769306
128.0,0.002806997625157237
144.0,0.0017932383343577385
160.0,0.0010970346629619598
176.0,0.001168063492514193
192.0,0.0014478442026302218
208.0,0.0017366487300023437
224.0,0.0019522106740623713
240.0,0.0018672447185963392
256.0,0.0014066359726712108
288.0,0.0005357390036806464
320.0,0.0006909040384925902
352.0,0.0014666981296613812
384.0,0.0018011367646977305
416.0,0.001876293565146625
448.0,0.0019515567691996694
480.0,0.0018057734705507755
512.0,0.0014045513235032558
576.0,0.0031254985369741917
640.0,0.003440149361267686
704.0,0.0018471927614882588
768.0,0.0009099164162762463
832.0,3.912207830580883e-05
896.0,-0.001523337559774518
960.0,-0.0024404104333370924
1024.0,-0.00190811138600111
1152.0,-6.999322067713365e-05
1280.0,-0.0008855077903717756
1408.0,-0.0008251281687989831
1536.0,-0.0018190761329606175
1664.0,-0.001960547873750329
1792.0,-0.0023021730594336987
1920.0,-0.0013905733358114958
2048.0,-0.0015166623052209616
2304.0,-0.0006404616287909448
2560.0,0.00026073565823026
2816.0,0.0012549901148304343
3072.0,-0.0001135427737608552
3328.0,0.0013378327712416649
3584.0,0.001447895192541182
3840.0,0.0010007707169279456
4096.0,0.00021329974697437137
4608.0,1.8204842490376905e-05
5120.0,-0.0007874464499764144
5632.0,-0.0013043415965512395
6144.0,-0.00036438117967918515
6656.0,-4.906485992250964e-05
7168.0,-0.0012226547114551067
7680.0,-0.001168514951132238
8192.0,-6.016010956955142e-05
9216.0,0.0011062639532610774
10240.0,-0.0026673839893192053
11264.0,-0.0006382838473655283
12288.0,0.00139580387622118
13312.0,0.0008501543197780848
14336.0,-0.004151362460106611
end
