version,3.0
numOfCh,1
type,point
parent_name,40-cuts
ch_type,1_1
kcount,1
numberNandB,1
brightnessNandB,1
carpet pos,0
pc,0
Time (ms),CH1 Auto-Correlation
1.0,0.020793994888663292
2.0,0.020369770005345345
3.0,0.019962124526500702
4.0,0.019570806995034218
5.0,0.01918799802660942
6.0,0.018816249445080757
7.0,0.018459342420101166
8.0,0.018130609765648842
9.0,0.01781606115400791
10.0,0.017516108229756355
11.0,0.01723150908946991
12.0,0.016947027295827866
13.0,0.016653766855597496
14.0,0.016364915296435356
15.0,0.01608104258775711
16.0,0.015817219391465187
18.0,0.015303402207791805
20.0,0.014811106957495213
22.0,0.014351521618664265
24.0,0.0139079038053751
26.0,0.013486528769135475
28.0,0.013090761378407478
30.0,0.012734315358102322
32.0,0.01239082869142294
36.0,0.01172685343772173
40.0,0.011062094010412693
44.0,0.010479673743247986
48.0,0.009967312216758728
52.0,0.009448600001633167
56.0,0.008964777924120426
60.0,0.00851448718458414
64.0,0.008116984739899635
72.0,0.0073935482650995255
80.0,0.006685560569167137
88.0,0.006002519279718399
96.0,0.005328722298145294
104.0,0.0046857367269694805
112.0,0.004098249599337578
120.0,0.0035855977330356836
128.0,0.003255881369113922
144.0,0.00264392769895494
160.0,0.0019777293782681227
176.0,0.0015983444172888994
192.0,0.0015834243968129158
208.0,0.001637936569750309
224.0,0.0014316675951704383
240.0,0.001227261614985764
256.0,0.0010225141886621714
288.0,-3.30224065692164e-05
320.0,-0.0013119876384735107
352.0,-0.0015770974569022655
384.0,-0.0018621505005285144
416.0,-0.0021915785036981106
448.0,-0.0021818012464791536
480.0,-0.001980416476726532
512.0,-0.0020739443134516478
576.0,-0.001833197777159512
640.0,-0.0015887654153630137
704.0,-0.0013980093644931912
768.0,0.00036903188447467983
832.0,0.0015049614012241364
896.0,0.001200447790324688
960.0,0.001624442869797349
1024.0,0.001396309700794518
1152.0,0.0011061907280236483
1280.0,0.002354311989620328
1408.0,0.0010853108251467347
1536.0,-0.0010663672583177686
1664.0,-0.0031363831367343664
1792.0,-0.0017787363613024354
1920.0,0.0006043394096195698
2048.0,0.0020217234268784523
2304.0,0.0006679871003143489
2560.0,-0.0013925529783591628
2816.0,-0.00027446693275123835
3072.0,0.0009684002143330872
3328.0,0.0016946978867053986
3584.0,-0.002210346283391118
3840.0,-0.0025667159352451563
4096.0,0.0004971582675352693
4608.0,0.00047967355931177735
5120.0,0.0012072062818333507
5632.0,-0.0012683350360020995
6144.0,-0.0002486779703758657
6656.0,-0.0019224202260375023
7168.0,0.0004745379264932126
7680.0,-0.0007926647085696459
8192.0,0.0004542815440800041
9216.0,3.483442560536787e-05
10240.0,0.0001871162239694968
11264.0,-0.00017522882262710482
12288.0,0.0005917795933783054
13312.0,-0.0003104439238086343
14336.0,0.00039042532444000244
end
