version,3.0
numOfCh,1
type,point
parent_name,40-cuts
ch_type,1_1
kcount,1
numberNandB,1
brightnessNandB,1
carpet pos,0
pc,0
Time (ms),CH1 Auto-Correlation
1.0,0.038318246603012085
2.0,0.03768878057599068
3.0,0.03709312528371811
4.0,0.036522142589092255
5.0,0.03595748543739319
6.0,0.035393983125686646
7.0,0.03483211249113083
8.0,0.034282926470041275
9.0,0.033758118748664856
10.0,0.03325265645980835
11.0,0.03277106583118439
12.0,0.03229294344782829
13.0,0.03182652220129967
14.0,0.03137093037366867
15.0,0.03092210926115513
16.0,0.030484698712825775
18.0,0.029641127213835716
20.0,0.028821807354688644
22.0,0.028032053261995316
24.0,0.02729273959994316
26.0,0.026589257642626762
28.0,0.025904638692736626
30.0,0.025236675515770912
32.0,0.024586621671915054
36.0,0.02330617979168892
40.0,0.022121358662843704
44.0,0.02097916416823864
48.0,0.01997608132660389
52.0,0.019077125936746597
56.0,0.018264422193169594
60.0,0.01751852035522461
64.0,0.01688471809029579
72.0,0.015670280903577805
80.0,0.014479311183094978
88.0,0.013415049761533737
96.0,0.012509768828749657
104.0,0.011708053760230541
112.0,0.011042140424251556
120.0,0.010308949276804924
128.0,0.00962904468178749
144.0,0.008220390416681767
160.0,0.0075248731300234795
176.0,0.007322643417865038
192.0,0.007398455869406462
208.0,0.007354270666837692
224.0,0.007138242479413748
240.0,0.007177841383963823
256.0,0.0067551531828939915
288.0,0.006817594636231661
320.0,0.006533867679536343
352.0,0.0068545592948794365
384.0,0.006190428510308266
416.0,0.0052865613251924515
448.0,0.004799984395503998
480.0,0.005089614074677229
512.0,0.005983720999211073
576.0,0.004516324959695339
640.0,0.002858151448890567
704.0,0.0026910253800451756
768.0,0.0028340870048850775
832.0,0.00037347592297010124
896.0,-0.0010183020494878292
960.0,-0.0008209770312532783
1024.0,0.0007924011442810297
1152.0,-0.0025772154331207275
1280.0,-0.0021826038137078285
1408.0,-0.0002591532247606665
1536.0,0.0009581023477949202
1664.0,-0.0015265359543263912
1792.0,-0.004554104991257191
1920.0,-0.004748594015836716
2048.0,-0.00126511394046247
2304.0,-0.0032338823657482862
2560.0,-0.0063690925016999245
2816.0,-0.007226138841360807
3072.0,-0.002887876471504569
3328.0,-0.0033089618664234877
3584.0,-0.001813738257624209
3840.0,0.0014002051902934909
4096.0,0.0003180334169883281
4608.0,0.0023723533377051353
5120.0,0.004659596364945173
5632.0,0.004390760790556669
6144.0,0.0004134433693252504
6656.0,-0.0013393652625381947
7168.0,-0.003547034924849868
7680.0,-0.006699558813124895
8192.0,-0.006777971517294645
9216.0,0.0010494866874068975
10240.0,0.0034231042955070734
11264.0,0.0018638079054653645
12288.0,-0.0034883443731814623
13312.0,4.656599412555806e-05
14336.0,0.0026190283242613077
end
