version,3.0
numOfCh,1
type,point
parent_name,40-cuts
ch_type,1_1
kcount,1
numberNandB,1
brightnessNandB,1
carpet pos,0
pc,0
Time (ms),CH1 Auto-Correlation
1.0,0.01958858221769333
2.0,0.019160600379109383
3.0,0.0187468770891428
4.0,0.018345801159739494
5.0,0.017955075949430466
6.0,0.017572961747646332
7.0,0.01720578782260418
8.0,0.01684417761862278
9.0,0.016493381932377815
10.0,0.016153642907738686
11.0,0.01581299677491188
12.0,0.015481158159673214
13.0,0.015153393149375916
14.0,0.014834056608378887
15.0,0.014525294303894043
16.0,0.014232614077627659
18.0,0.013671765103936195
20.0,0.01313830353319645
22.0,0.01261721272021532
24.0,0.01210408192127943
26.0,0.011602737009525299
28.0,0.011131435632705688
30.0,0.010689055547118187
32.0,0.010270176455378532
36.0,0.009466687217354774
40.0,0.00871241558343172
44.0,0.008114485070109367
48.0,0.007604513317346573
52.0,0.0072411783039569855
56.0,0.006859308574348688
60.0,0.006481241900473833
64.0,0.0061584049835801125
72.0,0.005775235593318939
80.0,0.005465542897582054
88.0,0.005121821071952581
96.0,0.004825525917112827
104.0,0.004547466523945332
112.0,0.004090837202966213
120.0,0.003680166322737932
128.0,0.0033541384618729353
144.0,0.002600359497591853
160.0,0.0021428395994007587
176.0,0.0017439024522900581
192.0,0.0015072210226207972
208.0,0.0011734329164028168
224.0,0.0003769673639908433
240.0,-0.00014113607176113874
256.0,-0.00045005642459727824
288.0,-0.0008373111486434937
320.0,-0.0005206766654737294
352.0,-0.0003302772529423237
384.0,-0.000423395074903965
416.0,2.63609726971481e-05
448.0,-0.00015703569806646556
480.0,-0.0005007796571590006
512.0,0.0001847290841396898
576.0,8.199806870834436e-06
640.0,-0.0005082876305095851
704.0,-0.00042782016680575907
768.0,-0.0008290867554023862
832.0,-0.0003105922369286418
896.0,0.0006297748768702149
960.0,0.0006196059403009713
1024.0,-0.0002544797898735851
1152.0,-1.20013019113685e-05
1280.0,0.0022789074573665857
1408.0,0.0022692980710417032
1536.0,0.0006107888766564429
1664.0,0.0002774012100417167
1792.0,-0.00040907194488681853
1920.0,-0.0008817870984785259
2048.0,-0.0009897230193018913
2304.0,-0.00010423765343148261
2560.0,0.0008356887847185135
2816.0,0.002089089248329401
3072.0,0.0008144251187331975
3328.0,-0.0019722343422472477
3584.0,-0.0010879773180931807
3840.0,-0.0008011377067305148
4096.0,0.0002685545478016138
4608.0,-0.0008451316389255226
5120.0,-0.0005303765647113323
5632.0,0.0006954328855499625
6144.0,-0.0010341290617361665
6656.0,-0.0007546030101366341
7168.0,0.0005289861001074314
7680.0,-0.0008181974990293384
8192.0,0.00043959019239991903
9216.0,-0.00081844930537045
10240.0,-0.0002718681062106043
11264.0,0.00010582213872112334
12288.0,8.811514999251813e-05
13312.0,0.00015224132221192122
14336.0,1.5841442291275598e-05
end
