version,3.0
numOfCh,1
type,point
parent_name,40-cuts
ch_type,1_1
kcount,1
numberNandB,1
brightnessNandB,1
carpet pos,0
pc,0
Time (ms),CH1 Auto-Correlation
1.0,0.03400237858295441
2.0,0.033351484686136246
3.0,0.03273800015449524
4.0,0.03213035315275192
5.0,0.0315396748483181
6.0,0.030959906056523323
7.0,0.030410639941692352
8.0,0.029871895909309387
9.0,0.02935551293194294
10.0,0.02885405719280243
11.0,0.028363440185785294
12.0,0.027889834716916084
13.0,0.027416903525590897
14.0,0.026984546333551407
15.0,0.02656218595802784
16.0,0.026168864220380783
18.0,0.02542983740568161
20.0,0.024707945063710213
22.0,0.02399858459830284
24.0,0.023295976221561432
26.0,0.02259051613509655
28.0,0.021907279267907143
30.0,0.02123803086578846
32.0,0.020584343001246452
36.0,0.019394880160689354
40.0,0.018189072608947754
44.0,0.01698428951203823
48.0,0.01587366685271263
52.0,0.014859497547149658
56.0,0.014010938815772533
60.0,0.013197002001106739
64.0,0.012374525889754295
72.0,0.010793963447213173
80.0,0.009457830339670181
88.0,0.008432204835116863
96.0,0.007615774404257536
104.0,0.006747805047780275
112.0,0.00600992189720273
120.0,0.005371072795242071
128.0,0.004922677297145128
144.0,0.004877820611000061
160.0,0.004553073551505804
176.0,0.0037532581482082605
192.0,0.0029337878804653883
208.0,0.0026093667838722467
224.0,0.0019649427849799395
240.0,0.0017903355183079839
256.0,0.001854980131611228
288.0,0.0025436263531446457
320.0,0.002291772048920393
352.0,0.002075471915304661
384.0,0.0020366101525723934
416.0,0.002483233343809843
448.0,0.0034682615660130978
480.0,0.0038484048563987017
512.0,0.003016824135556817
576.0,0.0015721244271844625
640.0,0.0018075625412166119
704.0,0.0021738626528531313
768.0,0.001325524179264903
832.0,-0.0010983250103890896
896.0,-0.0020815192256122828
960.0,-7.32596090529114e-05
1024.0,0.0002140635042451322
1152.0,-9.83669378911145e-05
1280.0,-0.0029185290914028883
1408.0,-0.0009093180997297168
1536.0,0.0038833648432046175
1664.0,0.003915401175618172
1792.0,0.00014036642096471041
1920.0,-0.0009891520021483302
2048.0,-0.0007797818398103118
2304.0,0.001329595223069191
2560.0,0.0011287463130429387
2816.0,-0.0009583045612089336
3072.0,-0.00048585861804895103
3328.0,-0.00274440785869956
3584.0,-0.0045071751810610294
3840.0,-0.0036356968339532614
4096.0,0.000980193493887782
4608.0,-0.0003044332843273878
5120.0,-0.0012988110538572073
5632.0,-0.000941277074161917
6144.0,-9.083715849556029e-05
6656.0,-0.0013153147883713245
7168.0,-0.0005048498860560358
7680.0,0.003573533147573471
8192.0,0.004734734073281288
9216.0,0.001442143926396966
10240.0,0.000836303923279047
11264.0,-0.004114430397748947
12288.0,-0.0024994767736643553
13312.0,-0.0011917665833607316
14336.0,-0.007600679527968168
end
