version,3.0
numOfCh,1
type,point
parent_name,40-cuts
ch_type,1_1
kcount,1
numberNandB,1
brightnessNandB,1
carpet pos,0
pc,0
Time (ms),CH1 Auto-Correlation
1.0,0.019367264583706856
2.0,0.018901709467172623
3.0,0.018458329141139984
4.0,0.018038611859083176
5.0,0.017632439732551575
6.0,0.017253167927265167
7.0,0.016897689551115036
8.0,0.01654624193906784
9.0,0.01620222069323063
10.0,0.01587093621492386
11.0,0.015546130016446114
12.0,0.015230389311909676
13.0,0.014924120157957077
14.0,0.014635298401117325
15.0,0.01435101218521595
16.0,0.014076901599764824
18.0,0.013560919091105461
20.0,0.013071690686047077
22.0,0.012613202445209026
24.0,0.012189505621790886
26.0,0.01179426722228527
28.0,0.011463535949587822
30.0,0.011153707280755043
32.0,0.010864275507628918
36.0,0.010384042747318745
40.0,0.009969874285161495
44.0,0.009589008055627346
48.0,0.009225144051015377
52.0,0.008875859901309013
56.0,0.008629229851067066
60.0,0.008389351889491081
64.0,0.008130270056426525
72.0,0.007662398740649223
80.0,0.0073738303035497665
88.0,0.007166652008891106
96.0,0.006938314065337181
104.0,0.006627553608268499
112.0,0.0062428624369204044
120.0,0.006032340228557587
128.0,0.00572875514626503
144.0,0.005168638192117214
160.0,0.004947034642100334
176.0,0.0044753230176866055
192.0,0.0038588964380323887
208.0,0.0036277296021580696
224.0,0.003729394869878888
240.0,0.0037910006940364838
256.0,0.0038244689349085093
288.0,0.003330035600811243
320.0,0.0026784141082316637
352.0,0.0021482256706804037
384.0,0.0012609072728082538
416.0,0.0003892148961313069
448.0,8.69259238243103e-05
480.0,-0.00011506700684549287
512.0,-0.0007927379920147359
576.0,-0.0011420625960454345
640.0,-0.0009307817090302706
704.0,-0.0006094416603446007
768.0,-0.0011295173317193985
832.0,-0.0014239498414099216
896.0,-0.0009265588014386594
960.0,-0.00015556950529571623
1024.0,-0.0002608919457998127
1152.0,-0.00036038400139659643
1280.0,0.00028661193209700286
1408.0,0.0001991238386835903
1536.0,-0.0009475318365730345
1664.0,-0.0014372204896062613
1792.0,-0.0013691310305148363
1920.0,-0.0015789291355758905
2048.0,-0.0003676724445540458
2304.0,0.0007331686792895198
2560.0,-0.0002660088939592242
2816.0,0.0001476873439969495
3072.0,-0.00041229091584682465
3328.0,0.0007304803584702313
3584.0,0.0021574092097580433
3840.0,0.00046675969497300684
4096.0,-0.00022314967645797879
4608.0,-0.0005244141211733222
5120.0,-2.9733697374467738e-05
5632.0,0.0013128946302458644
6144.0,0.0010647466406226158
6656.0,5.2715407946379855e-05
7168.0,-0.0011777966283261776
7680.0,-0.0009007888729684055
8192.0,-0.0017537805251777172
9216.0,0.0005211891839280725
10240.0,-0.0002233848936157301
11264.0,-0.001693397993221879
12288.0,-0.0004361289320513606
13312.0,-0.00237288954667747
14336.0,-0.0048150112852454185
end
