version,3.0
numOfCh,1
type,point
parent_name,40-cuts
ch_type,1_1
kcount,1
numberNandB,1
brightnessNandB,1
carpet pos,0
pc,0
Time (ms),CH1 Auto-Correlation
1.0,0.02429942972958088
2.0,0.023808199912309647
3.0,0.023335877805948257
4.0,0.022884704172611237
5.0,0.02245245687663555
6.0,0.022047583013772964
7.0,0.021661093458533287
8.0,0.02128397487103939
9.0,0.020911868661642075
10.0,0.020553508773446083
11.0,0.02020837925374508
12.0,0.01987161673605442
13.0,0.01953350380063057
14.0,0.019202373921871185
15.0,0.01888432539999485
16.0,0.018572520464658737
18.0,0.01796318031847477
20.0,0.017358817160129547
22.0,0.016820667311549187
24.0,0.016307218000292778
26.0,0.01579880900681019
28.0,0.015301685780286789
30.0,0.014812887646257877
32.0,0.014312604442238808
36.0,0.013340565375983715
40.0,0.012551501393318176
44.0,0.011857272125780582
48.0,0.011213736608624458
52.0,0.010544046759605408
56.0,0.009953607805073261
60.0,0.009495074860751629
64.0,0.009059512056410313
72.0,0.008336595259606838
80.0,0.007734545506536961
88.0,0.007322806864976883
96.0,0.007002472411841154
104.0,0.0067943790927529335
112.0,0.006713182665407658
120.0,0.006650872062891722
128.0,0.00650479830801487
144.0,0.005554353818297386
160.0,0.0043967957608401775
176.0,0.0035266210325062275
192.0,0.002944330684840679
208.0,0.0026727118529379368
224.0,0.0026563459541648626
240.0,0.002719288459047675
256.0,0.0028009468223899603
288.0,0.0027421824634075165
320.0,0.0026649765204638243
352.0,0.0017328744288533926
384.0,0.0018910421058535576
416.0,0.002412030240520835
448.0,0.0023763913195580244
480.0,0.0010987715795636177
512.0,0.0007529188296757638
576.0,0.0013135654153302312
640.0,1.5355562936747447e-05
704.0,-0.0006294154445640743
768.0,-0.0004328412178438157
832.0,0.0004218409303575754
896.0,0.0013964332174509764
960.0,0.0014540312113240361
1024.0,0.0025221039541065693
1152.0,0.002144608413800597
1280.0,0.000492387858685106
1408.0,0.0014920808607712388
1536.0,-8.698134479345754e-05
1664.0,-0.0002501673880033195
1792.0,-0.0008739681798033416
1920.0,-0.002135152230039239
2048.0,-0.001037969021126628
2304.0,-0.002651304006576538
2560.0,-0.003928188234567642
2816.0,-0.0023293376434594393
3072.0,-0.001161134452559054
3328.0,-0.0016485779779031873
3584.0,0.0001783500047167763
3840.0,0.0003588658291846514
4096.0,0.0009180841152556241
4608.0,0.0022398652508854866
5120.0,0.0013293895171955228
5632.0,0.0018957681022584438
6144.0,0.00037714026984758675
6656.0,-0.0013747764751315117
7168.0,-0.0029528229497373104
7680.0,-0.000914321222808212
8192.0,-0.0024678222835063934
9216.0,0.0009033440728671849
10240.0,0.0009059052099473774
11264.0,-0.0016263186698779464
12288.0,-0.003405321855098009
13312.0,-0.0019512075232341886
14336.0,0.0006722099496982992
end
