version,3.0
numOfCh,1
type,point
parent_name,40-cuts
ch_type,1_1
kcount,1
numberNandB,1
brightnessNandB,1
carpet pos,0
pc,0
Time (ms),CH1 Auto-Correlation
1.0,0.03636375069618225
2.0,0.035711534321308136
3.0,0.03507562354207039
4.0,0.03445006534457207
5.0,0.033854514360427856
6.0,0.03325247764587402
7.0,0.03267299383878708
8.0,0.032112494111061096
9.0,0.03156710043549538
10.0,0.031031502410769463
11.0,0.030505821108818054
12.0,0.029998235404491425
13.0,0.029504651203751564
14.0,0.02902805246412754
15.0,0.028567027300596237
16.0,0.028114894405007362
18.0,0.02727469429373741
20.0,0.026479044929146767
22.0,0.025698170065879822
24.0,0.024922290816903114
26.0,0.024196011945605278
28.0,0.023498741909861565
30.0,0.02282259613275528
32.0,0.02220480889081955
36.0,0.0210262443870306
40.0,0.01989554800093174
44.0,0.018700648099184036
48.0,0.01745939627289772
52.0,0.01633577235043049
56.0,0.015340211801230907
60.0,0.01439295057207346
64.0,0.013426761142909527
72.0,0.011847627349197865
80.0,0.010564467869699001
88.0,0.009472803212702274
96.0,0.00844061840325594
104.0,0.007708036806434393
112.0,0.007264303509145975
120.0,0.006876019760966301
128.0,0.006588527467101812
144.0,0.0063066198490560055
160.0,0.005812321323901415
176.0,0.005851218476891518
192.0,0.005972275510430336
208.0,0.005786097142845392
224.0,0.005459533538669348
240.0,0.005039888434112072
256.0,0.004629435017704964
288.0,0.004705358762294054
320.0,0.004550800193101168
352.0,0.003507662797346711
384.0,0.0021282106172293425
416.0,0.0019041268387809396
448.0,0.0032177704852074385
480.0,0.004198252223432064
512.0,0.0051129478961229324
576.0,0.003596784546971321
640.0,0.0003291186294518411
704.0,-0.004056595265865326
768.0,-0.002944770734757185
832.0,0.0015212459256872535
896.0,0.00033439957769587636
960.0,-0.00011762187205022201
1024.0,0.0023874989710748196
1152.0,0.003298131050541997
1280.0,-0.00037122154026292264
1408.0,0.003443933092057705
1536.0,0.0030767759308218956
1664.0,0.0027415321674197912
1792.0,-0.0005718201864510775
1920.0,-0.0013390225358307362
2048.0,0.00157482223585248
2304.0,0.0028081014752388
2560.0,0.0004183095006737858
2816.0,-6.435762043111026e-05
3072.0,-0.002393839880824089
3328.0,-0.0005849613808095455
3584.0,-0.0027673738077282906
3840.0,-0.003332392778247595
4096.0,-0.004882107954472303
4608.0,-0.00010156523785553873
5120.0,-0.0020542761776596308
5632.0,-0.0030637544114142656
6144.0,0.0006863954477012157
6656.0,0.0016361420275643468
7168.0,-0.00017847010167315602
7680.0,0.0002813224564306438
8192.0,0.000508849392645061
9216.0,-0.00011617982818279415
10240.0,-0.0033916658721864223
11264.0,-0.004215761087834835
12288.0,-0.002146000973880291
13312.0,0.0010916421888396144
14336.0,0.0047688777558505535
end
