version,3.0
numOfCh,1
type,point
parent_name,40-cuts
ch_type,1_1
kcount,1
numberNandB,1
brightnessNandB,1
carpet pos,0
pc,0
Time (ms),CH1 Auto-Correlation
1.0,0.02137165144085884
2.0,0.020924856886267662
3.0,0.020472964271903038
4.0,0.02003432624042034
5.0,0.019602874293923378
6.0,0.019190872088074684
7.0,0.018785741180181503
8.0,0.018397217616438866
9.0,0.01803237572312355
10.0,0.017672954127192497
11.0,0.01731681264936924
12.0,0.016972461715340614
13.0,0.01663808897137642
14.0,0.01631663739681244
15.0,0.01601194031536579
16.0,0.015722237527370453
18.0,0.015180390328168869
20.0,0.014672711491584778
22.0,0.01419930811971426
24.0,0.013769181445240974
26.0,0.013378102332353592
28.0,0.013045619241893291
30.0,0.012743317522108555
32.0,0.012452100403606892
36.0,0.011938276700675488
40.0,0.011463554576039314
44.0,0.011001570150256157
48.0,0.010591448284685612
52.0,0.010221882723271847
56.0,0.00986373983323574
60.0,0.009560728445649147
64.0,0.009330801665782928
72.0,0.008827968500554562
80.0,0.008357170969247818
88.0,0.007902641780674458
96.0,0.007440909277647734
104.0,0.007024270482361317
112.0,0.0068137263879179955
120.0,0.006607909221202135
128.0,0.006449881941080093
144.0,0.005847242660820484
160.0,0.00534088397398591
176.0,0.004786391276866198
192.0,0.004118987359106541
208.0,0.0035374972503632307
224.0,0.0027557669673115015
240.0,0.002252585720270872
256.0,0.0021445821039378643
288.0,0.0020787783432751894
320.0,0.0016911643324419856
352.0,0.0021915757097303867
384.0,0.0019177140202373266
416.0,0.0008272013510577381
448.0,0.000777870649471879
480.0,0.00036323725362308323
512.0,-0.00035989677417092025
576.0,-0.0007869716500863433
640.0,-0.0002769037091638893
704.0,0.00035370301338844
768.0,0.0006491246749646962
832.0,0.0005426437128335238
896.0,4.811794497072697e-06
960.0,-0.0002713838766794652
1024.0,0.00024274972383864224
1152.0,0.0018002724973484874
1280.0,0.002555083716288209
1408.0,0.0013393746921792626
1536.0,0.0006739672971889377
1664.0,-0.001058285590261221
1792.0,-0.003087395103648305
1920.0,-0.003911142237484455
2048.0,-0.002586285350844264
2304.0,-0.0010563080431893468
2560.0,-0.00010013559949584305
2816.0,-0.0003122751950286329
3072.0,-0.0021121064200997353
3328.0,-0.00241232686676085
3584.0,-0.00026697517023421824
3840.0,0.001517990604043007
4096.0,0.000692853529471904
4608.0,-0.0010169172892346978
5120.0,-0.0010175062343478203
5632.0,-0.0005540444399230182
6144.0,0.0001148823430412449
6656.0,-0.00041149978642351925
7168.0,0.0001774354459485039
7680.0,0.002341522602364421
8192.0,-0.00024633388966321945
9216.0,0.0015292780008167028
10240.0,1.4499145436275285e-05
11264.0,-0.0008783979574218392
12288.0,-3.774795914068818e-05
13312.0,-0.0010435115545988083
14336.0,-0.0026975495275110006
end
