version,3.0
numOfCh,1
type,point
parent_name,40-cuts
ch_type,1_1
kcount,1
numberNandB,1
brightnessNandB,1
carpet pos,0
pc,0
Time (ms),CH1 Auto-Correlation
1.0,0.021743321791291237
2.0,0.021286124363541603
3.0,0.020854033529758453
4.0,0.020441904664039612
5.0,0.02002907358109951
6.0,0.019626928493380547
7.0,0.01922321505844593
8.0,0.018841246142983437
9.0,0.01847955211997032
10.0,0.018115200102329254
11.0,0.01776355318725109
12.0,0.017427943646907806
13.0,0.01710042916238308
14.0,0.01677202247083187
15.0,0.016446121037006378
16.0,0.016120003536343575
18.0,0.01545760128647089
20.0,0.014822863042354584
22.0,0.014247027225792408
24.0,0.01370947528630495
26.0,0.013204652816057205
28.0,0.012703856453299522
30.0,0.012206337414681911
32.0,0.011706688441336155
36.0,0.010775917209684849
40.0,0.009914841502904892
44.0,0.009107667952775955
48.0,0.008353512734174728
52.0,0.0076839132234454155
56.0,0.007109497673809528
60.0,0.006590197794139385
64.0,0.006135250441730022
72.0,0.005455177277326584
80.0,0.004945271648466587
88.0,0.00459921732544899
96.0,0.004296584520488977
104.0,0.004076083190739155
112.0,0.0037840234581381083
120.0,0.003512484021484852
128.0,0.0032158035319298506
144.0,0.002756695495918393
160.0,0.002691214671358466
176.0,0.0027346995193511248
192.0,0.0024299107026308775
208.0,0.00227538263425231
224.0,0.001952746999450028
240.0,0.0017880320083349943
256.0,0.0016421175096184015
288.0,0.0006955050048418343
320.0,0.0005420451052486897
352.0,0.0014219216536730528
384.0,0.0017300777835771441
416.0,0.001572350854985416
448.0,0.0006076732533983886
480.0,1.954987965291366e-05
512.0,0.0003501893952488899
576.0,0.0009419312700629234
640.0,0.0007182590779848397
704.0,-0.0005330498679541051
768.0,-0.0007865876541472971
832.0,-0.0005587858031503856
896.0,-0.0003146674716845155
960.0,0.00015868141781538725
1024.0,-0.000376019102986902
1152.0,-0.001671873382292688
1280.0,-0.0025436135474592447
1408.0,-0.0029473244212567806
1536.0,-0.0017849106807261705
1664.0,-0.0023604710586369038
1792.0,-0.002389993518590927
1920.0,-0.0011750009143725038
2048.0,-0.0009998587192967534
2304.0,0.0011480480898171663
2560.0,0.0008828078862279654
2816.0,0.0008882956462912261
3072.0,0.0011513050412759185
3328.0,0.001465679262764752
3584.0,-0.0007902720244601369
3840.0,-0.001266159932129085
4096.0,0.0002463229466229677
4608.0,-0.00038876241887919605
5120.0,-0.0001677186955930665
5632.0,-0.0006194915040396154
6144.0,-0.0013627130538225174
6656.0,0.0004570836899802089
7168.0,0.0009458995773456991
7680.0,0.0003891910891979933
8192.0,-0.001184046850539744
9216.0,0.000602248590439558
10240.0,0.00019940843048971146
11264.0,-0.00019455704023130238
12288.0,0.000739162031095475
13312.0,-0.0002141426521120593
14336.0,-0.00015149862156249583
end
