version,3.0
numOfCh,1
type,point
parent_name,40-cuts
ch_type,1_1
kcount,1
numberNandB,1
brightnessNandB,1
carpet pos,0
pc,0
Time (ms),CH1 Auto-Correlation
1.0,0.0815768763422966
2.0,0.08016638457775116
3.0,0.07881312072277069
4.0,0.07749766111373901
5.0,0.0762539729475975
6.0,0.07505282759666443
7.0,0.07386109232902527
8.0,0.07268046587705612
9.0,0.07154932618141174
10.0,0.07043524086475372
11.0,0.06936167180538177
12.0,0.0682968720793724
13.0,0.06723818928003311
14.0,0.06619170308113098
15.0,0.06515710800886154
16.0,0.06418680399656296
18.0,0.062412019819021225
20.0,0.06064540147781372
22.0,0.05906764790415764
24.0,0.05760349705815315
26.0,0.05615920200943947
28.0,0.05481315031647682
30.0,0.05357951298356056
32.0,0.05245630443096161
36.0,0.050441671162843704
40.0,0.048518747091293335
44.0,0.0468389093875885
48.0,0.04538258537650108
52.0,0.04407006874680519
56.0,0.042789001017808914
60.0,0.04165133833885193
64.0,0.04075058922171593
72.0,0.03973598778247833
80.0,0.038637612015008926
88.0,0.037264369428157806
96.0,0.036055512726306915
104.0,0.03513418510556221
112.0,0.03447830304503441
120.0,0.0342339426279068
128.0,0.033886853605508804
144.0,0.03288266062736511
160.0,0.031076449900865555
176.0,0.028968557715415955
192.0,0.026788173243403435
208.0,0.025320785120129585
224.0,0.02417983114719391
240.0,0.023388583213090897
256.0,0.022547464817762375
288.0,0.01999075710773468
320.0,0.014744420535862446
352.0,0.011047197505831718
384.0,0.010301386937499046
416.0,0.009456267580389977
448.0,0.005819309037178755
480.0,0.002557679545134306
512.0,0.00209571560844779
576.0,0.005574475508183241
640.0,0.001702288631349802
704.0,-0.00034446388599462807
768.0,-0.0037966847885400057
832.0,-0.008270775899291039
896.0,-0.00572374789044261
960.0,-0.0058341557160019875
1024.0,-0.010576121509075165
1152.0,-0.008341087028384209
1280.0,-0.010083138011395931
1408.0,-0.008115461096167564
1536.0,-0.007834750227630138
1664.0,-0.008133949711918831
1792.0,-0.00493656424805522
1920.0,-0.007412584964185953
2048.0,-0.007092883810400963
2304.0,-0.0038288505747914314
2560.0,-0.0013576147612184286
2816.0,-0.008745081722736359
3072.0,-0.005801068618893623
3328.0,-0.008881731890141964
3584.0,-0.0065753464587032795
3840.0,-0.006423542276024818
4096.0,0.0016250439221039414
4608.0,0.020129401236772537
5120.0,0.005249115638434887
5632.0,0.0020644806791096926
6144.0,-0.007135482504963875
6656.0,-0.011272300966084003
7168.0,-0.0021627345122396946
7680.0,-0.008304581046104431
8192.0,-0.008342038840055466
9216.0,0.019358539953827858
10240.0,-0.005506756715476513
11264.0,-0.002570460084825754
12288.0,-0.0024405387230217457
13312.0,-0.008978221565485
14336.0,0.01797017641365528
end
