version,3.0
numOfCh,1
type,point
parent_name,40-cuts
ch_type,1_1
kcount,1
numberNandB,1
brightnessNandB,1
carpet pos,0
pc,0
Time (ms),CH1 Auto-Correlation
1.0,0.019663942977786064
2.0,0.019237522035837173
3.0,0.018821565434336662
4.0,0.018433263525366783
5.0,0.018069427460432053
6.0,0.017725296318531036
7.0,0.017395377159118652
8.0,0.017079416662454605
9.0,0.01676691509783268
10.0,0.016456713899970055
11.0,0.016159716993570328
12.0,0.015859590843319893
13.0,0.015574327670037746
14.0,0.015293055213987827
15.0,0.015018179081380367
16.0,0.01474263146519661
18.0,0.0142169538885355
20.0,0.01372520625591278
22.0,0.013256520964205265
24.0,0.012812637723982334
26.0,0.01242590881884098
28.0,0.01203840970993042
30.0,0.011649277061223984
32.0,0.011262835934758186
36.0,0.010538839735090733
40.0,0.00985934678465128
44.0,0.00916327629238367
48.0,0.008477585390210152
52.0,0.0078410180285573
56.0,0.0072675892151892185
60.0,0.006806551944464445
64.0,0.00637533375993371
72.0,0.005687542725354433
80.0,0.005185455549508333
88.0,0.0046638366766273975
96.0,0.004379468970000744
104.0,0.004002582281827927
112.0,0.003745683468878269
120.0,0.003552517853677273
128.0,0.0033221992198377848
144.0,0.003020415548235178
160.0,0.0029860851354897022
176.0,0.002718794858083129
192.0,0.0024653831496834755
208.0,0.0020470621529966593
224.0,0.001624697120860219
240.0,0.0015184493968263268
256.0,0.001689921715296805
288.0,0.002088312990963459
320.0,0.0016373122343793511
352.0,0.0007183302077464759
384.0,-0.0001363928458886221
416.0,-0.000798193272203207
448.0,-0.0009670304134488106
480.0,-0.0010379789164289832
512.0,-0.0011889598099514842
576.0,-0.0002362613013247028
640.0,0.00016267805767711252
704.0,-8.513282227795571e-05
768.0,0.00019514713494572788
832.0,-0.0003149441326968372
896.0,-0.0009742439142428339
960.0,-0.0018557298462837934
1024.0,-0.0009441295405849814
1152.0,0.00076064164750278
1280.0,0.0009191951248794794
1408.0,3.726950671989471e-05
1536.0,-0.0005476971855387092
1664.0,-0.0007623746641911566
1792.0,-6.99265074217692e-05
1920.0,0.001109505072236061
2048.0,0.0010351707460358739
2304.0,0.0006037905113771558
2560.0,0.00022207992151379585
2816.0,-0.0017028347356244922
3072.0,-0.0019834437407553196
3328.0,-0.0012176542077213526
3584.0,-0.0014163730666041374
3840.0,-0.0025671476032584906
4096.0,-0.002214818261563778
4608.0,0.00024992015096358955
5120.0,-0.0014030691236257553
5632.0,0.00038978661177679896
6144.0,0.0006477099377661943
6656.0,0.00018134232959710062
7168.0,0.0011742261704057455
7680.0,1.5484567484236322e-05
8192.0,0.0005445288843475282
9216.0,-0.0014187012566253543
10240.0,0.000460018462035805
11264.0,-0.0008324033115059137
12288.0,0.001660095644183457
13312.0,-0.0009846690809354186
14336.0,0.0011789232958108187
end
