version,3.0
numOfCh,1
type,point
parent_name,40-cuts
ch_type,1_1
kcount,1
numberNandB,1
brightnessNandB,1
carpet pos,0
pc,0
Time (ms),CH1 Auto-Correlation
1.0,0.017854765057563782
2.0,0.01740151084959507
3.0,0.016964100301265717
4.0,0.016552140936255455
5.0,0.016156017780303955
6.0,0.015780150890350342
7.0,0.015408243052661419
8.0,0.015054069459438324
9.0,0.014712516218423843
10.0,0.014383658766746521
11.0,0.014063658192753792
12.0,0.013757896609604359
13.0,0.013470322825014591
14.0,0.013185348361730576
15.0,0.012906723655760288
16.0,0.01263643242418766
18.0,0.012125820852816105
20.0,0.011619096621870995
22.0,0.011120595969259739
24.0,0.010615420527756214
26.0,0.010128038004040718
28.0,0.009677478112280369
30.0,0.009242451749742031
32.0,0.008843321353197098
36.0,0.008156627416610718
40.0,0.007572276052087545
44.0,0.007073579356074333
48.0,0.0066138203255832195
52.0,0.006189166102558374
56.0,0.0058489274233579636
60.0,0.005557002034038305
64.0,0.00525974715128541
72.0,0.0046448614448308945
80.0,0.00399719038978219
88.0,0.0033486196771264076
96.0,0.0028448766097426414
104.0,0.002374383620917797
112.0,0.0019327689660713077
120.0,0.0015980199677869678
128.0,0.0012962432811036706
144.0,0.0005696641164831817
160.0,0.00013086159015074372
176.0,5.994220919092186e-05
192.0,0.00030663731740787625
208.0,0.0003460896259639412
224.0,3.045295670744963e-05
240.0,-0.0002230820246040821
256.0,-9.026581392390653e-05
288.0,0.00041053679888136685
320.0,0.00023887355928309262
352.0,0.00013246781600173563
384.0,-0.0002452388289384544
416.0,-0.0005239193560555577
448.0,-0.0003845904429908842
480.0,0.0001609352184459567
512.0,0.0006861119763925672
576.0,0.0003677724162116647
640.0,0.0006117745651863515
704.0,0.0007475854363292456
768.0,2.4328035578946583e-05
832.0,-0.0009128991514444351
896.0,-0.0017067530425265431
960.0,-0.0009725542622618377
1024.0,0.00013396078429650515
1152.0,0.0010018961038440466
1280.0,0.0010540882358327508
1408.0,0.0003800670965574682
1536.0,9.869105997495353e-05
1664.0,0.0006719714729115367
1792.0,0.0004406675579957664
1920.0,0.000891461968421936
2048.0,-0.0008471651235595345
2304.0,-0.00013607603614218533
2560.0,0.00047391216503456235
2816.0,-5.2850831707473844e-05
3072.0,-0.0007055472233332694
3328.0,-0.0011402730597183108
3584.0,-0.0006522182375192642
3840.0,-6.773262430215254e-05
4096.0,-0.0018446872709318995
4608.0,0.00047560493112541735
5120.0,6.855068204458803e-05
5632.0,-0.0002759379567578435
6144.0,6.901454617036507e-05
6656.0,0.00025462248595431447
7168.0,0.00044309304212220013
7680.0,-0.00024832930648699403
8192.0,-0.000739891198463738
9216.0,-0.0005975432577542961
10240.0,-0.001134138205088675
11264.0,0.00021803530398756266
12288.0,0.0011146628530696034
13312.0,-0.0007148326258175075
14336.0,0.003400013316422701
end
