version,3.0
numOfCh,1
type,point
parent_name,40-cuts
ch_type,1_1
kcount,1
numberNandB,1
brightnessNandB,1
carpet pos,0
pc,0
Time (ms),CH1 Auto-Correlation
1.0,0.027873987331986427
2.0,0.02719639614224434
3.0,0.026522057130932808
4.0,0.02586318738758564
5.0,0.025233764201402664
6.0,0.02460145764052868
7.0,0.023997917771339417
8.0,0.023406803607940674
9.0,0.022846607491374016
10.0,0.02231108769774437
11.0,0.021789491176605225
12.0,0.021288814023137093
13.0,0.020813606679439545
14.0,0.02033974416553974
15.0,0.019878773018717766
16.0,0.019433818757534027
18.0,0.018584247678518295
20.0,0.017773495987057686
22.0,0.017003897577524185
24.0,0.01624211110174656
26.0,0.015510591678321362
28.0,0.014792113564908504
30.0,0.014098081737756729
32.0,0.013416816480457783
36.0,0.012190094217658043
40.0,0.01118385698646307
44.0,0.010316954925656319
48.0,0.009540282189846039
52.0,0.008829421363770962
56.0,0.008090139366686344
60.0,0.007391690742224455
64.0,0.006758814211934805
72.0,0.005489383824169636
80.0,0.004401915706694126
88.0,0.0035212673246860504
96.0,0.002817121334373951
104.0,0.002367764012888074
112.0,0.002001018961891532
120.0,0.0016605095006525517
128.0,0.0013034034054726362
144.0,0.0012308352161198854
160.0,0.0010783834150061011
176.0,0.0009686434059403837
192.0,0.00024461516295559704
208.0,-0.000562703178729862
224.0,-0.0007144436822272837
240.0,-2.556839353928808e-05
256.0,0.00034056042204611003
288.0,-0.0005012928741052747
320.0,-0.0011317695025354624
352.0,-0.0008399594807997346
384.0,-0.0004339543520472944
416.0,-0.0001735238911351189
448.0,-0.00045533751836046576
480.0,-0.0013475827872753143
512.0,-0.0013121264055371284
576.0,0.00013704851153306663
640.0,0.0004215296357870102
704.0,0.0003762334818020463
768.0,-0.0006283526308834553
832.0,-0.0003366193559486419
896.0,0.0007013202412053943
960.0,0.003127456409856677
1024.0,0.003604883560910821
1152.0,0.0013746611075475812
1280.0,-0.001472923089750111
1408.0,-0.0013011633418500423
1536.0,0.0011877180077135563
1664.0,0.001579103758558631
1792.0,0.0009234322351403534
1920.0,-0.0018480076687410474
2048.0,4.6513254346791655e-05
2304.0,-0.0020108213648200035
2560.0,0.00019279150001239032
2816.0,0.0005320035270415246
3072.0,1.5736502973595634e-05
3328.0,-0.0001405376533512026
3584.0,0.0003592954308260232
3840.0,0.00018670748977456242
4096.0,0.00021206609380897135
4608.0,5.814197356812656e-05
5120.0,-0.0008903813431970775
5632.0,0.0007596223149448633
6144.0,-0.0015072765527293086
6656.0,-0.0002537356922402978
7168.0,-0.0011363986413925886
7680.0,-0.0003502442850731313
8192.0,-0.0013047197135165334
9216.0,2.1599831597995944e-05
10240.0,-0.0011268540984019637
11264.0,-0.0009773803176358342
12288.0,-0.00023939271341077983
13312.0,0.0008904170827008784
14336.0,0.003922669216990471
end
