version,3.0
numOfCh,1
type,point
parent_name,40-cuts
ch_type,1_1
kcount,1
numberNandB,1
brightnessNandB,1
carpet pos,0
pc,0
Time (ms),CH1 Auto-Correlation
1.0,0.02124587446451187
2.0,0.02083023265004158
3.0,0.020429695025086403
4.0,0.020049558952450752
5.0,0.01968288980424404
6.0,0.019343068823218346
7.0,0.01899726688861847
8.0,0.01865360327064991
9.0,0.018325921148061752
10.0,0.018003256991505623
11.0,0.017685377970337868
12.0,0.017379920929670334
13.0,0.017081182450056076
14.0,0.016775527969002724
15.0,0.016478000208735466
16.0,0.016191186383366585
18.0,0.015667015686631203
20.0,0.015198247507214546
22.0,0.014756587333977222
24.0,0.014361045323312283
26.0,0.01400830689817667
28.0,0.013685928657650948
30.0,0.013380774296820164
32.0,0.013077257201075554
36.0,0.0125306136906147
40.0,0.012017784640192986
44.0,0.011520716361701488
48.0,0.011019588448107243
52.0,0.010520495474338531
56.0,0.00996212475001812
60.0,0.009410316124558449
64.0,0.008924090303480625
72.0,0.008216086775064468
80.0,0.0076550585217773914
88.0,0.0072089508175849915
96.0,0.006826779339462519
104.0,0.006568331271409988
112.0,0.006325054913759232
120.0,0.00603787275031209
128.0,0.005629133433103561
144.0,0.004550824873149395
160.0,0.003567984327673912
176.0,0.0028371415100991726
192.0,0.0025960116181522608
208.0,0.0027763687539845705
224.0,0.0029904113616794348
240.0,0.0030681458301842213
256.0,0.0029769043903797865
288.0,0.002749578794464469
320.0,0.0026226721238344908
352.0,0.0025137115735560656
384.0,0.001701468019746244
416.0,0.0010276514803990722
448.0,0.0006538091693073511
480.0,0.0003008877392858267
512.0,0.0004534480976872146
576.0,0.0004796315042767674
640.0,7.505453686462715e-05
704.0,-0.0003518704033922404
768.0,-0.000820599845610559
832.0,-0.0016459678299725056
896.0,-0.001403588685207069
960.0,-0.0004308618663344532
1024.0,0.0006325378781184554
1152.0,0.0017067458247765899
1280.0,0.0016617645742371678
1408.0,0.0025206387508660555
1536.0,0.0016156607307493687
1664.0,0.0012393260840326548
1792.0,0.0018370581092312932
1920.0,0.000855610182043165
2048.0,0.00015423430886585265
2304.0,0.0008838195935823023
2560.0,0.001669303746894002
2816.0,0.0008158419514074922
3072.0,-0.0022688235621899366
3328.0,-0.002666157903149724
3584.0,-3.4664884879020974e-05
3840.0,0.0026208183262497187
4096.0,0.0012101372703909874
4608.0,-0.0017283610068261623
5120.0,-0.0009312282782047987
5632.0,6.895340629853308e-05
6144.0,-0.00024948615464381874
6656.0,0.0003966675139963627
7168.0,-0.002759830094873905
7680.0,-0.0005991058424115181
8192.0,0.0018871420761570334
9216.0,-0.0010617830557748675
10240.0,-0.0025451602414250374
11264.0,-0.0016388602089136839
12288.0,-0.0011710601393133402
13312.0,-0.00019110419088974595
14336.0,0.0012099194573238492
end
