version,3.0
numOfCh,1
type,point
parent_name,40-cuts
ch_type,1_1
kcount,1
numberNandB,1
brightnessNandB,1
carpet pos,0
pc,0
Time (ms),CH1 Auto-Correlation
1.0,0.034320902079343796
2.0,0.03369883820414543
3.0,0.03310997039079666
4.0,0.032539814710617065
5.0,0.03199053555727005
6.0,0.03146441653370857
7.0,0.030950840562582016
8.0,0.03046443499624729
9.0,0.029988449066877365
10.0,0.02952333353459835
11.0,0.029058121144771576
12.0,0.028596634045243263
13.0,0.028143424540758133
14.0,0.02768993191421032
15.0,0.027242444455623627
16.0,0.02679569087922573
18.0,0.025927389040589333
20.0,0.02513059787452221
22.0,0.02437719888985157
24.0,0.02365519478917122
26.0,0.02296476438641548
28.0,0.022308528423309326
30.0,0.021661588922142982
32.0,0.021042387932538986
36.0,0.019804662093520164
40.0,0.01867043599486351
44.0,0.017681431025266647
48.0,0.016853338107466698
52.0,0.016108283773064613
56.0,0.015505285933613777
60.0,0.014891066588461399
64.0,0.014282829128205776
72.0,0.012928934767842293
80.0,0.011508835479617119
88.0,0.010173461399972439
96.0,0.008938527666032314
104.0,0.007859757170081139
112.0,0.006982204969972372
120.0,0.006231560371816158
128.0,0.005455786362290382
144.0,0.003852322930470109
160.0,0.002164049306884408
176.0,0.00083669408923015
192.0,-1.3461229173117317e-05
208.0,-0.0007200206164270639
224.0,-0.0015998098533600569
240.0,-0.0023762157652527094
256.0,-0.002749705919995904
288.0,-0.002999715507030487
320.0,-0.0037023602053523064
352.0,-0.0034445454366505146
384.0,-0.0036814960185438395
416.0,-0.0035105429124087095
448.0,-0.002999874297529459
480.0,-0.002633350668475032
512.0,-0.002877237042412162
576.0,-0.0023714457638561726
640.0,-0.0018899759743362665
704.0,-0.0014107333263382316
768.0,-0.001917463494464755
832.0,-0.0011854536132887006
896.0,-0.0023712448310106993
960.0,-0.0044875843450427055
1024.0,-0.0028195471968501806
1152.0,0.0016726452158764005
1280.0,-5.995374885969795e-05
1408.0,0.002819211920723319
1536.0,0.0016317201079800725
1664.0,0.001541173318400979
1792.0,0.0017626471817493439
1920.0,0.00019747845362871885
2048.0,0.0016798892756924033
2304.0,-0.0005428300355561078
2560.0,-0.004039284773170948
2816.0,-0.0015133494744077325
3072.0,0.0023531182669103146
3328.0,0.002196728251874447
3584.0,-0.001124177360907197
3840.0,-0.0004727187333628535
4096.0,0.0003568761167116463
4608.0,-0.002158103045076132
5120.0,0.002846513409167528
5632.0,-0.0027823355048894882
6144.0,-0.0022695143707096577
6656.0,0.0034359463024884462
7168.0,-0.003027253318578005
7680.0,-0.002747634192928672
8192.0,0.005102687515318394
9216.0,-0.0009108039666898549
10240.0,0.0015023123705759645
11264.0,-0.00027116978890262544
12288.0,0.0009546980727463961
13312.0,0.00011543270375113934
14336.0,0.0001558324438519776
end
