version,3.0
numOfCh,1
type,point
parent_name,40-cuts
ch_type,1_1
kcount,1
numberNandB,1
brightnessNandB,1
carpet pos,0
pc,0
Time (ms),CH1 Auto-Correlation
1.0,0.022665400058031082
2.0,0.022001225501298904
3.0,0.021369367837905884
4.0,0.020758487284183502
5.0,0.02016928605735302
6.0,0.01961427368223667
7.0,0.01907116360962391
8.0,0.01855212263762951
9.0,0.018060531467199326
10.0,0.017592139542102814
11.0,0.01715466007590294
12.0,0.01671730913221836
13.0,0.016288533806800842
14.0,0.015892213210463524
15.0,0.015499603934586048
16.0,0.0151301808655262
18.0,0.014455431140959263
20.0,0.013845169916749
22.0,0.013264935463666916
24.0,0.012731247581541538
26.0,0.012266476638615131
28.0,0.011827385053038597
30.0,0.011439304798841476
32.0,0.01109986286610365
36.0,0.010490302927792072
40.0,0.01001165434718132
44.0,0.00951955746859312
48.0,0.009134044870734215
52.0,0.008740478195250034
56.0,0.00835910253226757
60.0,0.007956395857036114
64.0,0.007592582143843174
72.0,0.006777919363230467
80.0,0.0061513325199484825
88.0,0.005776606500148773
96.0,0.005495630670338869
104.0,0.005205399356782436
112.0,0.0049662175588309765
120.0,0.004778778180480003
128.0,0.004518894944339991
144.0,0.004129566252231598
160.0,0.003960670903325081
176.0,0.003514026291668415
192.0,0.0030640377663075924
208.0,0.0026013292372226715
224.0,0.0018927432829514146
240.0,0.0011997719993814826
256.0,0.0007750304648652673
288.0,3.99466953240335e-05
320.0,-0.0009158793836832047
352.0,-0.0008799182251095772
384.0,-0.0011908033629879355
416.0,-0.0011203641770407557
448.0,-0.00132541183847934
480.0,-0.0017440231749787927
512.0,-0.0015825716545805335
576.0,-0.0007948211277835071
640.0,-0.00027619939646683633
704.0,1.6577474525547586e-05
768.0,0.00025998003548011184
832.0,-0.0010615604696795344
896.0,-0.0017377909971401095
960.0,-0.0024887644685804844
1024.0,-0.0019852379336953163
1152.0,-0.0022082983050495386
1280.0,0.0007022595964372158
1408.0,0.001323042088188231
1536.0,0.000928386696614325
1664.0,0.0004214732616674155
1792.0,0.00011131037172162905
1920.0,0.0004135364724788815
2048.0,0.001029703300446272
2304.0,-0.0004914187593385577
2560.0,-0.002697251969948411
2816.0,-0.0012102595064789057
3072.0,0.0009175773593597114
3328.0,0.0007435258012264967
3584.0,0.0021234408486634493
3840.0,0.0014108222676441073
4096.0,-0.0007769389194436371
4608.0,-0.0008221673779189587
5120.0,0.00022150295262690634
5632.0,-0.0015505594201385975
6144.0,-0.0013119553914293647
6656.0,0.0003715471248142421
7168.0,0.0014696132857352495
7680.0,0.0002672952541615814
8192.0,-4.836673178942874e-05
9216.0,-0.000792740669567138
10240.0,0.00034501307527534664
11264.0,-0.0003142793430015445
12288.0,-0.000379590637749061
13312.0,-0.0021515931002795696
14336.0,0.0008619463769719005
end
