version,3.0
numOfCh,1
type,point
parent_name,40-cuts
ch_type,1_1
kcount,1
numberNandB,1
brightnessNandB,1
carpet pos,0
pc,0
Time (ms),CH1 Auto-Correlation
1.0,0.026374422013759613
2.0,0.025914467871189117
3.0,0.02546199969947338
4.0,0.025024693459272385
5.0,0.02459997870028019
6.0,0.02417687140405178
7.0,0.023762362077832222
8.0,0.023352939635515213
9.0,0.022943656891584396
10.0,0.022556403651833534
11.0,0.022184694185853004
12.0,0.02181369811296463
13.0,0.02144831046462059
14.0,0.021099967882037163
15.0,0.02076815254986286
16.0,0.020453186705708504
18.0,0.019853942096233368
20.0,0.019289113581180573
22.0,0.018765226006507874
24.0,0.01825081557035446
26.0,0.01775599643588066
28.0,0.01727759838104248
30.0,0.01682598516345024
32.0,0.016385763883590698
36.0,0.015599291771650314
40.0,0.01493685133755207
44.0,0.01437563169747591
48.0,0.0138802919536829
52.0,0.01342757884413004
56.0,0.01300574466586113
60.0,0.01255158893764019
64.0,0.012116574682295322
72.0,0.011381588876247406
80.0,0.01076261792331934
88.0,0.01017803605645895
96.0,0.009709853678941727
104.0,0.009319755248725414
112.0,0.00892408937215805
120.0,0.00844835489988327
128.0,0.008091947995126247
144.0,0.007886617444455624
160.0,0.007669604849070311
176.0,0.007331141270697117
192.0,0.007111073937267065
208.0,0.007062068674713373
224.0,0.006687168497592211
240.0,0.006053444929420948
256.0,0.005539892241358757
288.0,0.005139017477631569
320.0,0.004867274314165115
352.0,0.0038878784980624914
384.0,0.0035675945691764355
416.0,0.002996611874550581
448.0,0.0026771111879497766
480.0,0.0030053448863327503
512.0,0.0033154042903333902
576.0,0.0023650627117604017
640.0,0.0008721901685930789
704.0,0.00028102853684686124
768.0,0.00027605483774095774
832.0,-4.274355524103157e-05
896.0,-0.0008635370759293437
960.0,-0.00015287556743714958
1024.0,0.0003447615308687091
1152.0,0.0023684590123593807
1280.0,0.0033422454725950956
1408.0,0.0049300529062747955
1536.0,0.00422831391915679
1664.0,0.003874017158523202
1792.0,0.004047386348247528
1920.0,0.003939345013350248
2048.0,0.0037286023143678904
2304.0,0.0021906509064137936
2560.0,0.0007731437217444181
2816.0,0.0008133239462040365
3072.0,0.004490312188863754
3328.0,0.0025200843811035156
3584.0,0.002478713635355234
3840.0,-0.0007842839113436639
4096.0,-0.002121027559041977
4608.0,-0.00010428425594000146
5120.0,0.0015571423573419452
5632.0,0.0003379774861969054
6144.0,-0.0015058201970532537
6656.0,0.0007633961504325271
7168.0,-0.000766906829085201
7680.0,-0.0011996187968179584
8192.0,-9.077538561541587e-05
9216.0,-0.0026779063045978546
10240.0,-0.00572930509224534
11264.0,-0.005406713578850031
12288.0,-0.008244333788752556
13312.0,-0.006843342911452055
14336.0,-0.005580364726483822
end
