version,3.0
numOfCh,1
type,point
parent_name,40-cuts
ch_type,1_1
kcount,1
numberNandB,1
brightnessNandB,1
carpet pos,0
pc,0
Time (ms),CH1 Auto-Correlation
1.0,0.03743159398436546
2.0,0.036732979118824005
3.0,0.03606480732560158
4.0,0.035414982587099075
5.0,0.03478453308343887
6.0,0.03415369987487793
7.0,0.03353303298354149
8.0,0.0329105369746685
9.0,0.032303500920534134
10.0,0.03172120824456215
11.0,0.031168634071946144
12.0,0.030635131523013115
13.0,0.03011736087501049
14.0,0.02958623692393303
15.0,0.02907557599246502
16.0,0.028569426387548447
18.0,0.027606818825006485
20.0,0.02668793313205242
22.0,0.025811156257987022
24.0,0.02496429905295372
26.0,0.024139979854226112
28.0,0.023352161049842834
30.0,0.022592706605792046
32.0,0.021869532763957977
36.0,0.020532777532935143
40.0,0.019392013549804688
44.0,0.01838849112391472
48.0,0.01744549162685871
52.0,0.01654188521206379
56.0,0.015692511573433876
60.0,0.014904366806149483
64.0,0.014167743735015392
72.0,0.012969285249710083
80.0,0.012080173008143902
88.0,0.011498996056616306
96.0,0.011249630711972713
104.0,0.010907732881605625
112.0,0.010395643301308155
120.0,0.009734168648719788
128.0,0.008821351453661919
144.0,0.007654209621250629
160.0,0.0072473036125302315
176.0,0.00679232319816947
192.0,0.00566674442961812
208.0,0.005466510076075792
224.0,0.0059496210888028145
240.0,0.006072698161005974
256.0,0.0057535129599273205
288.0,0.004574337042868137
320.0,0.004200864117592573
352.0,0.004470592364668846
384.0,0.0031132015865296125
416.0,0.001896674744784832
448.0,0.001432927674613893
480.0,0.0009784868452697992
512.0,0.00024013571965042502
576.0,-0.0007917223847471178
640.0,-0.002645645523443818
704.0,-0.0026749286334961653
768.0,-0.0010683651780709624
832.0,0.0009118788875639439
896.0,-0.0004385051433928311
960.0,-0.0012221992947161198
1024.0,0.0006604191148653626
1152.0,0.0010005913209170103
1280.0,-0.000192004517884925
1408.0,-0.00040489246021024883
1536.0,0.0003651808074209839
1664.0,0.00044531156891025603
1792.0,0.0006995052681304514
1920.0,0.001369462930597365
2048.0,0.0022013268899172544
2304.0,0.0010200573597103357
2560.0,-0.0020328371319919825
2816.0,-0.0009931452805176377
3072.0,0.00023794014123268425
3328.0,0.003595838090404868
3584.0,0.0025090586859732866
3840.0,0.0016514473827555776
4096.0,-0.0012888810597360134
4608.0,-0.0015144295757636428
5120.0,-0.0068932194262743
5632.0,0.0013492426369339228
6144.0,-0.00221612979657948
6656.0,0.002353695221245289
7168.0,-0.00450870580971241
7680.0,-0.0013307573972269893
8192.0,-0.003989302087575197
9216.0,-0.0003123274655081332
10240.0,-0.0003187179972883314
11264.0,-0.003410123288631439
12288.0,0.00394334364682436
13312.0,0.001853687223047018
14336.0,-0.000891458592377603
end
