version,3.0
numOfCh,1
type,point
parent_name,40-cuts
ch_type,1_1
kcount,1
numberNandB,1
brightnessNandB,1
carpet pos,0
pc,0
Time (ms),CH1 Auto-Correlation
1.0,0.01947612501680851
2.0,0.019064847379922867
3.0,0.01867370307445526
4.0,0.01830480620265007
5.0,0.01794278994202614
6.0,0.01759275421500206
7.0,0.017249833792448044
8.0,0.016921887174248695
9.0,0.01660529337823391
10.0,0.016298845410346985
11.0,0.01599794812500477
12.0,0.015695951879024506
13.0,0.01540109422057867
14.0,0.015113802626729012
15.0,0.014836804009974003
16.0,0.014575306326150894
18.0,0.014095492660999298
20.0,0.013645960949361324
22.0,0.013234267011284828
24.0,0.01285831443965435
26.0,0.012523563578724861
28.0,0.012218286283314228
30.0,0.01192338578402996
32.0,0.011640247888863087
36.0,0.011123770847916603
40.0,0.010607630014419556
44.0,0.01008083950728178
48.0,0.009572445414960384
52.0,0.009102515876293182
56.0,0.008632225915789604
60.0,0.008199803531169891
64.0,0.007793967146426439
72.0,0.007020129356533289
80.0,0.006229784805327654
88.0,0.005651401821523905
96.0,0.005273829679936171
104.0,0.004966366104781628
112.0,0.004671542439609766
120.0,0.00419920589774847
128.0,0.003637910122051835
144.0,0.0030655781738460064
160.0,0.0024637666065245867
176.0,0.0019388440996408463
192.0,0.001683383365161717
208.0,0.0015746726421639323
224.0,0.0013509633718058467
240.0,0.0011213083053007722
256.0,0.0010733135277405381
288.0,0.001003469806164503
320.0,0.0009347873856313527
352.0,0.0006257967907004058
384.0,0.0006213181186467409
416.0,0.0003970162943005562
448.0,0.00031532373395748436
480.0,0.000980703509412706
512.0,0.0007850369438529015
576.0,-2.0320225303294137e-05
640.0,-7.129291770979762e-05
704.0,0.0002031355252256617
768.0,0.00042275269515812397
832.0,-0.00011900886602234095
896.0,-0.0011843349784612656
960.0,-0.0016225248109549284
1024.0,-0.0009961141040548682
1152.0,-0.000216624146560207
1280.0,0.0005004614940844476
1408.0,0.0005102372961118817
1536.0,0.0012632682919502258
1664.0,0.0006558204186148942
1792.0,-0.0012401097919791937
1920.0,-0.001212565810419619
2048.0,-0.00013151986058801413
2304.0,-0.0001659156259847805
2560.0,-0.00024160723842214793
2816.0,0.0005508155445568264
3072.0,-0.0009170804405584931
3328.0,-0.0008347491384483874
3584.0,0.00010017534077633172
3840.0,9.605329250916839e-05
4096.0,-0.0006677103228867054
4608.0,-0.0013893147697672248
5120.0,-0.0009267035638913512
5632.0,-0.0016353961545974016
6144.0,-0.002065145643427968
6656.0,0.0008797500049695373
7168.0,0.0014909375458955765
7680.0,1.193628031614935e-05
8192.0,0.0009812518255785108
9216.0,-0.00045126929762773216
10240.0,0.001347517827525735
11264.0,0.0002123947924701497
12288.0,-0.0024042376317083836
13312.0,-0.00016283882723655552
14336.0,0.002861090237274766
end
