version,3.0
numOfCh,1
type,point
parent_name,40-cuts
ch_type,1_1
kcount,1
numberNandB,1
brightnessNandB,1
carpet pos,0
pc,0
Time (ms),CH1 Auto-Correlation
1.0,0.02358323335647583
2.0,0.02309875376522541
3.0,0.022631973028182983
4.0,0.02218327857553959
5.0,0.021746600046753883
6.0,0.02133658155798912
7.0,0.020963499322533607
8.0,0.020597532391548157
9.0,0.02023197151720524
10.0,0.0198789332062006
11.0,0.01955305226147175
12.0,0.019226834177970886
13.0,0.01890687830746174
14.0,0.018590057268738747
15.0,0.018276086077094078
16.0,0.017964882776141167
18.0,0.01730947010219097
20.0,0.01670547015964985
22.0,0.016144689172506332
24.0,0.015600173734128475
26.0,0.015057300217449665
28.0,0.01456564012914896
30.0,0.014092138037085533
32.0,0.013611032627522945
36.0,0.012735474854707718
40.0,0.011953017674386501
44.0,0.011219370178878307
48.0,0.010590380057692528
52.0,0.0100642004981637
56.0,0.009531554765999317
60.0,0.009016240946948528
64.0,0.008517627604305744
72.0,0.007608114276081324
80.0,0.006849587894976139
88.0,0.006120546720921993
96.0,0.00556153105571866
104.0,0.004982404876500368
112.0,0.004563287831842899
120.0,0.004263843409717083
128.0,0.0040162126533687115
144.0,0.0035486998967826366
160.0,0.003138898639008403
176.0,0.0028541923966258764
192.0,0.0024818999227136374
208.0,0.0020548957400023937
224.0,0.002084342297166586
240.0,0.0021674875169992447
256.0,0.0021587989758700132
288.0,0.0017822613008320332
320.0,0.001386938150972128
352.0,0.0002083523286273703
384.0,-0.0004983237013220787
416.0,-0.0005244702915661037
448.0,-0.0010479835327714682
480.0,-0.0016993950121104717
512.0,-0.002244375878944993
576.0,-0.0014748306712135673
640.0,-0.0012737654615193605
704.0,-0.002009317046031356
768.0,-0.0017029609298333526
832.0,-0.001629590056836605
896.0,-0.0012073981342837214
960.0,0.0003470072115305811
1024.0,0.0016654975479468703
1152.0,0.0005449035088531673
1280.0,-0.0005637534777633846
1408.0,0.0005494634388014674
1536.0,0.0003527929657138884
1664.0,-0.000889037037268281
1792.0,-0.0003966303775086999
1920.0,-0.00039315730100497603
2048.0,-0.0007453022408299148
2304.0,0.0015552727272734046
2560.0,0.002177943242713809
2816.0,-0.0001865732338046655
3072.0,-0.0003356779052410275
3328.0,0.0019092601723968983
3584.0,0.0020955796353518963
3840.0,-0.0016733998199924827
4096.0,-0.0028615521732717752
4608.0,-0.00021499207650776953
5120.0,-7.462923804268939e-06
5632.0,-0.0014033715706318617
6144.0,0.0014843059470877051
6656.0,-0.0013552552554756403
7168.0,-0.001985653303563595
7680.0,-0.0005991982179693878
8192.0,-0.0002566299808677286
9216.0,-0.0017400869401171803
10240.0,-0.0012674910249188542
11264.0,0.0014182255836203694
12288.0,-0.0006138725439086556
13312.0,0.001997730229049921
14336.0,0.0014247482176870108
end
