version,3.0
numOfCh,1
type,point
parent_name,40-cuts
ch_type,1_1
kcount,1
numberNandB,1
brightnessNandB,1
carpet pos,0
pc,0
Time (ms),CH1 Auto-Correlation
1.0,0.03224848210811615
2.0,0.031576693058013916
3.0,0.030921628698706627
4.0,0.03030233271420002
5.0,0.02972426265478134
6.0,0.02914803847670555
7.0,0.02860230579972267
8.0,0.02806505374610424
9.0,0.027548424899578094
10.0,0.027037782594561577
11.0,0.026532210409641266
12.0,0.02603616937994957
13.0,0.02553372271358967
14.0,0.02505533955991268
15.0,0.024599360302090645
16.0,0.02415909431874752
18.0,0.023357171565294266
20.0,0.022643957287073135
22.0,0.02196996659040451
24.0,0.02132112719118595
26.0,0.02068008854985237
28.0,0.02003638818860054
30.0,0.019420022144913673
32.0,0.0188581645488739
36.0,0.017836930230259895
40.0,0.016962764784693718
44.0,0.016167638823390007
48.0,0.015340285375714302
52.0,0.014549408107995987
56.0,0.013836361467838287
60.0,0.013240951113402843
64.0,0.012683332897722721
72.0,0.011740174144506454
80.0,0.010725378058850765
88.0,0.009833020158112049
96.0,0.009269648231565952
104.0,0.008956436067819595
112.0,0.008414593525230885
120.0,0.007806951645761728
128.0,0.007058558985590935
144.0,0.0058880881406366825
160.0,0.004707982763648033
176.0,0.003658016910776496
192.0,0.0033321110531687737
208.0,0.0032373499125242233
224.0,0.0029969147872179747
240.0,0.0030318889766931534
256.0,0.002673520939424634
288.0,0.001479100319556892
320.0,0.0010110606672242284
352.0,-1.6074998711701483e-05
384.0,-0.0008817257476039231
416.0,-0.0018656657775864005
448.0,-0.0019296359969303012
480.0,-0.0016451732954010367
512.0,-0.0007588567095808685
576.0,-0.00024286258849315345
640.0,0.0003118488530162722
704.0,-0.0017667253268882632
768.0,-0.001527238404378295
832.0,-0.0025934118311852217
896.0,-0.0032166545279324055
960.0,-0.001959396991878748
1024.0,-0.0010150877060368657
1152.0,0.0012816238449886441
1280.0,0.00035166522138752043
1408.0,-0.0010378978913649917
1536.0,0.000961346784606576
1664.0,0.0004445007652975619
1792.0,0.0015524325426667929
1920.0,0.0009021080331876874
2048.0,-0.0021785730496048927
2304.0,-7.217385427793488e-05
2560.0,-0.0005425623385235667
2816.0,0.0001105549672502093
3072.0,0.0006342062260955572
3328.0,-0.0009466909104958177
3584.0,0.0024160565808415413
3840.0,0.0028431883547455072
4096.0,0.0010158647783100605
4608.0,0.0005116235697641969
5120.0,-0.0001096727792173624
5632.0,0.00018722015374805778
6144.0,-0.0008682440966367722
6656.0,-0.0035116910003125668
7168.0,0.0009846612811088562
7680.0,0.0014707378577440977
8192.0,8.007333235582337e-05
9216.0,-0.0024050255306065083
10240.0,0.00010033954458776861
11264.0,-0.0032715832348912954
12288.0,0.001239247270859778
13312.0,0.0004834695428144187
14336.0,-0.005959654692560434
end
