version,3.0
numOfCh,1
type,point
parent_name,40-cuts
ch_type,1_1
kcount,1
numberNandB,1
brightnessNandB,1
carpet pos,0
pc,0
Time (ms),CH1 Auto-Correlation
1.0,0.027467472478747368
2.0,0.026769394055008888
3.0,0.026098305359482765
4.0,0.025456760078668594
5.0,0.024828115478157997
6.0,0.024201342836022377
7.0,0.023594588041305542
8.0,0.023002199828624725
9.0,0.022448161616921425
10.0,0.021913453936576843
11.0,0.02141071856021881
12.0,0.02093186415731907
13.0,0.02047663740813732
14.0,0.020030632615089417
15.0,0.019606299698352814
16.0,0.019172459840774536
18.0,0.018310757353901863
20.0,0.017520299181342125
22.0,0.016742603853344917
24.0,0.016000596806406975
26.0,0.015326214954257011
28.0,0.01465822383761406
30.0,0.014008915983140469
32.0,0.013400462456047535
36.0,0.012311551719903946
40.0,0.011316376738250256
44.0,0.010420389473438263
48.0,0.009558829478919506
52.0,0.008832825347781181
56.0,0.008187009952962399
60.0,0.007535632699728012
64.0,0.006932471878826618
72.0,0.00619862275198102
80.0,0.005675519350916147
88.0,0.005126499105244875
96.0,0.00461428752169013
104.0,0.004009248223155737
112.0,0.0034351679496467113
120.0,0.0029961380641907454
128.0,0.0024294964969158173
144.0,0.0006655498873442411
160.0,-0.001005444210022688
176.0,-0.0017210664227604866
192.0,-0.0018448526971042156
208.0,-0.0017490650061517954
224.0,-0.001998583786189556
240.0,-0.0018523195758461952
256.0,-0.0017303701024502516
288.0,-0.0012885247124359012
320.0,-0.00023083496489562094
352.0,0.0009379102848470211
384.0,0.001532436115667224
416.0,0.00191789073869586
448.0,0.0017168327467516065
480.0,0.001416145358234644
512.0,0.0006440665456466377
576.0,-0.0010536921909078956
640.0,0.00016502884682267904
704.0,0.0001588579179951921
768.0,0.0005995274987071753
832.0,-0.00011271355469943956
896.0,0.0002622490865178406
960.0,-0.00011780157365137711
1024.0,-0.0007816607831045985
1152.0,0.0014043744886294007
1280.0,-0.0006158605683594942
1408.0,-0.0011913538910448551
1536.0,-0.00019996434275526553
1664.0,0.0004637303645722568
1792.0,0.0016970562282949686
1920.0,0.00019486830569803715
2048.0,0.00046288836165331304
2304.0,0.000846709415782243
2560.0,0.0013976915506646037
2816.0,0.0001981418317882344
3072.0,0.0006476897979155183
3328.0,-0.00157305842731148
3584.0,0.0006037643761374056
3840.0,-0.0003860490978695452
4096.0,0.0010196362854912877
4608.0,2.6814484954229556e-05
5120.0,-0.000802544120233506
5632.0,-0.0010791869135573506
6144.0,7.297559204744175e-05
6656.0,0.00045575134572573006
7168.0,-0.0004835019644815475
7680.0,-0.001010853098705411
8192.0,-0.0002476040390320122
9216.0,-0.0016551248263567686
10240.0,-0.000826263043563813
11264.0,-5.5466276535298675e-05
12288.0,-0.0010924172820523381
13312.0,0.0012824623845517635
14336.0,0.0006332268822006881
end
