version,3.0
numOfCh,1
type,point
parent_name,40-cuts
ch_type,1_1
kcount,1
numberNandB,1
brightnessNandB,1
carpet pos,0
pc,0
Time (ms),CH1 Auto-Correlation
1.0,0.06489034742116928
2.0,0.0636269822716713
3.0,0.062381304800510406
4.0,0.061148952692747116
5.0,0.05994975194334984
6.0,0.05879269912838936
7.0,0.05767517536878586
8.0,0.05660044774413109
9.0,0.05557823181152344
10.0,0.0546187199652195
11.0,0.05369492620229721
12.0,0.052775587886571884
13.0,0.05188275873661041
14.0,0.05098782107234001
15.0,0.05008932948112488
16.0,0.04922022670507431
18.0,0.04757138714194298
20.0,0.04601229354739189
22.0,0.044568922370672226
24.0,0.04325970262289047
26.0,0.0419909730553627
28.0,0.040801383554935455
30.0,0.03966810181736946
32.0,0.038533639162778854
36.0,0.03627557307481766
40.0,0.03426255285739899
44.0,0.03250237926840782
48.0,0.030993808060884476
52.0,0.02952740527689457
56.0,0.028211666271090508
60.0,0.02703564055263996
64.0,0.02592972293496132
72.0,0.024173995479941368
80.0,0.022682035341858864
88.0,0.020826144143939018
96.0,0.019140958786010742
104.0,0.017415925860404968
112.0,0.01575559936463833
120.0,0.014009923674166203
128.0,0.012600584886968136
144.0,0.010168569162487984
160.0,0.008555250242352486
176.0,0.007833335548639297
192.0,0.007072824519127607
208.0,0.006643503904342651
224.0,0.006195542402565479
240.0,0.006100332364439964
256.0,0.006302745081484318
288.0,0.004230787046253681
320.0,0.0022676105145365
352.0,0.002439528238028288
384.0,0.0012222898658365011
416.0,0.0006693866453133523
448.0,0.0020147559698671103
480.0,6.223726813914254e-05
512.0,-0.00026777861057780683
576.0,-0.0018895359244197607
640.0,-0.0041086687706410885
704.0,-0.008917639963328838
768.0,-0.010056192986667156
832.0,-0.01003988366574049
896.0,-0.007976683788001537
960.0,-0.010129612870514393
1024.0,-0.010300579480826855
1152.0,-0.00021582198678515851
1280.0,0.003135270904749632
1408.0,0.0034985358361154795
1536.0,0.0009796334197744727
1664.0,0.005950542166829109
1792.0,0.0050806389190256596
1920.0,0.004324117209762335
2048.0,0.0018064576433971524
2304.0,-0.006902205757796764
2560.0,-0.0010247568134218454
2816.0,-0.004079645033925772
3072.0,-0.0015426741447299719
3328.0,0.002009527524933219
3584.0,0.0006412810180336237
3840.0,-3.495700411804137e-06
4096.0,-0.0036006844602525234
4608.0,-0.0020543665159493685
5120.0,-0.002690193708986044
5632.0,-0.000385478138923645
6144.0,0.001644075266085565
6656.0,0.005186162423342466
7168.0,-0.00401103962212801
7680.0,0.00329840206541121
8192.0,0.004661874379962683
9216.0,-0.00318093691021204
10240.0,-0.0024406765587627888
11264.0,-0.001513441326096654
12288.0,-0.00048724119551479816
13312.0,0.00481433467939496
14336.0,-0.0027076576370745897
end
