version,3.0
numOfCh,1
type,point
parent_name,40-cuts
ch_type,1_1
kcount,1
numberNandB,1
brightnessNandB,1
carpet pos,0
pc,0
Time (ms),CH1 Auto-Correlation
1.0,0.06890366971492767
2.0,0.06755787134170532
3.0,0.06628691405057907
4.0,0.065043605864048
5.0,0.06382192671298981
6.0,0.06265682727098465
7.0,0.061520785093307495
8.0,0.06042495742440224
9.0,0.059351131319999695
10.0,0.058266427367925644
11.0,0.05723359435796738
12.0,0.0562070794403553
13.0,0.055199094116687775
14.0,0.05419236421585083
15.0,0.05321672931313515
16.0,0.05229276418685913
18.0,0.05049686133861542
20.0,0.04878237843513489
22.0,0.04715438559651375
24.0,0.045660074800252914
26.0,0.04434765502810478
28.0,0.04313772916793823
30.0,0.04203459247946739
32.0,0.04097681865096092
36.0,0.038828860968351364
40.0,0.03661753609776497
44.0,0.034542493522167206
48.0,0.03267289698123932
52.0,0.030922014266252518
56.0,0.029377944767475128
60.0,0.02817355841398239
64.0,0.026919638738036156
72.0,0.024606944993138313
80.0,0.022034406661987305
88.0,0.019406070932745934
96.0,0.01655520871281624
104.0,0.01403002254664898
112.0,0.012381256558001041
120.0,0.011203961446881294
128.0,0.010059408843517303
144.0,0.008160039782524109
160.0,0.006823735777288675
176.0,0.005304436199367046
192.0,0.004794395063072443
208.0,0.005559518467634916
224.0,0.005905403755605221
240.0,0.00458606006577611
256.0,0.0024400565307587385
288.0,0.0011166406329721212
320.0,-0.00016628700541332364
352.0,-0.0003383689618203789
384.0,-0.0001833517599152401
416.0,-0.0004233202780596912
448.0,0.00039869261672720313
480.0,0.0018677031621336937
512.0,0.004979956429451704
576.0,0.007580285891890526
640.0,0.005270027089864016
704.0,0.0053618368692696095
768.0,0.002140808617696166
832.0,-0.0006558977183885872
896.0,-0.000544536451343447
960.0,-0.0021184091456234455
1024.0,-0.0033843345008790493
1152.0,-0.00686298543587327
1280.0,-0.0062642875127494335
1408.0,-0.0005884057027287781
1536.0,0.00011661888856906444
1664.0,-0.0007281288271769881
1792.0,-0.00567592354491353
1920.0,-0.0011527639580890536
2048.0,0.0029737951699644327
2304.0,0.004925908520817757
2560.0,0.0025688905734568834
2816.0,-0.003962341230362654
3072.0,-0.004861854482442141
3328.0,-0.0024082446470856667
3584.0,-0.005817357916384935
3840.0,-0.010151293128728867
4096.0,0.0008685124921612442
4608.0,0.0016608336009085178
5120.0,-0.0014494366478174925
5632.0,-0.001345112337730825
6144.0,-0.003884528297930956
6656.0,0.0011007125722244382
7168.0,0.0001487082481617108
7680.0,0.00028530892450362444
8192.0,0.002173501532524824
9216.0,0.0067314449697732925
10240.0,-0.0017878839280456305
11264.0,-0.0019562263041734695
12288.0,-0.004143915604799986
13312.0,-0.0016364523908123374
14336.0,0.002975426148623228
end
