version,3.0
numOfCh,1
type,point
parent_name,40-cuts
ch_type,1_1
kcount,1
numberNandB,1
brightnessNandB,1
carpet pos,0
pc,0
Time (ms),CH1 Auto-Correlation
1.0,0.027460362762212753
2.0,0.02684755250811577
3.0,0.026252685114741325
4.0,0.025660976767539978
5.0,0.025082627311348915
6.0,0.024537334218621254
7.0,0.024002380669116974
8.0,0.023489609360694885
9.0,0.022983284667134285
10.0,0.02248728647828102
11.0,0.022014668211340904
12.0,0.021542534232139587
13.0,0.021083883941173553
14.0,0.020658375695347786
15.0,0.020242251455783844
16.0,0.01983693242073059
18.0,0.019086578860878944
20.0,0.01839541643857956
22.0,0.017757007852196693
24.0,0.01714949496090412
26.0,0.016548577696084976
28.0,0.01597967930138111
30.0,0.015431007370352745
32.0,0.014928351156413555
36.0,0.013978328555822372
40.0,0.013107641600072384
44.0,0.012289169244468212
48.0,0.011594644747674465
52.0,0.010941551066935062
56.0,0.010290617123246193
60.0,0.009692463092505932
64.0,0.00917813740670681
72.0,0.008342585526406765
80.0,0.0074477121233940125
88.0,0.006471836473792791
96.0,0.005716351326555014
104.0,0.005068900994956493
112.0,0.004505807533860207
120.0,0.003932734485715628
128.0,0.0034640945959836245
144.0,0.003463755827397108
160.0,0.0035959817469120026
176.0,0.0028332562651485205
192.0,0.001890948275104165
208.0,0.0014015760971233249
224.0,0.0011953880311921239
240.0,0.0008808186976239085
256.0,0.0003997330495622009
288.0,0.00014064894639886916
320.0,-0.0003568689862731844
352.0,-0.0008727462845854461
384.0,0.0002796924964059144
416.0,0.001172879827208817
448.0,0.0018972187535837293
480.0,0.0012230552965775132
512.0,0.0010868462268263102
576.0,0.0015428606420755386
640.0,0.0017466022400185466
704.0,0.0015395579393953085
768.0,0.0006098095909692347
832.0,0.00018507491040509194
896.0,0.0015005383174866438
960.0,0.0005627642967738211
1024.0,-0.0007016391609795392
1152.0,-0.0012277497444301844
1280.0,-0.0016812848625704646
1408.0,-0.0010915381135419011
1536.0,-0.002299595857039094
1664.0,-0.0003727099683601409
1792.0,-0.0011357177281752229
1920.0,0.002145585371181369
2048.0,0.00280425394885242
2304.0,-6.911314994795248e-05
2560.0,0.0013456762535497546
2816.0,0.0006399698322638869
3072.0,0.00013287883484736085
3328.0,0.0007454289007000625
3584.0,0.00034787028562277555
3840.0,0.0005035370122641325
4096.0,0.002090172842144966
4608.0,0.0010232640197500587
5120.0,-0.0007351003005169332
5632.0,-0.001404262613505125
6144.0,-0.0020234400872141123
6656.0,-9.64389109867625e-05
7168.0,0.0014115613885223866
7680.0,0.0010308295022696257
8192.0,-0.0002709078253246844
9216.0,-0.0027097933925688267
10240.0,-0.001879861461929977
11264.0,-0.0011183429742231965
12288.0,-3.7709363823523745e-05
13312.0,-0.0032499872613698244
14336.0,-0.00017633178504183888
end
