version,3.0
numOfCh,1
type,point
parent_name,40-cuts
ch_type,1_1
kcount,1
numberNandB,1
brightnessNandB,1
carpet pos,0
pc,0
Time (ms),CH1 Auto-Correlation
1.0,0.06837271898984909
2.0,0.06696201860904694
3.0,0.0655621886253357
4.0,0.06419939547777176
5.0,0.06288609653711319
6.0,0.06160445883870125
7.0,0.06038561835885048
8.0,0.05922519788146019
9.0,0.05813547596335411
10.0,0.057105571031570435
11.0,0.05614278465509415
12.0,0.05519179627299309
13.0,0.054230887442827225
14.0,0.053293850272893906
15.0,0.05241413414478302
16.0,0.05151694267988205
18.0,0.049838822335004807
20.0,0.04826303571462631
22.0,0.04673673212528229
24.0,0.04520708695054054
26.0,0.043654948472976685
28.0,0.04208407923579216
30.0,0.04061325266957283
32.0,0.03933575749397278
36.0,0.03717968240380287
40.0,0.03535207733511925
44.0,0.033740170300006866
48.0,0.03229312598705292
52.0,0.031118322163820267
56.0,0.03034059703350067
60.0,0.029539955779910088
64.0,0.02870853990316391
72.0,0.027104724198579788
80.0,0.025536416098475456
88.0,0.02393207512795925
96.0,0.022087855264544487
104.0,0.020088592544198036
112.0,0.018582500517368317
120.0,0.017592333257198334
128.0,0.017007965594530106
144.0,0.01569320447742939
160.0,0.013689708895981312
176.0,0.010857244953513145
192.0,0.008526266552507877
208.0,0.007591677829623222
224.0,0.006936956197023392
240.0,0.005522958934307098
256.0,0.005234777927398682
288.0,0.005533796269446611
320.0,0.006454732269048691
352.0,0.007246154360473156
384.0,0.00570104131475091
416.0,0.00645361328497529
448.0,0.006383900996297598
480.0,0.006578367203474045
512.0,0.006910503376275301
576.0,0.008964961394667625
640.0,0.013336382806301117
704.0,0.011698208749294281
768.0,0.011594231240451336
832.0,0.009405947290360928
896.0,0.007976679131388664
960.0,0.0061193001456558704
1024.0,0.006043688394129276
1152.0,0.005238943267613649
1280.0,0.001497306628152728
1408.0,0.005590016022324562
1536.0,0.008022039197385311
1664.0,0.009721295908093452
1792.0,0.013152452185750008
1920.0,0.004660568665713072
2048.0,0.006762922275811434
2304.0,0.00949681643396616
2560.0,0.009595814161002636
2816.0,0.003814786672592163
3072.0,0.007389680948108435
3328.0,0.007011293433606625
3584.0,0.002446491736918688
3840.0,0.003953961189836264
4096.0,0.002358157653361559
4608.0,-0.0017030745511874557
5120.0,-0.0013633202761411667
5632.0,-6.517853762488812e-05
6144.0,0.0002967095060739666
6656.0,-0.0067347572185099125
7168.0,-0.010273808613419533
7680.0,-0.008910859003663063
8192.0,-0.00813210103660822
9216.0,-0.012445996515452862
10240.0,-0.008250773884356022
11264.0,-0.011501026339828968
12288.0,-0.009967396035790443
13312.0,-0.00596666568890214
14336.0,-0.008422436192631721
end
