version,3.0
numOfCh,1
type,point
parent_name,40-cuts
ch_type,1_1
kcount,1
numberNandB,1
brightnessNandB,1
carpet pos,0
pc,0
Time (ms),CH1 Auto-Correlation
1.0,0.02202540822327137
2.0,0.021559692919254303
3.0,0.021105218678712845
4.0,0.02066592499613762
5.0,0.0202314630150795
6.0,0.019806649535894394
7.0,0.01939298026263714
8.0,0.018986636772751808
9.0,0.01861356943845749
10.0,0.018254363909363747
11.0,0.017911044880747795
12.0,0.017572740092873573
13.0,0.0172429122030735
14.0,0.016922712326049805
15.0,0.01660567708313465
16.0,0.016297809779644012
18.0,0.015731077641248703
20.0,0.015199229121208191
22.0,0.014692683704197407
24.0,0.014198500663042068
26.0,0.013724860735237598
28.0,0.013289262540638447
30.0,0.012884545139968395
32.0,0.012522181496024132
36.0,0.011900373734533787
40.0,0.011313757859170437
44.0,0.010757068172097206
48.0,0.010218177922070026
52.0,0.009713327512145042
56.0,0.009204612113535404
60.0,0.008698691613972187
64.0,0.008211562409996986
72.0,0.007326107006520033
80.0,0.0065875425934791565
88.0,0.00589161878451705
96.0,0.005286875646561384
104.0,0.004849501885473728
112.0,0.00458393944427371
120.0,0.004420027136802673
128.0,0.004159078001976013
144.0,0.003382550785318017
160.0,0.0029061189852654934
176.0,0.002778678899630904
192.0,0.00273631582967937
208.0,0.0025323929730802774
224.0,0.002324490575119853
240.0,0.0021991212852299213
256.0,0.0019963730592280626
288.0,0.0016719436971470714
320.0,0.0009564212523400784
352.0,-1.7969148757401854e-05
384.0,-0.00015809788601472974
416.0,0.00017220911104232073
448.0,0.0002529092598706484
480.0,3.403720984351821e-05
512.0,0.0009470875957049429
576.0,0.0014722243649885058
640.0,0.0004402470076456666
704.0,-5.1732688007177785e-05
768.0,-0.0007071181898936629
832.0,-0.0011738553876057267
896.0,-0.001003619865514338
960.0,0.000395183073123917
1024.0,0.0012612300924956799
1152.0,0.0011177811538800597
1280.0,0.0015743006952106953
1408.0,0.001505485037341714
1536.0,6.802326970500872e-05
1664.0,-0.0015161645133048296
1792.0,-0.001985788345336914
1920.0,-0.0032798065803945065
2048.0,-0.0008466555736958981
2304.0,0.0009629194973967969
2560.0,0.00011282917694188654
2816.0,-0.00042758099152706563
3072.0,-0.001006057602353394
3328.0,0.0007575218332931399
3584.0,0.001075532054528594
3840.0,0.0002630699600558728
4096.0,-0.001747144153341651
4608.0,0.0007273321971297264
5120.0,-0.0007795423152856529
5632.0,0.0016708736075088382
6144.0,0.0006224935641512275
6656.0,1.1343584446876775e-05
7168.0,1.5897850289547932e-06
7680.0,-0.001617714762687683
8192.0,-9.87219755188562e-06
9216.0,-0.0005948493489995599
10240.0,-0.0004267177719157189
11264.0,-0.0005054619978182018
12288.0,-0.001501549151726067
13312.0,-0.0034731582272797823
14336.0,0.0015301576349884272
end
