version,3.0
numOfCh,1
type,point
parent_name,40-cuts
ch_type,1_1
kcount,1
numberNandB,1
brightnessNandB,1
carpet pos,0
pc,0
Time (ms),CH1 Auto-Correlation
1.0,0.07275031507015228
2.0,0.07146772742271423
3.0,0.0702056810259819
4.0,0.06896228343248367
5.0,0.06775731593370438
6.0,0.06667163223028183
7.0,0.06562063097953796
8.0,0.06460686773061752
9.0,0.06360957026481628
10.0,0.06258051842451096
11.0,0.06160607933998108
12.0,0.060663819313049316
13.0,0.05973538011312485
14.0,0.05881033465266228
15.0,0.05789324268698692
16.0,0.05701369419693947
18.0,0.055363062769174576
20.0,0.05375653877854347
22.0,0.052158210426568985
24.0,0.05065065622329712
26.0,0.04920056089758873
28.0,0.047800641506910324
30.0,0.04647161439061165
32.0,0.04525775834918022
36.0,0.04299772530794144
40.0,0.04072277247905731
44.0,0.038447193801403046
48.0,0.036553461104631424
52.0,0.034838560968637466
56.0,0.03329627960920334
60.0,0.03189535066485405
64.0,0.030498476698994637
72.0,0.028059182688593864
80.0,0.02605382725596428
88.0,0.02432449348270893
96.0,0.02228008210659027
104.0,0.020091114565730095
112.0,0.018118010833859444
120.0,0.016601689159870148
128.0,0.015780014917254448
144.0,0.014369181357324123
160.0,0.013656707480549812
176.0,0.013185767456889153
192.0,0.012687734328210354
208.0,0.011865722015500069
224.0,0.010884291492402554
240.0,0.010906865820288658
256.0,0.011211710050702095
288.0,0.009771882556378841
320.0,0.009066641330718994
352.0,0.007845405489206314
384.0,0.005107189528644085
416.0,0.0038790663238614798
448.0,0.0026364487130194902
480.0,6.777549424441531e-05
512.0,0.00015893772069830447
576.0,-0.0025638563092797995
640.0,-0.0029120114631950855
704.0,-0.005344774108380079
768.0,-0.006205017678439617
832.0,-0.006465384270995855
896.0,-0.004747510887682438
960.0,-0.0031926825176924467
1024.0,-0.002884532092139125
1152.0,-0.0044437251053750515
1280.0,0.0005096523673273623
1408.0,0.0004456935275811702
1536.0,0.0003609557752497494
1664.0,-0.0008359261555597186
1792.0,0.003475289326161146
1920.0,-0.00039435637881979346
2048.0,0.0004904143279418349
2304.0,0.0018263516249135137
2560.0,0.005015172995626926
2816.0,-0.002755495021119714
3072.0,-0.005194976460188627
3328.0,-0.009478705935180187
3584.0,-0.005610204301774502
3840.0,-0.005015717353671789
4096.0,-0.0013224913273006678
4608.0,0.0043938965536653996
5120.0,0.0014605544274672866
5632.0,-0.003973400220274925
6144.0,-0.0015754728810861707
6656.0,0.0002091670612571761
7168.0,-0.000928142515476793
7680.0,-0.001809755340218544
8192.0,-0.0061027295887470245
9216.0,5.1661525503732264e-05
10240.0,-0.0018091769888997078
11264.0,0.0035906166303902864
12288.0,0.003453201148658991
13312.0,-0.0036451902706176043
14336.0,0.00033924230956472456
end
