version,3.0
numOfCh,1
type,point
parent_name,40-cuts
ch_type,1_1
kcount,1
numberNandB,1
brightnessNandB,1
carpet pos,0
pc,0
Time (ms),CH1 Auto-Correlation
1.0,0.023157089948654175
2.0,0.022686973214149475
3.0,0.022235479205846786
4.0,0.021802248433232307
5.0,0.02137458510696888
6.0,0.020957859233021736
7.0,0.020547205582261086
8.0,0.02014169655740261
9.0,0.019736139103770256
10.0,0.01934155635535717
11.0,0.018956445157527924
12.0,0.018575729802250862
13.0,0.018208706751465797
14.0,0.01785634644329548
15.0,0.017512179911136627
16.0,0.017178883776068687
18.0,0.016522081568837166
20.0,0.01590774953365326
22.0,0.015330402180552483
24.0,0.014803965575993061
26.0,0.01428154855966568
28.0,0.01374105829745531
30.0,0.0132334278896451
32.0,0.012761866673827171
36.0,0.011864801868796349
40.0,0.011035633273422718
44.0,0.010240965522825718
48.0,0.009508681483566761
52.0,0.008849221281707287
56.0,0.008223759941756725
60.0,0.007677451241761446
64.0,0.0072142197750508785
72.0,0.006411950569599867
80.0,0.0057816943153738976
88.0,0.0051850867457687855
96.0,0.004775295965373516
104.0,0.004525585565716028
112.0,0.004329439252614975
120.0,0.00410418352112174
128.0,0.003833357710391283
144.0,0.0032839737832546234
160.0,0.002995341783389449
176.0,0.0026868334971368313
192.0,0.002307170070707798
208.0,0.001817749347537756
224.0,0.0012349695898592472
240.0,0.0005292677087709308
256.0,-0.00019447073282208294
288.0,-0.0005127046606503427
320.0,-0.00012784122372977436
352.0,2.0458608560147695e-05
384.0,0.0005537225515581667
416.0,7.942283264128491e-05
448.0,-0.00013114776811562479
480.0,0.00012885227624792606
512.0,0.0003443951136432588
576.0,-0.0003871851949952543
640.0,-0.0018411135533824563
704.0,-0.0008199376752600074
768.0,-0.0009150781552307308
832.0,-0.0008441850077360868
896.0,-0.0007358599686995149
960.0,-5.1724141485465225e-06
1024.0,6.108103116275743e-05
1152.0,-0.001308147213421762
1280.0,-0.00114370696246624
1408.0,0.0002736962051130831
1536.0,0.0011966211022809148
1664.0,7.360201561823487e-05
1792.0,0.0008926675654947758
1920.0,0.0009342231787741184
2048.0,0.0007757133571431041
2304.0,-0.001326122903265059
2560.0,-0.0011093004141002893
2816.0,-0.0004947154084220529
3072.0,0.00030587136279791594
3328.0,0.00036566934431903064
3584.0,0.002438221825286746
3840.0,9.399590635439381e-05
4096.0,-0.0012566759251058102
4608.0,0.0004148119769524783
5120.0,-0.0007467352552339435
5632.0,-0.0010540387593209743
6144.0,-0.0016666051233187318
6656.0,-0.0009824810549616814
7168.0,-0.00018130942771676928
7680.0,-0.00023463940306100994
8192.0,0.0013109237188473344
9216.0,-1.0965003639284987e-05
10240.0,6.9502789301623125e-06
11264.0,0.0010675686644390225
12288.0,0.00038908800343051553
13312.0,-0.0008692289120517671
14336.0,0.0008983540465123951
end
