version,3.0
numOfCh,1
type,point
parent_name,40-cuts
ch_type,1_1
kcount,1
numberNandB,1
brightnessNandB,1
carpet pos,0
pc,0
Time (ms),CH1 Auto-Correlation
1.0,0.0732201337814331
2.0,0.07194402068853378
3.0,0.07068503648042679
4.0,0.06948775053024292
5.0,0.0683174580335617
6.0,0.06717413663864136
7.0,0.0660652220249176
8.0,0.06498219072818756
9.0,0.06394869834184647
10.0,0.06295474618673325
11.0,0.0619717538356781
12.0,0.061005063354969025
13.0,0.06008659675717354
14.0,0.05919065326452255
15.0,0.05833949148654938
16.0,0.05751897022128105
18.0,0.055994171649217606
20.0,0.054519351571798325
22.0,0.05307837948203087
24.0,0.051678966730833054
26.0,0.050333477556705475
28.0,0.04909747838973999
30.0,0.04801474139094353
32.0,0.04698970168828964
36.0,0.045008644461631775
40.0,0.04313039407134056
44.0,0.04131085053086281
48.0,0.039591141045093536
52.0,0.03791717439889908
56.0,0.036113131791353226
60.0,0.03433874621987343
64.0,0.032538041472435
72.0,0.029497552663087845
80.0,0.02697204425930977
88.0,0.024897320196032524
96.0,0.02312425523996353
104.0,0.021260498091578484
112.0,0.019576111808419228
120.0,0.018025074154138565
128.0,0.016529012471437454
144.0,0.014020313508808613
160.0,0.011572123505175114
176.0,0.009699984453618526
192.0,0.008588260039687157
208.0,0.00800760742276907
224.0,0.007379468996077776
240.0,0.006843002047389746
256.0,0.0059002963826060295
288.0,0.003915734589099884
320.0,0.0029434196185320616
352.0,0.004804995376616716
384.0,0.006816069595515728
416.0,0.008128521963953972
448.0,0.0061200447380542755
480.0,0.004060788080096245
512.0,-0.0004595688951667398
576.0,-0.0078904302790761
640.0,-0.011706359684467316
704.0,-0.010369116440415382
768.0,-0.011713691987097263
832.0,-0.011162368580698967
896.0,-0.010664265602827072
960.0,-0.011339192278683186
1024.0,-0.007975926622748375
1152.0,-0.0016354285180568695
1280.0,-0.0027509124483913183
1408.0,0.0025693560019135475
1536.0,0.0072058397345244884
1664.0,0.010480132885277271
1792.0,0.007040196564048529
1920.0,0.004155485425144434
2048.0,0.001704560243524611
2304.0,-0.006744257640093565
2560.0,-0.011198029853403568
2816.0,-0.006878109183162451
3072.0,0.005445473361760378
3328.0,0.00909421406686306
3584.0,0.010755387134850025
3840.0,-0.007746096700429916
4096.0,-0.011205478571355343
4608.0,-0.006145977880805731
5120.0,0.0016584446420893073
5632.0,-0.002910497598350048
6144.0,-0.0006295430939644575
6656.0,0.010161305777728558
7168.0,0.0013441615737974644
7680.0,0.0005986083997413516
8192.0,0.0007510785362683237
9216.0,-0.0012337089283391833
10240.0,0.0011870138114318252
11264.0,-0.004841766320168972
12288.0,0.0012342287227511406
13312.0,0.0017239870503544807
14336.0,-0.0023440136574208736
end
