version,3.0
numOfCh,1
type,point
parent_name,40-cuts
ch_type,1_1
kcount,1
numberNandB,1
brightnessNandB,1
carpet pos,0
pc,0
Time (ms),CH1 Auto-Correlation
1.0,0.033566199243068695
2.0,0.03293193131685257
3.0,0.03231028467416763
4.0,0.03170739859342575
5.0,0.03111157938838005
6.0,0.03053363412618637
7.0,0.029959699138998985
8.0,0.029412077739834785
9.0,0.028875453397631645
10.0,0.02833567000925541
11.0,0.027819877490401268
12.0,0.02730868197977543
13.0,0.026790836825966835
14.0,0.02627638913691044
15.0,0.025791147723793983
16.0,0.02530815452337265
18.0,0.024362092837691307
20.0,0.02350255474448204
22.0,0.02271563746035099
24.0,0.021969985216856003
26.0,0.0212517362087965
28.0,0.020540598779916763
30.0,0.019826993346214294
32.0,0.019165514037013054
36.0,0.01794620230793953
40.0,0.01687122881412506
44.0,0.0158963855355978
48.0,0.01505135279148817
52.0,0.014296416193246841
56.0,0.013535508885979652
60.0,0.012858296744525433
64.0,0.012262716889381409
72.0,0.011078904382884502
80.0,0.010079455561935902
88.0,0.009160508401691914
96.0,0.008156935684382915
104.0,0.007236912846565247
112.0,0.0060828691348433495
120.0,0.005086902529001236
128.0,0.004244837444275618
144.0,0.0035566457081586123
160.0,0.00404006615281105
176.0,0.004093608818948269
192.0,0.0036149618681520224
208.0,0.0030436546076089144
224.0,0.0027660070918500423
240.0,0.002483689459040761
256.0,0.0028901922050863504
288.0,0.0025517905596643686
320.0,0.00218614237383008
352.0,0.002417587907984853
384.0,0.0022678470704704523
416.0,0.0016777269775047898
448.0,0.0017374515300616622
480.0,0.000714703812263906
512.0,1.2299253285164014e-05
576.0,-0.00013471522834151983
640.0,-0.0003292930778115988
704.0,-0.0013281471328809857
768.0,-0.0008663171902298927
832.0,-0.0009043512982316315
896.0,-6.650314753642306e-05
960.0,0.0005220508319325745
1024.0,-0.0010646677110344172
1152.0,-0.0013578560901805758
1280.0,-0.002488130470737815
1408.0,-0.0026986885350197554
1536.0,-0.001893917447887361
1664.0,-0.0004339104925747961
1792.0,-0.0014909807359799743
1920.0,-0.003145812777802348
2048.0,-0.0007461418281309307
2304.0,-0.0003299409872852266
2560.0,0.00018774306226987392
2816.0,9.02299871086143e-05
3072.0,1.7594476958038285e-05
3328.0,-0.0010240647243335843
3584.0,-0.0013777388958260417
3840.0,0.0018494619289413095
4096.0,0.0003341807459946722
4608.0,0.000318345584673807
5120.0,-0.001632545841857791
5632.0,0.0017725941725075245
6144.0,-0.0004933548625558615
6656.0,0.0012329951860010624
7168.0,-0.00218522478826344
7680.0,-0.0015704006655141711
8192.0,0.0023769624531269073
9216.0,-0.0004054273304063827
10240.0,0.003041700227186084
11264.0,-0.001105208764784038
12288.0,-0.002979537006467581
13312.0,-0.003668163437396288
14336.0,-0.00012175596202723682
end
