version,3.0
numOfCh,1
type,point
parent_name,40-cuts
ch_type,1_1
kcount,1
numberNandB,1
brightnessNandB,1
carpet pos,0
pc,0
Time (ms),CH1 Auto-Correlation
1.0,0.07018683850765228
2.0,0.06877834349870682
3.0,0.06738153100013733
4.0,0.06602782756090164
5.0,0.06468696892261505
6.0,0.06341465562582016
7.0,0.06219705566763878
8.0,0.061006948351860046
9.0,0.05984467267990112
10.0,0.05869200453162193
11.0,0.057583801448345184
12.0,0.05648413300514221
13.0,0.05540022626519203
14.0,0.054324671626091
15.0,0.0532732754945755
16.0,0.05226349085569382
18.0,0.050390422344207764
20.0,0.04863179847598076
22.0,0.0470317080616951
24.0,0.04543685168027878
26.0,0.04386977478861809
28.0,0.04237480089068413
30.0,0.04102110117673874
32.0,0.039807356894016266
36.0,0.03749523311853409
40.0,0.035431403666734695
44.0,0.03362451493740082
48.0,0.03189922124147415
52.0,0.03032136708498001
56.0,0.028971288353204727
60.0,0.027763700112700462
64.0,0.02673824317753315
72.0,0.025366615504026413
80.0,0.024479037150740623
88.0,0.02340610884130001
96.0,0.02219463139772415
104.0,0.021252168342471123
112.0,0.020290695130825043
120.0,0.01915476843714714
128.0,0.01793307065963745
144.0,0.016049595549702644
160.0,0.014723489060997963
176.0,0.013959979638457298
192.0,0.012897578068077564
208.0,0.011465584859251976
224.0,0.010634171776473522
240.0,0.010726717300713062
256.0,0.010857830755412579
288.0,0.009295533411204815
320.0,0.006569567136466503
352.0,0.007757095620036125
384.0,0.008690626360476017
416.0,0.009651737287640572
448.0,0.009618362411856651
480.0,0.010168273001909256
512.0,0.010051397606730461
576.0,0.009936661459505558
640.0,0.009432656690478325
704.0,0.008277278393507004
768.0,0.007521378807723522
832.0,0.005349503364413977
896.0,0.003614727407693863
960.0,0.00660683773458004
1024.0,0.004505060613155365
1152.0,0.0021693818271160126
1280.0,0.004576349165290594
1408.0,0.002585093956440687
1536.0,0.00423369649797678
1664.0,0.005248185712844133
1792.0,-0.0009504026384092867
1920.0,-0.004987641237676144
2048.0,-0.00014017980720382184
2304.0,0.0006020657019689679
2560.0,-0.002394527429714799
2816.0,-0.0091270562261343
3072.0,-0.004973746370524168
3328.0,-0.007038711570203304
3584.0,-0.009046610444784164
3840.0,-0.006902363151311874
4096.0,-0.004946514032781124
4608.0,0.0007332836394198239
5120.0,0.0034204600378870964
5632.0,0.00274863513186574
6144.0,-2.5523913791403174e-05
6656.0,9.05988781596534e-05
7168.0,-0.003688944736495614
7680.0,-0.007258343975991011
8192.0,-0.007355730980634689
9216.0,-0.0033718240447342396
10240.0,-0.0011344971135258675
11264.0,0.010656552389264107
12288.0,0.0011781899956986308
13312.0,-0.0011643102625384927
14336.0,-0.007064696401357651
end
