version,3.0
numOfCh,1
type,point
parent_name,40-cuts
ch_type,1_1
kcount,1
numberNandB,1
brightnessNandB,1
carpet pos,0
pc,0
Time (ms),CH1 Auto-Correlation
1.0,0.018928326666355133
2.0,0.018481774255633354
3.0,0.018040020018815994
4.0,0.01760353334248066
5.0,0.017180604860186577
6.0,0.016769420355558395
7.0,0.016373908147215843
8.0,0.01599985547363758
9.0,0.015631357207894325
10.0,0.015279512852430344
11.0,0.014941559173166752
12.0,0.014617543667554855
13.0,0.014308351092040539
14.0,0.01401288527995348
15.0,0.013725732453167439
16.0,0.013447790406644344
18.0,0.012931126169860363
20.0,0.012449725531041622
22.0,0.011997686699032784
24.0,0.011572986841201782
26.0,0.011167165823280811
28.0,0.010762703604996204
30.0,0.010379979386925697
32.0,0.009994848631322384
36.0,0.009258495643734932
40.0,0.008567661046981812
44.0,0.007966973818838596
48.0,0.0073738135397434235
52.0,0.006802162155508995
56.0,0.0062489695847034454
60.0,0.005711087491363287
64.0,0.005291629582643509
72.0,0.004622639622539282
80.0,0.004043574444949627
88.0,0.003546656807884574
96.0,0.0030732699669897556
104.0,0.0025388316716998816
112.0,0.002075111959129572
120.0,0.0017329069087281823
128.0,0.0014953804202377796
144.0,0.0012889559147879481
160.0,0.0013368094805628061
176.0,0.0008274033898487687
192.0,9.559727186569944e-05
208.0,-0.00042700712219811976
224.0,-0.000887117872480303
240.0,-0.0011001455131918192
256.0,-0.0013608613517135382
288.0,-0.0014236853457987309
320.0,-0.0012934256810694933
352.0,-0.00157157180365175
384.0,-0.0014169772621244192
416.0,-0.0007355550187639892
448.0,0.00036794308107346296
480.0,0.0007078900816850364
512.0,-5.301756027620286e-05
576.0,-0.0003052526735700667
640.0,0.00010515788017073646
704.0,0.0009891240624710917
768.0,0.0004212617641314864
832.0,-0.0007040852215141058
896.0,-0.0007313824607990682
960.0,-0.0012463170569390059
1024.0,-0.0009138298919424415
1152.0,-0.0012388197937980294
1280.0,-0.000740673451218754
1408.0,0.00018593124696053565
1536.0,-0.000643996405415237
1664.0,-9.24591877264902e-05
1792.0,0.0005939349066466093
1920.0,-0.001839304226450622
2048.0,0.0004617191734723747
2304.0,0.000645471503958106
2560.0,0.00011578045086935163
2816.0,-0.0005660372553393245
3072.0,-0.0003239286888856441
3328.0,0.0005153779056854546
3584.0,0.0007863090140745044
3840.0,-0.00027341715758666396
4096.0,0.00017094756185542792
4608.0,-0.0007637781673111022
5120.0,3.931332685169764e-05
5632.0,0.000672812748234719
6144.0,2.1949988877167925e-05
6656.0,0.00039094348903745413
7168.0,-0.0010042950743809342
7680.0,-0.0009431140497326851
8192.0,-0.00015221825742628425
9216.0,0.00028097929316572845
10240.0,-0.00011280818580416963
11264.0,0.0004052336444146931
12288.0,-0.00024029800260905176
13312.0,-0.00024373963242396712
14336.0,-0.0002197306021116674
end
