version,3.0
numOfCh,1
type,point
parent_name,40-cuts
ch_type,1_1
kcount,1
numberNandB,1
brightnessNandB,1
carpet pos,0
pc,0
Time (ms),CH1 Auto-Correlation
1.0,0.0696672722697258
2.0,0.06813225895166397
3.0,0.06667482107877731
4.0,0.06527618318796158
5.0,0.06394323706626892
6.0,0.06264817714691162
7.0,0.06141769886016846
8.0,0.06020548939704895
9.0,0.059019431471824646
10.0,0.05788743123412132
11.0,0.056800249963998795
12.0,0.055750772356987
13.0,0.05474388971924782
14.0,0.0537935309112072
15.0,0.05285674333572388
16.0,0.051917582750320435
18.0,0.05010572075843811
20.0,0.048364851623773575
22.0,0.04677874594926834
24.0,0.04529666528105736
26.0,0.043842215090990067
28.0,0.042414773255586624
30.0,0.04103690758347511
32.0,0.0397002175450325
36.0,0.037204474210739136
40.0,0.03476843982934952
44.0,0.03251399099826813
48.0,0.03040779009461403
52.0,0.028505336493253708
56.0,0.02674563229084015
60.0,0.025195233523845673
64.0,0.023660171777009964
72.0,0.021038440987467766
80.0,0.01840205490589142
88.0,0.016033919528126717
96.0,0.01406326238065958
104.0,0.012466390617191792
112.0,0.01117424014955759
120.0,0.010238010436296463
128.0,0.009233282878994942
144.0,0.0066074482165277
160.0,0.004526190925389528
176.0,0.0029649995267391205
192.0,0.0019093959126621485
208.0,0.0018290149746462703
224.0,0.001151698175817728
240.0,-0.0009229155257344246
256.0,-0.0033721844665706158
288.0,-0.0051492624916136265
320.0,-0.004045967478305101
352.0,-0.003932328429073095
384.0,-0.0035513737238943577
416.0,-0.003300671698525548
448.0,-0.0012592083076015115
480.0,-0.0010722146835178137
512.0,-0.0011810256401076913
576.0,0.00046830769861117005
640.0,0.0034299481194466352
704.0,0.005529796238988638
768.0,0.0072314003482460976
832.0,0.007298293989151716
896.0,0.001515388605184853
960.0,-0.005421465262770653
1024.0,-0.004729771986603737
1152.0,-0.0003674740728456527
1280.0,0.00042577687418088317
1408.0,-0.0011944598518311977
1536.0,0.003147166222333908
1664.0,0.003445944981649518
1792.0,0.0026215510442852974
1920.0,-0.001924514421261847
2048.0,0.002456019865348935
2304.0,-0.0011628338834270835
2560.0,-0.007824589498341084
2816.0,-0.003412242978811264
3072.0,-0.0057345544919371605
3328.0,-0.0070573678240180016
3584.0,-0.001824480714276433
3840.0,-0.0007446685340255499
4096.0,0.0008476898656226695
4608.0,-0.001721012406051159
5120.0,0.0019329265924170613
5632.0,0.002684577601030469
6144.0,0.0042707608081400394
6656.0,0.002484920434653759
7168.0,0.0006744473939761519
7680.0,0.003948895260691643
8192.0,-0.0016845325008034706
9216.0,-0.004171749111264944
10240.0,-0.00264116027392447
11264.0,0.00017346609092783183
12288.0,0.002654190408065915
13312.0,-0.00014341385394800454
14336.0,-0.001135216443799436
end
