version,3.0
numOfCh,1
type,point
parent_name,40-cuts
ch_type,1_1
kcount,1
numberNandB,1
brightnessNandB,1
carpet pos,0
pc,0
Time (ms),CH1 Auto-Correlation
1.0,0.020034123212099075
2.0,0.019586239010095596
3.0,0.019154701381921768
4.0,0.01873709447681904
5.0,0.018350353464484215
6.0,0.017978720366954803
7.0,0.01760879158973694
8.0,0.017252959311008453
9.0,0.016902394592761993
10.0,0.016563331708312035
11.0,0.016240045428276062
12.0,0.015926869586110115
13.0,0.015627024695277214
14.0,0.015342838130891323
15.0,0.015070479363203049
16.0,0.014796693809330463
18.0,0.014302320778369904
20.0,0.013835089281201363
22.0,0.013369777239859104
24.0,0.01291150227189064
26.0,0.01249771285802126
28.0,0.01211542822420597
30.0,0.011754762381315231
32.0,0.011426260694861412
36.0,0.010745435953140259
40.0,0.010175247676670551
44.0,0.009709560312330723
48.0,0.00926254503428936
52.0,0.008875198662281036
56.0,0.008479933254420757
60.0,0.008079004473984241
64.0,0.007705141324549913
72.0,0.006945082452148199
80.0,0.006247944198548794
88.0,0.005630962084978819
96.0,0.00513325585052371
104.0,0.004836399108171463
112.0,0.0045857238583266735
120.0,0.0043119690380990505
128.0,0.00408152723684907
144.0,0.0037121775094419718
160.0,0.0034785575699061155
176.0,0.0032839220948517323
192.0,0.002941056154668331
208.0,0.0021699850913137197
224.0,0.0015233189333230257
240.0,0.0012468158965930343
256.0,0.001074605737812817
288.0,0.0008074315846897662
320.0,0.0009496250422671437
352.0,0.0014404293615370989
384.0,0.0017357924953103065
416.0,0.0013094869209453464
448.0,0.00034541747299954295
480.0,-0.0003446244227234274
512.0,-0.0005325995734892786
576.0,0.0004599053936544806
640.0,0.0002569147036410868
704.0,-0.0004158918163739145
768.0,1.2880398571724072e-05
832.0,-0.0005128190969116986
896.0,-0.0015536322025582194
960.0,-1.5178647117863875e-05
1024.0,0.0008919109823182225
1152.0,0.00036466572782956064
1280.0,0.0004936822806484997
1408.0,0.0009636031463742256
1536.0,0.0007822568295523524
1664.0,0.0015199084300547838
1792.0,0.0015856798272579908
1920.0,0.0014461162500083447
2048.0,0.0013113999739289284
2304.0,0.0009014921961352229
2560.0,-0.0006299218512140214
2816.0,-0.0010315822437405586
3072.0,-0.000951143098063767
3328.0,-0.0006433897651731968
3584.0,-0.00026889052242040634
3840.0,0.0002846276038326323
4096.0,0.0016292933141812682
4608.0,-2.832181053236127e-05
5120.0,-0.0005980436690151691
5632.0,-0.0012796054361388087
6144.0,0.0011678192531690001
6656.0,-0.0014914129860699177
7168.0,-0.0012116794241592288
7680.0,-0.0001546265702927485
8192.0,-0.00029614748200401664
9216.0,-0.0014638681896030903
10240.0,-0.000977497547864914
11264.0,-0.00015898828860372305
12288.0,1.3945427781436592e-05
13312.0,0.0001620012626517564
14336.0,1.1802115977843641e-06
end
