version,3.0
numOfCh,1
type,point
parent_name,40-cuts
ch_type,1_1
kcount,1
numberNandB,1
brightnessNandB,1
carpet pos,0
pc,0
Time (ms),CH1 Auto-Correlation
1.0,0.01985372230410576
2.0,0.0194147489964962
3.0,0.01899252086877823
4.0,0.018590204417705536
5.0,0.018194083124399185
6.0,0.01782246306538582
7.0,0.017459586262702942
8.0,0.01710805483162403
9.0,0.016770411282777786
10.0,0.01643792726099491
11.0,0.016116512939333916
12.0,0.01580289751291275
13.0,0.015506939962506294
14.0,0.015213741920888424
15.0,0.014926653355360031
16.0,0.014646198600530624
18.0,0.014087468385696411
20.0,0.013538834638893604
22.0,0.01303290855139494
24.0,0.012553248554468155
26.0,0.012092024087905884
28.0,0.011642437428236008
30.0,0.011217363178730011
32.0,0.010830533690750599
36.0,0.010181546211242676
40.0,0.009585285559296608
44.0,0.009048433974385262
48.0,0.008553395047783852
52.0,0.008080786094069481
56.0,0.007688150275498629
60.0,0.007358125876635313
64.0,0.0070730033330619335
72.0,0.006352814845740795
80.0,0.005583970807492733
88.0,0.004915242549031973
96.0,0.004322465043514967
104.0,0.003701821668073535
112.0,0.0031901176553219557
120.0,0.002699659438803792
128.0,0.0021962265018373728
144.0,0.0019236841471865773
160.0,0.0018967428477481008
176.0,0.001615022192709148
192.0,0.0012324526906013489
208.0,0.0008158633136190474
224.0,0.0006442753365263343
240.0,0.0005555863026529551
256.0,0.0006251772283576429
288.0,0.0009464921895414591
320.0,0.0005505107692442834
352.0,0.0007961797527968884
384.0,0.0004958292120136321
416.0,-3.680246300064027e-05
448.0,-7.03598270774819e-05
480.0,-0.00021864658629056066
512.0,-0.0004487571422941983
576.0,-0.00018227315740659833
640.0,0.0005957400426268578
704.0,-0.0001831862609833479
768.0,-0.0004261620924808085
832.0,0.000785200682003051
896.0,0.0007615031790919602
960.0,0.0005998713313601911
1024.0,0.00023756566224619746
1152.0,-0.0015319044468924403
1280.0,-0.0011552720097824931
1408.0,-0.0010854443535208702
1536.0,-0.0019115909235551953
1664.0,-0.00022695733059663326
1792.0,-0.0002971543581224978
1920.0,-0.0005718260654248297
2048.0,-0.00141854805406183
2304.0,-0.0008416201453655958
2560.0,0.0010698194382712245
2816.0,0.0014927319716662169
3072.0,-0.00034135827445425093
3328.0,-0.0009980631293728948
3584.0,0.0002900018298532814
3840.0,-0.0009663496166467667
4096.0,-0.0007190440082922578
4608.0,-5.0176255172118545e-05
5120.0,0.000998235191218555
5632.0,0.0006541158072650433
6144.0,0.0010070564458146691
6656.0,-0.0005837599164806306
7168.0,-0.0016864383360370994
7680.0,-0.0005583289312198758
8192.0,0.00026819261256605387
9216.0,-0.00038034471799619496
10240.0,0.0008308875258080661
11264.0,0.0006130820838734508
12288.0,-0.001896828762255609
13312.0,-0.0013892006827518344
14336.0,0.0011154902167618275
end
