version,3.0
numOfCh,1
type,point
parent_name,40-cuts
ch_type,1_1
kcount,1
numberNandB,1
brightnessNandB,1
carpet pos,0
pc,0
Time (ms),CH1 Auto-Correlation
1.0,0.039659664034843445
2.0,0.03895740956068039
3.0,0.03827043995261192
4.0,0.03760985657572746
5.0,0.036963336169719696
6.0,0.036344774067401886
7.0,0.03572306036949158
8.0,0.03512326627969742
9.0,0.03454577177762985
10.0,0.03399227559566498
11.0,0.03345855325460434
12.0,0.03295409679412842
13.0,0.03246216103434563
14.0,0.0319809764623642
15.0,0.03151090070605278
16.0,0.031059425324201584
18.0,0.03022884577512741
20.0,0.02943533845245838
22.0,0.028664996847510338
24.0,0.027930742129683495
26.0,0.02723510190844536
28.0,0.02659095823764801
30.0,0.026039673015475273
32.0,0.025523189455270767
36.0,0.02449757605791092
40.0,0.023544592782855034
44.0,0.022600583732128143
48.0,0.021673480048775673
52.0,0.02081119827926159
56.0,0.020118802785873413
60.0,0.01941671222448349
64.0,0.018732747063040733
72.0,0.01747753471136093
80.0,0.016437651589512825
88.0,0.015313736163079739
96.0,0.014371398836374283
104.0,0.013699104078114033
112.0,0.013004309497773647
120.0,0.012469587847590446
128.0,0.011684898287057877
144.0,0.010254034772515297
160.0,0.009462208487093449
176.0,0.008522364310920238
192.0,0.007797114085406065
208.0,0.007346841506659985
224.0,0.00708966376259923
240.0,0.006272510159760714
256.0,0.005351375788450241
288.0,0.004199680872261524
320.0,0.0028498254250735044
352.0,0.0010850310791283846
384.0,0.0009773585479706526
416.0,0.0003893203102052212
448.0,-0.0012772168265655637
480.0,-0.0022814807016402483
512.0,-0.0020139494445174932
576.0,-0.003632795065641403
640.0,-0.003626269521191716
704.0,-0.00426211254671216
768.0,-0.0015532480319961905
832.0,0.00022516788158100098
896.0,-0.0012866599718108773
960.0,-0.0010513969464227557
1024.0,-7.146146526793018e-05
1152.0,-0.0007632659981027246
1280.0,-0.0022066968958824873
1408.0,-0.005304453428834677
1536.0,-0.0037467291112989187
1664.0,-0.0013904261868447065
1792.0,-0.002600989304482937
1920.0,0.0005020475946366787
2048.0,0.0012458836426958442
2304.0,-0.0022720592096447945
2560.0,-0.003939506597816944
2816.0,-0.0014737665187567472
3072.0,-0.0015771894250065088
3328.0,-0.00023230427177622914
3584.0,0.0029174925293773413
3840.0,0.004123658407479525
4096.0,0.0065598441287875175
4608.0,-0.00014282252232078463
5120.0,-0.0047919005155563354
5632.0,-0.0011022271355614066
6144.0,0.0034213578328490257
6656.0,-0.004061304964125156
7168.0,8.558994886698201e-05
7680.0,0.004593145567923784
8192.0,0.004147694446146488
9216.0,-0.002801700495183468
10240.0,-0.0010477157775312662
11264.0,0.0027794495690613985
12288.0,0.0016718285623937845
13312.0,-0.0027455545496195555
14336.0,-0.0050460584461688995
end
