version,3.0
numOfCh,1
type,point
parent_name,40-cuts
ch_type,1_1
kcount,1
numberNandB,1
brightnessNandB,1
carpet pos,0
pc,0
Time (ms),CH1 Auto-Correlation
1.0,0.02776910923421383
2.0,0.027308108285069466
3.0,0.0268633421510458
4.0,0.026436997577548027
5.0,0.02602520026266575
6.0,0.025634223595261574
7.0,0.025249438360333443
8.0,0.024869585409760475
9.0,0.024485282599925995
10.0,0.024109957739710808
11.0,0.023741286247968674
12.0,0.02339504286646843
13.0,0.023061169311404228
14.0,0.022740090265870094
15.0,0.022423559799790382
16.0,0.022105276584625244
18.0,0.02150496281683445
20.0,0.02092859148979187
22.0,0.020384859293699265
24.0,0.01988855190575123
26.0,0.019398711621761322
28.0,0.018916742876172066
30.0,0.018488433212041855
32.0,0.01810140162706375
36.0,0.017409952357411385
40.0,0.016812365502119064
44.0,0.01624719612300396
48.0,0.015700532123446465
52.0,0.015144111588597298
56.0,0.014624645933508873
60.0,0.014165042899549007
64.0,0.013744366355240345
72.0,0.01294341403990984
80.0,0.012118833139538765
88.0,0.01130648609250784
96.0,0.010593568906188011
104.0,0.010136798024177551
112.0,0.009700250811874866
120.0,0.009273236617445946
128.0,0.008817008696496487
144.0,0.007746560499072075
160.0,0.00660558370873332
176.0,0.0060225012712180614
192.0,0.005901013500988483
208.0,0.0059348163194954395
224.0,0.005446766968816519
240.0,0.004911708179861307
256.0,0.004378169775009155
288.0,0.003183714346960187
320.0,0.0027573949191719294
352.0,0.0020518735982477665
384.0,0.001445536850951612
416.0,0.0015293069882318377
448.0,0.001578768016770482
480.0,0.0009218162740580738
512.0,0.0008382675587199628
576.0,0.001659395988099277
640.0,0.0014818999916315079
704.0,0.0003996246960014105
768.0,-0.0004898112965747714
832.0,-0.0004936763434670866
896.0,-0.00031371210934594274
960.0,0.0006964762578718364
1024.0,0.001975633203983307
1152.0,0.001907934551127255
1280.0,0.0016480801859870553
1408.0,0.00027669582050293684
1536.0,-0.0031443703919649124
1664.0,-0.003075713524594903
1792.0,-0.0027379042003303766
1920.0,0.0008012607577256858
2048.0,0.0007828438538126647
2304.0,-0.0012462938902899623
2560.0,0.0008269388345070183
2816.0,0.0002947103639598936
3072.0,0.0018673237645998597
3328.0,0.002801591530442238
3584.0,0.0012284565018489957
3840.0,0.0006761515978723764
4096.0,-0.0016018033493310213
4608.0,-0.001858256058767438
5120.0,-0.0011368872364982963
5632.0,0.0036057643592357635
6144.0,0.002690979978069663
6656.0,0.002094061579555273
7168.0,-0.0004441736382432282
7680.0,-0.002476025139912963
8192.0,-0.004278743639588356
9216.0,-0.002326805843040347
10240.0,-0.0019990892615169287
11264.0,-0.0024321305099874735
12288.0,-0.0009059732547029853
13312.0,-0.0016673523932695389
14336.0,-0.003537719137966633
end
