version,3.0
numOfCh,1
type,point
parent_name,40-cuts
ch_type,1_1
kcount,1
numberNandB,1
brightnessNandB,1
carpet pos,0
pc,0
Time (ms),CH1 Auto-Correlation
1.0,0.07257144153118134
2.0,0.07116299122571945
3.0,0.06984476000070572
4.0,0.06855883449316025
5.0,0.0673547089099884
6.0,0.06618379056453705
7.0,0.06507059931755066
8.0,0.06400048732757568
9.0,0.06295134872198105
10.0,0.06191082298755646
11.0,0.0608724020421505
12.0,0.059851158410310745
13.0,0.058875080198049545
14.0,0.0579134002327919
15.0,0.05696840211749077
16.0,0.05604904145002365
18.0,0.054286643862724304
20.0,0.052602507174015045
22.0,0.050981566309928894
24.0,0.04935436695814133
26.0,0.04780558869242668
28.0,0.04626528173685074
30.0,0.04480753839015961
32.0,0.04341219365596771
36.0,0.04096158966422081
40.0,0.03887845575809479
44.0,0.03715357556939125
48.0,0.03551692143082619
52.0,0.03388412669301033
56.0,0.03252927586436272
60.0,0.031397026032209396
64.0,0.030382312834262848
72.0,0.028554372489452362
80.0,0.02669566124677658
88.0,0.02454833686351776
96.0,0.02199123054742813
104.0,0.019698260352015495
112.0,0.017239462584257126
120.0,0.01527820248156786
128.0,0.014041571877896786
144.0,0.012440984137356281
160.0,0.011144069954752922
176.0,0.00954004842787981
192.0,0.008878745138645172
208.0,0.008701742626726627
224.0,0.008520178496837616
240.0,0.008047840557992458
256.0,0.008029188960790634
288.0,0.008288371376693249
320.0,0.00881984643638134
352.0,0.00821755826473236
384.0,0.007511578965932131
416.0,0.0030466755852103233
448.0,0.0007760559092275798
480.0,-0.0019192254403606057
512.0,-0.00479844119399786
576.0,-0.008670656010508537
640.0,-0.011968391947448254
704.0,-0.008747175335884094
768.0,-0.003885198151692748
832.0,-0.0012377901002764702
896.0,-0.002090388908982277
960.0,-0.0013031278504058719
1024.0,-0.0024431184865534306
1152.0,-0.0012998429592698812
1280.0,0.001810119254514575
1408.0,-0.002465168246999383
1536.0,0.0028195332270115614
1664.0,0.00451432541012764
1792.0,-0.00047605435247533023
1920.0,0.002854362828657031
2048.0,0.0016176254721358418
2304.0,-0.0011024733539670706
2560.0,0.00022695471125189215
2816.0,-0.00721551850438118
3072.0,-0.007168756797909737
3328.0,0.004264903720468283
3584.0,0.0043868012726306915
3840.0,0.0028290299233049154
4096.0,-0.001445438014343381
4608.0,0.0008336382452398539
5120.0,-0.0014763535000383854
5632.0,0.0034761978313326836
6144.0,-0.002918386599048972
6656.0,-0.01042274758219719
7168.0,-0.0046766893938183784
7680.0,0.004173150286078453
8192.0,0.002467947779223323
9216.0,-0.0019560400396585464
10240.0,-0.0010710295755416155
11264.0,0.00033069567871280015
12288.0,-0.003261486766859889
13312.0,0.0037481856998056173
14336.0,-0.014790247194468975
end
