version,3.0
numOfCh,1
type,point
parent_name,34766_0dot08-1dot0
ch_type,1_1
kcount,1
numberNandB,1
brightnessNandB,1
carpet pos,0
pc,0
Time (ms),CH1 Auto-Correlation
1.0,0.020249584689736366
2.0,0.01996816135942936
3.0,0.019715212285518646
4.0,0.019509227946400642
5.0,0.019310984760522842
6.0,0.01912328600883484
7.0,0.01895204558968544
8.0,0.018779637292027473
9.0,0.018625352531671524
10.0,0.018473386764526367
11.0,0.018321631476283073
12.0,0.01816854625940323
13.0,0.01802394725382328
14.0,0.01786886714398861
15.0,0.01771964691579342
16.0,0.017585618421435356
18.0,0.017311492934823036
20.0,0.017038991674780846
22.0,0.016763532534241676
24.0,0.016512431204319
26.0,0.016260400414466858
28.0,0.016023075208067894
30.0,0.015811529010534286
32.0,0.015613594092428684
36.0,0.015251480042934418
40.0,0.01490085106343031
44.0,0.014576002024114132
48.0,0.014271961525082588
52.0,0.013956936076283455
56.0,0.013673679903149605
60.0,0.013415697030723095
64.0,0.013172551058232784
72.0,0.012695706449449062
80.0,0.012204344384372234
88.0,0.011770953424274921
96.0,0.011341597884893417
104.0,0.010922668501734734
112.0,0.010522228665649891
120.0,0.010173676535487175
128.0,0.00989783275872469
144.0,0.009297915734350681
160.0,0.008837508037686348
176.0,0.00854715146124363
192.0,0.008350289426743984
208.0,0.007976507768034935
224.0,0.007424504030495882
240.0,0.006885332055389881
256.0,0.006368664558976889
288.0,0.005332007072865963
320.0,0.004472555126994848
352.0,0.004104900639504194
384.0,0.0038060713559389114
416.0,0.0035504570696502924
448.0,0.003544164588674903
480.0,0.0031539734918624163
512.0,0.002381045836955309
576.0,0.0017585915047675371
640.0,0.0006234656902961433
704.0,-0.00012628464901354164
768.0,-0.0001978147483896464
832.0,-0.00034446685458533466
896.0,-0.0007027403335087001
960.0,-0.0017894906923174858
1024.0,-0.002761904848739505
1152.0,-0.004345228895545006
1280.0,-0.004574673715978861
1408.0,-0.00316941668279469
1536.0,-0.0013259517727419734
1664.0,-0.0016235609073191881
1792.0,-0.00300916051492095
1920.0,-0.00405566580593586
2048.0,-0.0031813783571124077
2304.0,-0.0033778036013245583
2560.0,0.00015682080993428826
2816.0,0.0014987516915425658
3072.0,0.003186024958267808
3328.0,0.0027724772226065397
3584.0,0.0032206967007368803
3840.0,0.0003780668193940073
4096.0,-4.115623960387893e-05
4608.0,-0.004211755469441414
5120.0,-0.002873629331588745
5632.0,-0.0004586383292917162
6144.0,0.0026113782078027725
6656.0,0.0042010946199297905
7168.0,0.00054451625328511
7680.0,-0.002265057060867548
8192.0,-0.003709470620378852
end
