version,3.0
numOfCh,1
type,point
parent_name,34766_0dot08-1dot0
ch_type,1_1
kcount,1
numberNandB,1
brightnessNandB,1
carpet pos,0
pc,0
Time (ms),CH1 Auto-Correlation
1.0,0.018506834283471107
2.0,0.018274590373039246
3.0,0.01805911585688591
4.0,0.017855502665042877
5.0,0.017660856246948242
6.0,0.017485396936535835
7.0,0.017326101660728455
8.0,0.017171207815408707
9.0,0.017019979655742645
10.0,0.016861097887158394
11.0,0.01668580062687397
12.0,0.01651347056031227
13.0,0.016352303326129913
14.0,0.016196606680750847
15.0,0.016049319878220558
16.0,0.015905970707535744
18.0,0.015621165744960308
20.0,0.015346049331128597
22.0,0.01506951916962862
24.0,0.014797237701714039
26.0,0.014541713520884514
28.0,0.014303997159004211
30.0,0.014075633138418198
32.0,0.013851959258317947
36.0,0.013416160829365253
40.0,0.0129975825548172
44.0,0.0125818382948637
48.0,0.012200252152979374
52.0,0.011879547499120235
56.0,0.011567605659365654
60.0,0.01126701757311821
64.0,0.010982108302414417
72.0,0.01048543956130743
80.0,0.010042705573141575
88.0,0.009672697633504868
96.0,0.00931628979742527
104.0,0.008985580876469612
112.0,0.008663828484714031
120.0,0.008346284739673138
128.0,0.00802257377654314
144.0,0.007358101196587086
160.0,0.006699938327074051
176.0,0.006065788678824902
192.0,0.005608043633401394
208.0,0.005054720677435398
224.0,0.004496395122259855
240.0,0.004026656970381737
256.0,0.0036277929320931435
288.0,0.003211085917428136
320.0,0.0028965696692466736
352.0,0.0020392234437167645
384.0,0.001408885233104229
416.0,0.0009311899775639176
448.0,0.0004369972157292068
480.0,-0.00013723751180805266
512.0,-0.0007027169922366738
576.0,-0.0006169211119413376
640.0,-0.0005300308112055063
704.0,-0.0006991951377131045
768.0,-0.0006130516994744539
832.0,-0.0006413410301320255
896.0,-0.00026590534253045917
960.0,-0.0006599113112315536
1024.0,-0.0002460842952132225
1152.0,0.001314176945015788
1280.0,0.002073810435831547
1408.0,0.0021565346978604794
1536.0,0.0013034100411459804
1664.0,-0.0003306877624709159
1792.0,-0.0019891702104359865
1920.0,-0.0021953389514237642
2048.0,-0.0014235874405130744
2304.0,-0.0006021916633471847
2560.0,0.0015191561542451382
2816.0,0.0014677825383841991
3072.0,-0.004064422566443682
3328.0,-0.006691853515803814
3584.0,-0.002277543768286705
3840.0,0.0005701002082787454
4096.0,0.000804014562163502
4608.0,-0.00219163135625422
5120.0,-0.0006598465843126178
5632.0,-0.001892850617878139
6144.0,-0.002309527713805437
6656.0,0.0033155987039208412
7168.0,-0.000894805183634162
7680.0,-0.0006609437405131757
8192.0,0.0019814157858490944
end
