version,3.0
numOfCh,1
type,point
parent_name,34766_0dot08-1dot0
ch_type,1_1
kcount,1
numberNandB,1
brightnessNandB,1
carpet pos,0
pc,0
Time (ms),CH1 Auto-Correlation
1.0,0.021699778735637665
2.0,0.02149065025150776
3.0,0.021290550008416176
4.0,0.021101685240864754
5.0,0.02091853693127632
6.0,0.020741578191518784
7.0,0.020576607435941696
8.0,0.0204190444201231
9.0,0.02025637961924076
10.0,0.020092610269784927
11.0,0.019927995279431343
12.0,0.01975565031170845
13.0,0.019591545686125755
14.0,0.019430071115493774
15.0,0.019277416169643402
16.0,0.01912607066333294
18.0,0.018836328759789467
20.0,0.018545739352703094
22.0,0.018275102600455284
24.0,0.018017034977674484
26.0,0.01776900514960289
28.0,0.017525870352983475
30.0,0.017284180968999863
32.0,0.01703484170138836
36.0,0.016576066613197327
40.0,0.01613062620162964
44.0,0.015695182606577873
48.0,0.01526558492332697
52.0,0.01481766626238823
56.0,0.014372998848557472
60.0,0.013941549696028233
64.0,0.013538879342377186
72.0,0.012814144603908062
80.0,0.012176278047263622
88.0,0.011635569855570793
96.0,0.01112937182188034
104.0,0.010600492358207703
112.0,0.010108779184520245
120.0,0.00968464557081461
128.0,0.009348313324153423
144.0,0.00878080353140831
160.0,0.00816257856786251
176.0,0.007638787385076284
192.0,0.007296556141227484
208.0,0.006928674876689911
224.0,0.006571448408067226
240.0,0.0064386362209916115
256.0,0.006288149859756231
288.0,0.00559919374063611
320.0,0.004976221825927496
352.0,0.004531408194452524
384.0,0.003757176687940955
416.0,0.002822988899424672
448.0,0.002114433329552412
480.0,0.0020785341039299965
512.0,0.0021833975333720446
576.0,0.0020917668007314205
640.0,0.0018303670221939683
704.0,0.0007508362177759409
768.0,-0.0007146900170482695
832.0,-0.0009589219698682427
896.0,-0.0005340314819477499
960.0,-0.0007882069912739098
1024.0,-0.0021626444067806005
1152.0,-0.002447000239044428
1280.0,-0.0009707226417958736
1408.0,-9.760569810168818e-06
1536.0,0.00011429700680309907
1664.0,-6.063520413590595e-05
1792.0,0.0001071205988409929
1920.0,-0.0007392261177301407
2048.0,-0.0015515090199187398
2304.0,-0.0001230818743351847
2560.0,0.0012975421268492937
2816.0,-0.00021563209884334356
3072.0,-0.004051234107464552
3328.0,-0.0056101977825164795
3584.0,-0.005237047094851732
3840.0,-0.002863214584067464
4096.0,0.0009032124653458595
4608.0,0.0027640536427497864
5120.0,0.0009360630647279322
5632.0,0.0008792182779870927
6144.0,0.00021507397468667477
6656.0,0.00035227328771725297
7168.0,0.001256943796761334
7680.0,-0.0031228107400238514
8192.0,-0.005601492710411549
end
