version,3.0
numOfCh,1
type,point
parent_name,34766_0dot08-1dot0
ch_type,1_1
kcount,1
numberNandB,1
brightnessNandB,1
carpet pos,0
pc,0
Time (ms),CH1 Auto-Correlation
1.0,0.023119909688830376
2.0,0.022916743531823158
3.0,0.02272002398967743
4.0,0.02254445105791092
5.0,0.02236752025783062
6.0,0.02219606377184391
7.0,0.022027485072612762
8.0,0.021861594170331955
9.0,0.02169758267700672
10.0,0.02153570018708706
11.0,0.02137930877506733
12.0,0.0212195236235857
13.0,0.02106267213821411
14.0,0.020904814824461937
15.0,0.020748939365148544
16.0,0.020596807822585106
18.0,0.0203101709485054
20.0,0.020021744072437286
22.0,0.019749054685235023
24.0,0.01947849616408348
26.0,0.019218163564801216
28.0,0.01896829716861248
30.0,0.018723245710134506
32.0,0.01847245916724205
36.0,0.018002325668931007
40.0,0.017586689442396164
44.0,0.0171964168548584
48.0,0.016813382506370544
52.0,0.016429543495178223
56.0,0.016055330634117126
60.0,0.015690220519900322
64.0,0.015327801927924156
72.0,0.01460318174213171
80.0,0.01390667725354433
88.0,0.013214071281254292
96.0,0.012536583468317986
104.0,0.011915168724954128
112.0,0.011311570182442665
120.0,0.010715059004724026
128.0,0.010154958814382553
144.0,0.009199252352118492
160.0,0.00837488379329443
176.0,0.007502465974539518
192.0,0.006729614920914173
208.0,0.00614582747220993
224.0,0.005661947187036276
240.0,0.005323526915162802
256.0,0.004988666623830795
288.0,0.004408156964927912
320.0,0.0037696135696023703
352.0,0.0031386699993163347
384.0,0.002209171187132597
416.0,0.0015498478896915913
448.0,0.0008716605952940881
480.0,-9.398993279319257e-05
512.0,-0.0004574619815684855
576.0,-0.0016288355691358447
640.0,-0.0032659354619681835
704.0,-0.0042231944389641285
768.0,-0.0034833180252462626
832.0,-0.0021538380533456802
896.0,-0.0015328621957451105
960.0,-0.00045715871965512633
1024.0,-6.899199797771871e-05
1152.0,-0.0003372421197127551
1280.0,-0.0002515259257052094
1408.0,-0.00046533398563042283
1536.0,-0.0006097252480685711
1664.0,-0.0006007326883263886
1792.0,-0.0024377903901040554
1920.0,-0.0028602981474250555
2048.0,-0.003918703179806471
2304.0,-0.0015235518803820014
2560.0,0.00013937227777205408
2816.0,0.000813622900750488
3072.0,0.0015857520047575235
3328.0,-0.0023318820167332888
3584.0,-0.0031058520544320345
3840.0,-0.002876755315810442
4096.0,0.0009813677752390504
4608.0,-0.0018970358651131392
5120.0,0.0018692394951358438
5632.0,0.002477109432220459
6144.0,0.00036134212859906256
6656.0,0.0019980124197900295
7168.0,-0.0016703447327017784
7680.0,-0.004131251946091652
8192.0,0.0009770788019523025
end
