version,3.0
numOfCh,1
type,point
parent_name,34766_0dot08-1dot0
ch_type,1_1
kcount,1
numberNandB,1
brightnessNandB,1
carpet pos,0
pc,0
Time (ms),CH1 Auto-Correlation
1.0,0.023682301864027977
2.0,0.023450780659914017
3.0,0.023226821795105934
4.0,0.023015031591057777
5.0,0.02279898151755333
6.0,0.022595442831516266
7.0,0.022384583950042725
8.0,0.022186284884810448
9.0,0.02199665457010269
10.0,0.021815184503793716
11.0,0.02164018154144287
12.0,0.021461475640535355
13.0,0.021280305460095406
14.0,0.02110196277499199
15.0,0.020931707695126534
16.0,0.02077406644821167
18.0,0.02047538571059704
20.0,0.02018514648079872
22.0,0.019903328269720078
24.0,0.019636666402220726
26.0,0.019367098808288574
28.0,0.019097374752163887
30.0,0.018836447969079018
32.0,0.01858113706111908
36.0,0.01806269772350788
40.0,0.017552968114614487
44.0,0.017057053744792938
48.0,0.01655035838484764
52.0,0.016082219779491425
56.0,0.015671197324991226
60.0,0.015270874835550785
64.0,0.014877095818519592
72.0,0.014234399423003197
80.0,0.013675388880074024
88.0,0.013100412674248219
96.0,0.012501385062932968
104.0,0.01189432479441166
112.0,0.011358733288943768
120.0,0.010946488007903099
128.0,0.010571517050266266
144.0,0.009920308366417885
160.0,0.009409449994564056
176.0,0.009079973213374615
192.0,0.008768746629357338
208.0,0.00840200949460268
224.0,0.007979457266628742
240.0,0.007401713635772467
256.0,0.006961739622056484
288.0,0.006047568283975124
320.0,0.005233530420809984
352.0,0.005140129942446947
384.0,0.005502644460648298
416.0,0.005499144084751606
448.0,0.004997017327696085
480.0,0.004292984958738089
512.0,0.0040526725351810455
576.0,0.0035391109995543957
640.0,0.002807033946737647
704.0,0.001409668242558837
768.0,0.0011968882754445076
832.0,0.001029733568429947
896.0,0.00047698686830699444
960.0,0.0009982006158679724
1024.0,0.0012756666401401162
1152.0,-0.0008737631724216044
1280.0,-0.000821978144813329
1408.0,0.0011651995591819286
1536.0,0.0017130984924733639
1664.0,0.0005574586684815586
1792.0,-0.0012808394385501742
1920.0,-0.0008145810570567846
2048.0,-0.00181572197470814
2304.0,-0.0016480337362736464
2560.0,0.0003462621825747192
2816.0,0.002080496633425355
3072.0,0.0006402838043868542
3328.0,0.0003299303643871099
3584.0,-0.002278124913573265
3840.0,-0.0015180425252765417
4096.0,0.0007922905497252941
4608.0,-0.0020420970395207405
5120.0,-0.003869262058287859
5632.0,-0.004026944749057293
6144.0,-0.002036759629845619
6656.0,0.0047341641038656235
7168.0,0.003920254297554493
7680.0,0.004827129654586315
8192.0,0.004747368860989809
end
