version,3.0
numOfCh,1
type,point
parent_name,34766_0dot08-1dot0
ch_type,1_1
kcount,1
numberNandB,1
brightnessNandB,1
carpet pos,0
pc,0
Time (ms),CH1 Auto-Correlation
1.0,0.02421269193291664
2.0,0.023991936817765236
3.0,0.02378910593688488
4.0,0.02360203117132187
5.0,0.02342469058930874
6.0,0.02324189990758896
7.0,0.023069800809025764
8.0,0.02289363369345665
9.0,0.022724416106939316
10.0,0.022560060024261475
11.0,0.022389909252524376
12.0,0.022228362038731575
13.0,0.02207515947520733
14.0,0.021905653178691864
15.0,0.021742472425103188
16.0,0.021575717255473137
18.0,0.02126733772456646
20.0,0.020947996526956558
22.0,0.020635874941945076
24.0,0.020335011184215546
26.0,0.02004845254123211
28.0,0.019764594733715057
30.0,0.019504038617014885
32.0,0.019239990040659904
36.0,0.01873370073735714
40.0,0.018263334408402443
44.0,0.01778731495141983
48.0,0.017332635819911957
52.0,0.01689528301358223
56.0,0.016457421705126762
60.0,0.0160332340747118
64.0,0.015646813437342644
72.0,0.014931580983102322
80.0,0.014208247885107994
88.0,0.013503393158316612
96.0,0.01286339946091175
104.0,0.012270821258425713
112.0,0.01166086457669735
120.0,0.011043264530599117
128.0,0.010417829267680645
144.0,0.009353003464639187
160.0,0.00856148824095726
176.0,0.00791963655501604
192.0,0.007404428441077471
208.0,0.007012972608208656
224.0,0.006707477383315563
240.0,0.006495791953057051
256.0,0.006241250317543745
288.0,0.005767518188804388
320.0,0.005664092488586903
352.0,0.005619681905955076
384.0,0.005584069062024355
416.0,0.005787316244095564
448.0,0.005438316147774458
480.0,0.004987113177776337
512.0,0.0047496589832007885
576.0,0.004322643857449293
640.0,0.004685988184064627
704.0,0.005327962338924408
768.0,0.0043363748118281364
832.0,0.0020945961587131023
896.0,0.0014754338189959526
960.0,0.002454420318827033
1024.0,0.003874632529914379
1152.0,0.004848090931773186
1280.0,0.0025488724932074547
1408.0,0.003553147893399
1536.0,0.0031837611459195614
1664.0,0.004772630520164967
1792.0,0.004663835279643536
1920.0,0.004265215247869492
2048.0,0.0036989811342209578
2304.0,0.00030910002533346415
2560.0,-0.0012024930911138654
2816.0,-0.00028714790823869407
3072.0,-0.000912953051738441
3328.0,0.0015009749913588166
3584.0,-0.0002733954170253128
3840.0,-1.9507859178702347e-05
4096.0,-0.0005431059398688376
4608.0,-0.0017558871768414974
5120.0,-0.0012569276150316
5632.0,-0.0021847186144441366
6144.0,-0.003961014095693827
6656.0,-0.0014504723949357867
7168.0,-0.0016872226260602474
7680.0,-0.0013534046011045575
8192.0,-0.0041634635999798775
end
