version,3.0
numOfCh,1
type,point
parent_name,34766_0dot08-1dot0
ch_type,1_1
kcount,1
numberNandB,1
brightnessNandB,1
carpet pos,0
pc,0
Time (ms),CH1 Auto-Correlation
1.0,0.02347741834819317
2.0,0.02323429472744465
3.0,0.023009303957223892
4.0,0.02279537171125412
5.0,0.022594217211008072
6.0,0.022398879751563072
7.0,0.02219965308904648
8.0,0.021999772638082504
9.0,0.02180289663374424
10.0,0.021608510985970497
11.0,0.02143312431871891
12.0,0.02126357890665531
13.0,0.021106408908963203
14.0,0.020954258739948273
15.0,0.020805463194847107
16.0,0.02066769450902939
18.0,0.020389191806316376
20.0,0.02012014575302601
22.0,0.019858410581946373
24.0,0.019596625119447708
26.0,0.01934957690536976
28.0,0.019115565344691277
30.0,0.018881510943174362
32.0,0.018667707219719887
36.0,0.018244950100779533
40.0,0.0178365595638752
44.0,0.017426837235689163
48.0,0.017060864716768265
52.0,0.01671573333442211
56.0,0.016394469887018204
60.0,0.016094878315925598
64.0,0.015809718519449234
72.0,0.015276428312063217
80.0,0.014803801663219929
88.0,0.01435870211571455
96.0,0.013975474052131176
104.0,0.01364470086991787
112.0,0.013341370038688183
120.0,0.012993205338716507
128.0,0.01263013482093811
144.0,0.01191188208758831
160.0,0.011401317082345486
176.0,0.010921228677034378
192.0,0.01055359560996294
208.0,0.010429061017930508
224.0,0.010338491760194302
240.0,0.010157241486012936
256.0,0.009857607074081898
288.0,0.009240810759365559
320.0,0.00843089446425438
352.0,0.007941770367324352
384.0,0.007356904912739992
416.0,0.006718798074871302
448.0,0.00596853531897068
480.0,0.005672571249306202
512.0,0.005254680756479502
576.0,0.0042866310104727745
640.0,0.0040345992892980576
704.0,0.004752851091325283
768.0,0.004692364484071732
832.0,0.004250649828463793
896.0,0.004381663631647825
960.0,0.00419324915856123
1024.0,0.0035360699985176325
1152.0,0.0013726078905165195
1280.0,-0.00013219866377767175
1408.0,-0.0016254137735813856
1536.0,-0.004556010942906141
1664.0,-0.0054924688301980495
1792.0,-0.004114385228604078
1920.0,-0.0036028819158673286
2048.0,-0.0027628715615719557
2304.0,-0.0018221844220533967
2560.0,-0.0026134939398616552
2816.0,-0.0030724836979061365
3072.0,-0.0020423156674951315
3328.0,-0.0009306290303356946
3584.0,-0.0022740403655916452
3840.0,-0.003281527431681752
4096.0,-0.0012321087997406721
4608.0,5.128192060510628e-05
5120.0,-0.0010861067567020655
5632.0,-0.0022890891414135695
6144.0,-0.0013942337827757
6656.0,0.002389040542766452
7168.0,0.0048344978131353855
7680.0,0.0027082485612481833
8192.0,-0.003307746024802327
end
