version,3.0
numOfCh,1
type,point
parent_name,34766_0dot08-1dot0
ch_type,1_1
kcount,1
numberNandB,1
brightnessNandB,1
carpet pos,0
pc,0
Time (ms),CH1 Auto-Correlation
1.0,0.025387991219758987
2.0,0.025186477228999138
3.0,0.024990437552332878
4.0,0.024791058152914047
5.0,0.02460046112537384
6.0,0.024418851360678673
7.0,0.024233529344201088
8.0,0.02404959872364998
9.0,0.023875121027231216
10.0,0.023701433092355728
11.0,0.023528382182121277
12.0,0.023360906168818474
13.0,0.023195728659629822
14.0,0.023035043850541115
15.0,0.022881722077727318
16.0,0.022727692499756813
18.0,0.02243793196976185
20.0,0.02216222696006298
22.0,0.02189466543495655
24.0,0.021636229008436203
26.0,0.02139018476009369
28.0,0.021148480474948883
30.0,0.020910685881972313
32.0,0.020670851692557335
36.0,0.020192572847008705
40.0,0.019694063812494278
44.0,0.019232837483286858
48.0,0.01881098747253418
52.0,0.018401090055704117
56.0,0.017996743321418762
60.0,0.01760902814567089
64.0,0.017231328412890434
72.0,0.016503607854247093
80.0,0.015844326466321945
88.0,0.01515742763876915
96.0,0.01441860944032669
104.0,0.01362666767090559
112.0,0.01287051010876894
120.0,0.012115009129047394
128.0,0.011368228122591972
144.0,0.010054239071905613
160.0,0.00871642492711544
176.0,0.007564601954072714
192.0,0.00642875861376524
208.0,0.005494371987879276
224.0,0.004563239868730307
240.0,0.0036333149764686823
256.0,0.002766174264252186
288.0,0.0013103554956614971
320.0,-0.00012337890802882612
352.0,-0.0012617522152140737
384.0,-0.002260579727590084
416.0,-0.0030357264913618565
448.0,-0.0036753499880433083
480.0,-0.004178117029368877
512.0,-0.00440873671323061
576.0,-0.005136037245392799
640.0,-0.005540928337723017
704.0,-0.0061022560112178326
768.0,-0.006511146668344736
832.0,-0.00619945814833045
896.0,-0.005341946147382259
960.0,-0.0047104815021157265
1024.0,-0.00390385533683002
1152.0,0.0015404419973492622
1280.0,0.004534405190497637
1408.0,0.003808635985478759
1536.0,0.0011463540140539408
1664.0,-0.002193005755543709
1792.0,-0.0043687536381185055
1920.0,-0.0037126734387129545
2048.0,-0.0033297808840870857
2304.0,0.0011238488368690014
2560.0,0.0037978373002260923
2816.0,0.0008370700525119901
3072.0,-0.002164660021662712
3328.0,0.0008436460047960281
3584.0,0.003292909823358059
3840.0,0.0036782389506697655
4096.0,-0.0062671140767633915
4608.0,-0.0020332939457148314
5120.0,0.0032119578681886196
5632.0,-0.0022482925560325384
6144.0,0.001451805466786027
6656.0,-0.0015553213888779283
7168.0,0.0031616545747965574
7680.0,-0.002011305885389447
8192.0,0.00060177908744663
end
