version,3.0
numOfCh,1
type,point
parent_name,34766_0dot08-1dot0
ch_type,1_1
kcount,1
numberNandB,1
brightnessNandB,1
carpet pos,0
pc,0
Time (ms),CH1 Auto-Correlation
1.0,0.023290563374757767
2.0,0.023088283836841583
3.0,0.02289797179400921
4.0,0.02271854504942894
5.0,0.022539209574460983
6.0,0.022376030683517456
7.0,0.022220881655812263
8.0,0.02207052893936634
9.0,0.021921778097748756
10.0,0.02176680415868759
11.0,0.02160787582397461
12.0,0.021452661603689194
13.0,0.021305622532963753
14.0,0.021157413721084595
15.0,0.021012457087635994
16.0,0.02086748741567135
18.0,0.020589346066117287
20.0,0.02030380815267563
22.0,0.020019300282001495
24.0,0.01975932903587818
26.0,0.019514400511980057
28.0,0.019293196499347687
30.0,0.019074836745858192
32.0,0.018864303827285767
36.0,0.01848810724914074
40.0,0.01812855713069439
44.0,0.017800642177462578
48.0,0.01746196858584881
52.0,0.017124921083450317
56.0,0.016798991709947586
60.0,0.016488676890730858
64.0,0.01618196628987789
72.0,0.015618850477039814
80.0,0.015036378987133503
88.0,0.014455473981797695
96.0,0.01380860898643732
104.0,0.01316977571696043
112.0,0.012676045298576355
120.0,0.012194830924272537
128.0,0.01171617116779089
144.0,0.010704309679567814
160.0,0.009747268632054329
176.0,0.008995006792247295
192.0,0.00830911472439766
208.0,0.007763474714010954
224.0,0.00735112139955163
240.0,0.006679145619273186
256.0,0.006155514158308506
288.0,0.004960931371897459
320.0,0.0037247538566589355
352.0,0.002831341465935111
384.0,0.0022648589219897985
416.0,0.0018535490380600095
448.0,0.0018318999791517854
480.0,0.0016575917834416032
512.0,0.0012487380299717188
576.0,0.0004352001997176558
640.0,0.0010253653163090348
704.0,0.002489672042429447
768.0,0.003273527603596449
832.0,0.0034504446666687727
896.0,0.003943372517824173
960.0,0.004321587271988392
1024.0,0.0033674980513751507
1152.0,0.0013537422055378556
1280.0,-0.001393486512824893
1408.0,-0.002537976950407028
1536.0,-0.0011323124635964632
1664.0,0.0003028145001735538
1792.0,0.0007394171552732587
1920.0,0.002277540508657694
2048.0,0.004359271377325058
2304.0,0.003170980140566826
2560.0,0.0021346122957766056
2816.0,0.0025847023352980614
3072.0,-0.0004933142336085439
3328.0,-0.004555126186460257
3584.0,-0.005346065387129784
3840.0,-0.0046318890526890755
4096.0,-0.005180687643587589
4608.0,-0.0011682003969326615
5120.0,0.00032777496380731463
5632.0,0.0007245020242407918
6144.0,-0.00271604023873806
6656.0,0.00018608130631037056
7168.0,0.0013799370499327779
7680.0,0.0037160227075219154
8192.0,0.0011125762248411775
end
