version,3.0
numOfCh,1
type,point
parent_name,34766_0dot08-1dot0
ch_type,1_1
kcount,1
numberNandB,1
brightnessNandB,1
carpet pos,0
pc,0
Time (ms),CH1 Auto-Correlation
1.0,0.025510195642709732
2.0,0.02526903711259365
3.0,0.025047140195965767
4.0,0.024843547493219376
5.0,0.024640223011374474
6.0,0.02444600500166416
7.0,0.024258611723780632
8.0,0.024075336754322052
9.0,0.02389194443821907
10.0,0.02371036261320114
11.0,0.02352694422006607
12.0,0.023345135152339935
13.0,0.023165613412857056
14.0,0.022985467687249184
15.0,0.022807104513049126
16.0,0.022632446140050888
18.0,0.022298261523246765
20.0,0.02195599488914013
22.0,0.021628694608807564
24.0,0.021307332441210747
26.0,0.021000109612941742
28.0,0.020706456154584885
30.0,0.020414084196090698
32.0,0.02014370635151863
36.0,0.019620627164840698
40.0,0.01909947209060192
44.0,0.01860469952225685
48.0,0.018151534721255302
52.0,0.017718857154250145
56.0,0.017311131581664085
60.0,0.016926785930991173
64.0,0.01654553785920143
72.0,0.015787839889526367
80.0,0.014988093636929989
88.0,0.01414458453655243
96.0,0.01331716775894165
104.0,0.012616654857993126
112.0,0.012006056495010853
120.0,0.011487673968076706
128.0,0.011017671786248684
144.0,0.009903126396238804
160.0,0.008944266475737095
176.0,0.008237197995185852
192.0,0.007835853844881058
208.0,0.007572471629828215
224.0,0.0073597729206085205
240.0,0.007179646752774715
256.0,0.0071816956624388695
288.0,0.00702533358708024
320.0,0.006841219030320644
352.0,0.00642069336026907
384.0,0.005463802721351385
416.0,0.004219007212668657
448.0,0.003086575772613287
480.0,0.00228632939979434
512.0,0.0015651354333385825
576.0,0.0012132370611652732
640.0,0.0007878734031692147
704.0,0.0004227585159242153
768.0,0.0008462826372124255
832.0,0.0019116014009341598
896.0,0.0023113873321563005
960.0,0.00135802139993757
1024.0,0.000377683958504349
1152.0,0.0026729817036539316
1280.0,0.004516913089901209
1408.0,0.0053469473496079445
1536.0,0.003021691692993045
1664.0,0.0023340305779129267
1792.0,0.004529884085059166
1920.0,0.004262722562998533
2048.0,0.00255206529982388
2304.0,0.000441335781943053
2560.0,-0.0004977874341420829
2816.0,-0.0007630086038261652
3072.0,-0.0012396544916555285
3328.0,-0.0002920861588791013
3584.0,0.0019348165951669216
3840.0,0.0018760509556159377
4096.0,-0.0008187204948626459
4608.0,-0.0012098925653845072
5120.0,0.0017868150025606155
5632.0,0.00010544617543928325
6144.0,-0.0013447285164147615
6656.0,-0.0022675669752061367
7168.0,-0.0019079375779256225
7680.0,-0.0024511434603482485
8192.0,-0.008133306168019772
end
