version,3.0
numOfCh,1
type,point
parent_name,34766_0dot08-1dot0
ch_type,1_1
kcount,1
numberNandB,1
brightnessNandB,1
carpet pos,0
pc,0
Time (ms),CH1 Auto-Correlation
1.0,0.019576366990804672
2.0,0.019373610615730286
3.0,0.019192315638065338
4.0,0.019010605290532112
5.0,0.018831243738532066
6.0,0.018653512001037598
7.0,0.01848064549267292
8.0,0.018310541287064552
9.0,0.01814156398177147
10.0,0.017966575920581818
11.0,0.017800331115722656
12.0,0.017634710296988487
13.0,0.01746656745672226
14.0,0.017299072816967964
15.0,0.017134131863713264
16.0,0.016974665224552155
18.0,0.016660446301102638
20.0,0.016367079690098763
22.0,0.016060953959822655
24.0,0.015759902074933052
26.0,0.015473353676497936
28.0,0.015211054123938084
30.0,0.014949426054954529
32.0,0.014700301922857761
36.0,0.01424750778824091
40.0,0.013821096159517765
44.0,0.013434452004730701
48.0,0.013081789948046207
52.0,0.012726472690701485
56.0,0.01239667646586895
60.0,0.012114926241338253
64.0,0.011852997355163097
72.0,0.011238915845751762
80.0,0.010608412325382233
88.0,0.01005734782665968
96.0,0.009583615697920322
104.0,0.009172329679131508
112.0,0.00884921569377184
120.0,0.008506273850798607
128.0,0.00818389467895031
144.0,0.007504213601350784
160.0,0.006812960375100374
176.0,0.006268239114433527
192.0,0.0058134193532168865
208.0,0.005415452178567648
224.0,0.005120908375829458
240.0,0.004707368090748787
256.0,0.004254690371453762
288.0,0.003567586187273264
320.0,0.002846130169928074
352.0,0.002594515448436141
384.0,0.001976001774892211
416.0,0.0013841320760548115
448.0,0.000995734124444425
480.0,0.001064585754647851
512.0,0.0009320257813669741
576.0,-3.239744182792492e-05
640.0,-0.0001658014953136444
704.0,-0.0004619243845809251
768.0,-0.0014106124872341752
832.0,-0.0018324180273339152
896.0,-0.0015100926393643022
960.0,-0.0009478143183514476
1024.0,-0.0003218121128156781
1152.0,-0.0006701393285766244
1280.0,-0.001061930786818266
1408.0,-0.0006533350679092109
1536.0,-0.0010691187344491482
1664.0,-9.71917252172716e-05
1792.0,0.0013412912376224995
1920.0,0.001865420606918633
2048.0,0.002927027642726898
2304.0,0.0013122730888426304
2560.0,-0.0016513686859980226
2816.0,-0.004417126532644033
3072.0,-0.004271345678716898
3328.0,-0.0021463942248374224
3584.0,-0.0009620072087273002
3840.0,0.0014944201102480292
4096.0,0.0007807014626450837
4608.0,-0.002319454913958907
5120.0,-0.0006153971189633012
5632.0,0.00013319225399754941
6144.0,0.0014581126160919666
6656.0,-0.0005622786120511591
7168.0,-0.00013168180885259062
7680.0,0.00325436401180923
8192.0,-0.0016740912105888128
end
