version,3.0
numOfCh,1
type,point
parent_name,34766_0dot08-1dot0
ch_type,1_1
kcount,1
numberNandB,1
brightnessNandB,1
carpet pos,0
pc,0
Time (ms),CH1 Auto-Correlation
1.0,0.0252198688685894
2.0,0.024981258437037468
3.0,0.024757614359259605
4.0,0.024544931948184967
5.0,0.024354223161935806
6.0,0.02418995089828968
7.0,0.024031691253185272
8.0,0.023870673030614853
9.0,0.023711128160357475
10.0,0.023546963930130005
11.0,0.02338234893977642
12.0,0.0232316255569458
13.0,0.023080408573150635
14.0,0.022924983873963356
15.0,0.022767161950469017
16.0,0.022612273693084717
18.0,0.02232331968843937
20.0,0.02206256613135338
22.0,0.02181519940495491
24.0,0.021561453118920326
26.0,0.021292556077241898
28.0,0.021022435277700424
30.0,0.020760785788297653
32.0,0.020494168624281883
36.0,0.019943030551075935
40.0,0.019421545788645744
44.0,0.01891290210187435
48.0,0.018405640497803688
52.0,0.01793072186410427
56.0,0.017482340335845947
60.0,0.01705200783908367
64.0,0.016654638573527336
72.0,0.01593506522476673
80.0,0.015253053978085518
88.0,0.014578772708773613
96.0,0.013997510075569153
104.0,0.013435590080916882
112.0,0.012866945005953312
120.0,0.012309091165661812
128.0,0.011765120550990105
144.0,0.010702835395932198
160.0,0.009783484041690826
176.0,0.009024029597640038
192.0,0.008450161665678024
208.0,0.007806591223925352
224.0,0.007097556721419096
240.0,0.006624079309403896
256.0,0.006190096028149128
288.0,0.005669400095939636
320.0,0.00513938395306468
352.0,0.004626648500561714
384.0,0.004072798416018486
416.0,0.0030604375060647726
448.0,0.00228308723308146
480.0,0.0017898876685649157
512.0,0.0018654470331966877
576.0,0.0021561812609434128
640.0,0.0023511091712862253
704.0,0.0022811745293438435
768.0,0.001556328497827053
832.0,0.0007366864010691643
896.0,0.0006132615962997079
960.0,0.00046850816579535604
1024.0,4.258595436112955e-05
1152.0,-0.0021221775095909834
1280.0,-0.0013192746555432677
1408.0,-0.0004316584672778845
1536.0,0.00016508593398611993
1664.0,0.0015098039293661714
1792.0,0.0016454164870083332
1920.0,0.0025702582206577063
2048.0,0.004772744607180357
2304.0,0.0033260961063206196
2560.0,-0.001248125801794231
2816.0,-0.002923322608694434
3072.0,-0.0024551446549594402
3328.0,-0.0030613956041634083
3584.0,-0.0012438205303624272
3840.0,0.0007820547907613218
4096.0,-0.0003350228362251073
4608.0,-0.0034574451856315136
5120.0,-0.004850677214562893
5632.0,-0.002273803809657693
6144.0,0.00031055184081196785
6656.0,0.001422042609192431
7168.0,-0.00337425759062171
7680.0,0.0005115374224260449
8192.0,0.0019918817561119795
end
