version,3.0
numOfCh,1
type,point
parent_name,34766_0dot08-1dot0
ch_type,1_1
kcount,1
numberNandB,1
brightnessNandB,1
carpet pos,0
pc,0
Time (ms),CH1 Auto-Correlation
1.0,0.01803969219326973
2.0,0.017797181382775307
3.0,0.017591631039977074
4.0,0.0173939261585474
5.0,0.01720327138900757
6.0,0.017009519040584564
7.0,0.016828417778015137
8.0,0.016651663929224014
9.0,0.016486182808876038
10.0,0.016324704512953758
11.0,0.016173213720321655
12.0,0.016012653708457947
13.0,0.015862246975302696
14.0,0.01571584679186344
15.0,0.015565921552479267
16.0,0.015417812392115593
18.0,0.015136689879000187
20.0,0.014862875454127789
22.0,0.014605316333472729
24.0,0.014352933503687382
26.0,0.014099109917879105
28.0,0.013868332840502262
30.0,0.013640490360558033
32.0,0.013411068357527256
36.0,0.012987697497010231
40.0,0.01260315626859665
44.0,0.012210301123559475
48.0,0.011815715581178665
52.0,0.01143757626414299
56.0,0.011064363643527031
60.0,0.010727587155997753
64.0,0.01039826963096857
72.0,0.009775437414646149
80.0,0.009230142459273338
88.0,0.008744279853999615
96.0,0.008345194160938263
104.0,0.00796976126730442
112.0,0.007580847013741732
120.0,0.007216728758066893
128.0,0.006928800139576197
144.0,0.006481817923486233
160.0,0.006187697872519493
176.0,0.0060256789438426495
192.0,0.005897470284253359
208.0,0.005817096680402756
224.0,0.005626843776553869
240.0,0.0052293939515948296
256.0,0.00457788398489356
288.0,0.0038706096820533276
320.0,0.0035746986977756023
352.0,0.0032325424253940582
384.0,0.002876824466511607
416.0,0.002554892795160413
448.0,0.002372687216848135
480.0,0.001931868027895689
512.0,0.0015494818799197674
576.0,0.0014945053262636065
640.0,0.0017327427631244063
704.0,0.0008807634585537016
768.0,0.000154596971697174
832.0,-0.000395874900277704
896.0,-0.0008838459616526961
960.0,-0.001326013938523829
1024.0,-0.0018515900010243058
1152.0,-0.0016092628939077258
1280.0,-0.0009167112875729799
1408.0,-0.0005282458732835948
1536.0,0.0004054242745041847
1664.0,0.0005746273091062903
1792.0,0.0006847273325547576
1920.0,0.0007226727902889252
2048.0,0.001532544381916523
2304.0,-0.0003180700587108731
2560.0,-0.0007735671824775636
2816.0,-0.0003565450315363705
3072.0,-9.920638694893569e-05
3328.0,0.0018345651915296912
3584.0,0.0019461442716419697
3840.0,-0.00021076704433653504
4096.0,-0.0008081770502030849
4608.0,-0.002324160421267152
5120.0,-0.0010847682133316994
5632.0,0.0011274722637608647
6144.0,0.001279621385037899
6656.0,0.002124847611412406
7168.0,0.0019865252543240786
7680.0,-0.0013895999873057008
8192.0,-0.003868873929604888
end
