version,3.0
numOfCh,1
type,point
parent_name,34766_0dot08-1dot0
ch_type,1_1
kcount,1
numberNandB,1
brightnessNandB,1
carpet pos,0
pc,0
Time (ms),CH1 Auto-Correlation
1.0,0.020518900826573372
2.0,0.020304709672927856
3.0,0.020114189013838768
4.0,0.01992781087756157
5.0,0.01975327357649803
6.0,0.01958790421485901
7.0,0.019420353695750237
8.0,0.019259396940469742
9.0,0.019107546657323837
10.0,0.018964802846312523
11.0,0.018829353153705597
12.0,0.018695572391152382
13.0,0.018552418798208237
14.0,0.018415460363030434
15.0,0.01828153058886528
16.0,0.018147652968764305
18.0,0.017891522496938705
20.0,0.01761845499277115
22.0,0.017351878806948662
24.0,0.017083410173654556
26.0,0.016825251281261444
28.0,0.01657971739768982
30.0,0.016346093267202377
32.0,0.016118641942739487
36.0,0.015680527314543724
40.0,0.015246930532157421
44.0,0.014809629879891872
48.0,0.014385329559445381
52.0,0.013986474834382534
56.0,0.013592521660029888
60.0,0.013193781487643719
64.0,0.012824466452002525
72.0,0.012113003060221672
80.0,0.011427103541791439
88.0,0.01086066011339426
96.0,0.010398652404546738
104.0,0.009941245429217815
112.0,0.009473872371017933
120.0,0.009006628766655922
128.0,0.00856005772948265
144.0,0.007996332831680775
160.0,0.0074823349714279175
176.0,0.006981139071285725
192.0,0.006505552679300308
208.0,0.006084483582526445
224.0,0.005622401833534241
240.0,0.005167006049305201
256.0,0.004694686736911535
288.0,0.0037925036158412695
320.0,0.0028907922096550465
352.0,0.002450886880978942
384.0,0.0022368186619132757
416.0,0.002136480063199997
448.0,0.0024368043523281813
480.0,0.0029136540833860636
512.0,0.0032600255217403173
576.0,0.002738417126238346
640.0,0.0020803138613700867
704.0,0.0018326862482354045
768.0,0.0010519351344555616
832.0,0.00048472333583049476
896.0,0.0011474423808977008
960.0,0.0019108133856207132
1024.0,0.001725278445519507
1152.0,0.0014176389668136835
1280.0,0.001033359789289534
1408.0,0.0009631348657421768
1536.0,0.001006847363896668
1664.0,4.069199712830596e-05
1792.0,-0.001321648247539997
1920.0,-0.0006203639786690474
2048.0,0.0005368012934923172
2304.0,0.0012574623106047511
2560.0,0.0029052644968032837
2816.0,0.002840478904545307
3072.0,0.0034970503766089678
3328.0,-0.0013577267527580261
3584.0,-0.0007537850178778172
3840.0,-0.0018708071438595653
4096.0,-0.0009267913992516696
4608.0,-0.0012294590706005692
5120.0,0.000921520811971277
5632.0,0.002510226797312498
6144.0,0.0005944716976955533
6656.0,2.9642034860444255e-05
7168.0,-0.002483429852873087
7680.0,-0.0017545815790072083
8192.0,-0.002809359924867749
end
