version,3.0
numOfCh,1
type,point
parent_name,34766_0dot08-1dot0
ch_type,1_1
kcount,1
numberNandB,1
brightnessNandB,1
carpet pos,0
pc,0
Time (ms),CH1 Auto-Correlation
1.0,0.021333787590265274
2.0,0.021116560325026512
3.0,0.02091103605926037
4.0,0.020721012726426125
5.0,0.02052229829132557
6.0,0.020336870104074478
7.0,0.02014758810400963
8.0,0.019972894340753555
9.0,0.01979972794651985
10.0,0.019629480317234993
11.0,0.019456317648291588
12.0,0.01929047890007496
13.0,0.019118474796414375
14.0,0.01895175129175186
15.0,0.018780307844281197
16.0,0.018612347543239594
18.0,0.018278583884239197
20.0,0.017959870398044586
22.0,0.017659958451986313
24.0,0.017372582107782364
26.0,0.017097890377044678
28.0,0.016834093257784843
30.0,0.0165706817060709
32.0,0.01631821133196354
36.0,0.01584693230688572
40.0,0.015403024852275848
44.0,0.014971278607845306
48.0,0.014544202014803886
52.0,0.01415747869759798
56.0,0.01381722278892994
60.0,0.013499649241566658
64.0,0.013198892585933208
72.0,0.012659119442105293
80.0,0.012183521874248981
88.0,0.011706226505339146
96.0,0.011207940988242626
104.0,0.010869194753468037
112.0,0.010624316520988941
120.0,0.010301021859049797
128.0,0.009920918382704258
144.0,0.00910863559693098
160.0,0.0083349933847785
176.0,0.007675639353692532
192.0,0.007210555486381054
208.0,0.006854870356619358
224.0,0.006407148204743862
240.0,0.0057318489998579025
256.0,0.005133426282554865
288.0,0.004056953825056553
320.0,0.003046412719413638
352.0,0.0024948951322585344
384.0,0.0019756003748625517
416.0,0.0010290653444826603
448.0,0.00012937434075865895
480.0,-0.00013439080794341862
512.0,-0.00016802999016363174
576.0,-0.0001228440087288618
640.0,0.00030304063693620265
704.0,-0.0010320591973140836
768.0,-0.001269454718567431
832.0,-0.0010755864204838872
896.0,-0.0009336339426226914
960.0,-0.0005010677268728614
1024.0,-0.0002855577040463686
1152.0,-8.628844625491183e-07
1280.0,-0.00028179443324916065
1408.0,-0.00041012594010680914
1536.0,-0.001151123084127903
1664.0,-0.0019130032742395997
1792.0,-0.002932473551481962
1920.0,-0.0023233755491673946
2048.0,-0.0009889506036415696
2304.0,-0.0013165735872462392
2560.0,-0.00013627877342514694
2816.0,0.0012535469140857458
3072.0,0.002710031345486641
3328.0,0.002168175531551242
3584.0,0.002642241073772311
3840.0,0.0008444784325547516
4096.0,-0.0002539526904001832
4608.0,-0.0035908606369048357
5120.0,-0.0033909433986991644
5632.0,0.0003915886045433581
6144.0,-0.0006689911824651062
6656.0,0.0010029043769463897
7168.0,0.00179521762765944
7680.0,-0.00039720337372273207
8192.0,-0.003615152556449175
end
