version,3.0
numOfCh,1
type,point
parent_name,34766_0dot08-1dot0
ch_type,1_1
kcount,1
numberNandB,1
brightnessNandB,1
carpet pos,0
pc,0
Time (ms),CH1 Auto-Correlation
1.0,0.02808495983481407
2.0,0.02786281332373619
3.0,0.02766873501241207
4.0,0.02748117595911026
5.0,0.02730313129723072
6.0,0.02713448368012905
7.0,0.026957055553793907
8.0,0.02678472362458706
9.0,0.026613513007760048
10.0,0.02644478715956211
11.0,0.026281999424099922
12.0,0.026122799143195152
13.0,0.025963671505451202
14.0,0.025806836783885956
15.0,0.02564844861626625
16.0,0.025502635166049004
18.0,0.025206785649061203
20.0,0.024929292500019073
22.0,0.024658463895320892
24.0,0.024398379027843475
26.0,0.024139510467648506
28.0,0.023866480216383934
30.0,0.023586170747876167
32.0,0.023325039073824883
36.0,0.022824779152870178
40.0,0.02235758677124977
44.0,0.021886849775910378
48.0,0.02140253409743309
52.0,0.020968327298760414
56.0,0.020576350390911102
60.0,0.02018711343407631
64.0,0.019788725301623344
72.0,0.01898883655667305
80.0,0.01827450655400753
88.0,0.017577219754457474
96.0,0.017019663006067276
104.0,0.0165521539747715
112.0,0.016069121658802032
120.0,0.015621146187186241
128.0,0.01517868135124445
144.0,0.014444437809288502
160.0,0.013938100077211857
176.0,0.013610860332846642
192.0,0.013369552791118622
208.0,0.013065341860055923
224.0,0.012700144201517105
240.0,0.012385311536490917
256.0,0.012025564908981323
288.0,0.01157693937420845
320.0,0.010963129810988903
352.0,0.010445432737469673
384.0,0.009501500986516476
416.0,0.008799427188932896
448.0,0.00834149494767189
480.0,0.008107881061732769
512.0,0.007830938324332237
576.0,0.006933712400496006
640.0,0.005955718457698822
704.0,0.005628255661576986
768.0,0.005166655406355858
832.0,0.004444757476449013
896.0,0.003801549319177866
960.0,0.0025022458285093307
1024.0,0.0015536032151430845
1152.0,0.0017933809431269765
1280.0,0.0005880526732653379
1408.0,0.001058922498486936
1536.0,0.0005099134868942201
1664.0,-0.0007584679406136274
1792.0,-0.0027924429159611464
1920.0,-0.0033283899538218975
2048.0,-0.0038222193252295256
2304.0,-0.00373299652710557
2560.0,-0.002289928263053298
2816.0,-0.0008309523691423237
3072.0,-0.0006222622469067574
3328.0,-0.0003474162076599896
3584.0,-0.0022196366917341948
3840.0,-0.003281091107055545
4096.0,-0.002159642055630684
4608.0,-0.0015423463191837072
5120.0,-0.0005773867596872151
5632.0,-0.005945430602878332
6144.0,-0.006648730020970106
6656.0,-0.006904025096446276
7168.0,-0.004791161045432091
7680.0,0.0013530723517760634
8192.0,0.0055625285021960735
end
