version,3.0
numOfCh,1
type,point
parent_name,34766_0dot08-1dot0
ch_type,1_1
kcount,1
numberNandB,1
brightnessNandB,1
carpet pos,0
pc,0
Time (ms),CH1 Auto-Correlation
1.0,0.017707522958517075
2.0,0.017503494396805763
3.0,0.017314502969384193
4.0,0.017125140875577927
5.0,0.01694241166114807
6.0,0.01676398143172264
7.0,0.016595128923654556
8.0,0.01643379218876362
9.0,0.016274547204375267
10.0,0.016125138849020004
11.0,0.015974372625350952
12.0,0.015832852572202682
13.0,0.01568119414150715
14.0,0.015537627972662449
15.0,0.01539129763841629
16.0,0.015243208035826683
18.0,0.014960858039557934
20.0,0.014687281101942062
22.0,0.014421211555600166
24.0,0.014161836355924606
26.0,0.013916080817580223
28.0,0.013678006827831268
30.0,0.01345484796911478
32.0,0.013228390365839005
36.0,0.01276388019323349
40.0,0.012308843433856964
44.0,0.011885115876793861
48.0,0.011485894210636616
52.0,0.011113429442048073
56.0,0.010744198225438595
60.0,0.010356348939239979
64.0,0.009978429414331913
72.0,0.00934702716767788
80.0,0.008766156621277332
88.0,0.008214196190237999
96.0,0.007735517807304859
104.0,0.007292572874575853
112.0,0.006886760238558054
120.0,0.0064626350067555904
128.0,0.006049399264156818
144.0,0.005276297684758902
160.0,0.004744783975183964
176.0,0.004262836650013924
192.0,0.0037977248430252075
208.0,0.0033955886028707027
224.0,0.0031414246186614037
240.0,0.003010180313140154
256.0,0.0029102640692144632
288.0,0.002540743676945567
320.0,0.002288317307829857
352.0,0.0022742107976228
384.0,0.002087709028273821
416.0,0.0016337819397449493
448.0,0.0012515701819211245
480.0,0.0010592334438115358
512.0,0.0014427925925701857
576.0,0.0013530412688851357
640.0,0.0005630464875139296
704.0,-0.00027685912209562957
768.0,-0.0012182655045762658
832.0,-0.0013601091923192143
896.0,-0.0007758184801787138
960.0,-0.00020043824042659253
1024.0,-0.0002860992099158466
1152.0,0.0001493121380917728
1280.0,0.0006869196076877415
1408.0,0.0008267396478913724
1536.0,0.0010848274687305093
1664.0,-1.6555779438931495e-05
1792.0,-0.0006472730892710388
1920.0,-0.0005714690196327865
2048.0,-0.0002855031634680927
2304.0,-0.00012288779544178396
2560.0,0.0005938130780123174
2816.0,0.0009361483971588314
3072.0,0.0019650752656161785
3328.0,0.001457481412217021
3584.0,0.0013338737189769745
3840.0,0.0002581576118245721
4096.0,-0.001426593866199255
4608.0,-0.002220544498413801
5120.0,-0.0012531615793704987
5632.0,-0.0012677926570177078
6144.0,-0.0022670722100883722
6656.0,-0.0013716036919504404
7168.0,-0.0006513927364721894
7680.0,-0.0006997687160037458
8192.0,-0.0016361628659069538
end
