version,3.0
numOfCh,1
type,point
parent_name,34766_0dot08-1dot0
ch_type,1_1
kcount,1
numberNandB,1
brightnessNandB,1
carpet pos,0
pc,0
Time (ms),CH1 Auto-Correlation
1.0,0.016483474522829056
2.0,0.016302116215229034
3.0,0.01612413488328457
4.0,0.01595616154372692
5.0,0.01578766107559204
6.0,0.015624172985553741
7.0,0.015461424365639687
8.0,0.015306785702705383
9.0,0.015153571963310242
10.0,0.015003291890025139
11.0,0.014854277484118938
12.0,0.014706236310303211
13.0,0.014559509232640266
14.0,0.014418341219425201
15.0,0.014275815337896347
16.0,0.014133496209979057
18.0,0.01385814230889082
20.0,0.013589964248239994
22.0,0.013323375955224037
24.0,0.01305800024420023
26.0,0.012797319330275059
28.0,0.012545577250421047
30.0,0.012316260486841202
32.0,0.012116899713873863
36.0,0.011738642118871212
40.0,0.011351259425282478
44.0,0.010965161956846714
48.0,0.010610038414597511
52.0,0.010262126103043556
56.0,0.00994950346648693
60.0,0.009664589539170265
64.0,0.009393054060637951
72.0,0.008850526995956898
80.0,0.00834640208631754
88.0,0.0079082315787673
96.0,0.0075106848962605
104.0,0.00714111328125
112.0,0.006805918179452419
120.0,0.006483491510152817
128.0,0.0062121921218931675
144.0,0.005605247337371111
160.0,0.005045019090175629
176.0,0.0047076609916985035
192.0,0.0045263804495334625
208.0,0.004358242265880108
224.0,0.004234050866216421
240.0,0.004093711730092764
256.0,0.0038269602227956057
288.0,0.0035918394569307566
320.0,0.0036930080968886614
352.0,0.003194438060745597
384.0,0.0028163257520645857
416.0,0.002850476885214448
448.0,0.0027799189556390047
480.0,0.0026880563236773014
512.0,0.002437227638438344
576.0,0.001606159028597176
640.0,0.0009091029642149806
704.0,0.0007133177714422345
768.0,0.0005100197158753872
832.0,0.0001574745838297531
896.0,-7.797171974743833e-07
960.0,-0.00020532066992018372
1024.0,-0.00018871323845814914
1152.0,0.0003866493352688849
1280.0,0.0008247426012530923
1408.0,0.0005885902210138738
1536.0,0.0007294586976058781
1664.0,0.0006006889161653817
1792.0,-0.0007093205349519849
1920.0,-0.0019046677043661475
2048.0,-0.0006661723600700498
2304.0,0.00236951420083642
2560.0,0.003245995845645666
2816.0,0.0031769024208188057
3072.0,0.001550685497932136
3328.0,-0.0006623778608627617
3584.0,-0.00043564458610489964
3840.0,0.0016045205993577838
4096.0,0.0003297050134278834
4608.0,0.0006093715783208609
5120.0,0.0013036478776484728
5632.0,-0.0008394928881898522
6144.0,-0.002638179576024413
6656.0,-0.0029530778992921114
7168.0,-0.0022268074098974466
7680.0,0.0012760855024680495
8192.0,-0.0004649101756513119
end
