version,3.0
numOfCh,1
type,point
parent_name,34766_0dot08-1dot0
ch_type,1_1
kcount,1
numberNandB,1
brightnessNandB,1
carpet pos,0
pc,0
Time (ms),CH1 Auto-Correlation
1.0,0.017542993649840355
2.0,0.017332404851913452
3.0,0.017127348110079765
4.0,0.016927223652601242
5.0,0.01673428900539875
6.0,0.016545388847589493
7.0,0.016359588131308556
8.0,0.016179310157895088
9.0,0.0160078015178442
10.0,0.01584244705736637
11.0,0.01568484492599964
12.0,0.015532033517956734
13.0,0.01537779439240694
14.0,0.015225620940327644
15.0,0.015080477111041546
16.0,0.014939193613827229
18.0,0.014676500111818314
20.0,0.01441926322877407
22.0,0.01415872573852539
24.0,0.0138937346637249
26.0,0.013640067540109158
28.0,0.013394749723374844
30.0,0.013177226297557354
32.0,0.012967953458428383
36.0,0.012547018937766552
40.0,0.012163217179477215
44.0,0.011801979504525661
48.0,0.011454661376774311
52.0,0.011135715059936047
56.0,0.010863124392926693
60.0,0.010622619651257992
64.0,0.010401461273431778
72.0,0.009985994547605515
80.0,0.00954308919608593
88.0,0.009056087583303452
96.0,0.008597169071435928
104.0,0.008303795009851456
112.0,0.008061644621193409
120.0,0.007838086225092411
128.0,0.007592289242893457
144.0,0.007125552278012037
160.0,0.006640708073973656
176.0,0.006095802411437035
192.0,0.00555738341063261
208.0,0.005111977458000183
224.0,0.004806315992027521
240.0,0.004355438053607941
256.0,0.00398674001917243
288.0,0.0033466918393969536
320.0,0.002681506099179387
352.0,0.0019389893859624863
384.0,0.001374119077809155
416.0,0.001021850504912436
448.0,0.000598245591390878
480.0,0.00015567806258331984
512.0,-0.00025552892475388944
576.0,-4.487889600568451e-05
640.0,0.00048608286306262016
704.0,0.00027189930551685393
768.0,0.00011731204722309485
832.0,-6.995627336436883e-05
896.0,-0.00025084949447773397
960.0,-0.00015694790636189282
1024.0,-0.0006023607566021383
1152.0,-0.0014574119122698903
1280.0,-0.002289408352226019
1408.0,-0.002253403654322028
1536.0,-0.0009340924443677068
1664.0,0.0005927133024670184
1792.0,0.0011183760361745954
1920.0,0.00045766073162667453
2048.0,0.0006608978728763759
2304.0,-0.0011326275998726487
2560.0,-0.00259589240886271
2816.0,-0.00036507126060314476
3072.0,0.00041493901517242193
3328.0,-0.0004107635759282857
3584.0,0.0011048517189919949
3840.0,0.0022595906630158424
4096.0,-0.000831638986710459
4608.0,-0.00013330450747162104
5120.0,0.0006198463379405439
5632.0,0.0011429354781284928
6144.0,0.0013711893698200583
6656.0,-0.00034234090708196163
7168.0,-0.0035030459985136986
7680.0,-0.0013175002532079816
8192.0,0.0007563548278994858
end
