version,3.0
numOfCh,1
type,point
parent_name,34766_0dot08-1dot0
ch_type,1_1
kcount,1
numberNandB,1
brightnessNandB,1
carpet pos,0
pc,0
Time (ms),CH1 Auto-Correlation
1.0,0.019100617617368698
2.0,0.018902326002717018
3.0,0.01871374621987343
4.0,0.018526379019021988
5.0,0.01834676042199135
6.0,0.018168805167078972
7.0,0.01799027994275093
8.0,0.017816700041294098
9.0,0.017646487802267075
10.0,0.01747218146920204
11.0,0.017298607155680656
12.0,0.017125429585576057
13.0,0.016957268118858337
14.0,0.016797101125121117
15.0,0.016632413491606712
16.0,0.016468726098537445
18.0,0.016153445467352867
20.0,0.01584562286734581
22.0,0.015548957511782646
24.0,0.01526602916419506
26.0,0.01498402003198862
28.0,0.014720109291374683
30.0,0.014458641409873962
32.0,0.01420763973146677
36.0,0.013698921538889408
40.0,0.013162910006940365
44.0,0.01265039760619402
48.0,0.012181446887552738
52.0,0.011704486794769764
56.0,0.011240365915000439
60.0,0.010800935328006744
64.0,0.010400807484984398
72.0,0.009658006019890308
80.0,0.008940152823925018
88.0,0.008294547908008099
96.0,0.0077565573155879974
104.0,0.0073319245129823685
112.0,0.0069541893899440765
120.0,0.0065681287087500095
128.0,0.006195941008627415
144.0,0.005649755243211985
160.0,0.005313370376825333
176.0,0.005013481248170137
192.0,0.004756259731948376
208.0,0.004551477264612913
224.0,0.004268588498234749
240.0,0.003927321173250675
256.0,0.003680318361148238
288.0,0.0031271129846572876
320.0,0.0028271146584302187
352.0,0.002629463328048587
384.0,0.0025795313995331526
416.0,0.0026199384592473507
448.0,0.002561335451900959
480.0,0.002291653538122773
512.0,0.0018250972498208284
576.0,0.0006256246124394238
640.0,-0.0014273349661380053
704.0,-0.002091862028464675
768.0,-0.001900754519738257
832.0,-0.0013010732363909483
896.0,-0.0013105081161484122
960.0,-0.0008235116838477552
1024.0,-0.00035036751069128513
1152.0,-0.0010441903723403811
1280.0,0.00014794229355175048
1408.0,0.0008320716442540288
1536.0,0.0007147833239287138
1664.0,0.0011919448152184486
1792.0,0.0009607026586309075
1920.0,-0.00018759856175165623
2048.0,-0.0009279957157559693
2304.0,-0.0004938587080687284
2560.0,-0.0010439421748742461
2816.0,-0.0011011052411049604
3072.0,-0.0010992102324962616
3328.0,-0.0013267197646200657
3584.0,2.7669490009429865e-05
3840.0,0.00016059723566286266
4096.0,0.0004988000146113336
4608.0,-0.0017079999670386314
5120.0,-0.003208477282896638
5632.0,0.00017183850286528468
6144.0,-1.129575593949994e-05
6656.0,-0.002015207428485155
7168.0,0.0019508585100993514
7680.0,0.0023396743927150965
8192.0,-0.0005262335762381554
end
