version,3.0
numOfCh,1
type,point
parent_name,34766_0dot08-1dot0
ch_type,1_1
kcount,1
numberNandB,1
brightnessNandB,1
carpet pos,0
pc,0
Time (ms),CH1 Auto-Correlation
1.0,0.027482714504003525
2.0,0.02726634405553341
3.0,0.027069134637713432
4.0,0.026884358376264572
5.0,0.026707787066698074
6.0,0.026536285877227783
7.0,0.02636190503835678
8.0,0.026187216863036156
9.0,0.026017457246780396
10.0,0.025838201865553856
11.0,0.02567458339035511
12.0,0.025508873164653778
13.0,0.025351444259285927
14.0,0.025197772309184074
15.0,0.025042131543159485
16.0,0.024881504476070404
18.0,0.024566130712628365
20.0,0.024251388385891914
22.0,0.023930836468935013
24.0,0.023604553192853928
26.0,0.023266734555363655
28.0,0.022941408678889275
30.0,0.02261674776673317
32.0,0.022302184253931046
36.0,0.021699482575058937
40.0,0.02113763988018036
44.0,0.02061842940747738
48.0,0.020108070224523544
52.0,0.019625185057520866
56.0,0.0191743653267622
60.0,0.018752798438072205
64.0,0.018338464200496674
72.0,0.017467791214585304
80.0,0.016609208658337593
88.0,0.01578618586063385
96.0,0.015051310881972313
104.0,0.014425079338252544
112.0,0.013815817423164845
120.0,0.0131602231413126
128.0,0.012545119971036911
144.0,0.01143973134458065
160.0,0.010605582036077976
176.0,0.009794055484235287
192.0,0.008946511894464493
208.0,0.008413417264819145
224.0,0.00812497828155756
240.0,0.00794325489550829
256.0,0.007793532218784094
288.0,0.007345458026975393
320.0,0.0071333847008645535
352.0,0.0071488032117486
384.0,0.007243172265589237
416.0,0.007083210162818432
448.0,0.006664080545306206
480.0,0.0061643063090741634
512.0,0.005658784881234169
576.0,0.005035313777625561
640.0,0.003953568637371063
704.0,0.003493231488391757
768.0,0.004057642072439194
832.0,0.004624250344932079
896.0,0.004421786405146122
960.0,0.002991248155012727
1024.0,0.0018392535857856274
1152.0,0.0004528367717284709
1280.0,-0.0007123048417270184
1408.0,-0.0028494582511484623
1536.0,-0.0031226775608956814
1664.0,-0.0020760761108249426
1792.0,-0.0018607632955536246
1920.0,-0.001975885359570384
2048.0,-0.0014982515713199973
2304.0,-0.0020704700145870447
2560.0,-0.0015003057196736336
2816.0,0.0016702670836821198
3072.0,0.0020348094403743744
3328.0,-0.0010823918273672462
3584.0,-0.001283978926949203
3840.0,1.6487321772729047e-05
4096.0,-0.0017808376578614116
4608.0,5.822747334605083e-05
5120.0,-0.0027130814269185066
5632.0,-0.00587387103587389
6144.0,-0.0054463911801576614
6656.0,-0.0056694732047617435
7168.0,-0.004374160896986723
7680.0,0.000125668419059366
8192.0,0.0005836415803059936
end
