version,3.0
numOfCh,1
type,point
parent_name,34766_0dot08-1dot0
ch_type,1_1
kcount,1
numberNandB,1
brightnessNandB,1
carpet pos,0
pc,0
Time (ms),CH1 Auto-Correlation
1.0,0.02224554866552353
2.0,0.022046299651265144
3.0,0.021850252524018288
4.0,0.02165830321609974
5.0,0.021476900205016136
6.0,0.021288925781846046
7.0,0.02111615426838398
8.0,0.020940406247973442
9.0,0.020766811445355415
10.0,0.02059822343289852
11.0,0.02042829617857933
12.0,0.02026424929499626
13.0,0.02010638266801834
14.0,0.01994960568845272
15.0,0.019800448790192604
16.0,0.019648442044854164
18.0,0.019346989691257477
20.0,0.019044173881411552
22.0,0.018737465143203735
24.0,0.01845470629632473
26.0,0.01817578822374344
28.0,0.017889954149723053
30.0,0.017610054463148117
32.0,0.01733943447470665
36.0,0.016809899359941483
40.0,0.016314923763275146
44.0,0.015856869518756866
48.0,0.015428273938596249
52.0,0.01502081286162138
56.0,0.014627272263169289
60.0,0.014269137755036354
64.0,0.01393301784992218
72.0,0.01326725073158741
80.0,0.012693283148109913
88.0,0.012170909903943539
96.0,0.011714471504092216
104.0,0.011313539929687977
112.0,0.010991954244673252
120.0,0.010736733675003052
128.0,0.010516686365008354
144.0,0.010222453624010086
160.0,0.010100961662828922
176.0,0.0099665317684412
192.0,0.00971677154302597
208.0,0.009480816312134266
224.0,0.009192247875034809
240.0,0.008886108174920082
256.0,0.008677173405885696
288.0,0.008666832000017166
320.0,0.008209861814975739
352.0,0.007364222779870033
384.0,0.006700609344989061
416.0,0.006396670825779438
448.0,0.00637957314029336
480.0,0.0061584096401929855
512.0,0.005976865068078041
576.0,0.005632106680423021
640.0,0.005708005744963884
704.0,0.005755303427577019
768.0,0.00664632860571146
832.0,0.005865331273525953
896.0,0.004713356029242277
960.0,0.0033700973726809025
1024.0,0.0032081520184874535
1152.0,0.001083988812752068
1280.0,-0.00032867336994968355
1408.0,-0.00040668819565325975
1536.0,-0.0005325389211066067
1664.0,-0.0014040941605344415
1792.0,-0.0021127001382410526
1920.0,-0.004098000004887581
2048.0,-0.0049377442337572575
2304.0,-0.004253866150975227
2560.0,-0.005593849811702967
2816.0,-0.007124610710889101
3072.0,-0.0072852736338973045
3328.0,-0.004501075949519873
3584.0,-0.004814692307263613
3840.0,-0.0037500823382288218
4096.0,-0.003428726689890027
4608.0,-0.0008682921179570258
5120.0,0.0015959192533046007
5632.0,0.002337689744308591
6144.0,0.0041415272280573845
6656.0,0.004775937646627426
7168.0,0.004225119482725859
7680.0,0.002839786931872368
8192.0,-0.002711215056478977
end
