version,3.0
numOfCh,1
type,point
parent_name,34766_0dot08-1dot0
ch_type,1_1
kcount,1
numberNandB,1
brightnessNandB,1
carpet pos,0
pc,0
Time (ms),CH1 Auto-Correlation
1.0,0.023116251453757286
2.0,0.0228639654815197
3.0,0.022603681311011314
4.0,0.022402074187994003
5.0,0.022207293659448624
6.0,0.022026166319847107
7.0,0.021841343492269516
8.0,0.02167132869362831
9.0,0.021509366109967232
10.0,0.021344413980841637
11.0,0.02117912471294403
12.0,0.021020034328103065
13.0,0.02088019624352455
14.0,0.020737411454319954
15.0,0.02059817686676979
16.0,0.020465238019824028
18.0,0.0201925877481699
20.0,0.019922489300370216
22.0,0.019662542268633842
24.0,0.019416850060224533
26.0,0.01918570138514042
28.0,0.018946943804621696
30.0,0.01871189847588539
32.0,0.018482176586985588
36.0,0.018053416162729263
40.0,0.017673423513770103
44.0,0.017314976081252098
48.0,0.01696188561618328
52.0,0.01659376174211502
56.0,0.016207221895456314
60.0,0.015863925218582153
64.0,0.015550616197288036
72.0,0.014964503236114979
80.0,0.014442212879657745
88.0,0.013943244703114033
96.0,0.013525190763175488
104.0,0.013240407221019268
112.0,0.012946208007633686
120.0,0.01261729747056961
128.0,0.012235539965331554
144.0,0.011341786943376064
160.0,0.010380569845438004
176.0,0.009639793075621128
192.0,0.00901718158274889
208.0,0.008416839875280857
224.0,0.00789087824523449
240.0,0.007576490752398968
256.0,0.007343360222876072
288.0,0.006985339801758528
320.0,0.00677318312227726
352.0,0.006574058439582586
384.0,0.006271793507039547
416.0,0.006036731880158186
448.0,0.0054269516840577126
480.0,0.00431791041046381
512.0,0.0033387376461178064
576.0,0.0016688660252839327
640.0,0.0013097275514155626
704.0,0.0010947856353595853
768.0,0.001044743345119059
832.0,0.0008710846304893494
896.0,0.001316778245382011
960.0,0.0020662411116063595
1024.0,0.0032016001641750336
1152.0,0.003945908974856138
1280.0,0.0022913897410035133
1408.0,0.0022864574566483498
1536.0,0.0018069585785269737
1664.0,-0.000435307330917567
1792.0,-0.0018190930131822824
1920.0,-0.0025891289114952087
2048.0,-0.0034028429072350264
2304.0,-0.002404030179604888
2560.0,-0.0020661584567278624
2816.0,-0.003552413545548916
3072.0,-0.0018438443075865507
3328.0,-9.044100443134084e-05
3584.0,-0.0018341252580285072
3840.0,-0.00379682588391006
4096.0,-0.005598481744527817
4608.0,-0.0027464842423796654
5120.0,0.0009132626582868397
5632.0,-4.9721977120498195e-05
6144.0,0.0026569589972496033
6656.0,0.0007726821932010353
7168.0,0.0007242222782224417
7680.0,0.0027388453017920256
8192.0,0.003188759321346879
end
