version,3.0
numOfCh,1
type,point
parent_name,34766_0dot4-1dot0
ch_type,1_1
kcount,1
numberNandB,1
brightnessNandB,1
carpet pos,0
pc,0
Time (ms),CH1 Auto-Correlation
1.0,0.09305885434150696
2.0,0.088892363011837
3.0,0.08515550196170807
4.0,0.08168491721153259
5.0,0.07852635532617569
6.0,0.0755000188946724
7.0,0.07271687686443329
8.0,0.07008279114961624
9.0,0.06762946397066116
10.0,0.06516272574663162
11.0,0.0627008005976677
12.0,0.060407284647226334
13.0,0.05828499421477318
14.0,0.056326333433389664
15.0,0.054352328181266785
16.0,0.052551403641700745
18.0,0.04918383061885834
20.0,0.04637468233704567
22.0,0.04381660744547844
24.0,0.041433047503232956
26.0,0.03915822133421898
28.0,0.03733256831765175
30.0,0.03562571480870247
32.0,0.03409804403781891
36.0,0.03139175474643707
40.0,0.02948344498872757
44.0,0.0284285806119442
48.0,0.027056589722633362
52.0,0.02578147128224373
56.0,0.024327848106622696
60.0,0.022684980183839798
64.0,0.02094488963484764
72.0,0.01856580376625061
80.0,0.017183426767587662
88.0,0.016460712999105453
96.0,0.016254613175988197
104.0,0.01470328401774168
112.0,0.012210842221975327
120.0,0.010987783782184124
128.0,0.010228442028164864
144.0,0.010023302398622036
160.0,0.00880194827914238
176.0,0.00959181971848011
192.0,0.010387910529971123
208.0,0.010296760126948357
224.0,0.008544914424419403
240.0,0.00941411592066288
256.0,0.009337873198091984
288.0,0.007428547367453575
320.0,0.010282163508236408
352.0,0.011712097562849522
384.0,0.012409708462655544
416.0,0.012910044752061367
448.0,0.011692099273204803
480.0,0.0060316394083201885
512.0,0.0030131733510643244
576.0,0.003464154666289687
640.0,0.00315208756364882
704.0,-1.0925507012871094e-05
768.0,0.001986018382012844
832.0,0.0017787087708711624
896.0,0.0009712612954899669
960.0,-0.00010148777801077813
1024.0,-0.002583572641015053
1152.0,-0.0025692444760352373
1280.0,-0.002099910518154502
1408.0,-0.002547637792304158
1536.0,-0.001994156278669834
1664.0,-0.006061188410967588
1792.0,-0.002688548993319273
1920.0,0.0003145351365674287
2048.0,-0.0007234353688545525
2304.0,0.0026614826638251543
2560.0,0.0005150708020664752
2816.0,0.0025653906632214785
3072.0,0.0014305515214800835
3328.0,-0.0008771473658271134
3584.0,-0.0012191897258162498
3840.0,-0.0016547885024920106
4096.0,-0.0007939006318338215
4608.0,-0.0006564781651832163
5120.0,-0.002475519897416234
5632.0,-0.006707502529025078
6144.0,-0.006239397916942835
6656.0,0.0008455731440335512
7168.0,0.0013883925275877118
7680.0,-0.004145336337387562
8192.0,-0.01132631953805685
end
