version,3.0
numOfCh,1
type,point
parent_name,34766_0dot4-1dot0
ch_type,1_1
kcount,1
numberNandB,1
brightnessNandB,1
carpet pos,0
pc,0
Time (ms),CH1 Auto-Correlation
1.0,0.1018158569931984
2.0,0.09796518832445145
3.0,0.09442957490682602
4.0,0.09110894054174423
5.0,0.088163822889328
6.0,0.08537405729293823
7.0,0.08285508304834366
8.0,0.08043081313371658
9.0,0.07828759402036667
10.0,0.07625219225883484
11.0,0.07433810830116272
12.0,0.07246095687150955
13.0,0.07066963613033295
14.0,0.06902795284986496
15.0,0.06741888076066971
16.0,0.0657946988940239
18.0,0.06265544146299362
20.0,0.059751760214567184
22.0,0.057107459753751755
24.0,0.05474134907126427
26.0,0.05255526304244995
28.0,0.050748053938150406
30.0,0.049022991210222244
32.0,0.047288067638874054
36.0,0.04410297051072121
40.0,0.04081721231341362
44.0,0.038037195801734924
48.0,0.03621351346373558
52.0,0.034209638833999634
56.0,0.03200286626815796
60.0,0.029714057222008705
64.0,0.027803996577858925
72.0,0.025188559666275978
80.0,0.022466124966740608
88.0,0.020130876451730728
96.0,0.01738973893225193
104.0,0.014812925830483437
112.0,0.013273964636027813
120.0,0.01283661276102066
128.0,0.011235270649194717
144.0,0.005822937004268169
160.0,0.001981497509405017
176.0,0.0002775342727545649
192.0,-0.0021226045209914446
208.0,-0.0016354030231013894
224.0,-0.0005696571315638721
240.0,0.0014171514194458723
256.0,0.0026957462541759014
288.0,0.0025671946350485086
320.0,0.0032936132047325373
352.0,0.004034625366330147
384.0,0.0035577856469899416
416.0,0.0016582980751991272
448.0,0.001333675580099225
480.0,0.001077650347724557
512.0,0.003666567150503397
576.0,0.00353118940256536
640.0,-0.001439055660739541
704.0,-0.0038642766885459423
768.0,-0.004194620531052351
832.0,-0.0038187664467841387
896.0,-0.0018405766459181905
960.0,-0.004724299535155296
1024.0,-0.004176564980298281
1152.0,0.004064294043928385
1280.0,0.0076661608181893826
1408.0,0.009931306354701519
1536.0,0.0011828569695353508
1664.0,-0.005758500657975674
1792.0,0.005417351610958576
1920.0,-0.0020834740716964006
2048.0,-0.007093226071447134
2304.0,-0.0008464083657599986
2560.0,-0.005071718245744705
2816.0,-0.0028729455079883337
3072.0,-0.0023934056516736746
3328.0,-0.002817721338942647
3584.0,-0.0015173493884503841
3840.0,-0.00525507889688015
4096.0,-0.005068640690296888
4608.0,-0.002816867781803012
5120.0,-0.004806770943105221
5632.0,-0.0031929027754813433
6144.0,0.001351101091131568
6656.0,-2.3238835638039745e-06
7168.0,0.0019426664803177118
7680.0,0.005910415202379227
8192.0,0.005406401585787535
end
