version,3.0
numOfCh,1
type,point
parent_name,34766_0dot4-1dot0
ch_type,1_1
kcount,1
numberNandB,1
brightnessNandB,1
carpet pos,0
pc,0
Time (ms),CH1 Auto-Correlation
1.0,0.11842488497495651
2.0,0.11420055478811264
3.0,0.11037996411323547
4.0,0.10677754133939743
5.0,0.10347441583871841
6.0,0.10052412748336792
7.0,0.09761461615562439
8.0,0.09507811069488525
9.0,0.09275717288255692
10.0,0.09060539305210114
11.0,0.08872181922197342
12.0,0.08686566352844238
13.0,0.0850905105471611
14.0,0.08334244787693024
15.0,0.08169126510620117
16.0,0.07993405312299728
18.0,0.07670195400714874
20.0,0.0737764909863472
22.0,0.07124514877796173
24.0,0.06899729371070862
26.0,0.06656833738088608
28.0,0.06417396664619446
30.0,0.06194448471069336
32.0,0.059836313128471375
36.0,0.05607089027762413
40.0,0.052148424088954926
44.0,0.04880007356405258
48.0,0.04549846425652504
52.0,0.0420868918299675
56.0,0.03944558650255203
60.0,0.03756618872284889
64.0,0.03627149760723114
72.0,0.035412583500146866
80.0,0.03336414694786072
88.0,0.031152071431279182
96.0,0.029008807614445686
104.0,0.026061156764626503
112.0,0.024490252137184143
120.0,0.021651895716786385
128.0,0.018963778391480446
144.0,0.017055079340934753
160.0,0.01473326701670885
176.0,0.011209700256586075
192.0,0.009219568222761154
208.0,0.007857556454837322
224.0,0.006434950046241283
240.0,0.00649194186553359
256.0,0.006810544058680534
288.0,0.0009103561751544476
320.0,-0.0015791215701028705
352.0,0.0010269858175888658
384.0,0.002663990017026663
416.0,0.006052772514522076
448.0,0.0026756804436445236
480.0,-0.0002755885652732104
512.0,0.00022676429944112897
576.0,-0.002486729994416237
640.0,-0.006641581188887358
704.0,-0.01097743958234787
768.0,-0.01287466287612915
832.0,-0.0133206220343709
896.0,-0.011999206617474556
960.0,-0.007065479643642902
1024.0,-0.004648376721888781
1152.0,0.0039519052952528
1280.0,0.007981931790709496
1408.0,0.00463937409222126
1536.0,-0.0006242346717044711
1664.0,0.0009756530052982271
1792.0,0.0032732507679611444
1920.0,-0.009310719557106495
2048.0,-0.017192665487527847
2304.0,-0.004882694687694311
2560.0,-0.004651346709579229
2816.0,0.006828963756561279
3072.0,0.003529822453856468
3328.0,-0.01866014301776886
3584.0,-0.013767242431640625
3840.0,-0.014406144618988037
4096.0,0.010803467594087124
4608.0,0.008767575025558472
5120.0,-0.0025439676828682423
5632.0,0.00922677293419838
6144.0,0.00457119382917881
6656.0,0.0024515644181519747
7168.0,0.003956691827625036
7680.0,-0.009705980308353901
8192.0,-0.014026927761733532
end
