version,3.0
numOfCh,1
type,point
parent_name,34766_0dot4-1dot0
ch_type,1_1
kcount,1
numberNandB,1
brightnessNandB,1
carpet pos,0
pc,0
Time (ms),CH1 Auto-Correlation
1.0,0.11662836372852325
2.0,0.1123519241809845
3.0,0.10870182514190674
4.0,0.1053205132484436
5.0,0.10205436497926712
6.0,0.09902101010084152
7.0,0.09599243849515915
8.0,0.09322411566972733
9.0,0.09059647470712662
10.0,0.08813607692718506
11.0,0.08587270975112915
12.0,0.08357517421245575
13.0,0.08130444586277008
14.0,0.07911773025989532
15.0,0.0770009234547615
16.0,0.07493274658918381
18.0,0.0709688737988472
20.0,0.06705199927091599
22.0,0.06358546018600464
24.0,0.06019196659326553
26.0,0.05707487836480141
28.0,0.05396193638443947
30.0,0.0511951670050621
32.0,0.04901352897286415
36.0,0.045252472162246704
40.0,0.042281199246644974
44.0,0.03946443647146225
48.0,0.03608523681759834
52.0,0.03240830451250076
56.0,0.029103145003318787
60.0,0.025658439844846725
64.0,0.02271023392677307
72.0,0.019459139555692673
80.0,0.017831552773714066
88.0,0.016802679747343063
96.0,0.015085653401911259
104.0,0.013647504150867462
112.0,0.012900161556899548
120.0,0.012432064861059189
128.0,0.011820979416370392
144.0,0.010205274447798729
160.0,0.008981313556432724
176.0,0.005134930368512869
192.0,0.0015983636258170009
208.0,0.001146142603829503
224.0,0.0026892535388469696
240.0,0.002214204054325819
256.0,0.0006907799979671836
288.0,4.639625785785029e-06
320.0,-0.0007847746601328254
352.0,-0.0008454736671410501
384.0,-0.004936844576150179
416.0,-0.00506219919770956
448.0,-0.0035028865095227957
480.0,-0.0028375117108225822
512.0,-0.0009056733688339591
576.0,0.007819250226020813
640.0,0.010440675541758537
704.0,0.007189209572970867
768.0,0.0017920703394338489
832.0,0.004610417876392603
896.0,0.004249050747603178
960.0,-0.0008348833653144538
1024.0,-0.0004944052780047059
1152.0,-0.0016370549565181136
1280.0,-0.00786841195076704
1408.0,-0.005823264364153147
1536.0,-0.0021370439790189266
1664.0,0.003412144258618355
1792.0,0.005167748779058456
1920.0,-0.0007525417604483664
2048.0,-0.003645877121016383
2304.0,-0.006271098740398884
2560.0,-0.002818962326273322
2816.0,0.0007172045297920704
3072.0,-0.0034817319829016924
3328.0,-0.00038164621219038963
3584.0,-0.0010372251272201538
3840.0,-0.0018306381534785032
4096.0,-0.009210964664816856
4608.0,-0.0029920514207333326
5120.0,-0.0030717647168785334
5632.0,-0.0035358965396881104
6144.0,-0.00142183480784297
6656.0,0.0023773887660354376
7168.0,0.004854121711105108
7680.0,0.01566150225698948
8192.0,0.00674084248021245
end
