version,3.0
numOfCh,1
type,point
parent_name,34766_0dot4-1dot0
ch_type,1_1
kcount,1
numberNandB,1
brightnessNandB,1
carpet pos,0
pc,0
Time (ms),CH1 Auto-Correlation
1.0,0.10546078532934189
2.0,0.10156742483377457
3.0,0.09798590838909149
4.0,0.09473274648189545
5.0,0.09182272851467133
6.0,0.08909376710653305
7.0,0.08652325719594955
8.0,0.08412071317434311
9.0,0.08175878971815109
10.0,0.07947660237550735
11.0,0.07729124277830124
12.0,0.07525372505187988
13.0,0.07338526099920273
14.0,0.07165710628032684
15.0,0.0700162872672081
16.0,0.06851273030042648
18.0,0.06551755964756012
20.0,0.06257409602403641
22.0,0.05974181368947029
24.0,0.05743618682026863
26.0,0.05539510399103165
28.0,0.05318287014961243
30.0,0.051334455609321594
32.0,0.04954170435667038
36.0,0.046104222536087036
40.0,0.043217118829488754
44.0,0.04072277620434761
48.0,0.0381406731903553
52.0,0.03565515577793121
56.0,0.03356695920228958
60.0,0.03140193969011307
64.0,0.02915610373020172
72.0,0.02571514993906021
80.0,0.022674046456813812
88.0,0.019630296155810356
96.0,0.01790688931941986
104.0,0.01745220087468624
112.0,0.016911862418055534
120.0,0.015713119879364967
128.0,0.01481926441192627
144.0,0.014943870715796947
160.0,0.015328613109886646
176.0,0.015948239713907242
192.0,0.0142383873462677
208.0,0.012407603673636913
224.0,0.010338813997805119
240.0,0.00845271348953247
256.0,0.0052251932211220264
288.0,-0.0007024434744380414
320.0,-0.003836549585685134
352.0,-0.0023499266244471073
384.0,-0.0003554955474101007
416.0,0.0017162611475214362
448.0,0.007333702873438597
480.0,0.006008756347000599
512.0,0.005001867190003395
576.0,0.0033580237068235874
640.0,0.006740577053278685
704.0,0.005669435951858759
768.0,0.006551440805196762
832.0,0.00037159418570809066
896.0,-0.00091984320897609
960.0,-0.003439350752159953
1024.0,-0.005007883068174124
1152.0,0.0018706634873524308
1280.0,0.0013461420312523842
1408.0,0.0035379710607230663
1536.0,0.00509030232205987
1664.0,0.007366575766354799
1792.0,0.006069928873330355
1920.0,0.005469327326864004
2048.0,0.00546604348346591
2304.0,0.004401552956551313
2560.0,-0.000832027813885361
2816.0,0.0008862319518812001
3072.0,-0.005405039992183447
3328.0,0.0009842646541073918
3584.0,0.003153138794004917
3840.0,0.0007940970826894045
4096.0,0.005518995225429535
4608.0,-0.0038885485846549273
5120.0,-0.0009773853234946728
5632.0,0.0010336588602513075
6144.0,-0.0046170419082045555
6656.0,-0.008523117750883102
7168.0,-0.0025787516497075558
7680.0,-0.007761694490909576
8192.0,-0.005509101320058107
end
