version,3.0
numOfCh,1
type,point
parent_name,34766_0dot4-1dot0
ch_type,1_1
kcount,1
numberNandB,1
brightnessNandB,1
carpet pos,0
pc,0
Time (ms),CH1 Auto-Correlation
1.0,0.10262922197580338
2.0,0.09878775477409363
3.0,0.0950624942779541
4.0,0.09165891259908676
5.0,0.08847519755363464
6.0,0.0854029506444931
7.0,0.08244580775499344
8.0,0.07961197197437286
9.0,0.07697326689958572
10.0,0.07438119500875473
11.0,0.07205822318792343
12.0,0.06996028125286102
13.0,0.06797744333744049
14.0,0.06602075695991516
15.0,0.06417284160852432
16.0,0.06255164742469788
18.0,0.059889405965805054
20.0,0.0574081614613533
22.0,0.05522509664297104
24.0,0.05310630798339844
26.0,0.0510588064789772
28.0,0.04916885122656822
30.0,0.04731694981455803
32.0,0.04558027535676956
36.0,0.04255945235490799
40.0,0.039865441620349884
44.0,0.03775917366147041
48.0,0.03612374886870384
52.0,0.034598272293806076
56.0,0.0334162637591362
60.0,0.032905083149671555
64.0,0.03227486088871956
72.0,0.03135428950190544
80.0,0.03093184158205986
88.0,0.02896975353360176
96.0,0.025716500356793404
104.0,0.0241410955786705
112.0,0.023272745311260223
120.0,0.021771548315882683
128.0,0.01986258290708065
144.0,0.01451687142252922
160.0,0.009540131315588951
176.0,0.007420994807034731
192.0,0.009057583287358284
208.0,0.008444941602647305
224.0,0.007420549169182777
240.0,0.006754281464964151
256.0,0.005209776572883129
288.0,0.005845025181770325
320.0,0.00654439115896821
352.0,0.00888611190021038
384.0,0.00675176503136754
416.0,0.006004786118865013
448.0,0.007759022060781717
480.0,0.007201216649264097
512.0,0.0028666253201663494
576.0,-0.0012014377862215042
640.0,-0.0021514997351914644
704.0,0.00044655174133367836
768.0,-0.0015600461047142744
832.0,-0.0003977032611146569
896.0,-0.004235800821334124
960.0,-0.0037101104389876127
1024.0,-0.012299374677240849
1152.0,-0.01672929711639881
1280.0,-0.01279938593506813
1408.0,-0.001766338013112545
1536.0,-0.0007878002361394465
1664.0,-7.382000330835581e-05
1792.0,0.004558529704809189
1920.0,0.008617935702204704
2048.0,0.0012430817587301135
2304.0,0.011008753441274166
2560.0,0.0028492100536823273
2816.0,-0.008394013158977032
3072.0,-0.008809665217995644
3328.0,-0.006074607837945223
3584.0,-0.010038753971457481
3840.0,-0.0011317461030557752
4096.0,0.006498252972960472
4608.0,-0.0015203035436570644
5120.0,-0.0030316775664687157
5632.0,0.004364618565887213
6144.0,0.006357870064675808
6656.0,0.0017376283649355173
7168.0,-0.0031302261631935835
7680.0,-0.009062215685844421
8192.0,-0.004252842627465725
end
