version,3.0
numOfCh,1
type,point
parent_name,34766_0dot4-1dot0
ch_type,1_1
kcount,1
numberNandB,1
brightnessNandB,1
carpet pos,0
pc,0
Time (ms),CH1 Auto-Correlation
1.0,0.10577437281608582
2.0,0.10133486241102219
3.0,0.09745604544878006
4.0,0.09399343281984329
5.0,0.09075681865215302
6.0,0.08780331164598465
7.0,0.08498283475637436
8.0,0.08227702230215073
9.0,0.08003802597522736
10.0,0.07786062359809875
11.0,0.07582870870828629
12.0,0.07381556183099747
13.0,0.07182886451482773
14.0,0.07018834352493286
15.0,0.06857483834028244
16.0,0.06694631278514862
18.0,0.06392558664083481
20.0,0.06095082685351372
22.0,0.0583675354719162
24.0,0.05613980069756508
26.0,0.053800810128450394
28.0,0.05172624811530113
30.0,0.04993637651205063
32.0,0.04784495383501053
36.0,0.04449598863720894
40.0,0.04153576120734215
44.0,0.039049405604600906
48.0,0.03670892491936684
52.0,0.03506259247660637
56.0,0.033402152359485626
60.0,0.031995970755815506
64.0,0.030697528272867203
72.0,0.028365863487124443
80.0,0.026829781010746956
88.0,0.025374898687005043
96.0,0.02423783577978611
104.0,0.023915309458971024
112.0,0.022206025198101997
120.0,0.020200161263346672
128.0,0.019031522795557976
144.0,0.018603898584842682
160.0,0.01687774248421192
176.0,0.015819376334547997
192.0,0.01283880602568388
208.0,0.010402119718492031
224.0,0.008028722368180752
240.0,0.006131512112915516
256.0,0.003808939829468727
288.0,0.003180989995598793
320.0,-0.0004558308282867074
352.0,-0.0019139782525599003
384.0,-0.004329476039856672
416.0,-0.004860123619437218
448.0,-0.008217179216444492
480.0,-0.008320877328515053
512.0,-0.006496797315776348
576.0,-0.0014047161675989628
640.0,-0.002485301811248064
704.0,-0.0038014568854123354
768.0,-0.002551478333771229
832.0,-0.002423364669084549
896.0,-0.00021351796749513596
960.0,-0.0005070323240943253
1024.0,0.003696462605148554
1152.0,0.004575185943394899
1280.0,0.0035812207497656345
1408.0,0.0051256571896374226
1536.0,0.0055022104643285275
1664.0,-0.0011823112145066261
1792.0,-0.0002452987537253648
1920.0,0.0034080734476447105
2048.0,0.002731070853769779
2304.0,-0.000780546513851732
2560.0,-0.0036202301271259785
2816.0,-0.006766484118998051
3072.0,-0.0016985441325232387
3328.0,-0.0015818073879927397
3584.0,0.0021181858610361814
3840.0,-0.011013250797986984
4096.0,-0.00912805087864399
4608.0,-0.00269292457960546
5120.0,-0.0041533238254487514
5632.0,-0.004095407668501139
6144.0,0.003665339667350054
6656.0,-0.0005809518625028431
7168.0,-0.004838745575398207
7680.0,0.003964129835367203
8192.0,-0.003164522582665086
end
