version,3.0
numOfCh,1
type,point
parent_name,34766_0dot4-1dot0
ch_type,1_1
kcount,1
numberNandB,1
brightnessNandB,1
carpet pos,0
pc,0
Time (ms),CH1 Auto-Correlation
1.0,0.095492884516716
2.0,0.09160064160823822
3.0,0.08820747584104538
4.0,0.08501044660806656
5.0,0.08202601969242096
6.0,0.07927105575799942
7.0,0.07668611407279968
8.0,0.07411026209592819
9.0,0.07162945717573166
10.0,0.06936396658420563
11.0,0.06734389811754227
12.0,0.06538069248199463
13.0,0.06366079300642014
14.0,0.06189470738172531
15.0,0.06025606021285057
16.0,0.05883999168872833
18.0,0.05622800067067146
20.0,0.053709086030721664
22.0,0.051154885441064835
24.0,0.04864177107810974
26.0,0.04649312421679497
28.0,0.044636860489845276
30.0,0.04291106015443802
32.0,0.041355617344379425
36.0,0.039340127259492874
40.0,0.03680236265063286
44.0,0.03388868272304535
48.0,0.03119698166847229
52.0,0.028839312493801117
56.0,0.027012191712856293
60.0,0.025505656376481056
64.0,0.024068061262369156
72.0,0.021908685564994812
80.0,0.02054997906088829
88.0,0.01954931765794754
96.0,0.018215034157037735
104.0,0.018158484250307083
112.0,0.01872759684920311
120.0,0.01820100098848343
128.0,0.01771377958357334
144.0,0.018098605796694756
160.0,0.018334342166781425
176.0,0.017354363575577736
192.0,0.014833224937319756
208.0,0.010358014144003391
224.0,0.007323472294956446
240.0,0.005941994022578001
256.0,0.004054317716509104
288.0,0.0036161758471280336
320.0,0.0008141729631461203
352.0,-0.0037748292088508606
384.0,-0.001357375644147396
416.0,0.0009100369643419981
448.0,0.0031058299355208874
480.0,0.005114141386002302
512.0,0.0050713298842310905
576.0,0.0034267185255885124
640.0,0.0062238662503659725
704.0,0.006265185307711363
768.0,0.00061528425430879
832.0,0.0001388517557643354
896.0,0.0002616972487885505
960.0,0.0023126991000026464
1024.0,0.00239496654830873
1152.0,-0.0014416869962587953
1280.0,-0.00038527720607817173
1408.0,-0.0018772666808217764
1536.0,-0.002988905645906925
1664.0,-0.0048689465038478374
1792.0,-0.007083010859787464
1920.0,-0.007963157258927822
2048.0,-0.004478180781006813
2304.0,0.0015780756948515773
2560.0,-0.0007211511838249862
2816.0,-0.00030950887594372034
3072.0,0.002756692934781313
3328.0,0.005092219449579716
3584.0,0.000500388618092984
3840.0,0.004671958275139332
4096.0,-0.00029960324172861874
4608.0,0.0015928423963487148
5120.0,-0.0015801426488906145
5632.0,-0.006820436101406813
6144.0,-0.004946536384522915
6656.0,-0.0014128959737718105
7168.0,-0.002395960735157132
7680.0,-0.006848155055195093
8192.0,-0.0038087894208729267
end
