version,3.0
numOfCh,1
type,point
parent_name,34766_0dot4-1dot0
ch_type,1_1
kcount,1
numberNandB,1
brightnessNandB,1
carpet pos,0
pc,0
Time (ms),CH1 Auto-Correlation
1.0,0.10609126091003418
2.0,0.10235178470611572
3.0,0.09905874729156494
4.0,0.09591799974441528
5.0,0.09306354820728302
6.0,0.09038091450929642
7.0,0.08793968707323074
8.0,0.08579392731189728
9.0,0.08367347717285156
10.0,0.08164963871240616
11.0,0.07969193160533905
12.0,0.0777907744050026
13.0,0.07585451751947403
14.0,0.07405292242765427
15.0,0.07228114455938339
16.0,0.07060124725103378
18.0,0.06719725579023361
20.0,0.06392702460289001
22.0,0.06081240251660347
24.0,0.05827116593718529
26.0,0.05573728308081627
28.0,0.05321080982685089
30.0,0.0505928099155426
32.0,0.04824286326766014
36.0,0.04446488991379738
40.0,0.04118753969669342
44.0,0.038549426943063736
48.0,0.0361262746155262
52.0,0.03369046002626419
56.0,0.03187783807516098
60.0,0.029962753877043724
64.0,0.02844330295920372
72.0,0.02673180215060711
80.0,0.02588784135878086
88.0,0.025817349553108215
96.0,0.025498751550912857
104.0,0.024605071172118187
112.0,0.023280110210180283
120.0,0.02159969136118889
128.0,0.019765041768550873
144.0,0.016811542212963104
160.0,0.016341770067811012
176.0,0.017353711649775505
192.0,0.017060112208127975
208.0,0.014513002708554268
224.0,0.011082412675023079
240.0,0.009956403635442257
256.0,0.008994735777378082
288.0,0.00790505763143301
320.0,0.007171256002038717
352.0,0.00754599878564477
384.0,0.009249027818441391
416.0,0.0032895130570977926
448.0,0.0008773008594289422
480.0,0.0013447928940877318
512.0,0.0011726079974323511
576.0,0.0002613372926134616
640.0,0.0026894218754023314
704.0,-0.0025129199493676424
768.0,-0.0023047039285302162
832.0,0.002717692172154784
896.0,0.0035712472163140774
960.0,0.001565334154292941
1024.0,-0.0026104426942765713
1152.0,-0.005401215050369501
1280.0,-0.006890964228659868
1408.0,-0.01242050901055336
1536.0,-0.009836043231189251
1664.0,-0.012622675858438015
1792.0,-0.0059415618889033794
1920.0,-8.813609747448936e-05
2048.0,0.0007576896459795535
2304.0,-0.003147508716210723
2560.0,-0.005005512852221727
2816.0,-0.0031554477754980326
3072.0,0.005462591536343098
3328.0,-0.00472514983266592
3584.0,-0.0005616043345071375
3840.0,0.0035014906898140907
4096.0,-0.003455354133620858
4608.0,0.0005641906172968447
5120.0,0.006545552518218756
5632.0,0.007834209129214287
6144.0,-0.002824746072292328
6656.0,-0.0074384864419698715
7168.0,-0.00246742507442832
7680.0,-0.0025233221240341663
8192.0,-0.002890466945245862
end
