version,3.0
numOfCh,1
type,point
parent_name,34766_0dot4-1dot0
ch_type,1_1
kcount,1
numberNandB,1
brightnessNandB,1
carpet pos,0
pc,0
Time (ms),CH1 Auto-Correlation
1.0,0.10041315108537674
2.0,0.09582127630710602
3.0,0.09200568497180939
4.0,0.08848139643669128
5.0,0.08520948886871338
6.0,0.08207819610834122
7.0,0.07902500778436661
8.0,0.07620591670274734
9.0,0.07351800054311752
10.0,0.07092655450105667
11.0,0.06844472885131836
12.0,0.06603765487670898
13.0,0.06381689757108688
14.0,0.06162157654762268
15.0,0.0594225749373436
16.0,0.05727766454219818
18.0,0.053332023322582245
20.0,0.049863871186971664
22.0,0.046458467841148376
24.0,0.043372128158807755
26.0,0.0406617633998394
28.0,0.03823704645037651
30.0,0.03584863990545273
32.0,0.034121640026569366
36.0,0.031087953597307205
40.0,0.028776085004210472
44.0,0.02655635215342045
48.0,0.024212157353758812
52.0,0.02261481247842312
56.0,0.021310193464159966
60.0,0.01990729384124279
64.0,0.01833154261112213
72.0,0.015401281416416168
80.0,0.012743622064590454
88.0,0.010008465498685837
96.0,0.007864712737500668
104.0,0.006035164464265108
112.0,0.00515298405662179
120.0,0.004973295610398054
128.0,0.005224045366048813
144.0,0.006287561263889074
160.0,0.006303423549979925
176.0,0.004512641578912735
192.0,0.0028910392429679632
208.0,0.004507798235863447
224.0,0.006745750550180674
240.0,0.004431165289133787
256.0,0.0014862697571516037
288.0,0.0009913373505696654
320.0,-0.0014958290848881006
352.0,0.00045605149352923036
384.0,0.0010945401154458523
416.0,-0.0006273999460972846
448.0,-0.004487941041588783
480.0,-0.004574581980705261
512.0,-0.001562922727316618
576.0,-0.002037975238636136
640.0,-0.003116107312962413
704.0,0.0028822014573961496
768.0,0.00731069827452302
832.0,0.004012230318039656
896.0,0.0038600601255893707
960.0,0.004637852776795626
1024.0,0.004372073337435722
1152.0,0.0046257697977125645
1280.0,0.004281035158783197
1408.0,-0.00035028604906983674
1536.0,0.003486461006104946
1664.0,0.0033018412068486214
1792.0,0.0009198594489134848
1920.0,0.00042832217877730727
2048.0,0.002282265806570649
2304.0,-0.00010967476555379108
2560.0,-0.0003160399501211941
2816.0,-0.004616834223270416
3072.0,-0.0020128434989601374
3328.0,0.0009853955125436187
3584.0,-0.0009259022190235555
3840.0,-0.0010816704016178846
4096.0,-0.004790837410837412
4608.0,-0.002169447485357523
5120.0,-0.0052947658114135265
5632.0,-0.0016532607842236757
6144.0,-0.0055454084649682045
6656.0,-0.0015480265719816089
7168.0,0.0017850371077656746
7680.0,0.0008804990211501718
8192.0,-0.0023219543509185314
end
