version,3.0
numOfCh,1
type,point
parent_name,34766_0dot4-1dot0
ch_type,1_1
kcount,1
numberNandB,1
brightnessNandB,1
carpet pos,0
pc,0
Time (ms),CH1 Auto-Correlation
1.0,0.10786911100149155
2.0,0.10387779027223587
3.0,0.10038997232913971
4.0,0.09718802571296692
5.0,0.0943223312497139
6.0,0.09143193066120148
7.0,0.088611900806427
8.0,0.08601580560207367
9.0,0.0835048109292984
10.0,0.08124851435422897
11.0,0.07904823124408722
12.0,0.07672745734453201
13.0,0.07458145171403885
14.0,0.07271507382392883
15.0,0.07091930508613586
16.0,0.06928381323814392
18.0,0.06637130677700043
20.0,0.06374382227659225
22.0,0.06117461994290352
24.0,0.058608174324035645
26.0,0.056236159056425095
28.0,0.054069746285676956
30.0,0.05191737040877342
32.0,0.0496680811047554
36.0,0.045867737382650375
40.0,0.04268987104296684
44.0,0.039547357708215714
48.0,0.03669340908527374
52.0,0.0341654010117054
56.0,0.03145601227879524
60.0,0.029194684699177742
64.0,0.02744339592754841
72.0,0.024517709389328957
80.0,0.021809818223118782
88.0,0.01967800222337246
96.0,0.018334349617362022
104.0,0.017108161002397537
112.0,0.016227638348937035
120.0,0.016320716589689255
128.0,0.016143253073096275
144.0,0.013475603424012661
160.0,0.010254372842609882
176.0,0.008722119964659214
192.0,0.00968463346362114
208.0,0.009051482193171978
224.0,0.007181342225521803
240.0,0.0071343411691486835
256.0,0.009381679818034172
288.0,0.010896782390773296
320.0,0.007892697118222713
352.0,0.005350242834538221
384.0,0.003494836622849107
416.0,0.0016622206894680858
448.0,0.001593490014784038
480.0,0.001700950670056045
512.0,-0.0025606572162359953
576.0,-0.002653619274497032
640.0,-0.002964676357805729
704.0,-0.0019940678030252457
768.0,-0.0016144057735800743
832.0,0.0034887229558080435
896.0,-0.006241097114980221
960.0,-0.00131216028239578
1024.0,0.0016107475385069847
1152.0,-0.00042131205555051565
1280.0,-0.001884361612610519
1408.0,-0.0021772668696939945
1536.0,-0.00606005871668458
1664.0,-0.0031344208400696516
1792.0,-0.002362748607993126
1920.0,-0.008662957698106766
2048.0,7.427328819176182e-05
2304.0,-0.0004977312055416405
2560.0,-0.004512120969593525
2816.0,-0.0036124035250395536
3072.0,0.0009748479351401329
3328.0,-0.005016048904508352
3584.0,-0.0022556392941623926
3840.0,-0.0009012717055156827
4096.0,0.003804144449532032
4608.0,0.0027055463287979364
5120.0,0.0016894715372473001
5632.0,-0.0036213768180459738
6144.0,-0.008413197472691536
6656.0,-0.00604461133480072
7168.0,-0.0025992412120103836
7680.0,-0.00018847713363356888
8192.0,0.0021020863205194473
end
