version,3.0
numOfCh,1
type,point
parent_name,34766_0dot4-1dot0
ch_type,1_1
kcount,1
numberNandB,1
brightnessNandB,1
carpet pos,0
pc,0
Time (ms),CH1 Auto-Correlation
1.0,0.11438195407390594
2.0,0.1099190041422844
3.0,0.10608509182929993
4.0,0.10228186845779419
5.0,0.09880328923463821
6.0,0.09557205438613892
7.0,0.09258034080266953
8.0,0.08981961011886597
9.0,0.08722899109125137
10.0,0.08461324125528336
11.0,0.08215758949518204
12.0,0.07999638468027115
13.0,0.07792051881551743
14.0,0.07587064802646637
15.0,0.07405439019203186
16.0,0.07230322062969208
18.0,0.06868438422679901
20.0,0.06530419737100601
22.0,0.062488604336977005
24.0,0.06011047959327698
26.0,0.05793406814336777
28.0,0.05589552968740463
30.0,0.05406837910413742
32.0,0.052421934902668
36.0,0.04949929192662239
40.0,0.04659911245107651
44.0,0.044667672365903854
48.0,0.043135203421115875
52.0,0.041434671729803085
56.0,0.039747416973114014
60.0,0.03832105174660683
64.0,0.03666944056749344
72.0,0.033063385635614395
80.0,0.02979811280965805
88.0,0.026877257972955704
96.0,0.02492082305252552
104.0,0.022932741791009903
112.0,0.021652933210134506
120.0,0.02048025093972683
128.0,0.018540866672992706
144.0,0.01582801155745983
160.0,0.013582139275968075
176.0,0.011684194207191467
192.0,0.008395877666771412
208.0,0.008009699173271656
224.0,0.008895535953342915
240.0,0.006035176571458578
256.0,0.004320752341300249
288.0,0.0009722462855279446
320.0,0.002278077881783247
352.0,0.006059231236577034
384.0,0.006563933100551367
416.0,0.007842102088034153
448.0,0.00944191962480545
480.0,0.01095286663621664
512.0,0.012341008521616459
576.0,0.007790494244545698
640.0,0.0021750042214989662
704.0,0.0019262123387306929
768.0,0.0032574220094829798
832.0,0.004026409704238176
896.0,0.010730793699622154
960.0,0.010336634702980518
1024.0,0.011465241201221943
1152.0,0.007866059429943562
1280.0,-0.0031214826740324497
1408.0,-0.010765711776912212
1536.0,-0.006104039028286934
1664.0,0.0009837114484980702
1792.0,0.0034563473891466856
1920.0,0.004208358004689217
2048.0,0.005148665979504585
2304.0,-0.0009512435062788427
2560.0,0.005440971348434687
2816.0,0.011911909095942974
3072.0,0.011312349699437618
3328.0,-0.0029923159163445234
3584.0,-0.001697188476100564
3840.0,0.0013064478989690542
4096.0,-0.004685197491198778
4608.0,-0.006059044040739536
5120.0,-0.0038245683535933495
5632.0,0.002150424988940358
6144.0,-0.0011651719687506557
6656.0,-0.0060495249927043915
7168.0,-0.016340648755431175
7680.0,-0.010324322618544102
8192.0,-0.006386765744537115
end
