version,3.0
numOfCh,1
type,point
parent_name,34766_0dot4-1dot0
ch_type,1_1
kcount,1
numberNandB,1
brightnessNandB,1
carpet pos,0
pc,0
Time (ms),CH1 Auto-Correlation
1.0,0.10749150067567825
2.0,0.10386882722377777
3.0,0.10060939937829971
4.0,0.09748877584934235
5.0,0.0945308580994606
6.0,0.09172248840332031
7.0,0.08926291763782501
8.0,0.08684442192316055
9.0,0.08457200974225998
10.0,0.08248960971832275
11.0,0.08054467290639877
12.0,0.07864013314247131
13.0,0.07681062072515488
14.0,0.07510828226804733
15.0,0.07356437295675278
16.0,0.07204916328191757
18.0,0.06932704150676727
20.0,0.06694477051496506
22.0,0.06493876129388809
24.0,0.06295181810855865
26.0,0.06106971204280853
28.0,0.059310294687747955
30.0,0.05760522559285164
32.0,0.05594543367624283
36.0,0.053010500967502594
40.0,0.05054132267832756
44.0,0.04830622300505638
48.0,0.04651803523302078
52.0,0.04540157690644264
56.0,0.0440949946641922
60.0,0.04290153831243515
64.0,0.04160262644290924
72.0,0.03810235112905502
80.0,0.03534897789359093
88.0,0.03255076706409454
96.0,0.030081182718276978
104.0,0.027737518772482872
112.0,0.025380108505487442
120.0,0.02372332476079464
128.0,0.02214895375072956
144.0,0.02124473825097084
160.0,0.022432958707213402
176.0,0.024622665718197823
192.0,0.024571659043431282
208.0,0.02205362543463707
224.0,0.018957991153001785
240.0,0.01770169287919998
256.0,0.01725142076611519
288.0,0.012608284130692482
320.0,0.00788579136133194
352.0,0.00544852577149868
384.0,0.007812063209712505
416.0,0.0076538878493011
448.0,0.002106949919834733
480.0,-0.0005516315577551723
512.0,-0.0028799681458622217
576.0,-0.0024784121196717024
640.0,-0.0032487413845956326
704.0,-0.0009318068623542786
768.0,0.0009189664851874113
832.0,-0.0013058210024610162
896.0,-0.005484015680849552
960.0,-0.005272492300719023
1024.0,-0.0009908194188028574
1152.0,2.9007469493080862e-05
1280.0,-0.0005085269222036004
1408.0,-0.005877088289707899
1536.0,-0.006113930605351925
1664.0,-0.004856561776250601
1792.0,-0.001122424378991127
1920.0,0.0031053058337420225
2048.0,0.006932362448424101
2304.0,0.012047777883708477
2560.0,0.008677167817950249
2816.0,-0.00608200766146183
3072.0,-0.0072000762447714806
3328.0,-0.0038569089956581593
3584.0,-0.00620885519310832
3840.0,-0.007322913501411676
4096.0,-0.004100306890904903
4608.0,0.0039046560414135456
5120.0,0.010549122467637062
5632.0,-0.006957761477679014
6144.0,-0.003904871176928282
6656.0,-0.008454641327261925
7168.0,0.008182890713214874
7680.0,-0.0006224702810868621
8192.0,-0.013085455633699894
end
