version,3.0
numOfCh,1
type,point
parent_name,34766_0dot4-1dot0
ch_type,1_1
kcount,1
numberNandB,1
brightnessNandB,1
carpet pos,0
pc,0
Time (ms),CH1 Auto-Correlation
1.0,0.09956996142864227
2.0,0.09569863975048065
3.0,0.0922984778881073
4.0,0.08912435173988342
5.0,0.0861993283033371
6.0,0.08348894119262695
7.0,0.08099106699228287
8.0,0.07871618121862411
9.0,0.07658958435058594
10.0,0.07458977401256561
11.0,0.07264907658100128
12.0,0.07079112529754639
13.0,0.0688668042421341
14.0,0.06721114367246628
15.0,0.06558170169591904
16.0,0.06397321075201035
18.0,0.06094441935420036
20.0,0.05803342163562775
22.0,0.055376507341861725
24.0,0.053065720945596695
26.0,0.050851330161094666
28.0,0.048750508576631546
30.0,0.04661881551146507
32.0,0.044513534754514694
36.0,0.04093940928578377
40.0,0.03774372860789299
44.0,0.035125602036714554
48.0,0.032862208783626556
52.0,0.030392961576581
56.0,0.02861071191728115
60.0,0.027678832411766052
64.0,0.026882797479629517
72.0,0.025505024939775467
80.0,0.024000247940421104
88.0,0.02409491129219532
96.0,0.024126628413796425
104.0,0.02271106466650963
112.0,0.02189985290169716
120.0,0.02132674865424633
128.0,0.020356781780719757
144.0,0.018407756462693214
160.0,0.016828911378979683
176.0,0.014063354581594467
192.0,0.010224779136478901
208.0,0.00575594836845994
224.0,0.0056170811876654625
240.0,0.0071866936050355434
256.0,0.008066927082836628
288.0,0.007135321386158466
320.0,0.005379658658057451
352.0,0.002651738002896309
384.0,-0.0019947104156017303
416.0,-0.0013281211722642183
448.0,-7.873833055782598e-06
480.0,4.7732857638038695e-05
512.0,0.004151563625782728
576.0,0.004993347451090813
640.0,0.0023782539647072554
704.0,0.0021425914019346237
768.0,-0.004911432042717934
832.0,0.0016437025042250752
896.0,0.001073803286999464
960.0,0.0031643358524888754
1024.0,0.0021389867179095745
1152.0,0.005870412569493055
1280.0,0.002366696484386921
1408.0,-0.004545779898762703
1536.0,-0.004161681979894638
1664.0,0.00020153277728240937
1792.0,-0.0007730117067694664
1920.0,-0.0009131865808740258
2048.0,-0.003210529452189803
2304.0,-0.001363603281788528
2560.0,-0.01040736585855484
2816.0,-0.009652664884924889
3072.0,-0.008363578468561172
3328.0,0.0005620721494778991
3584.0,-0.008306993171572685
3840.0,-0.00365305133163929
4096.0,-0.003344102995470166
4608.0,-0.001464265864342451
5120.0,0.0036281300708651543
5632.0,0.005406774580478668
6144.0,0.001018043956719339
6656.0,0.005962790455669165
7168.0,-0.001042896881699562
7680.0,0.004241458605974913
8192.0,0.0015623621875420213
end
