version,3.0
numOfCh,1
type,point
parent_name,34766_0dot4-1dot0
ch_type,1_1
kcount,1
numberNandB,1
brightnessNandB,1
carpet pos,0
pc,0
Time (ms),CH1 Auto-Correlation
1.0,0.08995351195335388
2.0,0.08599839359521866
3.0,0.08239100873470306
4.0,0.07905462384223938
5.0,0.07600859552621841
6.0,0.07313814759254456
7.0,0.0705157145857811
8.0,0.06809647381305695
9.0,0.06590250879526138
10.0,0.0638175681233406
11.0,0.061841122806072235
12.0,0.05978245288133621
13.0,0.057825833559036255
14.0,0.0560821034014225
15.0,0.054311152547597885
16.0,0.0525902658700943
18.0,0.04928264394402504
20.0,0.04629386588931084
22.0,0.04359549283981323
24.0,0.04132837802171707
26.0,0.03936527296900749
28.0,0.03730994835495949
30.0,0.03525445610284805
32.0,0.03349556773900986
36.0,0.03027024120092392
40.0,0.027406780049204826
44.0,0.02458059787750244
48.0,0.021847102791070938
52.0,0.01964179240167141
56.0,0.017760301008820534
60.0,0.016130534932017326
64.0,0.014922620728611946
72.0,0.013130939565598965
80.0,0.012417078949511051
88.0,0.012048359028995037
96.0,0.011954130604863167
104.0,0.011380141600966454
112.0,0.00971271749585867
120.0,0.007198229432106018
128.0,0.004649095702916384
144.0,0.0008530544000677764
160.0,-0.0011592793744057417
176.0,-0.0025502857752144337
192.0,-0.0015052362577989697
208.0,0.0006459879805333912
224.0,-0.0004960528458468616
240.0,-0.0021093443501740694
256.0,-0.0025515230372548103
288.0,-0.003784947097301483
320.0,-0.004210379905998707
352.0,-0.005288402084261179
384.0,-0.004630048759281635
416.0,-0.006088821217417717
448.0,-0.0052179298363626
480.0,-0.005344184581190348
512.0,-0.003352631814777851
576.0,-0.001463299267925322
640.0,0.002870083088055253
704.0,0.00329274102114141
768.0,-0.0010444850195199251
832.0,-0.007999270223081112
896.0,-0.008223460055887699
960.0,-0.0028054278809577227
1024.0,0.001146069960668683
1152.0,0.005172613076865673
1280.0,0.004445579834282398
1408.0,-0.002866941038519144
1536.0,-0.0035286308266222477
1664.0,-0.001955232350155711
1792.0,0.004378906451165676
1920.0,0.002608184702694416
2048.0,-0.0023258011788129807
2304.0,-0.004716345574706793
2560.0,0.002527277683839202
2816.0,-0.0013549508294090629
3072.0,0.003843928687274456
3328.0,-0.0036040027625858784
3584.0,0.0032310232054442167
3840.0,-0.002138162963092327
4096.0,0.0020654667168855667
4608.0,-0.00556055037304759
5120.0,0.0011200462467968464
5632.0,-0.0014914313796907663
6144.0,0.0028892424888908863
6656.0,-0.003852497087791562
7168.0,0.0034107407554984093
7680.0,-0.00692721176892519
8192.0,0.0026388110127300024
end
