version,3.0
numOfCh,1
type,point
parent_name,34766_0dot4-1dot0
ch_type,1_1
kcount,1
numberNandB,1
brightnessNandB,1
carpet pos,0
pc,0
Time (ms),CH1 Auto-Correlation
1.0,0.09549834579229355
2.0,0.09191586077213287
3.0,0.08859525620937347
4.0,0.08546799421310425
5.0,0.0825561136007309
6.0,0.07982223480939865
7.0,0.07716186344623566
8.0,0.07467622309923172
9.0,0.07237765938043594
10.0,0.07028383016586304
11.0,0.06832316517829895
12.0,0.06653161346912384
13.0,0.06471403688192368
14.0,0.06296954303979874
15.0,0.06134176626801491
16.0,0.059729643166065216
18.0,0.05691855773329735
20.0,0.05417242646217346
22.0,0.051697611808776855
24.0,0.04942315071821213
26.0,0.04717390239238739
28.0,0.045163266360759735
30.0,0.043364666402339935
32.0,0.04170326516032219
36.0,0.03876218944787979
40.0,0.03596905618906021
44.0,0.03361498937010765
48.0,0.03171681985259056
52.0,0.03028015047311783
56.0,0.029377149417996407
60.0,0.028639566153287888
64.0,0.027839431539177895
72.0,0.025180868804454803
80.0,0.02202095463871956
88.0,0.019138330593705177
96.0,0.016755586490035057
104.0,0.014393869787454605
112.0,0.012289082631468773
120.0,0.010372461751103401
128.0,0.009644659236073494
144.0,0.009348834864795208
160.0,0.009825494140386581
176.0,0.008243564516305923
192.0,0.006954156327992678
208.0,0.00538233295083046
224.0,0.00535375252366066
240.0,0.005711397621780634
256.0,0.005494288168847561
288.0,0.0045348526909947395
320.0,0.0037870006635785103
352.0,0.004662356339395046
384.0,0.006379844155162573
416.0,0.008187423460185528
448.0,0.0020961747504770756
480.0,-0.0019927811808884144
512.0,-0.007565050385892391
576.0,-0.011415846645832062
640.0,-0.01878894306719303
704.0,-0.01343657448887825
768.0,-0.008599244058132172
832.0,-0.0020918897353112698
896.0,-0.004290199372917414
960.0,-0.005807329434901476
1024.0,-0.006092068739235401
1152.0,-0.0006579827750101686
1280.0,0.0026139940600842237
1408.0,0.0035477725323289633
1536.0,0.0014798883348703384
1664.0,0.001890206360258162
1792.0,-0.00028641740209423006
1920.0,-0.007290485315024853
2048.0,-0.0029017734341323376
2304.0,-0.00502402801066637
2560.0,-0.00022198286023922265
2816.0,0.006189925130456686
3072.0,0.001870939158834517
3328.0,0.0018162066116929054
3584.0,0.0011423050891608
3840.0,-0.004140692763030529
4096.0,-0.00385394343174994
4608.0,-0.006128396838903427
5120.0,0.007044144440442324
5632.0,-0.0005410203593783081
6144.0,0.0018047635676339269
6656.0,0.0030019874684512615
7168.0,-0.006200199015438557
7680.0,-0.005390677601099014
8192.0,0.009232808835804462
end
