version,3.0
numOfCh,1
type,point
parent_name,34766_0dot4-1dot0
ch_type,1_1
kcount,1
numberNandB,1
brightnessNandB,1
carpet pos,0
pc,0
Time (ms),CH1 Auto-Correlation
1.0,0.10715828090906143
2.0,0.10312054306268692
3.0,0.0995984748005867
4.0,0.0962701067328453
5.0,0.09323425590991974
6.0,0.09036119282245636
7.0,0.08783270418643951
8.0,0.0853835940361023
9.0,0.0831698551774025
10.0,0.08102180063724518
11.0,0.07899471372365952
12.0,0.07711758464574814
13.0,0.07547881454229355
14.0,0.07396923005580902
15.0,0.07247575372457504
16.0,0.07083434611558914
18.0,0.06801073998212814
20.0,0.06540083140134811
22.0,0.06310714781284332
24.0,0.060919251292943954
26.0,0.05864245817065239
28.0,0.05659180507063866
30.0,0.054751645773649216
32.0,0.05297179892659187
36.0,0.049756236374378204
40.0,0.046785619109869
44.0,0.04421573877334595
48.0,0.04213295131921768
52.0,0.04026419669389725
56.0,0.038781166076660156
60.0,0.037816859781742096
64.0,0.037199635058641434
72.0,0.035270512104034424
80.0,0.03310246765613556
88.0,0.03162269666790962
96.0,0.03054327890276909
104.0,0.030611282214522362
112.0,0.030864743515849113
120.0,0.029124658554792404
128.0,0.027089731767773628
144.0,0.025502000004053116
160.0,0.023461276665329933
176.0,0.020779920741915703
192.0,0.018164169043302536
208.0,0.015988511964678764
224.0,0.014221679419279099
240.0,0.013258448801934719
256.0,0.01132455188781023
288.0,0.010696575045585632
320.0,0.010662443935871124
352.0,0.009378310292959213
384.0,0.007492376491427422
416.0,0.005368306301534176
448.0,0.0071641383692622185
480.0,0.008733985014259815
512.0,0.006019067484885454
576.0,0.0048899659886956215
640.0,0.0008579887798987329
704.0,-0.0018272798042744398
768.0,-0.008487547747790813
832.0,-0.007631754036992788
896.0,-0.003541677026078105
960.0,-0.0006738414522260427
1024.0,2.8869670131825842e-05
1152.0,-0.003672211430966854
1280.0,-0.007251049857586622
1408.0,0.0024161566980183125
1536.0,0.010198687203228474
1664.0,0.009153081104159355
1792.0,0.010908335447311401
1920.0,0.011314239352941513
2048.0,0.009687395766377449
2304.0,0.002169300802052021
2560.0,0.003529165405780077
2816.0,0.0008922849083319306
3072.0,0.0021018146071583033
3328.0,-0.0003229013236705214
3584.0,-0.0033723334781825542
3840.0,-0.00702804746106267
4096.0,-0.00227562733925879
4608.0,0.0027143771294504404
5120.0,0.006471040192991495
5632.0,0.005174637772142887
6144.0,-0.008532708510756493
6656.0,-0.00428658165037632
7168.0,-0.0070223635993897915
7680.0,-0.0016237064264714718
8192.0,-0.0077819437719881535
end
