version,3.0
numOfCh,1
type,point
parent_name,34766_0dot4-1dot0
ch_type,1_1
kcount,1
numberNandB,1
brightnessNandB,1
carpet pos,0
pc,0
Time (ms),CH1 Auto-Correlation
1.0,0.10878247022628784
2.0,0.10453875362873077
3.0,0.10083409398794174
4.0,0.09740318357944489
5.0,0.09425786137580872
6.0,0.09121105074882507
7.0,0.08835142105817795
8.0,0.08573143929243088
9.0,0.08319097757339478
10.0,0.08091487735509872
11.0,0.07864711433649063
12.0,0.0764477327466011
13.0,0.07440997660160065
14.0,0.07261548936367035
15.0,0.07103526592254639
16.0,0.06949640065431595
18.0,0.06651522219181061
20.0,0.06387978792190552
22.0,0.061815742403268814
24.0,0.060110993683338165
26.0,0.05853349715471268
28.0,0.05680392310023308
30.0,0.05517779290676117
32.0,0.05360116437077522
36.0,0.05060559883713722
40.0,0.047957830131053925
44.0,0.045353613793849945
48.0,0.042502447962760925
52.0,0.03929388150572777
56.0,0.03600805252790451
60.0,0.03344457596540451
64.0,0.03169120103120804
72.0,0.029942436143755913
80.0,0.028393354266881943
88.0,0.026659460738301277
96.0,0.025286851450800896
104.0,0.02370484173297882
112.0,0.021355710923671722
120.0,0.01936418004333973
128.0,0.01695307344198227
144.0,0.01206778921186924
160.0,0.009433750994503498
176.0,0.007641353644430637
192.0,0.009555325843393803
208.0,0.011420870199799538
224.0,0.010938131250441074
240.0,0.011984303593635559
256.0,0.010922862216830254
288.0,0.007860193029046059
320.0,0.0067262547090649605
352.0,0.0051868753507733345
384.0,0.005066400859504938
416.0,0.003644123673439026
448.0,0.007328249979764223
480.0,0.009628516621887684
512.0,0.009601064026355743
576.0,0.012158326804637909
640.0,0.009654996916651726
704.0,0.0060347686521708965
768.0,0.006182341370731592
832.0,0.009887839667499065
896.0,0.008341929875314236
960.0,0.008507417514920235
1024.0,0.006027879659086466
1152.0,0.0070397634990513325
1280.0,0.006507532205432653
1408.0,0.004242365714162588
1536.0,0.0042640105821192265
1664.0,0.013329609297215939
1792.0,0.012960665859282017
1920.0,0.00723179429769516
2048.0,0.0007787944050505757
2304.0,0.004112718161195517
2560.0,0.01334648858755827
2816.0,0.005892619024962187
3072.0,0.008880384266376495
3328.0,0.006734203547239304
3584.0,0.007845509797334671
3840.0,0.0008676552679389715
4096.0,-0.0034464194905012846
4608.0,0.0007723469170741737
5120.0,-0.0038056718185544014
5632.0,-0.005365660879760981
6144.0,-0.0032166498713195324
6656.0,-0.008080517873167992
7168.0,-0.007847988046705723
7680.0,-0.013332059606909752
8192.0,-0.0122718820348382
end
