version,3.0
numOfCh,1
type,point
parent_name,34766_0dot4-1dot0
ch_type,1_1
kcount,1
numberNandB,1
brightnessNandB,1
carpet pos,0
pc,0
Time (ms),CH1 Auto-Correlation
1.0,0.09631295502185822
2.0,0.0923251286149025
3.0,0.08866871148347855
4.0,0.08541885763406754
5.0,0.08243091404438019
6.0,0.07965301722288132
7.0,0.0769384503364563
8.0,0.0744292289018631
9.0,0.0720360055565834
10.0,0.06973009556531906
11.0,0.06754686683416367
12.0,0.06558123975992203
13.0,0.06357435137033463
14.0,0.061693429946899414
15.0,0.05993295833468437
16.0,0.05825110152363777
18.0,0.0547916404902935
20.0,0.05168599635362625
22.0,0.048874419182538986
24.0,0.04649205133318901
26.0,0.04440046101808548
28.0,0.04258206859230995
30.0,0.041061196476221085
32.0,0.039753999561071396
36.0,0.03727724030613899
40.0,0.035001419484615326
44.0,0.03294914960861206
48.0,0.03052045777440071
52.0,0.02796216495335102
56.0,0.02562849223613739
60.0,0.023534433916211128
64.0,0.02156153880059719
72.0,0.018248366191983223
80.0,0.01583012565970421
88.0,0.013725564815104008
96.0,0.011470126919448376
104.0,0.009323913604021072
112.0,0.008522987365722656
120.0,0.0078068990260362625
128.0,0.006614130921661854
144.0,0.00551104499027133
160.0,0.004670412745326757
176.0,0.002146134153008461
192.0,0.0037681988906115294
208.0,0.0037622444797307253
224.0,0.0039467415772378445
240.0,0.004362475126981735
256.0,0.003382247406989336
288.0,-0.001376758678816259
320.0,-0.004710606299340725
352.0,-0.0032634884119033813
384.0,-0.0027625695802271366
416.0,-0.004333235323429108
448.0,-0.0037858940195292234
480.0,-0.0007740138098597527
512.0,0.0040766214951872826
576.0,0.0028776326216757298
640.0,-0.0011686767684295774
704.0,-0.003099477617070079
768.0,0.0012235937174409628
832.0,0.007805478293448687
896.0,0.009095543995499611
960.0,0.006188774481415749
1024.0,0.0012871503131464124
1152.0,0.002684313338249922
1280.0,-0.0029910604935139418
1408.0,0.005736104678362608
1536.0,0.0002885600843001157
1664.0,0.0014443228719756007
1792.0,-0.0007519524078816175
1920.0,-0.0010052473517134786
2048.0,0.005741480737924576
2304.0,0.004440321587026119
2560.0,-0.001445495756343007
2816.0,-0.006530927959829569
3072.0,0.0016932121943682432
3328.0,0.0015821061097085476
3584.0,-0.009739632718265057
3840.0,-0.0076722633093595505
4096.0,0.0019507512915879488
4608.0,0.0005472876946441829
5120.0,-0.002581722801551223
5632.0,-0.004177837632596493
6144.0,-0.0006340937688946724
6656.0,0.00244233594276011
7168.0,-0.0014565462479367852
7680.0,-0.0005036942893639207
8192.0,-0.0036050842609256506
end
