version,3.0
numOfCh,1
type,point
parent_name,34766_0dot4-1dot0
ch_type,1_1
kcount,1
numberNandB,1
brightnessNandB,1
carpet pos,0
pc,0
Time (ms),CH1 Auto-Correlation
1.0,0.09656959772109985
2.0,0.09271286427974701
3.0,0.08919348567724228
4.0,0.08613164722919464
5.0,0.0832359567284584
6.0,0.08059924095869064
7.0,0.07829722762107849
8.0,0.07610179483890533
9.0,0.07388235628604889
10.0,0.0717712938785553
11.0,0.06980215013027191
12.0,0.0680045336484909
13.0,0.06622510403394699
14.0,0.06454380601644516
15.0,0.06291263550519943
16.0,0.061283279210329056
18.0,0.058169905096292496
20.0,0.05533537641167641
22.0,0.05285193771123886
24.0,0.05060938745737076
26.0,0.04846644029021263
28.0,0.04637101665139198
30.0,0.04430815204977989
32.0,0.042521893978118896
36.0,0.038969580084085464
40.0,0.03579538315534592
44.0,0.03291802108287811
48.0,0.030528143048286438
52.0,0.027819551527500153
56.0,0.02491186559200287
60.0,0.02251284010708332
64.0,0.020444484427571297
72.0,0.017002271488308907
80.0,0.013097470626235008
88.0,0.010926085524260998
96.0,0.009270471520721912
104.0,0.008454781956970692
112.0,0.008047412149608135
120.0,0.008238236419856548
128.0,0.008449241518974304
144.0,0.008377914316952229
160.0,0.010623781941831112
176.0,0.011473773047327995
192.0,0.011746159754693508
208.0,0.011497514322400093
224.0,0.008937605656683445
240.0,0.005986327771097422
256.0,0.005131933372467756
288.0,0.0016340428264811635
320.0,-0.002375773387029767
352.0,-0.004922027699649334
384.0,-0.0055469488725066185
416.0,-0.0009608377004042268
448.0,0.005570557434111834
480.0,0.007004429120570421
512.0,0.00517168128862977
576.0,0.0027430953923612833
640.0,0.004284068942070007
704.0,0.003665277501568198
768.0,-0.0018861000426113605
832.0,0.0009076270507648587
896.0,0.0008782707154750824
960.0,-0.0063586789183318615
1024.0,-0.0040772962383925915
1152.0,-0.0003489648224785924
1280.0,-0.004433921072632074
1408.0,-0.0009086144273169339
1536.0,-0.001687539741396904
1664.0,-0.00491071492433548
1792.0,-0.011017974466085434
1920.0,-0.009507507085800171
2048.0,-0.005708999466150999
2304.0,-0.004077841993421316
2560.0,0.0005563467857427895
2816.0,0.005037458147853613
3072.0,0.006309209391474724
3328.0,-0.0002678448217920959
3584.0,0.00692049041390419
3840.0,0.0036295021418482065
4096.0,0.0013305029133334756
4608.0,-0.0019618168007582426
5120.0,-0.0015436846297234297
5632.0,0.002284060698002577
6144.0,0.002919041318818927
6656.0,-0.0018822969868779182
7168.0,0.0017486020224168897
7680.0,-0.00897977314889431
8192.0,-0.012914271093904972
end
