version,3.0
numOfCh,1
type,point
parent_name,34766_0dot4-1dot0
ch_type,1_1
kcount,1
numberNandB,1
brightnessNandB,1
carpet pos,0
pc,0
Time (ms),CH1 Auto-Correlation
1.0,0.09845296293497086
2.0,0.09435608983039856
3.0,0.09056348353624344
4.0,0.08696456253528595
5.0,0.08349940925836563
6.0,0.080342598259449
7.0,0.07757933437824249
8.0,0.07513665407896042
9.0,0.07273135334253311
10.0,0.07046425342559814
11.0,0.0683499127626419
12.0,0.06627708673477173
13.0,0.06429322063922882
14.0,0.0623975470662117
15.0,0.06053652986884117
16.0,0.058773305267095566
18.0,0.0556117482483387
20.0,0.052619569003582
22.0,0.049587830901145935
24.0,0.046824682503938675
26.0,0.04434993118047714
28.0,0.0423886701464653
30.0,0.04083629697561264
32.0,0.03923116624355316
36.0,0.03659507632255554
40.0,0.03498649597167969
44.0,0.03263205289840698
48.0,0.030224019661545753
52.0,0.028769446536898613
56.0,0.027565767988562584
60.0,0.0263449065387249
64.0,0.025737956166267395
72.0,0.022454526275396347
80.0,0.01921965554356575
88.0,0.016362393274903297
96.0,0.013641522265970707
104.0,0.011659262701869011
112.0,0.009328773245215416
120.0,0.007232004310935736
128.0,0.005112243816256523
144.0,0.0014081953559070826
160.0,0.0012456532567739487
176.0,0.0035528249572962523
192.0,0.00418577017262578
208.0,0.006277446169406176
224.0,0.005598376039415598
240.0,0.006675300654023886
256.0,0.009319936856627464
288.0,0.007857313379645348
320.0,0.005451387260109186
352.0,0.0041173179633915424
384.0,0.0017118207179009914
416.0,0.0018698414787650108
448.0,0.003122434951364994
480.0,0.005043978802859783
512.0,0.007510005030781031
576.0,-0.00012261276424396783
640.0,-0.0035080770030617714
704.0,-0.00332840159535408
768.0,-0.0016833164263516665
832.0,0.0002656000724527985
896.0,-0.0008140404825098813
960.0,-0.0035250636283308268
1024.0,-0.0072003575041890144
1152.0,-0.003080759895965457
1280.0,-0.005982378497719765
1408.0,-0.002387078944593668
1536.0,-0.0004419814795255661
1664.0,-0.0022977518383413553
1792.0,0.0030799214728176594
1920.0,-0.004546282347291708
2048.0,-0.003742366097867489
2304.0,-0.00404370529577136
2560.0,-0.006686130538582802
2816.0,-0.0011950138723477721
3072.0,-0.0021442153956741095
3328.0,0.0010223359568044543
3584.0,-0.0005802575033158064
3840.0,-0.0015334736090153456
4096.0,-0.0004358941805548966
4608.0,0.004739681724458933
5120.0,0.0046681733801960945
5632.0,0.002095581265166402
6144.0,-0.0007862493512220681
6656.0,-0.004435617942363024
7168.0,-0.002068864880129695
7680.0,-0.0016386639326810837
8192.0,-0.003044403623789549
end
