version,3.0
numOfCh,1
type,point
parent_name,34766_0dot4-1dot0
ch_type,1_1
kcount,1
numberNandB,1
brightnessNandB,1
carpet pos,0
pc,0
Time (ms),CH1 Auto-Correlation
1.0,0.10428715497255325
2.0,0.09990324079990387
3.0,0.09598014503717422
4.0,0.0923280343413353
5.0,0.08901065587997437
6.0,0.08590666204690933
7.0,0.08295545727014542
8.0,0.08030083775520325
9.0,0.07786407321691513
10.0,0.07546643167734146
11.0,0.07316721230745316
12.0,0.07104867696762085
13.0,0.06912505626678467
14.0,0.06736807525157928
15.0,0.0656517744064331
16.0,0.06404199451208115
18.0,0.0611371174454689
20.0,0.0585893839597702
22.0,0.05629280209541321
24.0,0.05388485640287399
26.0,0.05161738395690918
28.0,0.04937710985541344
30.0,0.04719320684671402
32.0,0.0453689806163311
36.0,0.04199104756116867
40.0,0.039109259843826294
44.0,0.0364871546626091
48.0,0.033997152000665665
52.0,0.03195527568459511
56.0,0.030175706371665
60.0,0.02912062034010887
64.0,0.027903933078050613
72.0,0.024241790175437927
80.0,0.01934422366321087
88.0,0.014670206233859062
96.0,0.011274849064648151
104.0,0.008252006024122238
112.0,0.005438424646854401
120.0,0.004285457544028759
128.0,0.0032542813569307327
144.0,0.0020103128626942635
160.0,0.0026700077578425407
176.0,0.0043276166543364525
192.0,0.0022957022301852703
208.0,0.00247743958607316
224.0,0.004563647788017988
240.0,0.006105360575020313
256.0,0.004414077382534742
288.0,0.002565898234024644
320.0,0.0010429263347759843
352.0,0.0007871665293350816
384.0,-0.0009750353638082743
416.0,-0.0026425865944474936
448.0,-0.0038463433738797903
480.0,-0.0031508454121649265
512.0,-0.0008053503697738051
576.0,0.003934518434107304
640.0,0.003023301949724555
704.0,-0.001611735438928008
768.0,-0.0015062480233609676
832.0,-0.0018236973555758595
896.0,-0.007524039596319199
960.0,-0.00863829255104065
1024.0,-0.005969779100269079
1152.0,-0.007751926779747009
1280.0,-0.004541391506791115
1408.0,0.002277488587424159
1536.0,0.001089403871446848
1664.0,0.0005093240761198103
1792.0,-0.0007423245697282255
1920.0,-0.0012627269607037306
2048.0,0.00261911959387362
2304.0,0.004596438724547625
2560.0,0.005190183408558369
2816.0,0.0017907567089423537
3072.0,-0.0030832558404654264
3328.0,-0.011474602855741978
3584.0,-0.012804281897842884
3840.0,-0.006056313402950764
4096.0,0.0010629078606143594
4608.0,0.003999032080173492
5120.0,-0.0017762091010808945
5632.0,-0.00224423804320395
6144.0,-0.004691372159868479
6656.0,0.0040632630698382854
7168.0,0.008998889476060867
7680.0,-0.0073950933292508125
8192.0,-0.0046176002360880375
end
