version,3.0
numOfCh,1
type,point
parent_name,34766_0dot4-1dot0
ch_type,1_1
kcount,1
numberNandB,1
brightnessNandB,1
carpet pos,0
pc,0
Time (ms),CH1 Auto-Correlation
1.0,0.09811051934957504
2.0,0.0943019762635231
3.0,0.0907355546951294
4.0,0.08739461749792099
5.0,0.0841648131608963
6.0,0.08120352029800415
7.0,0.07835917174816132
8.0,0.07571069151163101
9.0,0.07332415878772736
10.0,0.07113761454820633
11.0,0.06913699954748154
12.0,0.06738612800836563
13.0,0.06588107347488403
14.0,0.06444992125034332
15.0,0.06315198540687561
16.0,0.06190590187907219
18.0,0.059701744467020035
20.0,0.057484082877635956
22.0,0.05539510026574135
24.0,0.053437959402799606
26.0,0.051673635840415955
28.0,0.05008571967482567
30.0,0.048564136028289795
32.0,0.047030866146087646
36.0,0.04440116509795189
40.0,0.04195043817162514
44.0,0.03966737166047096
48.0,0.037526313215494156
52.0,0.035350870341062546
56.0,0.03348683565855026
60.0,0.03155117481946945
64.0,0.029153477400541306
72.0,0.025812380015850067
80.0,0.023978959769010544
88.0,0.02257750928401947
96.0,0.02131449617445469
104.0,0.019974619150161743
112.0,0.018664946779608727
120.0,0.01737816445529461
128.0,0.015521606430411339
144.0,0.011318386532366276
160.0,0.008371490985155106
176.0,0.007171881850808859
192.0,0.006363128311932087
208.0,0.005051329731941223
224.0,0.004585682414472103
240.0,0.004621713887900114
256.0,0.005038532428443432
288.0,0.0033445798326283693
320.0,0.0007024158257991076
352.0,-0.0012395961675792933
384.0,-0.0012415004894137383
416.0,-0.0022054691798985004
448.0,-0.0030313250608742237
480.0,-0.002200770191848278
512.0,-0.004043345805257559
576.0,-0.00034994157613255084
640.0,0.0004021020431537181
704.0,0.003517824225127697
768.0,0.0005258859600871801
832.0,0.0036451658234000206
896.0,0.004304000176489353
960.0,0.0036775933112949133
1024.0,0.00045258246245794
1152.0,0.0035477466881275177
1280.0,-0.0014726377557963133
1408.0,0.004311775788664818
1536.0,0.002944326726719737
1664.0,-0.000387557374779135
1792.0,-0.011151222512125969
1920.0,-0.008604568429291248
2048.0,-0.0038288631476461887
2304.0,-0.0001237737451447174
2560.0,-0.003020432312041521
2816.0,-0.008151507936418056
3072.0,-0.0038663025479763746
3328.0,-0.005153255071491003
3584.0,0.004112866707146168
3840.0,-0.001962780486792326
4096.0,-0.008393274620175362
4608.0,-0.002702208235859871
5120.0,-0.005837793927639723
5632.0,0.0015651407884433866
6144.0,0.0011124792508780956
6656.0,0.0015854343073442578
7168.0,0.00015430597704835236
7680.0,0.0044298237189650536
8192.0,0.007476321421563625
end
