version,3.0
numOfCh,1
type,point
parent_name,34766_0dot4-1dot0
ch_type,1_1
kcount,1
numberNandB,1
brightnessNandB,1
carpet pos,0
pc,0
Time (ms),CH1 Auto-Correlation
1.0,0.08753030002117157
2.0,0.08345849066972733
3.0,0.07973237335681915
4.0,0.0765366181731224
5.0,0.07352259010076523
6.0,0.07062198221683502
7.0,0.06801188737154007
8.0,0.0654066875576973
9.0,0.06299768388271332
10.0,0.060636792331933975
11.0,0.05849453806877136
12.0,0.05643332377076149
13.0,0.054554954171180725
14.0,0.05277362838387489
15.0,0.051034025847911835
16.0,0.04949400573968887
18.0,0.046529483050107956
20.0,0.04387525096535683
22.0,0.04166172444820404
24.0,0.03965523838996887
26.0,0.03745175898075104
28.0,0.03544120863080025
30.0,0.03362184017896652
32.0,0.031860120594501495
36.0,0.028748365119099617
40.0,0.02663688361644745
44.0,0.02492382936179638
48.0,0.023944107815623283
52.0,0.022213280200958252
56.0,0.021139375865459442
60.0,0.02018200047314167
64.0,0.020102445036172867
72.0,0.02049914374947548
80.0,0.01972862146794796
88.0,0.018330959603190422
96.0,0.017278196290135384
104.0,0.015582812018692493
112.0,0.014107403345406055
120.0,0.014715000987052917
128.0,0.014580857008695602
144.0,0.01301304530352354
160.0,0.011090070009231567
176.0,0.011116509325802326
192.0,0.009809804148972034
208.0,0.006660993676632643
224.0,0.004293000791221857
240.0,0.002810410223901272
256.0,0.002345900284126401
288.0,0.0013342649908736348
320.0,0.004680048208683729
352.0,0.003970219753682613
384.0,0.0018774580676108599
416.0,0.0011675443965941668
448.0,0.006510928738862276
480.0,0.002643241547048092
512.0,-0.0017678863368928432
576.0,-0.0038983477279543877
640.0,-0.008386367931962013
704.0,-0.007778586819767952
768.0,-0.006050811614841223
832.0,-0.00798699539154768
896.0,-0.005442370194941759
960.0,-0.0014625396579504013
1024.0,-0.0030633036512881517
1152.0,-0.0021239775232970715
1280.0,-0.001648484612815082
1408.0,-0.00024820101680234075
1536.0,0.0017835849430412054
1664.0,0.001316729700192809
1792.0,-0.00016912799037527293
1920.0,0.0017669940134510398
2048.0,0.002184604061767459
2304.0,0.0010294078383594751
2560.0,-0.002904662862420082
2816.0,-0.004627620801329613
3072.0,-0.0007571338792331517
3328.0,-0.0011644925689324737
3584.0,-0.0028613414615392685
3840.0,-0.0026562472339719534
4096.0,0.0039329673163592815
4608.0,-0.0007875292794778943
5120.0,-0.0017436305060982704
5632.0,0.008196028880774975
6144.0,-0.005366186611354351
6656.0,-0.0007779230363667011
7168.0,-0.0008142272708937526
7680.0,0.004213897977024317
8192.0,-0.0024513222742825747
end
