version,3.0
numOfCh,1
type,point
parent_name,dirty_3dot0-1dot0
ch_type,1_1
kcount,1
numberNandB,1
brightnessNandB,1
carpet pos,0
pc,0
Time (ms),CH1 Auto-Correlation
1.0,0.11608502268791199
2.0,0.10638263076543808
3.0,0.09778239578008652
4.0,0.09083807468414307
5.0,0.08552439510822296
6.0,0.08025971800088882
7.0,0.07673569023609161
8.0,0.07303765416145325
9.0,0.06981373578310013
10.0,0.06675684452056885
11.0,0.06398839503526688
12.0,0.06062379106879234
13.0,0.05718246102333069
14.0,0.05367772653698921
15.0,0.05063062533736229
16.0,0.04711071029305458
18.0,0.042646992951631546
20.0,0.039113257080316544
22.0,0.03563197702169418
24.0,0.03227672353386879
26.0,0.028937336057424545
28.0,0.026419566944241524
30.0,0.02442171610891819
32.0,0.02361615188419819
36.0,0.02206813171505928
40.0,0.02157423086464405
44.0,0.022956624627113342
48.0,0.025435637682676315
52.0,0.02418021857738495
56.0,0.021520022302865982
60.0,0.019172023981809616
64.0,0.01501491665840149
72.0,0.011024286039173603
80.0,0.011521777138113976
88.0,0.013730396516621113
96.0,0.016519373282790184
104.0,0.015407801605761051
112.0,0.011344363912940025
120.0,0.007664485834538937
128.0,0.004244803451001644
144.0,0.0031154050957411528
160.0,0.0009783906862139702
176.0,-0.0021881454158574343
192.0,-0.0024827062152326107
208.0,-0.0017593979137018323
224.0,0.0035950220189988613
240.0,0.010642211884260178
256.0,0.010422177612781525
288.0,0.00807284377515316
320.0,0.006214996799826622
352.0,0.013124123215675354
384.0,0.003594173351302743
416.0,0.0009245940600521863
448.0,-0.0006775956135243177
480.0,0.0011848893482238054
512.0,0.0035619945265352726
576.0,0.00809625443071127
640.0,0.01130281575024128
704.0,0.007040956988930702
768.0,-0.0008176076225936413
832.0,-0.0005524128791876137
896.0,0.003250928595662117
960.0,0.004470111336559057
1024.0,0.003232239279896021
1152.0,0.0035662436857819557
1280.0,0.00920987781137228
1408.0,0.0018029907951131463
1536.0,-0.0007643223507329822
1664.0,0.0003765459987334907
1792.0,0.0004363689513411373
1920.0,0.0039027149323374033
2048.0,0.000733905762899667
2304.0,0.00035612285137176514
2560.0,-0.002533314749598503
2816.0,-0.0026598265394568443
3072.0,-0.002875939244404435
3328.0,-0.002749605104327202
3584.0,-0.0014319131150841713
3840.0,0.00037235458148643374
4096.0,-0.00037242608959786594
4608.0,-0.0005885113496333361
5120.0,0.0017332610441371799
5632.0,0.0004531618033070117
6144.0,-0.00031479273457080126
6656.0,-0.001028804574161768
7168.0,-0.0008076420635916293
7680.0,-0.005699770525097847
8192.0,-0.005091943312436342
9216.0,-0.0030627469532191753
10240.0,0.0013028484536334872
11264.0,0.0017209710786119103
12288.0,8.47456103656441e-05
13312.0,-0.010967890731990337
14336.0,-0.00666695786640048
end
