version,3.0
numOfCh,1
type,point
parent_name,dirty_3dot0-1dot0
ch_type,1_1
kcount,1
numberNandB,1
brightnessNandB,1
carpet pos,0
pc,0
Time (ms),CH1 Auto-Correlation
1.0,0.07769795507192612
2.0,0.07020087540149689
3.0,0.0642225369811058
4.0,0.05883750319480896
5.0,0.05445395037531853
6.0,0.050106681883335114
7.0,0.04610238969326019
8.0,0.0420694500207901
9.0,0.03924167528748512
10.0,0.03682990372180939
11.0,0.034443486481904984
12.0,0.03302498161792755
13.0,0.03156006708741188
14.0,0.03016142174601555
15.0,0.0290368665009737
16.0,0.028414560481905937
18.0,0.027431700378656387
20.0,0.027196379378437996
22.0,0.027541551738977432
24.0,0.027018627151846886
26.0,0.026310913264751434
28.0,0.02474869228899479
30.0,0.02254375070333481
32.0,0.019519850611686707
36.0,0.013795497827231884
40.0,0.009587669745087624
44.0,0.008270662277936935
48.0,0.009101634845137596
52.0,0.008695746771991253
56.0,0.007654859684407711
60.0,0.00691978819668293
64.0,0.006021538749337196
72.0,0.0038052285090088844
80.0,0.0032796647865325212
88.0,0.0035211178474128246
96.0,0.0024019069969654083
104.0,0.0005224764463491738
112.0,0.000425060250563547
120.0,0.0011107471073046327
128.0,0.0018049307400360703
144.0,0.004472527652978897
160.0,0.0043778372928500175
176.0,0.001379666617140174
192.0,0.00035951592144556344
208.0,0.00024105414922814816
224.0,-5.157671694178134e-05
240.0,-0.0007129128789529204
256.0,-0.0019539808854460716
288.0,-0.0024583854246884584
320.0,-0.0019682939164340496
352.0,-0.0020120791159570217
384.0,-0.0015387937892228365
416.0,1.311953292315593e-05
448.0,0.00024631136329844594
480.0,-0.002120847813785076
512.0,-0.001975400373339653
576.0,-0.003459192579612136
640.0,0.004713345319032669
704.0,0.002388622146099806
768.0,-0.0008836796041578054
832.0,-0.00041790877003222704
896.0,-0.00363669591024518
960.0,-0.0021326032001525164
1024.0,0.0026145793963223696
1152.0,0.00019796195556409657
1280.0,-0.0009629085543565452
1408.0,-0.0018836614908650517
1536.0,-0.0019228925229981542
1664.0,-0.0018628094112500548
1792.0,0.0001541308156447485
1920.0,0.0001873792934929952
2048.0,-0.0008121075807139277
2304.0,-0.0007004548679105937
2560.0,0.0008888666052371264
2816.0,0.001489929505623877
3072.0,0.0011009953450411558
3328.0,-0.001178066129796207
3584.0,-0.0031073358841240406
3840.0,-0.0007688009645789862
4096.0,-0.0023380890488624573
4608.0,0.002266577212139964
5120.0,-0.0007917167968116701
5632.0,0.00365789164789021
6144.0,-0.0006094090640544891
6656.0,-0.001868639257736504
7168.0,-0.0005939865950495005
7680.0,0.0014707644004374743
8192.0,-0.0011507953749969602
9216.0,-0.0003563979116734117
10240.0,0.0010800192831084132
11264.0,-0.0016301634022966027
12288.0,-0.000543472298886627
13312.0,0.0019061658531427383
14336.0,-0.0013279312988743186
end
