version,3.0
numOfCh,1
type,point
parent_name,dirty_3dot0-1dot0
ch_type,1_1
kcount,1
numberNandB,1
brightnessNandB,1
carpet pos,0
pc,0
Time (ms),CH1 Auto-Correlation
1.0,0.12243679910898209
2.0,0.11165861785411835
3.0,0.10334840416908264
4.0,0.09673729538917542
5.0,0.0916571393609047
6.0,0.0872446820139885
7.0,0.08297324180603027
8.0,0.07894765585660934
9.0,0.07593861222267151
10.0,0.07311146706342697
11.0,0.07008199393749237
12.0,0.06720481812953949
13.0,0.06518518924713135
14.0,0.0629463791847229
15.0,0.06114206463098526
16.0,0.05920761078596115
18.0,0.054996516555547714
20.0,0.050624676048755646
22.0,0.04659601300954819
24.0,0.042816128581762314
26.0,0.03833624720573425
28.0,0.03613380342721939
30.0,0.03569391369819641
32.0,0.033873334527015686
36.0,0.029737448319792747
40.0,0.02771933004260063
44.0,0.025465086102485657
48.0,0.022858332842588425
52.0,0.021696774289011955
56.0,0.01978933811187744
60.0,0.016212215647101402
64.0,0.01362066250294447
72.0,0.009434225037693977
80.0,0.007303560618311167
88.0,0.007333772256970406
96.0,0.007849578745663166
104.0,0.007793618831783533
112.0,0.005427053198218346
120.0,0.003460095962509513
128.0,0.00457839947193861
144.0,0.004098066128790379
160.0,0.0021840278059244156
176.0,0.00024069583741948009
192.0,-0.0007359327282756567
208.0,-0.0015042555751278996
224.0,-0.003898894414305687
240.0,-0.0047767991200089455
256.0,-0.005040105897933245
288.0,-0.0012705657863989472
320.0,-0.0013713397784158587
352.0,-0.004545875359326601
384.0,-0.004360412247478962
416.0,-0.004438762087374926
448.0,-0.0038425237871706486
480.0,-0.0032793416175991297
512.0,-0.0033395655918866396
576.0,-0.003780352184548974
640.0,-0.0035293709952384233
704.0,-0.0010626517469063401
768.0,0.004801657982170582
832.0,0.008186600171029568
896.0,0.005330867599695921
960.0,0.00733674131333828
1024.0,0.004524559713900089
1152.0,-0.001508129178546369
1280.0,-0.003784758970141411
1408.0,-0.0019385775085538626
1536.0,-0.0015577699523419142
1664.0,-0.0023945197463035583
1792.0,-0.0023564079310745
1920.0,0.0008769137784838676
2048.0,-0.0020711789838969707
2304.0,-0.004896950908005238
2560.0,0.0025250883772969246
2816.0,0.0024915647227317095
3072.0,0.002546547446399927
3328.0,-0.001020150608383119
3584.0,0.0033764790277928114
3840.0,0.00336019997484982
4096.0,0.0036868343595415354
4608.0,-0.0006359204417094588
5120.0,0.0016859614988788962
5632.0,-0.0021496128756552935
6144.0,-0.0010445035295560956
6656.0,-0.0013588039437308908
7168.0,-0.0024117478169500828
7680.0,0.0023038494400680065
8192.0,-0.0022707160096615553
9216.0,-0.0016630766913294792
10240.0,-0.0029621284920722246
11264.0,0.0012567348312586546
12288.0,-0.0003043738252017647
13312.0,-0.003152579767629504
14336.0,-0.0008445027633570135
end
