version,3.0
numOfCh,1
type,point
parent_name,dirty_3dot0-1dot0
ch_type,1_1
kcount,1
numberNandB,1
brightnessNandB,1
carpet pos,0
pc,0
Time (ms),CH1 Auto-Correlation
1.0,0.0721525028347969
2.0,0.06392783671617508
3.0,0.056917257606983185
4.0,0.05125662311911583
5.0,0.046568796038627625
6.0,0.04272753745317459
7.0,0.03954825922846794
8.0,0.03629088029265404
9.0,0.03381047397851944
10.0,0.031551335006952286
11.0,0.029556501656770706
12.0,0.027832813560962677
13.0,0.026518689468503
14.0,0.025472493842244148
15.0,0.024510536342859268
16.0,0.023296784609556198
18.0,0.02191288396716118
20.0,0.021065430715680122
22.0,0.02022404596209526
24.0,0.020745353773236275
26.0,0.02128036692738533
28.0,0.020295409485697746
30.0,0.019660362973809242
32.0,0.018284304067492485
36.0,0.015293603762984276
40.0,0.013648326508700848
44.0,0.012817656621336937
48.0,0.011210247874259949
52.0,0.010379336774349213
56.0,0.008900736458599567
60.0,0.008519478142261505
64.0,0.007388576865196228
72.0,0.006661479361355305
80.0,0.0053568556904792786
88.0,0.0051611242815852165
96.0,0.00455239275470376
104.0,0.0022875117138028145
112.0,0.0024714551400393248
120.0,0.003664640476927161
128.0,0.004760876763612032
144.0,0.002777652582153678
160.0,0.0034699616953730583
176.0,0.0034019923768937588
192.0,0.001597024267539382
208.0,0.0017322557978332043
224.0,0.0018127552466467023
240.0,7.568296859972179e-05
256.0,-0.0019960233476012945
288.0,-0.002210086677223444
320.0,-0.0033195139840245247
352.0,-0.003305146936327219
384.0,-0.0027722367085516453
416.0,-0.003417692147195339
448.0,-0.0013760722940787673
480.0,0.00043344448204152286
512.0,0.0001716047408990562
576.0,-0.0005114141386002302
640.0,-0.0015101766912266612
704.0,-0.0006114125135354698
768.0,0.002155725611373782
832.0,-0.0002487965684849769
896.0,-0.0015841372078284621
960.0,2.1955323973088525e-05
1024.0,-0.0004632943600881845
1152.0,0.0014674626290798187
1280.0,0.00041685381438583136
1408.0,-0.0007934651803225279
1536.0,-0.00028964938246645033
1664.0,0.0015324782580137253
1792.0,0.002289191819727421
1920.0,7.676479435758665e-05
2048.0,0.0014742077328264713
2304.0,0.0002125450555467978
2560.0,0.0016773126553744078
2816.0,-0.0014201749581843615
3072.0,-0.0012521303724497557
3328.0,-0.00021198549075052142
3584.0,-0.0005302162026055157
3840.0,-0.0008021258981898427
4096.0,0.00029715863638557494
4608.0,-0.001638295711018145
5120.0,-0.0004753184621222317
5632.0,-0.0010323271853849292
6144.0,0.0002760724746622145
6656.0,-0.0008011031313799322
7168.0,0.0010423981584608555
7680.0,-0.0013563501415774226
8192.0,-0.0007548615685664117
9216.0,0.0005562997539527714
10240.0,-0.0006306558498181403
11264.0,0.0006773289060220122
12288.0,-0.00035402257344685495
13312.0,0.00015222129877656698
14336.0,8.463237463729456e-05
end
