version,3.0
numOfCh,1
type,point
parent_name,dirty_3dot0-1dot0
ch_type,1_1
kcount,1
numberNandB,1
brightnessNandB,1
carpet pos,0
pc,0
Time (ms),CH1 Auto-Correlation
1.0,0.07949358969926834
2.0,0.07162438333034515
3.0,0.06546098738908768
4.0,0.06071999669075012
5.0,0.05662126466631889
6.0,0.05245635285973549
7.0,0.04873532056808472
8.0,0.04510888084769249
9.0,0.0414913147687912
10.0,0.03910750150680542
11.0,0.03724053502082825
12.0,0.03492182493209839
13.0,0.03301770240068436
14.0,0.031010450795292854
15.0,0.02937900274991989
16.0,0.027880433946847916
18.0,0.025242256000638008
20.0,0.022515391930937767
22.0,0.020225774496793747
24.0,0.017989125102758408
26.0,0.015987183898687363
28.0,0.01445451658219099
30.0,0.01339066494256258
32.0,0.011827366426587105
36.0,0.0094451317563653
40.0,0.008548762649297714
44.0,0.00899863988161087
48.0,0.008737340569496155
52.0,0.008294268511235714
56.0,0.00861139502376318
60.0,0.009759346954524517
64.0,0.011684846132993698
72.0,0.012222912162542343
80.0,0.011517488397657871
88.0,0.009054438211023808
96.0,0.008007499389350414
104.0,0.005592512432485819
112.0,0.005386661272495985
120.0,0.005580613389611244
128.0,0.00571673596277833
144.0,0.012145889922976494
160.0,0.009720856323838234
176.0,0.005027759820222855
192.0,0.003199494443833828
208.0,0.004758655093610287
224.0,0.00024006480816751719
240.0,-0.000807386648375541
256.0,-0.0001243292645085603
288.0,0.00032782694324851036
320.0,0.0018191594863310456
352.0,0.0007295422255992889
384.0,-0.0014626667834818363
416.0,-0.0027400972321629524
448.0,-0.0027156025171279907
480.0,-0.001175466924905777
512.0,0.0005950177437625825
576.0,0.002945409156382084
640.0,0.0023822400253266096
704.0,0.0008481617551296949
768.0,-0.0004290866490919143
832.0,-0.0002569126372691244
896.0,0.0011700482573360205
960.0,-0.0013209145981818438
1024.0,0.00013382868201006204
1152.0,0.0002988863561768085
1280.0,-0.0006467885687015951
1408.0,-0.0002568413910921663
1536.0,0.0011900808895006776
1664.0,0.0005722883506678045
1792.0,-0.0023035469930619
1920.0,-0.003440879052504897
2048.0,-0.0007039628690108657
2304.0,-0.0015150393592193723
2560.0,-0.0014495514333248138
2816.0,0.0011054524220526218
3072.0,0.0010265841847285628
3328.0,-0.00037836222327314317
3584.0,0.0018342749681323767
3840.0,-0.0013219028478488326
4096.0,-0.0027647523675113916
4608.0,0.0017024591797962785
5120.0,-0.0022331341169774532
5632.0,-0.001098379259929061
6144.0,-0.001354049309156835
6656.0,-1.162391072284663e-06
7168.0,-0.001010712468996644
7680.0,-0.0022729053162038326
8192.0,0.005062629468739033
9216.0,0.00012122265616199002
10240.0,-0.002194216474890709
11264.0,0.0014054437633603811
12288.0,0.006918960250914097
13312.0,-0.0037979180924594402
14336.0,-0.0011565096210688353
end
