version,3.0
numOfCh,1
type,point
parent_name,dirty_3dot0-1dot0
ch_type,1_1
kcount,1
numberNandB,1
brightnessNandB,1
carpet pos,0
pc,0
Time (ms),CH1 Auto-Correlation
1.0,0.10665997117757797
2.0,0.09758627414703369
3.0,0.09078668057918549
4.0,0.08465033769607544
5.0,0.07991913706064224
6.0,0.07489138096570969
7.0,0.0700770914554596
8.0,0.06527365744113922
9.0,0.06156756356358528
10.0,0.05801035091280937
11.0,0.05525299161672592
12.0,0.05241144448518753
13.0,0.049781255424022675
14.0,0.04717499017715454
15.0,0.04500751569867134
16.0,0.04323167726397514
18.0,0.0390654057264328
20.0,0.03555407002568245
22.0,0.03304285928606987
24.0,0.030489029362797737
26.0,0.028290869668126106
28.0,0.026910260319709778
30.0,0.025576379150152206
32.0,0.02485783025622368
36.0,0.021824313327670097
40.0,0.01681985706090927
44.0,0.012363354675471783
48.0,0.009929616004228592
52.0,0.00936978030949831
56.0,0.008801797404885292
60.0,0.008477688767015934
64.0,0.007398177403956652
72.0,0.002901959465816617
80.0,-0.001319043105468154
88.0,-0.002153965877369046
96.0,-0.0022197195794433355
104.0,-0.0027216379530727863
112.0,-0.0009126002551056445
120.0,0.002898167120292783
128.0,0.0070993187837302685
144.0,0.007084864657372236
160.0,0.0035129529424011707
176.0,-0.002267077099531889
192.0,-0.00362867652438581
208.0,-0.004388713743537664
224.0,-0.004683967679738998
240.0,-0.0022439523600041866
256.0,0.00028321536956354976
288.0,0.0003242337261326611
320.0,-0.0022746950853616
352.0,-0.005520898383110762
384.0,-0.003599586198106408
416.0,-0.001460609957575798
448.0,0.0018007007893174887
480.0,0.0009466363699175417
512.0,0.0003613385197240859
576.0,0.0006996950833126903
640.0,-0.0010290484642609954
704.0,0.0014457833021879196
768.0,-0.00032557218219153583
832.0,-0.0014210190856829286
896.0,-0.004021577071398497
960.0,-0.0018354634521529078
1024.0,-0.00044381769839674234
1152.0,0.0004228711186442524
1280.0,-0.0027774344198405743
1408.0,-0.004993695765733719
1536.0,-0.003808713750913739
1664.0,-0.004221964627504349
1792.0,-0.0002517020620871335
1920.0,0.0028750700876116753
2048.0,-0.0005893107154406607
2304.0,-0.0008800042560324073
2560.0,0.0007998923538252711
2816.0,0.004672319162636995
3072.0,0.00011737633758457378
3328.0,-0.0013735148822888732
3584.0,-0.002842762041836977
3840.0,-0.0003002034791279584
4096.0,0.0015455697430297732
4608.0,0.0007497962797060609
5120.0,-0.0018369155004620552
5632.0,-0.00048129737842828035
6144.0,-4.842424823436886e-05
6656.0,0.002097690012305975
7168.0,-0.001011946820653975
7680.0,-0.0011740446789190173
8192.0,0.00016412604600191116
9216.0,0.0010478873737156391
10240.0,-0.0020351754501461983
11264.0,0.003860762808471918
12288.0,-0.002561504254117608
13312.0,0.0007595836068503559
14336.0,-0.002623283304274082
end
