version,3.0
numOfCh,1
type,point
parent_name,dirty_3dot0-1dot0
ch_type,1_1
kcount,1
numberNandB,1
brightnessNandB,1
carpet pos,0
pc,0
Time (ms),CH1 Auto-Correlation
1.0,0.07347942143678665
2.0,0.06577371060848236
3.0,0.0591440387070179
4.0,0.05347761511802673
5.0,0.04843353480100632
6.0,0.0442938394844532
7.0,0.04089019447565079
8.0,0.03805462643504143
9.0,0.035161372274160385
10.0,0.032740429043769836
11.0,0.030089322477579117
12.0,0.027842655777931213
13.0,0.02585109882056713
14.0,0.02369513362646103
15.0,0.021812641993165016
16.0,0.020574359223246574
18.0,0.018168143928050995
20.0,0.017136873677372932
22.0,0.01650468073785305
24.0,0.015968862920999527
26.0,0.014502967707812786
28.0,0.013328718952834606
30.0,0.012320172041654587
32.0,0.01200720202177763
36.0,0.011371009051799774
40.0,0.009493492543697357
44.0,0.008650111965835094
48.0,0.007322228513658047
52.0,0.0075522176921367645
56.0,0.008121822029352188
60.0,0.007765492424368858
64.0,0.007696857210248709
72.0,0.006425501313060522
80.0,0.004012721590697765
88.0,0.003263232298195362
96.0,0.003120001871138811
104.0,0.003671008162200451
112.0,0.0036110763903707266
120.0,0.002108525950461626
128.0,0.00033413455821573734
144.0,-0.0005102328141219914
160.0,-0.001819686614908278
176.0,-0.0009416273096576333
192.0,-0.000931851624045521
208.0,-0.0003368303005117923
224.0,-0.0005607503117062151
240.0,0.0004925000830553472
256.0,-0.001032764557749033
288.0,-0.0016051726415753365
320.0,-0.0026347774546593428
352.0,-0.0006314323400147259
384.0,-9.956635039998218e-05
416.0,-0.0023033381439745426
448.0,-0.0022055732551962137
480.0,-0.0020142721477895975
512.0,-0.0018875220557674766
576.0,-5.285601946525276e-05
640.0,0.0005796586046926677
704.0,-0.002184817800298333
768.0,-0.002871905919164419
832.0,-0.000709271349478513
896.0,0.000818404892925173
960.0,0.0033415770158171654
1024.0,0.0021536927670240402
1152.0,-0.0005281546618789434
1280.0,0.00019845410133711994
1408.0,-0.0009768357267603278
1536.0,0.0010161271784454584
1664.0,-0.001285249600186944
1792.0,0.000563691311981529
1920.0,0.0007486490649171174
2048.0,0.00018974588601849973
2304.0,-0.001353236730210483
2560.0,-0.0013937612529844046
2816.0,-0.0004429059335961938
3072.0,-0.0001605596480658278
3328.0,-0.0010171665344387293
3584.0,0.00021067919442430139
3840.0,-0.002661754610016942
4096.0,-0.000739609356969595
4608.0,0.0007589285378344357
5120.0,0.0011228069197386503
5632.0,0.0006780294934287667
6144.0,-0.00021260550420265645
6656.0,-0.00016942645015660673
7168.0,0.00010567629942670465
7680.0,-5.182179666007869e-05
8192.0,-0.0013153549516573548
9216.0,0.00042331154691055417
10240.0,0.0007014773436821997
11264.0,0.00015725908451713622
12288.0,-0.0012584548676386476
13312.0,1.882355172710959e-05
14336.0,0.0016837511211633682
end
