version,3.0
numOfCh,1
type,point
parent_name,dirty_3dot0-1dot0
ch_type,1_1
kcount,1
numberNandB,1
brightnessNandB,1
carpet pos,0
pc,0
Time (ms),CH1 Auto-Correlation
1.0,0.07052826881408691
2.0,0.06246073916554451
3.0,0.05643052980303764
4.0,0.05109671503305435
5.0,0.04672382026910782
6.0,0.04288315400481224
7.0,0.03908384218811989
8.0,0.036050885915756226
9.0,0.03397762030363083
10.0,0.03202380985021591
11.0,0.030238201841711998
12.0,0.028315763920545578
13.0,0.026997441425919533
14.0,0.02604030631482601
15.0,0.02493671514093876
16.0,0.023792386054992676
18.0,0.02194211073219776
20.0,0.02053317427635193
22.0,0.01868017204105854
24.0,0.017490796744823456
26.0,0.017230266705155373
28.0,0.016810521483421326
30.0,0.016359791159629822
32.0,0.015615995973348618
36.0,0.014404295943677425
40.0,0.013291602954268456
44.0,0.012368028052151203
48.0,0.012901139445602894
52.0,0.013470458798110485
56.0,0.013623001053929329
60.0,0.013127713464200497
64.0,0.012544161640107632
72.0,0.010987921617925167
80.0,0.012398012913763523
88.0,0.011333317495882511
96.0,0.012788831256330013
104.0,0.010530184954404831
112.0,0.009088829159736633
120.0,0.006741399876773357
128.0,0.004837176762521267
144.0,0.004820771049708128
160.0,0.003633679822087288
176.0,0.003728741081431508
192.0,0.002374604344367981
208.0,0.002915005898103118
224.0,0.0009909661021083593
240.0,0.0003148827236145735
256.0,0.0016030159313231707
288.0,0.002612803364172578
320.0,0.00406929524615407
352.0,0.003419571788981557
384.0,0.0005170833319425583
416.0,0.00012812002387363464
448.0,-5.336679532774724e-05
480.0,-0.00041995503124780953
512.0,-0.00046302907867357135
576.0,-0.002085010753944516
640.0,-0.001022153883241117
704.0,-0.0018052501836791635
768.0,-0.0018502005841583014
832.0,-0.0020537846721708775
896.0,-0.003132639918476343
960.0,-0.0018927919445559382
1024.0,-0.0006267162971198559
1152.0,0.0006556247244589031
1280.0,-0.0009490172960795462
1408.0,0.0021736689377576113
1536.0,0.0027431498747318983
1664.0,0.0012408114271238446
1792.0,-0.0002917539968620986
1920.0,-0.0023459922522306442
2048.0,-0.00259186583571136
2304.0,-0.0036545584443956614
2560.0,-0.00033266760874539614
2816.0,0.0032683226745575666
3072.0,0.0007775160484015942
3328.0,0.0005482476553879678
3584.0,-0.00019955822790507227
3840.0,-0.0006804960430599749
4096.0,-0.0006954544223845005
4608.0,0.001378422137349844
5120.0,-0.0002056108642136678
5632.0,-0.0019422039622440934
6144.0,-0.0013181093381717801
6656.0,0.00019959229393862188
7168.0,-0.001279572257772088
7680.0,-0.0014067294541746378
8192.0,0.0007483905064873397
9216.0,-0.0017165859462693334
10240.0,-0.0008575519314035773
11264.0,0.005692439619451761
12288.0,-0.0026963120326399803
13312.0,-0.0035584871657192707
14336.0,0.007444274146109819
end
