version,3.0
numOfCh,1
type,point
parent_name,dirty_3dot0-1dot0
ch_type,1_1
kcount,1
numberNandB,1
brightnessNandB,1
carpet pos,0
pc,0
Time (ms),CH1 Auto-Correlation
1.0,0.08190327882766724
2.0,0.0741928219795227
3.0,0.06778096407651901
4.0,0.0622069351375103
5.0,0.05788489431142807
6.0,0.05377357453107834
7.0,0.05011614412069321
8.0,0.04696617275476456
9.0,0.04455443471670151
10.0,0.042663536965847015
11.0,0.04108288139104843
12.0,0.039221394807100296
13.0,0.03707179054617882
14.0,0.03493743762373924
15.0,0.032485347241163254
16.0,0.03007475659251213
18.0,0.02625931054353714
20.0,0.02239943854510784
22.0,0.019282177090644836
24.0,0.017735956236720085
26.0,0.016034239903092384
28.0,0.01468747854232788
30.0,0.013623202219605446
32.0,0.012892428785562515
36.0,0.011790404096245766
40.0,0.011570888571441174
44.0,0.011970335617661476
48.0,0.01089232787489891
52.0,0.009174163453280926
56.0,0.007644297555088997
60.0,0.007889269851148129
64.0,0.008315792307257652
72.0,0.009965424425899982
80.0,0.010533487424254417
88.0,0.008276581764221191
96.0,0.006466332823038101
104.0,0.004192543216049671
112.0,0.003212056355550885
120.0,0.0017279268940910697
128.0,0.0023698501754552126
144.0,-0.00013696130190510303
160.0,0.00033034736406989396
176.0,0.0012085195630788803
192.0,0.001709061674773693
208.0,0.0003592759312596172
224.0,-0.0010341497836634517
240.0,-0.001801318721845746
256.0,-0.002043189015239477
288.0,0.004190344829112291
320.0,0.004588493146002293
352.0,0.0028039799071848392
384.0,0.008345467038452625
416.0,0.008149712346494198
448.0,0.003072354244068265
480.0,0.006693975534290075
512.0,0.004880757071077824
576.0,0.001910902326926589
640.0,-0.0009939564624801278
704.0,-0.0023131577763706446
768.0,0.0012344412971287966
832.0,0.001643102616071701
896.0,-0.0007848780369386077
960.0,-0.002206099219620228
1024.0,-0.0033686691895127296
1152.0,0.0016383121255785227
1280.0,-0.0017336764140054584
1408.0,-0.004288828931748867
1536.0,-0.001074105384759605
1664.0,0.0014380927896127105
1792.0,-0.0017161787254735827
1920.0,-0.0017655809642747045
2048.0,0.002166715217754245
2304.0,-0.0011352002620697021
2560.0,-0.0002537145046517253
2816.0,-0.00014579664275515825
3072.0,-8.2983955508098e-05
3328.0,0.00018965057097375393
3584.0,-0.00022819779405836016
3840.0,-0.0014476570067927241
4096.0,-0.0010151129681617022
4608.0,-0.0028913295827805996
5120.0,-0.0005626402562484145
5632.0,0.0005834682960994542
6144.0,0.00024046041653491557
6656.0,-0.0014386132825165987
7168.0,-0.001333578140474856
7680.0,0.0004042107902932912
8192.0,0.00229142839089036
9216.0,0.0002623103791847825
10240.0,-0.0023823727387934923
11264.0,0.0006469578947871923
12288.0,-0.0005407135467976332
13312.0,0.0005139486165717244
14336.0,0.0005401893868111074
end
