version,3.0
numOfCh,1
type,point
parent_name,dirty_3dot0-1dot0
ch_type,1_1
kcount,1
numberNandB,1
brightnessNandB,1
carpet pos,0
pc,0
Time (ms),CH1 Auto-Correlation
1.0,0.05395440012216568
2.0,0.04816903918981552
3.0,0.04328977316617966
4.0,0.03944402560591698
5.0,0.03647784888744354
6.0,0.03404080122709274
7.0,0.031955353915691376
8.0,0.03002539835870266
9.0,0.028412820771336555
10.0,0.026980461552739143
11.0,0.025535665452480316
12.0,0.024084020406007767
13.0,0.02272934466600418
14.0,0.021742098033428192
15.0,0.02111566625535488
16.0,0.020208802074193954
18.0,0.018670260906219482
20.0,0.017636258155107498
22.0,0.017385097220540047
24.0,0.017014337703585625
26.0,0.016528354957699776
28.0,0.01598542556166649
30.0,0.015418232418596745
32.0,0.014838905073702335
36.0,0.012870974838733673
40.0,0.01061111968010664
44.0,0.008727993816137314
48.0,0.007684514857828617
52.0,0.006433524191379547
56.0,0.00552941532805562
60.0,0.005086402874439955
64.0,0.005105029325932264
72.0,0.005680214613676071
80.0,0.005314343608915806
88.0,0.004869444295763969
96.0,0.00438592629507184
104.0,0.0037450683303177357
112.0,0.003809841815382242
120.0,0.004973548464477062
128.0,0.005236776079982519
144.0,0.003773659700527787
160.0,0.0036459011025726795
176.0,0.0035471951123327017
192.0,0.0019855971913784742
208.0,0.0005766836693510413
224.0,0.0017718200106173754
240.0,0.0029200834687799215
256.0,0.004901241045445204
288.0,0.007219712249934673
320.0,0.007313877809792757
352.0,0.0041404650546610355
384.0,0.002115155104547739
416.0,0.0010200575925409794
448.0,-0.0001625755976419896
480.0,-5.48861498828046e-05
512.0,-0.0012057267595082521
576.0,0.0001238616678165272
640.0,0.0007463493966497481
704.0,-0.0006402319413609803
768.0,-0.0008957120589911938
832.0,-0.0008591841324232519
896.0,-0.0012272518360987306
960.0,-0.0012096499558538198
1024.0,-0.000635279982816428
1152.0,-6.744883285136893e-05
1280.0,0.0007590015884488821
1408.0,0.0030822306871414185
1536.0,0.0039405254647135735
1664.0,0.0009771283948794007
1792.0,0.0016270928317680955
1920.0,-0.0016802612226456404
2048.0,0.0028468857053667307
2304.0,0.0002200558374170214
2560.0,-0.0007834996213205159
2816.0,-0.0018236328614875674
3072.0,-0.0007734522223472595
3328.0,0.0011482207337394357
3584.0,0.0031088010873645544
3840.0,0.002065103966742754
4096.0,-0.000940877478569746
4608.0,-0.002887007547542453
5120.0,-0.0016329050995409489
5632.0,-0.001834574155509472
6144.0,-0.0034578577615320683
6656.0,-0.0013971254229545593
7168.0,-0.0008333548321388662
7680.0,-0.00021006341557949781
8192.0,-0.001427723909728229
9216.0,0.00047032380825839937
10240.0,0.00033328658901154995
11264.0,0.0011728086974471807
12288.0,0.0011228191433474422
13312.0,-3.393066072021611e-05
14336.0,0.0013659126125276089
end
