version,3.0
numOfCh,1
type,point
parent_name,dirty_3dot0-1dot0
ch_type,1_1
kcount,1
numberNandB,1
brightnessNandB,1
carpet pos,0
pc,0
Time (ms),CH1 Auto-Correlation
1.0,0.12722554802894592
2.0,0.11490904539823532
3.0,0.10460494458675385
4.0,0.09587101638317108
5.0,0.08799565583467484
6.0,0.08230476826429367
7.0,0.07787720113992691
8.0,0.07444006949663162
9.0,0.07033009082078934
10.0,0.06720034778118134
11.0,0.06451553106307983
12.0,0.06243725121021271
13.0,0.05976851284503937
14.0,0.057057447731494904
15.0,0.05338236689567566
16.0,0.050604768097400665
18.0,0.04509180411696434
20.0,0.040458083152770996
22.0,0.03675824776291847
24.0,0.03361193835735321
26.0,0.031754858791828156
28.0,0.03166075050830841
30.0,0.03133010491728783
32.0,0.030308635905385017
36.0,0.02862013876438141
40.0,0.028914924710989
44.0,0.02842920459806919
48.0,0.025550780817866325
52.0,0.024052051827311516
56.0,0.02197345718741417
60.0,0.01896057091653347
64.0,0.014321496710181236
72.0,0.007982932962477207
80.0,0.00635997811332345
88.0,0.0037579836789518595
96.0,0.001010789885185659
104.0,-0.0009124355856329203
112.0,-0.0016905618831515312
120.0,-0.0017299838364124298
128.0,-0.001546371029689908
144.0,0.003089507110416889
160.0,0.006019684486091137
176.0,0.003924129530787468
192.0,0.001041931682266295
208.0,0.003503883723169565
224.0,-0.0006118357414379716
240.0,-0.0011418502544984221
256.0,0.00021931921946816146
288.0,-0.0015991581603884697
320.0,-0.0015493636019527912
352.0,-0.004163747653365135
384.0,-0.0030280116479843855
416.0,-0.0014363802038133144
448.0,0.001377676147967577
480.0,0.0038923900574445724
512.0,0.003256264142692089
576.0,-0.002794526284560561
640.0,-0.002421089680865407
704.0,-0.0008222401374951005
768.0,0.0008526199962943792
832.0,-0.002231345744803548
896.0,0.0010763118043541908
960.0,0.0026507589500397444
1024.0,5.966690423520049e-06
1152.0,0.0014517265371978283
1280.0,-0.006454546935856342
1408.0,-0.008316085673868656
1536.0,-0.005124901421368122
1664.0,-0.002192849526181817
1792.0,-0.0029108007438480854
1920.0,0.0008581459987908602
2048.0,0.003028465900570154
2304.0,-0.0020983743015676737
2560.0,0.0001399679167661816
2816.0,0.006402130238711834
3072.0,0.0017700426978990436
3328.0,-0.0019932046998292208
3584.0,0.0013794477563351393
3840.0,0.00487239845097065
4096.0,0.0006161888013593853
4608.0,-0.0031484519131481647
5120.0,-0.0034183815587311983
5632.0,0.0031552736181765795
6144.0,0.003387660253793001
6656.0,-0.0004055967438034713
7168.0,-0.0035899244248867035
7680.0,-0.0013565710978582501
8192.0,0.0020551374182105064
9216.0,0.00021174797439016402
10240.0,-0.003039392875507474
11264.0,-0.0013279676204547286
12288.0,0.005154669750481844
13312.0,-0.002581627806648612
14336.0,-0.0001441475615138188
end
