version,3.0
numOfCh,1
type,point
parent_name,dirty_3dot0-1dot0
ch_type,1_1
kcount,1
numberNandB,1
brightnessNandB,1
carpet pos,0
pc,0
Time (ms),CH1 Auto-Correlation
1.0,0.15271906554698944
2.0,0.1396297663450241
3.0,0.1289321333169937
4.0,0.1200488731265068
5.0,0.1124522015452385
6.0,0.10630766302347183
7.0,0.09941695630550385
8.0,0.09344661235809326
9.0,0.08742165565490723
10.0,0.08202134817838669
11.0,0.07730778306722641
12.0,0.07317924499511719
13.0,0.06960825622081757
14.0,0.06634778529405594
15.0,0.0631820410490036
16.0,0.059472501277923584
18.0,0.05259164422750473
20.0,0.04803837463259697
22.0,0.04400286078453064
24.0,0.04104870930314064
26.0,0.04042349010705948
28.0,0.03971649706363678
30.0,0.03923136740922928
32.0,0.0373191311955452
36.0,0.03013806790113449
40.0,0.025288833305239677
44.0,0.023042062297463417
48.0,0.02190408669412136
52.0,0.018519865348935127
56.0,0.01796131394803524
60.0,0.01907721348106861
64.0,0.019797133281826973
72.0,0.01745590753853321
80.0,0.017331287264823914
88.0,0.016495592892169952
96.0,0.012442072853446007
104.0,0.011243747547268867
112.0,0.009563349187374115
120.0,0.010799911804497242
128.0,0.012222991324961185
144.0,0.00920580793172121
160.0,0.00836869701743126
176.0,0.0095664756372571
192.0,0.00752408429980278
208.0,0.009174336679279804
224.0,0.012371799908578396
240.0,0.014036207459867
256.0,0.010908158496022224
288.0,0.009334935806691647
320.0,0.017325391992926598
352.0,0.00861347932368517
384.0,0.010773230344057083
416.0,0.017761634662747383
448.0,0.015963295474648476
480.0,0.003990722354501486
512.0,-0.00045679285540245473
576.0,0.012236854992806911
640.0,0.011620975099503994
704.0,0.0033634791616350412
768.0,-9.485360351391137e-05
832.0,-0.004785948432981968
896.0,0.0004007068637292832
960.0,0.0029060281813144684
1024.0,-0.0026744608767330647
1152.0,-0.0008681571343913674
1280.0,-0.0035696611739695072
1408.0,-0.003281713230535388
1536.0,-0.0039024201687425375
1664.0,-0.005109578371047974
1792.0,0.0039024432189762592
1920.0,-0.001893980661407113
2048.0,-0.007169612683355808
2304.0,-0.0070612505078315735
2560.0,-0.008258060552179813
2816.0,-0.006591510958969593
3072.0,-0.004124962259083986
3328.0,-0.00033699898631311953
3584.0,0.0013139670481905341
3840.0,0.002306555863469839
4096.0,0.002097811782732606
4608.0,0.0029681045562028885
5120.0,-0.0017972164787352085
5632.0,-0.001110913697630167
6144.0,-0.003119292901828885
6656.0,0.0002554467355366796
7168.0,0.004043242894113064
7680.0,0.0020562992431223392
8192.0,-0.003430194454267621
9216.0,-0.001036410336382687
10240.0,-0.0006851620855741203
11264.0,-0.0013430740218609571
12288.0,-0.002076903823763132
13312.0,0.0028632518369704485
14336.0,-0.004200857598334551
end
