version,3.0
numOfCh,1
type,point
parent_name,dirty_3dot0-1dot0
ch_type,1_1
kcount,1
numberNandB,1
brightnessNandB,1
carpet pos,0
pc,0
Time (ms),CH1 Auto-Correlation
1.0,0.09989430010318756
2.0,0.09086570143699646
3.0,0.08411620557308197
4.0,0.07837826758623123
5.0,0.07253963500261307
6.0,0.06812203675508499
7.0,0.06385059654712677
8.0,0.059260293841362
9.0,0.055273041129112244
10.0,0.05259637162089348
11.0,0.04977034404873848
12.0,0.04655839875340462
13.0,0.04318533092737198
14.0,0.04056396335363388
15.0,0.03799470514059067
16.0,0.035839565098285675
18.0,0.0329953096807003
20.0,0.03171627223491669
22.0,0.030235031619668007
24.0,0.028298376128077507
26.0,0.026333222165703773
28.0,0.024440987035632133
30.0,0.02250952087342739
32.0,0.021232474595308304
36.0,0.018658550456166267
40.0,0.015146945603191853
44.0,0.013167811557650566
48.0,0.012789586558938026
52.0,0.012828869745135307
56.0,0.013729700818657875
60.0,0.015123318880796432
64.0,0.01566804014146328
72.0,0.01261716429144144
80.0,0.009915131144225597
88.0,0.0069702425971627235
96.0,0.0075967865996062756
104.0,0.010457496158778667
112.0,0.00858752429485321
120.0,0.006927143316715956
128.0,0.004883629735559225
144.0,0.004263699054718018
160.0,0.002340140286833048
176.0,0.0026230625808238983
192.0,-3.3425214496674016e-05
208.0,-0.0008939493563957512
224.0,-0.0007898444309830666
240.0,-6.56951087876223e-05
256.0,0.0014095510123297572
288.0,0.0018223683582618833
320.0,-0.0025219900999218225
352.0,-0.004836286883801222
384.0,-0.005764408502727747
416.0,-0.0059076938778162
448.0,-0.003241082187741995
480.0,-0.0026714594569057226
512.0,-0.004147904925048351
576.0,-0.002442857250571251
640.0,-0.0009596481104381382
704.0,-0.0011878878576681018
768.0,0.0009666326805017889
832.0,-0.0016110242577269673
896.0,0.003662249306216836
960.0,0.003024044679477811
1024.0,0.004049068782478571
1152.0,0.0007278951234184206
1280.0,-0.0012368311872705817
1408.0,-0.003976151812821627
1536.0,-0.002398187993094325
1664.0,-0.0011473068734630942
1792.0,0.004189094062894583
1920.0,-0.0016896252054721117
2048.0,0.0032197185792028904
2304.0,-0.00023766251979395747
2560.0,-0.0023055567871779203
2816.0,-0.0004471683641895652
3072.0,0.0015554639976471663
3328.0,-0.0015037882840260863
3584.0,-0.0011461625108495355
3840.0,0.0036325189284980297
4096.0,0.0018583066994324327
4608.0,-0.0025452382396906614
5120.0,-0.0005290236440487206
5632.0,0.0007459522457793355
6144.0,-0.0003895278787240386
6656.0,-0.0024080427829176188
7168.0,-0.0018918486312031746
7680.0,0.0012156148441135883
8192.0,0.002055305987596512
9216.0,0.0007865403895266354
10240.0,-0.000983702135272324
11264.0,0.000785970885772258
12288.0,0.0038991381879895926
13312.0,-0.0010027772514149547
14336.0,-0.008308149874210358
end
