version,3.0
numOfCh,1
type,point
parent_name,dirty_3dot0-1dot0
ch_type,1_1
kcount,1
numberNandB,1
brightnessNandB,1
carpet pos,0
pc,0
Time (ms),CH1 Auto-Correlation
1.0,0.19337965548038483
2.0,0.1794274002313614
3.0,0.16705593466758728
4.0,0.15655499696731567
5.0,0.14795394241809845
6.0,0.1394467055797577
7.0,0.13226786255836487
8.0,0.1253504604101181
9.0,0.11804922670125961
10.0,0.1119675412774086
11.0,0.10777852684259415
12.0,0.10360007733106613
13.0,0.09989248216152191
14.0,0.09717564284801483
15.0,0.09489236027002335
16.0,0.09342426806688309
18.0,0.09145000576972961
20.0,0.08809062838554382
22.0,0.08481954038143158
24.0,0.08124842494726181
26.0,0.07792350649833679
28.0,0.07184480130672455
30.0,0.06607740372419357
32.0,0.060255907475948334
36.0,0.053103867918252945
40.0,0.049043167382478714
44.0,0.046990349888801575
48.0,0.04506450518965721
52.0,0.043341368436813354
56.0,0.03946748003363609
60.0,0.03588574752211571
64.0,0.03379527106881142
72.0,0.02963530644774437
80.0,0.023133540526032448
88.0,0.016008418053388596
96.0,0.012292107567191124
104.0,0.00806200597435236
112.0,0.004734449088573456
120.0,0.005092408042401075
128.0,0.005319639109075069
144.0,0.003830702742561698
160.0,0.000552690529730171
176.0,-0.0018973733531311154
192.0,-3.492984615149908e-05
208.0,0.0013233392965048552
224.0,0.005021918099373579
240.0,0.0029381033964455128
256.0,0.0014439539518207312
288.0,0.0010118726640939713
320.0,0.0007354774861596525
352.0,0.002878168597817421
384.0,0.004032602533698082
416.0,0.011875943280756474
448.0,0.01898273453116417
480.0,0.02246869169175625
512.0,0.01326107606291771
576.0,-0.006096946075558662
640.0,-0.015153524465858936
704.0,-0.013625020161271095
768.0,-0.013155754655599594
832.0,-0.012606227770447731
896.0,-0.005704785697162151
960.0,-0.010579877533018589
1024.0,-0.007837478071451187
1152.0,0.003586224978789687
1280.0,0.011110137216746807
1408.0,-0.0008627816569060087
1536.0,0.0022453232668340206
1664.0,0.01924111321568489
1792.0,0.00927279144525528
1920.0,0.0002491408376954496
2048.0,-0.00883842445909977
2304.0,-0.0004559828375931829
2560.0,-0.004153409972786903
2816.0,-0.004124197643250227
3072.0,-0.0019836346618831158
3328.0,-0.005984064191579819
3584.0,0.003714101854711771
3840.0,0.0010416823206469417
4096.0,-0.002368938410654664
4608.0,-0.00512619037181139
5120.0,-0.006743615958839655
5632.0,0.004669851157814264
6144.0,-0.003132960759103298
6656.0,-0.005175803322345018
7168.0,-0.00464258948341012
7680.0,-0.0016607074066996574
8192.0,0.0083102285861969
9216.0,0.004535280633717775
10240.0,0.001319318194873631
11264.0,-0.0007891894201748073
12288.0,-0.005427379161119461
13312.0,-0.0010626754956319928
14336.0,-0.0008476759539917111
end
