version,3.0
numOfCh,1
type,point
parent_name,dirty_3dot0-1dot0
ch_type,1_1
kcount,1
numberNandB,1
brightnessNandB,1
carpet pos,0
pc,0
Time (ms),CH1 Auto-Correlation
1.0,0.06929799169301987
2.0,0.06156028434634209
3.0,0.054585982114076614
4.0,0.04845977947115898
5.0,0.04343126714229584
6.0,0.0390479601919651
7.0,0.035559892654418945
8.0,0.033194541931152344
9.0,0.031061695888638496
10.0,0.029197294265031815
11.0,0.027522413060069084
12.0,0.025676105171442032
13.0,0.023830963298678398
14.0,0.022040463984012604
15.0,0.020229507237672806
16.0,0.018964780494570732
18.0,0.017206788063049316
20.0,0.01628969796001911
22.0,0.016141604632139206
24.0,0.01608358323574066
26.0,0.01535123586654663
28.0,0.013637464493513107
30.0,0.011637598276138306
32.0,0.009896019473671913
36.0,0.007761502638459206
40.0,0.007153937127441168
44.0,0.006600069813430309
48.0,0.005344979465007782
52.0,0.003243498969823122
56.0,0.002620586659759283
60.0,0.0016769178910180926
64.0,0.0013005553046241403
72.0,0.0018368354067206383
80.0,0.0015888204798102379
88.0,0.0019074772717431188
96.0,0.0029140114784240723
104.0,0.004319990519434214
112.0,0.005438709165900946
120.0,0.00710037536919117
128.0,0.007835390977561474
144.0,0.006009295582771301
160.0,0.005978746339678764
176.0,0.005982870236039162
192.0,0.0050252159126102924
208.0,0.005263543222099543
224.0,0.0028520359192043543
240.0,0.0031730157788842916
256.0,0.005243042949587107
288.0,0.0017172007355839014
320.0,1.3756423868471757e-05
352.0,0.0005116938846185803
384.0,0.0020551886409521103
416.0,0.0024952017702162266
448.0,0.001448142109438777
480.0,-0.0008975809323601425
512.0,-0.0013496546307578683
576.0,-1.8491557057132013e-05
640.0,-0.0025536436587572098
704.0,-0.000441423908341676
768.0,0.0002043231506831944
832.0,0.0007470206473954022
896.0,-2.555103856138885e-05
960.0,0.0019094252493232489
1024.0,-0.00012222838995512575
1152.0,0.0011707779485732317
1280.0,-0.002266078721731901
1408.0,-0.003559483913704753
1536.0,-0.0031671859323978424
1664.0,-0.002336219185963273
1792.0,-0.002030025003477931
1920.0,-0.002039207611232996
2048.0,-0.0010146645363420248
2304.0,-0.000347535009495914
2560.0,0.0005978152621537447
2816.0,0.001089130761101842
3072.0,-0.000230040677706711
3328.0,0.00033551958040334284
3584.0,0.0007927434635348618
3840.0,-0.0006709160516038537
4096.0,0.000744432327337563
4608.0,-0.0011612590169534087
5120.0,0.0006675255135633051
5632.0,-0.00034453716943971813
6144.0,-0.0005546909524127841
6656.0,0.0002265626535518095
7168.0,-0.0017463717376813293
7680.0,0.0008003147086128592
8192.0,0.00013479952758643776
9216.0,4.6729121095268056e-05
10240.0,-0.0031357440166175365
11264.0,0.0013917336473241448
12288.0,0.0032910651061683893
13312.0,-0.0024690895806998014
14336.0,-0.0007933981250971556
end
