version,3.0
numOfCh,1
type,point
parent_name,dirty_3dot0-1dot0
ch_type,1_1
kcount,1
numberNandB,1
brightnessNandB,1
carpet pos,0
pc,0
Time (ms),CH1 Auto-Correlation
1.0,0.05880700424313545
2.0,0.05277203768491745
3.0,0.04795243963599205
4.0,0.04401981458067894
5.0,0.04042631760239601
6.0,0.0376833975315094
7.0,0.03522628918290138
8.0,0.03327905014157295
9.0,0.031363800168037415
10.0,0.029425712302327156
11.0,0.027767863124608994
12.0,0.02633732557296753
13.0,0.024911953136324883
14.0,0.023568958044052124
15.0,0.022366788238286972
16.0,0.02100098505616188
18.0,0.019395409151911736
20.0,0.017895547673106194
22.0,0.016739606857299805
24.0,0.015237009152770042
26.0,0.01332741230726242
28.0,0.011973842047154903
30.0,0.010542279109358788
32.0,0.009637003764510155
36.0,0.008619936183094978
40.0,0.0077113076113164425
44.0,0.00752611318603158
48.0,0.0068939318880438805
52.0,0.006419082637876272
56.0,0.006367673631757498
60.0,0.0059480220079422
64.0,0.0053764889016747475
72.0,0.005336981266736984
80.0,0.007200221531093121
88.0,0.009336999617516994
96.0,0.008217626251280308
104.0,0.006441031116992235
112.0,0.00509842112660408
120.0,0.004466395825147629
128.0,0.005479125306010246
144.0,0.004880012944340706
160.0,0.00396591704338789
176.0,0.003255146788433194
192.0,0.0015786192379891872
208.0,0.0004745892947539687
224.0,0.0009083756012842059
240.0,0.0003049009828828275
256.0,0.0009378923568874598
288.0,0.0016840050229802728
320.0,-7.799395825713873e-05
352.0,0.0009791756747290492
384.0,-0.0003462649474386126
416.0,-0.0005804941174574196
448.0,-0.0016991719603538513
480.0,-0.0027843585703521967
512.0,-0.0006038837018422782
576.0,-0.0017157355323433876
640.0,-0.0003530702961143106
704.0,-0.00013767425843980163
768.0,-0.000536304316483438
832.0,-0.00011581915168790147
896.0,-0.0013646332081407309
960.0,-0.001451802672818303
1024.0,-0.00030952668748795986
1152.0,-0.00030093538225628436
1280.0,-0.0013536170590668917
1408.0,-0.0004132030007895082
1536.0,0.00013190174649935216
1664.0,0.001352389925159514
1792.0,0.0024403987918049097
1920.0,-0.0015498908469453454
2048.0,-0.0014033332699909806
2304.0,-0.0026275834534317255
2560.0,0.0013991163577884436
2816.0,-0.0005786047549918294
3072.0,-0.0004758588911499828
3328.0,-0.0014762537321075797
3584.0,0.0021875021047890186
3840.0,0.00047659993288107216
4096.0,0.0006664615357294679
4608.0,-0.0019331724615767598
5120.0,-0.0014794421149417758
5632.0,0.0010901696514338255
6144.0,0.0008197402930818498
6656.0,-0.0009510724921710789
7168.0,0.0016468360554426908
7680.0,-0.0005944992881268263
8192.0,-0.0011439762311056256
9216.0,0.000347333203535527
10240.0,0.0007295593968592584
11264.0,-0.0013183568371459842
12288.0,-0.0021649831905961037
13312.0,0.0027953796088695526
14336.0,0.0007274015224538743
end
