version,3.0
numOfCh,1
type,point
parent_name,dirty_3dot0-1dot0
ch_type,1_1
kcount,1
numberNandB,1
brightnessNandB,1
carpet pos,0
pc,0
Time (ms),CH1 Auto-Correlation
1.0,0.09054924547672272
2.0,0.08286816626787186
3.0,0.07672332227230072
4.0,0.07203742861747742
5.0,0.067409947514534
6.0,0.0636969655752182
7.0,0.05997196212410927
8.0,0.05675686523318291
9.0,0.0536927804350853
10.0,0.050696246325969696
11.0,0.04819488525390625
12.0,0.046478770673274994
13.0,0.0448310561478138
14.0,0.04279595613479614
15.0,0.04106239974498749
16.0,0.03910179063677788
18.0,0.03648420050740242
20.0,0.03390928730368614
22.0,0.03126705810427666
24.0,0.029067762196063995
26.0,0.027441270649433136
28.0,0.026139259338378906
30.0,0.02434886246919632
32.0,0.02271565981209278
36.0,0.019674012437462807
40.0,0.016683243215084076
44.0,0.014342955313622952
48.0,0.013218025676906109
52.0,0.013242493383586407
56.0,0.012602906674146652
60.0,0.012683190405368805
64.0,0.012261904776096344
72.0,0.010233595967292786
80.0,0.009438916109502316
88.0,0.005886602681130171
96.0,0.004507925361394882
104.0,0.005248890724033117
112.0,0.004777714144438505
120.0,0.006215010304003954
128.0,0.008104391396045685
144.0,0.01036117784678936
160.0,0.010044516064226627
176.0,0.010932414792478085
192.0,0.006643038708716631
208.0,0.0026799580082297325
224.0,0.00467101763933897
240.0,0.006293275859206915
256.0,0.005490516312420368
288.0,0.006435834802687168
320.0,0.0023853846359997988
352.0,0.0013978227507323027
384.0,0.0015507531352341175
416.0,0.0031632794998586178
448.0,0.0017513880738988519
480.0,-0.0018629911355674267
512.0,-0.002127581275999546
576.0,-0.004098562523722649
640.0,-0.003048861399292946
704.0,-0.001532805967144668
768.0,-0.00318779144436121
832.0,-0.002991853980347514
896.0,0.00029509098385460675
960.0,6.060316081857309e-05
1024.0,-0.0023925111163407564
1152.0,-0.0006714361370541155
1280.0,-0.0007425267249345779
1408.0,-0.0022584754042327404
1536.0,-0.0034655146300792694
1664.0,-0.0025770426727831364
1792.0,-0.004121028818190098
1920.0,-0.001355003216303885
2048.0,-0.0033637280575931072
2304.0,-0.001752760261297226
2560.0,-0.0005337584298104048
2816.0,0.0008061780827119946
3072.0,-9.788397437660024e-05
3328.0,0.00047294553951360285
3584.0,0.003147297305986285
3840.0,0.0014192750677466393
4096.0,-0.0008138643461279571
4608.0,-0.003386838361620903
5120.0,-0.0019249208271503448
5632.0,-0.0028956881724298
6144.0,0.006241742521524429
6656.0,0.0035216226242482662
7168.0,0.0005997431580908597
7680.0,-0.0017290824325755239
8192.0,-0.00334433582611382
9216.0,-0.002540868939831853
10240.0,0.0025295119266957045
11264.0,-0.0011163243325427175
12288.0,0.003435298800468445
13312.0,-0.0007087840349413455
14336.0,-0.0004464461235329509
end
