version,3.0
numOfCh,1
type,point
parent_name,dirty_3dot0-1dot0
ch_type,1_1
kcount,1
numberNandB,1
brightnessNandB,1
carpet pos,0
pc,0
Time (ms),CH1 Auto-Correlation
1.0,0.10215713083744049
2.0,0.0944613367319107
3.0,0.08836936950683594
4.0,0.08248841017484665
5.0,0.07703950256109238
6.0,0.07250568270683289
7.0,0.0688658356666565
8.0,0.06531139463186264
9.0,0.062281589955091476
10.0,0.060706499963998795
11.0,0.05919346585869789
12.0,0.05779232457280159
13.0,0.056471891701221466
14.0,0.055303625762462616
15.0,0.054255928844213486
16.0,0.053068600594997406
18.0,0.04980272054672241
20.0,0.045304641127586365
22.0,0.041489534080028534
24.0,0.03917067497968674
26.0,0.03734689950942993
28.0,0.035524219274520874
30.0,0.03229721635580063
32.0,0.028715290129184723
36.0,0.021889885887503624
40.0,0.017646940425038338
44.0,0.015790706500411034
48.0,0.013792993500828743
52.0,0.010993079282343388
56.0,0.008163480088114738
60.0,0.007580752484500408
64.0,0.007403823547065258
72.0,0.005721113178879023
80.0,0.006465673912316561
88.0,0.007782557979226112
96.0,0.0072577944956719875
104.0,0.005795083474367857
112.0,0.005030703730881214
120.0,0.0032634870149195194
128.0,0.0021519912406802177
144.0,0.003944699652493
160.0,0.005577559117227793
176.0,0.004865860566496849
192.0,0.002601439831778407
208.0,0.002175642177462578
224.0,0.0033315636683255434
240.0,0.003943593706935644
256.0,0.007315753493458033
288.0,0.006798130925744772
320.0,0.005915023386478424
352.0,0.003685189178213477
384.0,0.001598665490746498
416.0,0.0007969067664816976
448.0,0.0019253019709140062
480.0,0.0005285346414893866
512.0,-0.0013856366276741028
576.0,0.001837906427681446
640.0,0.0010441059712320566
704.0,-0.002409909851849079
768.0,-0.002792148385196924
832.0,0.0016635289648547769
896.0,-0.0011793767334893346
960.0,-0.0008286117226816714
1024.0,0.0003923018812201917
1152.0,-0.0032836610917001963
1280.0,-0.002412039553746581
1408.0,-0.002535048173740506
1536.0,-0.004096099641174078
1664.0,-0.0037402452435344458
1792.0,-0.003065635683014989
1920.0,-0.0011642854660749435
2048.0,-0.0027439964469522238
2304.0,0.0007039563497528434
2560.0,-0.002726639388129115
2816.0,-0.0009449917706660926
3072.0,-0.0016936740139499307
3328.0,0.0015992311527952552
3584.0,-0.0015573548153042793
3840.0,-0.0009214648744091392
4096.0,-0.002165336161851883
4608.0,-0.0019526337273418903
5120.0,0.0029881629161536694
5632.0,0.005794725846499205
6144.0,0.0029866304248571396
6656.0,-0.0031281139235943556
7168.0,-0.005323171615600586
7680.0,-0.0010089294519275427
8192.0,0.003328902879729867
9216.0,-0.0028609386645257473
10240.0,0.001369230798445642
11264.0,0.0017129413317888975
12288.0,-0.006306341849267483
13312.0,0.006962109357118607
14336.0,0.0017994572408497334
end
