version,3.0
numOfCh,1
type,point
parent_name,dirty_3dot0-1dot0
ch_type,1_1
kcount,1
numberNandB,1
brightnessNandB,1
carpet pos,0
pc,0
Time (ms),CH1 Auto-Correlation
1.0,0.039730291813611984
2.0,0.03509557619690895
3.0,0.031268633902072906
4.0,0.028225919231772423
5.0,0.02574220672249794
6.0,0.02331169880926609
7.0,0.021253230050206184
8.0,0.01972534880042076
9.0,0.018371770158410072
10.0,0.01754087395966053
11.0,0.016667524352669716
12.0,0.015769558027386665
13.0,0.014863028191030025
14.0,0.014345182105898857
15.0,0.013582034967839718
16.0,0.012865722179412842
18.0,0.011156565509736538
20.0,0.009627250023186207
22.0,0.008845559321343899
24.0,0.008274395018815994
26.0,0.007563471794128418
28.0,0.007153354585170746
30.0,0.0068841734901070595
32.0,0.006865270901471376
36.0,0.006407149136066437
40.0,0.006380157545208931
44.0,0.006675874348729849
48.0,0.0056523485109210014
52.0,0.0044837165623903275
56.0,0.0045880479738116264
60.0,0.004031187389045954
64.0,0.0035482163075357676
72.0,0.0029041741508990526
80.0,0.0031177466735243797
88.0,0.0033689357805997133
96.0,0.0029861920047551394
104.0,0.0026968452148139477
112.0,0.0010707315523177385
120.0,0.00024058553390204906
128.0,-0.0009871477959677577
144.0,-0.002129784319549799
160.0,-0.0014666493516415358
176.0,-0.0009383569122292101
192.0,-0.0007554570911452174
208.0,0.00010464710794622079
224.0,-0.00019091481226496398
240.0,0.00019160845840815455
256.0,0.0012985592475160956
288.0,0.00037275542854331434
320.0,0.001368611236102879
352.0,0.0019605751149356365
384.0,0.0006888195057399571
416.0,0.002363050589337945
448.0,0.0014707472873851657
480.0,0.0010658412938937545
512.0,0.001286085112951696
576.0,0.0003913482360076159
640.0,0.00026667845668271184
704.0,0.0001253094815183431
768.0,-0.00038071980816312134
832.0,0.00039502879371866584
896.0,0.0003072539111599326
960.0,-0.00021355447825044394
1024.0,-0.0010249738115817308
1152.0,-0.0011134917149320245
1280.0,0.0028429424855858088
1408.0,-0.0002653439005371183
1536.0,-0.0008254689164459705
1664.0,-0.00041369794053025544
1792.0,-7.526795525336638e-05
1920.0,-0.0007434728904627264
2048.0,-0.0004731021181214601
2304.0,-0.0006273203762248158
2560.0,0.0010324596660211682
2816.0,0.00016103460802696645
3072.0,0.00031731982016935945
3328.0,0.0002890968753490597
3584.0,-0.00029459595680236816
3840.0,-0.0005835354095324874
4096.0,-0.0004691300564445555
4608.0,0.0004956037737429142
5120.0,0.00026076039648614824
5632.0,-0.0007031274726614356
6144.0,-0.00030351561144925654
6656.0,-0.00044772058026865125
7168.0,-0.000523227034136653
7680.0,0.00036830498720519245
8192.0,-0.0005334334564395249
9216.0,-0.000746767153032124
10240.0,-0.0007695951499044895
11264.0,0.00011227078357478604
12288.0,-0.00017857014609035105
13312.0,0.00018522920436225832
14336.0,0.0002415507915429771
end
