version,3.0
numOfCh,1
type,point
parent_name,dirty_3dot0-1dot0
ch_type,1_1
kcount,1
numberNandB,1
brightnessNandB,1
carpet pos,0
pc,0
Time (ms),CH1 Auto-Correlation
1.0,0.09766977280378342
2.0,0.08956365287303925
3.0,0.08253508806228638
4.0,0.0770479068160057
5.0,0.07220686227083206
6.0,0.06755706667900085
7.0,0.06419163942337036
8.0,0.061518650501966476
9.0,0.05954480916261673
10.0,0.057848840951919556
11.0,0.055987097322940826
12.0,0.053867924958467484
13.0,0.05223489925265312
14.0,0.05079144984483719
15.0,0.049231138080358505
16.0,0.04762883856892586
18.0,0.04443744197487831
20.0,0.0419439859688282
22.0,0.03941444680094719
24.0,0.03749764338135719
26.0,0.03484868258237839
28.0,0.03225831687450409
30.0,0.03027116134762764
32.0,0.028761154040694237
36.0,0.026380259543657303
40.0,0.02504437230527401
44.0,0.024821119382977486
48.0,0.024202046915888786
52.0,0.022496214136481285
56.0,0.022445380687713623
60.0,0.021175052970647812
64.0,0.020526472479104996
72.0,0.01999961957335472
80.0,0.017692239955067635
88.0,0.014987807720899582
96.0,0.01289135031402111
104.0,0.010785817168653011
112.0,0.009030655026435852
120.0,0.007203227374702692
128.0,0.005137347150593996
144.0,0.005516745150089264
160.0,0.009711486287415028
176.0,0.009877292439341545
192.0,0.007100277580320835
208.0,0.006037083920091391
224.0,0.006063526496291161
240.0,0.005016776733100414
256.0,0.002712053246796131
288.0,0.0021725529804825783
320.0,0.002334174234420061
352.0,0.005121668800711632
384.0,0.008956625126302242
416.0,0.005826802458614111
448.0,0.006170404609292746
480.0,0.009566094726324081
512.0,0.007178916595876217
576.0,0.0050016650930047035
640.0,0.00126183673273772
704.0,0.0022957019973546267
768.0,-0.001067766803316772
832.0,-0.000322134408634156
896.0,0.003663355950266123
960.0,-0.0004766356432810426
1024.0,-0.005709818098694086
1152.0,-0.002773834392428398
1280.0,-0.003631849307566881
1408.0,0.0009712555329315364
1536.0,0.00012683463864959776
1664.0,-0.0006257911445572972
1792.0,-0.0013462626375257969
1920.0,-0.0024752041790634394
2048.0,-0.005494721699506044
2304.0,-0.0030779133085161448
2560.0,-0.00256010121665895
2816.0,-0.0030301811639219522
3072.0,-0.0030621199402958155
3328.0,-0.002039925428107381
3584.0,-0.003325070021674037
3840.0,-0.0006100324098952115
4096.0,-0.00013946382387075573
4608.0,0.0003430637007113546
5120.0,0.00042993781971745193
5632.0,0.00035380994086153805
6144.0,0.0021858031395822763
6656.0,0.002262179972603917
7168.0,-0.00414486275985837
7680.0,-0.0058954921551048756
8192.0,-0.004543849732726812
9216.0,-0.000541561865247786
10240.0,0.006859617307782173
11264.0,0.0022147425916045904
12288.0,0.002598472870886326
13312.0,-0.002973392140120268
14336.0,-0.001799573889002204
end
