version,3.0
numOfCh,1
type,point
parent_name,dirty_3dot0-1dot0
ch_type,1_1
kcount,1
numberNandB,1
brightnessNandB,1
carpet pos,0
pc,0
Time (ms),CH1 Auto-Correlation
1.0,0.15520982444286346
2.0,0.1441095620393753
3.0,0.1346212476491928
4.0,0.12696422636508942
5.0,0.12069623917341232
6.0,0.1147318109869957
7.0,0.10886535793542862
8.0,0.1037672758102417
9.0,0.09911888837814331
10.0,0.09476242959499359
11.0,0.09055758267641068
12.0,0.0867534652352333
13.0,0.08243776857852936
14.0,0.0793604627251625
15.0,0.07656408846378326
16.0,0.07347335666418076
18.0,0.06904667615890503
20.0,0.06442200392484665
22.0,0.06217920407652855
24.0,0.061606429517269135
26.0,0.06042441353201866
28.0,0.058099716901779175
30.0,0.055152904242277145
32.0,0.053216174244880676
36.0,0.04936179891228676
40.0,0.04452209174633026
44.0,0.03950938582420349
48.0,0.0324840247631073
52.0,0.025155948475003242
56.0,0.01946599781513214
60.0,0.017307458445429802
64.0,0.015929963439702988
72.0,0.0157167986035347
80.0,0.010091414675116539
88.0,0.006154950242489576
96.0,0.0028827476780861616
104.0,-0.000502695853356272
112.0,-0.002215506974607706
120.0,-0.00289040245115757
128.0,-0.004754275549203157
144.0,-0.004538091365247965
160.0,-0.005419468507170677
176.0,-0.005079743918031454
192.0,-0.0042548938654363155
208.0,-0.002608326030895114
224.0,0.0011589438654482365
240.0,-0.0001521781668998301
256.0,0.0002575551625341177
288.0,-0.0023736890871077776
320.0,-0.003627968719229102
352.0,-0.003548880573362112
384.0,-0.007381069473922253
416.0,-0.010432841256260872
448.0,-0.011215124279260635
480.0,-0.008169902488589287
512.0,0.0024732816964387894
576.0,0.012981665320694447
640.0,0.003608280560001731
704.0,-0.001114735729061067
768.0,0.0022515926975756884
832.0,0.0033586968202143908
896.0,0.0005628722137771547
960.0,-0.00817287340760231
1024.0,-0.006313130725175142
1152.0,-0.0027412166818976402
1280.0,-0.0014210455119609833
1408.0,0.0014586485922336578
1536.0,0.0011133161606267095
1664.0,-8.25703828013502e-05
1792.0,-0.0013484631199389696
1920.0,-0.001807226799428463
2048.0,0.002223801100626588
2304.0,0.0009299294324591756
2560.0,0.0009485040209256113
2816.0,-0.0038470220752060413
3072.0,-0.003998017404228449
3328.0,-0.0067320833913981915
3584.0,0.004804918076843023
3840.0,0.0022908486425876617
4096.0,-0.005631600972265005
4608.0,0.0015799887478351593
5120.0,0.0015996340662240982
5632.0,-0.00333790248259902
6144.0,-0.00018277544586453587
6656.0,0.001995024736970663
7168.0,0.0033258043695241213
7680.0,-0.0037654482293874025
8192.0,-0.0007334225228987634
9216.0,-0.003633263986557722
10240.0,-0.0017400924116373062
11264.0,-0.0023146895691752434
12288.0,0.0038449217099696398
13312.0,0.00607852078974247
14336.0,-0.004599154461175203
end
