version,3.0
numOfCh,1
type,point
parent_name,c1204_3dot0-0dot01
ch_type,1_1
kcount,1
numberNandB,1
brightnessNandB,1
carpet pos,0
pc,0
Time (ms),CH1 Auto-Correlation
1.0,0.026160014793276787
2.0,0.021403655409812927
3.0,0.018123846501111984
4.0,0.015783559530973434
5.0,0.013918966054916382
6.0,0.01249165553599596
7.0,0.011202014051377773
8.0,0.0101802758872509
9.0,0.00913744606077671
10.0,0.008304608054459095
11.0,0.007682849187403917
12.0,0.006936121731996536
13.0,0.00634486461058259
14.0,0.005879689939320087
15.0,0.005485824774950743
16.0,0.0050189681351184845
18.0,0.004220523405820131
20.0,0.0034271616023033857
22.0,0.0028816480189561844
24.0,0.0030000763945281506
26.0,0.0028848261572420597
28.0,0.0026418271008878946
30.0,0.0027603416237980127
32.0,0.0027690590359270573
36.0,0.0023660792503505945
40.0,0.0022057362366467714
44.0,0.0017595577519387007
48.0,0.0012858596164733171
52.0,0.0014164040330797434
56.0,0.0011842158855870366
60.0,0.0008686165092512965
64.0,0.0004189488245174289
72.0,-0.00013126368867233396
80.0,-0.00011912760965060443
88.0,4.574709237203933e-05
96.0,0.00015558928134851158
104.0,0.00027677378966473043
112.0,0.0006293352926149964
120.0,-0.00011567437468329445
128.0,6.841123104095459e-05
144.0,0.000530990248080343
160.0,-3.9055244997143745e-05
176.0,0.00028219964588060975
192.0,0.0004487968690227717
208.0,0.0002875709906220436
224.0,0.0005906974547542632
240.0,0.000748791266232729
256.0,0.0008535876404494047
288.0,0.0011267069494351745
320.0,0.0008173437090590596
352.0,0.000488651217892766
384.0,-0.0004404523642733693
416.0,-0.00016631517792120576
448.0,0.0002396723721176386
480.0,0.00044859759509563446
512.0,-0.00018094462575390935
576.0,-0.0005800267099402845
640.0,-0.0003254982002545148
704.0,3.2537365768803284e-05
768.0,0.00025256219669245183
832.0,-0.0005763319786638021
896.0,-0.0010295328684151173
960.0,-3.078918598475866e-05
1024.0,-0.0004404191568028182
1152.0,1.1332674148434307e-05
1280.0,-0.00032105392892844975
1408.0,-0.00019134367175865918
1536.0,-0.0005790959112346172
1664.0,-0.000293651653919369
1792.0,-0.00029272522078827024
1920.0,0.00022118227207101882
2048.0,0.00019523053197190166
2304.0,0.0008725193329155445
2560.0,0.00022671854821965098
2816.0,-0.0004730482178274542
3072.0,-0.0007912382716313004
3328.0,-0.0005591480294242501
3584.0,-7.938328053569421e-05
3840.0,-0.0005451635806821287
4096.0,0.000691097229719162
4608.0,0.00037803163286298513
5120.0,-0.00017875268531497568
5632.0,-0.00048807059647515416
6144.0,0.00016440673789475113
6656.0,0.0003786714805755764
7168.0,-0.0001221198617713526
7680.0,-0.00013771807425655425
8192.0,-0.00011896586511284113
end
