version,3.0
numOfCh,1
type,point
parent_name,c1204_3dot0-0dot01
ch_type,1_1
kcount,1
numberNandB,1
brightnessNandB,1
carpet pos,0
pc,0
Time (ms),CH1 Auto-Correlation
1.0,0.7748857736587524
2.0,0.773253321647644
3.0,0.7719659209251404
4.0,0.7708745002746582
5.0,0.7700026631355286
6.0,0.7692427635192871
7.0,0.7686154842376709
8.0,0.767964243888855
9.0,0.767290472984314
10.0,0.7666537165641785
11.0,0.7660679221153259
12.0,0.7654207348823547
13.0,0.7648306488990784
14.0,0.7642825841903687
15.0,0.7636102437973022
16.0,0.7630198001861572
18.0,0.7620689868927002
20.0,0.7610688805580139
22.0,0.7601429224014282
24.0,0.7594084143638611
26.0,0.7586772441864014
28.0,0.7578678727149963
30.0,0.7569754719734192
32.0,0.7561364769935608
36.0,0.7544520497322083
40.0,0.7526395916938782
44.0,0.7509793639183044
48.0,0.7490747570991516
52.0,0.7473344206809998
56.0,0.7458145022392273
60.0,0.7442679405212402
64.0,0.7428255677223206
72.0,0.7398719191551208
80.0,0.737061083316803
88.0,0.7337135076522827
96.0,0.7303755283355713
104.0,0.7270864844322205
112.0,0.7233930826187134
120.0,0.7194561958312988
128.0,0.7149668335914612
144.0,0.7055767178535461
160.0,0.6961188912391663
176.0,0.6861912608146667
192.0,0.6760799884796143
208.0,0.6665892004966736
224.0,0.6598162055015564
240.0,0.6537392139434814
256.0,0.6466354131698608
288.0,0.6309762597084045
320.0,0.6189658641815186
352.0,0.6066299676895142
384.0,0.5942386984825134
416.0,0.5856037139892578
448.0,0.5787500739097595
480.0,0.57235187292099
512.0,0.5628698468208313
576.0,0.536831259727478
640.0,0.5065220594406128
704.0,0.4637562334537506
768.0,0.41523250937461853
832.0,0.37085965275764465
896.0,0.33146053552627563
960.0,0.3057413101196289
1024.0,0.2764621376991272
1152.0,0.21696583926677704
1280.0,0.12387357652187347
1408.0,0.039573680609464645
1536.0,-0.014354933984577656
1664.0,-0.03804493695497513
1792.0,-0.04834795370697975
1920.0,-0.05821941792964935
2048.0,-0.0674220472574234
2304.0,-0.07698455452919006
2560.0,-0.09275445342063904
2816.0,-0.10229615867137909
3072.0,-0.10928856581449509
3328.0,-0.12275893986225128
3584.0,-0.13686637580394745
3840.0,-0.16316452622413635
4096.0,-0.19287745654582977
end
