version,3.0
numOfCh,1
type,point
parent_name,c1204_3dot0-0dot01
ch_type,1_1
kcount,1
numberNandB,1
brightnessNandB,1
carpet pos,0
pc,0
Time (ms),CH1 Auto-Correlation
1.0,0.025047892704606056
2.0,0.020506391301751137
3.0,0.01733248308300972
4.0,0.014988813549280167
5.0,0.013170843943953514
6.0,0.011637438088655472
7.0,0.010403967462480068
8.0,0.009259711019694805
9.0,0.008444221690297127
10.0,0.007666853256523609
11.0,0.007104907650500536
12.0,0.006629201117902994
13.0,0.006148594431579113
14.0,0.005873346701264381
15.0,0.0056220837868750095
16.0,0.005260998848825693
18.0,0.004765771795064211
20.0,0.004401721525937319
22.0,0.004104974213987589
24.0,0.0038703971076756716
26.0,0.003344697644934058
28.0,0.0029563969001173973
30.0,0.0027821636758744717
32.0,0.002715823706239462
36.0,0.0030111807864159346
40.0,0.0032245118636637926
44.0,0.0027871704660356045
48.0,0.0022419122979044914
52.0,0.0018472804222255945
56.0,0.001805932610295713
60.0,0.0020431180018931627
64.0,0.002331287832930684
72.0,0.0016856130678206682
80.0,0.0019998219795525074
88.0,0.0013923848746344447
96.0,0.0010976004414260387
104.0,0.0016180460806936026
112.0,0.00129625981207937
120.0,0.0005316229653544724
128.0,0.00013098795898258686
144.0,0.00015767432341817766
160.0,-0.00012469479406718165
176.0,-0.0008458553347736597
192.0,-0.0015751357423141599
208.0,-0.0020962501876056194
224.0,-0.0013074824819341302
240.0,-0.0010573274921625853
256.0,-0.0001378420420223847
288.0,-0.0006435667746700346
320.0,-0.00036876005469821393
352.0,-5.296688323142007e-05
384.0,0.0006863272865302861
416.0,0.00096587382722646
448.0,0.0007512092124670744
480.0,0.0008462982368655503
512.0,0.00010471891437191516
576.0,-0.0011302436469122767
640.0,-0.001484855660237372
704.0,-0.0011030955938622355
768.0,-0.00010567472054390237
832.0,0.0003675582411233336
896.0,0.0010835402645170689
960.0,-8.051987242652103e-05
1024.0,-0.0004834494029637426
1152.0,-0.00033520199940539896
1280.0,0.0007363589247688651
1408.0,0.0004889608826488256
1536.0,-0.000520743546076119
1664.0,-0.0007510373834520578
1792.0,0.0004073675081599504
1920.0,0.0003585362865123898
2048.0,-0.0002715625159908086
2304.0,-0.00020939203386660665
2560.0,-0.0002721640048548579
2816.0,-0.0002829917357303202
3072.0,-1.4769058907404542e-05
3328.0,-0.0001686688483459875
3584.0,-0.00017099866818170995
3840.0,-0.00022892592824064195
4096.0,-0.0002801251830533147
4608.0,0.00029579023248516023
5120.0,2.6095434805029072e-05
5632.0,0.0005234424024820328
6144.0,-0.00014512179768644273
6656.0,0.00023332548153121024
7168.0,-7.122641545720398e-05
7680.0,0.00013047271932009608
8192.0,-0.00028380725416354835
end
