version,3.0
numOfCh,1
type,point
parent_name,c1204_3dot0-0dot01
ch_type,1_1
kcount,1
numberNandB,1
brightnessNandB,1
carpet pos,0
pc,0
Time (ms),CH1 Auto-Correlation
1.0,0.02594776265323162
2.0,0.020915841683745384
3.0,0.01746012270450592
4.0,0.014753488823771477
5.0,0.012848105281591415
6.0,0.011255915276706219
7.0,0.009994860738515854
8.0,0.009083126671612263
9.0,0.0083784693852067
10.0,0.007508621085435152
11.0,0.006857486441731453
12.0,0.006354352924972773
13.0,0.005931831896305084
14.0,0.005619342904537916
15.0,0.00524811539798975
16.0,0.005031608045101166
18.0,0.004633194301277399
20.0,0.003741381922736764
22.0,0.0031350264325737953
24.0,0.0025972337462008
26.0,0.002111122477799654
28.0,0.0018266888801008463
30.0,0.001482281950302422
32.0,0.0013747595949098468
36.0,0.0011854072799906135
40.0,0.0005594379617832601
44.0,0.0001490141439717263
48.0,0.00014789713895879686
52.0,0.0005683756317012012
56.0,0.0004618116654455662
60.0,0.0001479791826568544
64.0,0.0003038366849068552
72.0,0.00012513816182035953
80.0,-0.0003239643992856145
88.0,-0.000280673208180815
96.0,-0.00040313482168130577
104.0,-0.0007763467147015035
112.0,-0.00031696242513135076
120.0,-0.0003638400521595031
128.0,-0.00023046696151141077
144.0,4.7747078497195616e-05
160.0,-0.0007073334418237209
176.0,-0.00015986461949069053
192.0,2.443315133859869e-05
208.0,8.459536911686882e-05
224.0,0.00027513710665516555
240.0,0.0001935674372361973
256.0,-4.959971192874946e-05
288.0,0.0010475539602339268
320.0,1.3865925211575814e-05
352.0,-0.00040988295222632587
384.0,-0.00037259928649291396
416.0,-0.00034894104464910924
448.0,-0.0007774977711960673
480.0,-0.0004642901767510921
512.0,-0.00031582286464981735
576.0,-0.001325360150076449
640.0,0.0004440891498234123
704.0,0.00011002310930052772
768.0,7.477584586013108e-05
832.0,0.0004988646833226085
896.0,0.0007353644468821585
960.0,0.00032859190832823515
1024.0,5.438491825771052e-06
1152.0,0.00027391171897761524
1280.0,-0.0008943321299739182
1408.0,-0.00023218017304316163
1536.0,0.0004180383402854204
1664.0,-0.0003319673996884376
1792.0,0.0005316534661687911
1920.0,0.0003053530235774815
2048.0,0.0002615532139316201
2304.0,-5.2070656238356605e-05
2560.0,0.0003007234481628984
2816.0,-0.00014587309851776809
3072.0,-0.0001529956643935293
3328.0,-1.3741433576797135e-05
3584.0,0.00010832902626134455
3840.0,-0.0002779041533358395
4096.0,6.624412344535813e-05
4608.0,-5.6289805797860026e-05
5120.0,0.00017316181038040668
5632.0,-1.6694953956175596e-05
6144.0,-7.691496284678578e-05
6656.0,-0.0003191641881130636
7168.0,-0.00010168102016905323
7680.0,-0.00011942124547204003
8192.0,-0.00013455509906634688
end
