version,3.0
numOfCh,1
type,point
parent_name,c1204_3dot0-0dot01
ch_type,1_1
kcount,1
numberNandB,1
brightnessNandB,1
carpet pos,0
pc,0
Time (ms),CH1 Auto-Correlation
1.0,0.025899773463606834
2.0,0.021068142727017403
3.0,0.01784549467265606
4.0,0.015225513838231564
5.0,0.013292229734361172
6.0,0.011871430091559887
7.0,0.010487309657037258
8.0,0.009322616271674633
9.0,0.008424380794167519
10.0,0.007694711443036795
11.0,0.007225940003991127
12.0,0.006786460056900978
13.0,0.006346320733428001
14.0,0.006107070483267307
15.0,0.005761542357504368
16.0,0.005614287685602903
18.0,0.005112495739012957
20.0,0.004693625494837761
22.0,0.00445249630138278
24.0,0.004383217077702284
26.0,0.00426093302667141
28.0,0.003988204523921013
30.0,0.003616430563852191
32.0,0.0032322306651622057
36.0,0.0026058328803628683
40.0,0.002377014607191086
44.0,0.002243512077257037
48.0,0.002188681159168482
52.0,0.0018697368213906884
56.0,0.0014699390158057213
60.0,0.001175684854388237
64.0,0.0010917949257418513
72.0,0.0017126159509643912
80.0,0.0010935444151982665
88.0,0.0007015093578957021
96.0,0.00130196672398597
104.0,0.0017062812112271786
112.0,0.0009701709495857358
120.0,1.0008246135839727e-05
128.0,-0.0003518745070323348
144.0,0.0006872455705888569
160.0,0.00031188176944851875
176.0,0.0002045314759016037
192.0,0.00023910512391012162
208.0,0.0001391558616887778
224.0,-0.0005496483645401895
240.0,0.00016419724852312356
256.0,0.0006826382013969123
288.0,0.0008114515221677721
320.0,0.00027274558669887483
352.0,0.0006622071960009634
384.0,0.00010524017125135288
416.0,-0.00014196141273714602
448.0,-0.0005885415012016892
480.0,-9.281128586735576e-05
512.0,-9.148810204351321e-05
576.0,0.00038631094503216445
640.0,-0.0002485566365066916
704.0,-0.00042924954323098063
768.0,0.0006153956055641174
832.0,5.595303446170874e-05
896.0,-9.883508755592629e-05
960.0,8.430745947407559e-05
1024.0,-0.00036017686943523586
1152.0,6.629661220358685e-05
1280.0,0.0011419615475460887
1408.0,9.276495984522626e-05
1536.0,0.000604586151894182
1664.0,0.0014200048753991723
1792.0,0.0006721276440657675
1920.0,-0.00028032439877279103
2048.0,-0.0007620005053468049
2304.0,0.00016577898350078613
2560.0,0.0004562370595522225
2816.0,0.00014166798791848123
3072.0,0.0003283714468125254
3328.0,0.00020579826377797872
3584.0,-0.00021048891358077526
3840.0,-0.0002903191780205816
4096.0,-0.0002085473679471761
4608.0,-0.00045556394616141915
5120.0,0.0004905630485154688
5632.0,-0.0004796645953319967
6144.0,-0.0012042935704812407
6656.0,0.0005740486085414886
7168.0,-0.0006958787562325597
7680.0,-0.0010536053450778127
8192.0,0.0004920202773064375
end
