version,3.0
numOfCh,1
type,point
parent_name,c1204_3dot0-0dot01
ch_type,1_1
kcount,1
numberNandB,1
brightnessNandB,1
carpet pos,0
pc,0
Time (ms),CH1 Auto-Correlation
1.0,0.02657361514866352
2.0,0.02199660614132881
3.0,0.01869340054690838
4.0,0.01623574271798134
5.0,0.014285246841609478
6.0,0.01278101745992899
7.0,0.011585138738155365
8.0,0.010728840716183186
9.0,0.00984995998442173
10.0,0.009088480845093727
11.0,0.008388767950236797
12.0,0.007885544560849667
13.0,0.007433720398694277
14.0,0.006970083341002464
15.0,0.006434010341763496
16.0,0.005843388848006725
18.0,0.004951964598149061
20.0,0.004325453657656908
22.0,0.004189672879874706
24.0,0.0038753391709178686
26.0,0.003803499508649111
28.0,0.0037083581555634737
30.0,0.0034896188881248236
32.0,0.003364142496138811
36.0,0.002911914372816682
40.0,0.0025281403213739395
44.0,0.002140641678124666
48.0,0.0018384616123512387
52.0,0.0012716799974441528
56.0,0.000968750158790499
60.0,0.0013024578802287579
64.0,0.001577109331265092
72.0,0.002175485948100686
80.0,0.0019147342536598444
88.0,0.001469768350943923
96.0,0.0016375781269744039
104.0,0.0020227853674441576
112.0,0.001770307426340878
120.0,0.0013005017535760999
128.0,0.0010613977210596204
144.0,0.0007664712611585855
160.0,-0.00012788585445377976
176.0,-0.00039362916140817106
192.0,0.0010778990108519793
208.0,0.0013079096097499132
224.0,0.0008683396736159921
240.0,0.0006705009145662189
256.0,0.0003125271759927273
288.0,0.0006651881849393249
320.0,0.0013270789058879018
352.0,0.001434492995031178
384.0,0.0013555926270782948
416.0,0.0007237454992718995
448.0,0.001245782244950533
480.0,0.0010321583831682801
512.0,0.0008138228440657258
576.0,-0.00010517280315980315
640.0,0.000730770465452224
704.0,0.00036327962880022824
768.0,0.0008446088177151978
832.0,0.0010627078590914607
896.0,0.001322194468230009
960.0,0.0004963937099091709
1024.0,0.00028378996648825705
1152.0,0.00017600612773094326
1280.0,-8.140141289914027e-06
1408.0,0.00045206001959741116
1536.0,-0.00029894878389313817
1664.0,-0.0005987927434034646
1792.0,0.00041558159864507616
1920.0,-0.0007638979586772621
2048.0,-0.0009326706640422344
2304.0,-0.0003196525212842971
2560.0,-0.0003904534096363932
2816.0,-0.001079293549992144
3072.0,-0.00047110836021602154
3328.0,-0.0006842201109975576
3584.0,-0.00068393669789657
3840.0,-0.0010004915529862046
4096.0,-0.0006960344617255032
4608.0,-0.0006658902275376022
5120.0,-0.000411041546612978
5632.0,0.0005678494926542044
6144.0,0.000526667048688978
6656.0,0.0002073445648420602
7168.0,0.00021528055367525667
7680.0,0.0003588307008612901
8192.0,0.00023132465139497072
end
