version,3.0
numOfCh,1
type,point
parent_name,c1204_3dot0-0dot01
ch_type,1_1
kcount,1
numberNandB,1
brightnessNandB,1
carpet pos,0
pc,0
Time (ms),CH1 Auto-Correlation
1.0,0.022322535514831543
2.0,0.017645856365561485
3.0,0.014476675540208817
4.0,0.011877470649778843
5.0,0.009941359981894493
6.0,0.008370309136807919
7.0,0.007090587168931961
8.0,0.006128118373453617
9.0,0.0053711384534835815
10.0,0.00484107993543148
11.0,0.004340727813541889
12.0,0.0038381500635296106
13.0,0.0035837290342897177
14.0,0.003342556534335017
15.0,0.0032791004050523043
16.0,0.003288820618763566
18.0,0.0031153527088463306
20.0,0.0029938502702862024
22.0,0.0026024128310382366
24.0,0.0024177595041692257
26.0,0.002235420746728778
28.0,0.002049569971859455
30.0,0.001910115359351039
32.0,0.001859879121184349
36.0,0.0018256648909300566
40.0,0.0015638326294720173
44.0,0.0007387564401142299
48.0,5.234760101302527e-05
52.0,-4.90510410600109e-06
56.0,0.0005949050537310541
60.0,0.001003694604150951
64.0,0.0010060527129098773
72.0,0.00046093403943814337
80.0,-6.268900324357674e-05
88.0,0.0006661823717877269
96.0,0.0011372367152944207
104.0,0.0017230261582881212
112.0,0.00189545180182904
120.0,0.0019501980859786272
128.0,0.001210385817103088
144.0,0.0005302787176333368
160.0,-3.5451987059786916e-05
176.0,-0.0006197862676344812
192.0,7.627820014022291e-05
208.0,-0.00028892021509818733
224.0,-2.0658788344007917e-05
240.0,-0.0007220897823572159
256.0,-0.00027124438202008605
288.0,-6.987338565522805e-05
320.0,-0.0012423420557752252
352.0,-0.0007233222131617367
384.0,-0.0001831334229791537
416.0,-0.00010050875425804406
448.0,-0.0001616864319657907
480.0,-0.000920107529964298
512.0,-0.0005050547188147902
576.0,7.677665416849777e-05
640.0,-9.933573892340064e-06
704.0,0.00036074063973501325
768.0,0.0006159814074635506
832.0,-0.0004508630372583866
896.0,-0.0002697027230169624
960.0,3.518017547321506e-05
1024.0,0.00023743319616187364
1152.0,0.0003722014953382313
1280.0,0.0004762918979395181
1408.0,-0.0006394778029061854
1536.0,-0.000525108480360359
1664.0,5.671392136719078e-05
1792.0,0.000367803149856627
1920.0,0.00011694819841068238
2048.0,0.0004303424502722919
2304.0,-3.134389407932758e-05
2560.0,-0.00041731807868927717
2816.0,-0.00028642325196415186
3072.0,0.00019388992222957313
3328.0,-0.0002215232962043956
3584.0,-0.00026769808027893305
3840.0,-0.00044488173443824053
4096.0,0.00044564661220647395
4608.0,-0.0005067316233180463
5120.0,0.0002904566645156592
5632.0,-0.0005192977259866893
6144.0,7.423255738103762e-05
6656.0,-0.00022566894767805934
7168.0,0.0004875201266258955
7680.0,-6.92985558998771e-05
8192.0,-0.0001594520581420511
end
