version,3.0
numOfCh,1
type,point
parent_name,c1204_3dot0-0dot01
ch_type,1_1
kcount,1
numberNandB,1
brightnessNandB,1
carpet pos,0
pc,0
Time (ms),CH1 Auto-Correlation
1.0,0.028098048642277718
2.0,0.023483626544475555
3.0,0.019993754103779793
4.0,0.01752757653594017
5.0,0.015611658804118633
6.0,0.014246423728764057
7.0,0.013137388043105602
8.0,0.012476898729801178
9.0,0.011578093282878399
10.0,0.010729140602052212
11.0,0.00982600450515747
12.0,0.009169040247797966
13.0,0.008455077186226845
14.0,0.007905947044491768
15.0,0.007458792068064213
16.0,0.007205320056527853
18.0,0.007010177709162235
20.0,0.0067029367201030254
22.0,0.006436383817344904
24.0,0.006002443842589855
26.0,0.005551956593990326
28.0,0.005295467097312212
30.0,0.005060376133769751
32.0,0.005131046287715435
36.0,0.004696133080869913
40.0,0.004356349818408489
44.0,0.0036224862560629845
48.0,0.0028977354522794485
52.0,0.002505492651835084
56.0,0.002799646696075797
60.0,0.002556349616497755
64.0,0.0026701216120272875
72.0,0.003529682755470276
80.0,0.0038248146884143353
88.0,0.0038150788750499487
96.0,0.0026752774138003588
104.0,0.002218489767983556
112.0,0.0015452938387170434
120.0,0.0015026208711788058
128.0,0.0005394670879468322
144.0,0.0009251562878489494
160.0,0.0007434621220454574
176.0,0.0006761242402717471
192.0,-0.00012004554446320981
208.0,-0.0021530112717300653
224.0,-0.0027207951061427593
240.0,-0.0016455892473459244
256.0,-0.0010296786203980446
288.0,0.000437044829595834
320.0,-0.0002667834924068302
352.0,-0.00019047892419621348
384.0,0.0005188211798667908
416.0,0.00033821960096247494
448.0,-1.6288793631247245e-05
480.0,-0.0005032802582718432
512.0,-0.0004903019871562719
576.0,0.00010207260493189096
640.0,-6.854923412902281e-05
704.0,0.0001465842069592327
768.0,-7.110064325388521e-05
832.0,-0.0004815136198885739
896.0,-0.0001774444681359455
960.0,-0.00010874081635847688
1024.0,-0.00022502211504615843
1152.0,-0.00018082957831211388
1280.0,-0.00012807839084416628
1408.0,-6.067855065339245e-05
1536.0,-0.0010324520990252495
1664.0,-0.0004791088285855949
1792.0,0.0004032154392916709
1920.0,-5.644501470669638e-06
2048.0,-0.0006018310668878257
2304.0,0.0003005728358402848
2560.0,-0.0004936649347655475
2816.0,0.0004673652001656592
3072.0,-0.0007789473747834563
3328.0,0.0008006421849131584
3584.0,0.0009379729744978249
3840.0,-0.0004373554256744683
4096.0,0.0007369300001300871
4608.0,0.00030158416484482586
5120.0,-0.00037003555917181075
5632.0,-0.0004441543424036354
6144.0,-0.000704221660271287
6656.0,0.0002264563227072358
7168.0,-0.00010906370880547911
7680.0,0.0008223771583288908
8192.0,0.0010235372465103865
end
