version,3.0
numOfCh,1
type,point
parent_name,c1204_3dot0-0dot01
ch_type,1_1
kcount,1
numberNandB,1
brightnessNandB,1
carpet pos,0
pc,0
Time (ms),CH1 Auto-Correlation
1.0,0.2587890625
2.0,0.25526919960975647
3.0,0.2527969479560852
4.0,0.25084495544433594
5.0,0.24912744760513306
6.0,0.24776996672153473
7.0,0.2466168999671936
8.0,0.24552346765995026
9.0,0.24470382928848267
10.0,0.24383628368377686
11.0,0.2427659034729004
12.0,0.24165691435337067
13.0,0.24071672558784485
14.0,0.23985573649406433
15.0,0.23907993733882904
16.0,0.2382989078760147
18.0,0.23677632212638855
20.0,0.23532521724700928
22.0,0.23401379585266113
24.0,0.23296517133712769
26.0,0.23227562010288239
28.0,0.231511190533638
30.0,0.23082414269447327
32.0,0.23020605742931366
36.0,0.22899436950683594
40.0,0.22761321067810059
44.0,0.22681297361850739
48.0,0.22630202770233154
52.0,0.22536517679691315
56.0,0.2245328575372696
60.0,0.22322876751422882
64.0,0.22119241952896118
72.0,0.2173958122730255
80.0,0.21401752531528473
88.0,0.21033397316932678
96.0,0.20669226348400116
104.0,0.20251262187957764
112.0,0.19881661236286163
120.0,0.1952471286058426
128.0,0.19148220121860504
144.0,0.18729965388774872
160.0,0.18296614289283752
176.0,0.1765086054801941
192.0,0.16869261860847473
208.0,0.1626482456922531
224.0,0.15550963580608368
240.0,0.14739158749580383
256.0,0.1395287960767746
288.0,0.12190436571836472
320.0,0.10924725979566574
352.0,0.09467567503452301
384.0,0.08067379146814346
416.0,0.06594719737768173
448.0,0.047607749700546265
480.0,0.03503163158893585
512.0,0.023042891174554825
576.0,0.011992464773356915
640.0,0.005219024606049061
704.0,0.0017975836526602507
768.0,-0.0019810947123914957
832.0,-0.004558973014354706
896.0,-0.004105914384126663
960.0,-0.004752479959279299
1024.0,-0.005908873397856951
1152.0,-0.008650261908769608
1280.0,-0.008756245486438274
1408.0,-0.0060195233672857285
1536.0,-0.0039306022226810455
1664.0,-0.00161500193644315
1792.0,0.0009599256445653737
1920.0,-0.0006689779693260789
2048.0,-0.0058873300440609455
2304.0,-0.016875430941581726
2560.0,-0.015823576599359512
2816.0,-0.01018364168703556
3072.0,-0.010331745259463787
3328.0,-0.010492909699678421
3584.0,-0.00474098464474082
3840.0,0.00178111856803298
4096.0,0.0007183584966696799
4608.0,-0.008601131848990917
5120.0,-0.018498776480555534
5632.0,-0.01917473040521145
6144.0,-0.015841374173760414
6656.0,-0.02388438768684864
7168.0,-0.03535514697432518
7680.0,-0.05675884708762169
8192.0,-0.11478565633296967
end
