version,3.0
numOfCh,1
type,point
parent_name,c1204_3dot0-0dot01
ch_type,1_1
kcount,1
numberNandB,1
brightnessNandB,1
carpet pos,0
pc,0
Time (ms),CH1 Auto-Correlation
1.0,0.025547903031110764
2.0,0.02140074223279953
3.0,0.018326254561543465
4.0,0.016184909269213676
5.0,0.014546701684594154
6.0,0.013328542932868004
7.0,0.012136575765907764
8.0,0.011211534030735493
9.0,0.010475795716047287
10.0,0.009786427952349186
11.0,0.009216651320457458
12.0,0.0085729556158185
13.0,0.008107606321573257
14.0,0.0074918633326888084
15.0,0.0069340309128165245
16.0,0.006463633384555578
18.0,0.005665955133736134
20.0,0.005460841581225395
22.0,0.005442142486572266
24.0,0.005300401709973812
26.0,0.004938512574881315
28.0,0.00451725535094738
30.0,0.004122395068407059
32.0,0.003701054723933339
36.0,0.00296238181181252
40.0,0.0024043817538768053
44.0,0.0020517895463854074
48.0,0.0019768739584833384
52.0,0.0018888389458879828
56.0,0.0013698337133973837
60.0,0.0015340944519266486
64.0,0.0012342052068561316
72.0,0.0012778136879205704
80.0,0.001360749127343297
88.0,0.0020651163067668676
96.0,0.0028833444230258465
104.0,0.002583805937319994
112.0,0.00295781041495502
120.0,0.0030762450769543648
128.0,0.0027222386561334133
144.0,0.0023162844590842724
160.0,0.001798540004529059
176.0,0.0021693245507776737
192.0,0.001864046324044466
208.0,0.002066058339551091
224.0,0.0020346753299236298
240.0,0.0018065415788441896
256.0,0.0005334759480319917
288.0,0.0011162001173943281
320.0,0.0018108313670381904
352.0,0.0011824843240901828
384.0,0.0011081630364060402
416.0,0.0012640601489692926
448.0,0.0017239740118384361
480.0,-0.0005524235311895609
512.0,-0.00029019860085099936
576.0,0.0005588486674241722
640.0,0.00012885565229225904
704.0,-0.0007182856206782162
768.0,-0.0005253384006209671
832.0,-0.000400601071305573
896.0,-0.0022104820236563683
960.0,-0.0006312658078968525
1024.0,-0.00020237623539287597
1152.0,0.00021237184409983456
1280.0,-0.0003024641191586852
1408.0,0.0014685277128592134
1536.0,0.0007711670477874577
1664.0,-9.643556404625997e-05
1792.0,0.0019277676474303007
1920.0,0.0012592567363753915
2048.0,-0.00019693031208589673
2304.0,-0.00034588456037454307
2560.0,-0.0003940807655453682
2816.0,-0.0010156432399526238
3072.0,-0.001384696108289063
3328.0,0.0004026370879728347
3584.0,0.0012765229912474751
3840.0,0.0006602379726245999
4096.0,-0.0004532222810667008
4608.0,-0.0007647417369298637
5120.0,-0.00025314243976026773
5632.0,0.00012970645911991596
6144.0,-0.0013835858553647995
6656.0,-0.004134778399020433
7168.0,-0.002870847936719656
end
