version,3.0
numOfCh,1
type,point
parent_name,c1204_3dot0-0dot01
ch_type,1_1
kcount,1
numberNandB,1
brightnessNandB,1
carpet pos,0
pc,0
Time (ms),CH1 Auto-Correlation
1.0,0.03229883313179016
2.0,0.02746008150279522
3.0,0.023902487009763718
4.0,0.02133350819349289
5.0,0.019050007686018944
6.0,0.017341936007142067
7.0,0.015950137749314308
8.0,0.014829900115728378
9.0,0.014061588793992996
10.0,0.013256662525236607
11.0,0.0126327034085989
12.0,0.011926328763365746
13.0,0.01132096815854311
14.0,0.010987455025315285
15.0,0.010598736815154552
16.0,0.01024351641535759
18.0,0.008989780209958553
20.0,0.008099169470369816
22.0,0.00751229515299201
24.0,0.006882489658892155
26.0,0.005970129277557135
28.0,0.005113227758556604
30.0,0.004307478200644255
32.0,0.0037201722152531147
36.0,0.0034728196915239096
40.0,0.0034619662910699844
44.0,0.0029742103070020676
48.0,0.002878030529245734
52.0,0.0026788136456161737
56.0,0.0022585131227970123
60.0,0.0015038738492876291
64.0,0.0007260909769684076
72.0,0.0008275550208054483
80.0,0.0004413497808855027
88.0,0.00016175673226825893
96.0,0.00017350853886455297
104.0,-0.0002996702678501606
112.0,-0.0008617593557573855
120.0,-0.0011856117052957416
128.0,-0.0012185218511149287
144.0,-0.0010256589157506824
160.0,-0.0008762117940932512
176.0,-0.0004322603053878993
192.0,0.0004906983231194317
208.0,0.0007775230333209038
224.0,0.0004845716175623238
240.0,-0.00033181312028318644
256.0,6.470162770710886e-05
288.0,-0.0006202575750648975
320.0,-0.0006103350315243006
352.0,-0.00041697261622175574
384.0,0.00059759576106444
416.0,0.00035953809856437147
448.0,-0.0003722583642229438
480.0,-0.00048209153464995325
512.0,-0.0008719913894310594
576.0,-7.521718362113461e-05
640.0,0.001537809963338077
704.0,5.073794091003947e-05
768.0,-0.00044828277896158397
832.0,0.00010288657358614728
896.0,-0.0007706685573793948
960.0,-0.00029187719337642193
1024.0,0.0002527443284634501
1152.0,-0.00021352627663873136
1280.0,0.0006182884098961949
1408.0,-0.0001882379874587059
1536.0,-0.0007689323392696679
1664.0,0.0006220692303031683
1792.0,0.0001299967261729762
1920.0,0.0009368659812025726
2048.0,0.00029941985849291086
2304.0,0.00037027974030934274
2560.0,-0.0004793789703398943
2816.0,-0.0006459624273702502
3072.0,0.0004853408318012953
3328.0,-0.0003395825915504247
3584.0,-1.649459227337502e-05
3840.0,-0.00011374115274520591
4096.0,0.0004001700726803392
4608.0,-0.00016603873518761247
5120.0,-0.00025989755522459745
5632.0,-0.0004903295775875449
6144.0,0.00012337671068962663
6656.0,-0.00015919214638415724
7168.0,-0.0008622281602583826
7680.0,0.00017633239622227848
8192.0,0.00010907773685175925
end
