version,3.0
numOfCh,1
type,point
parent_name,c1204_3dot0-0dot01
ch_type,1_1
kcount,1
numberNandB,1
brightnessNandB,1
carpet pos,0
pc,0
Time (ms),CH1 Auto-Correlation
1.0,0.041373252868652344
2.0,0.0368027463555336
3.0,0.03354007750749588
4.0,0.03124597854912281
5.0,0.029376883059740067
6.0,0.027820849791169167
7.0,0.02649879828095436
8.0,0.02546713314950466
9.0,0.024487432092428207
10.0,0.023524373769760132
11.0,0.0225625392049551
12.0,0.02197348140180111
13.0,0.02153029292821884
14.0,0.02098759077489376
15.0,0.020486656576395035
16.0,0.01991347037255764
18.0,0.018689041957259178
20.0,0.017862631008028984
22.0,0.017337458208203316
24.0,0.016895433887839317
26.0,0.016479691490530968
28.0,0.016368642449378967
30.0,0.016012657433748245
32.0,0.015221952460706234
36.0,0.014366096816956997
40.0,0.013193906284868717
44.0,0.012492389418184757
48.0,0.012070381082594395
52.0,0.011064660735428333
56.0,0.010334469377994537
60.0,0.010059057734906673
64.0,0.009659645147621632
72.0,0.008028892800211906
80.0,0.006023959256708622
88.0,0.00455276295542717
96.0,0.002967990469187498
104.0,0.0011957659153267741
112.0,-0.0004934480530209839
120.0,-0.0007633799104951322
128.0,-0.0010610001627355814
144.0,-0.00048072912613861263
160.0,-0.000371673348126933
176.0,0.0008149934583343565
192.0,0.0014095340156927705
208.0,0.0015379334799945354
224.0,0.0021644856315106153
240.0,0.0008193011162802577
256.0,0.0010570079321041703
288.0,0.0006531259859912097
320.0,0.0004594367346726358
352.0,0.0012392995413392782
384.0,0.000825374445412308
416.0,0.0013733902014791965
448.0,0.0003494814154691994
480.0,0.0007980747031979263
512.0,-0.00038071340532042086
576.0,-0.001348063931800425
640.0,-0.0007512901211157441
704.0,0.0004288224736228585
768.0,0.0005654653650708497
832.0,-0.0002529947378206998
896.0,-0.0004784281481988728
960.0,-8.953214273788035e-05
1024.0,-0.000329210190102458
1152.0,-0.001181646715849638
1280.0,-0.0011706729419529438
1408.0,-0.0022074433509260416
1536.0,-7.700718560954556e-05
1664.0,-0.0008138064295053482
1792.0,0.00010206046135863289
1920.0,0.0008338753250427544
2048.0,0.0008058035746216774
2304.0,0.0005528587498702109
2560.0,0.000100233759440016
2816.0,0.0010345987975597382
3072.0,-0.00023903635155875236
3328.0,-0.0010227877646684647
3584.0,-0.00011405105760786682
3840.0,0.000701676937751472
4096.0,-5.559492637985386e-05
4608.0,0.0003743465058505535
5120.0,-0.0016952933510765433
5632.0,-0.0013827200746163726
6144.0,0.0005453268531709909
6656.0,-0.0011411580489948392
7168.0,0.001161416294053197
7680.0,-0.001642672112211585
8192.0,-0.0017145544989034534
end
