version,3.0
numOfCh,1
type,point
parent_name,c1204_3dot0-0dot01
ch_type,1_1
kcount,1
numberNandB,1
brightnessNandB,1
carpet pos,0
pc,0
Time (ms),CH1 Auto-Correlation
1.0,0.025488851591944695
2.0,0.020767977461218834
3.0,0.017525041475892067
4.0,0.015184760093688965
5.0,0.01322445459663868
6.0,0.01171921007335186
7.0,0.0106393713504076
8.0,0.009493203833699226
9.0,0.00869937427341938
10.0,0.007828272879123688
11.0,0.007085071410983801
12.0,0.006497074384242296
13.0,0.006048834417015314
14.0,0.005635528359562159
15.0,0.005440852139145136
16.0,0.005532173905521631
18.0,0.005081911571323872
20.0,0.0045662084594368935
22.0,0.0043482668697834015
24.0,0.0041362629272043705
26.0,0.003866191254928708
28.0,0.0037420406006276608
30.0,0.003336722031235695
32.0,0.0030826947186142206
36.0,0.002369529567658901
40.0,0.0016331139486283064
44.0,0.0013181889662519097
48.0,0.0012565702199935913
52.0,0.0013794860569760203
56.0,0.001616829540580511
60.0,0.0017579438863322139
64.0,0.0014577730325981975
72.0,0.0007963755633682013
80.0,0.0004426697560120374
88.0,0.0009311879985034466
96.0,0.001279261545278132
104.0,0.0008942167623899877
112.0,0.0009222578373737633
120.0,0.0006559648318216205
128.0,0.0005279236356727779
144.0,-3.485356501187198e-05
160.0,0.0002700109616853297
176.0,0.00027052752557210624
192.0,-2.0193341697449796e-05
208.0,0.00017128851322922856
224.0,-0.00039248133543878794
240.0,-0.00031009947997517884
256.0,-0.0005017887451685965
288.0,-0.0003377388056833297
320.0,-0.00044889378477819264
352.0,-0.00015859822451602668
384.0,-0.0013993623433634639
416.0,-0.0013238771352916956
448.0,-0.00047517119674012065
480.0,3.588389517972246e-05
512.0,-3.053522959817201e-06
576.0,0.0008949165930971503
640.0,0.0005490020848810673
704.0,-0.00018354861822444946
768.0,0.0002988501510117203
832.0,-0.00010226650920230895
896.0,0.00014224066399037838
960.0,-0.00022176885977387428
1024.0,-0.0008948346949182451
1152.0,-0.00037327269092202187
1280.0,-0.0005432781763374805
1408.0,6.970762569835642e-06
1536.0,-4.692404036177322e-05
1664.0,-0.0003873956447932869
1792.0,-0.00045701503404416144
1920.0,2.0480278180912137e-05
2048.0,0.0007517768535763025
2304.0,-0.00010366036440245807
2560.0,3.9505455788457766e-05
2816.0,0.0005621652817353606
3072.0,-0.0003953783889301121
3328.0,0.0003615447785705328
3584.0,-0.00034174975007772446
3840.0,0.0001035895838867873
4096.0,-0.000551917590200901
4608.0,-9.21084065339528e-05
5120.0,5.1577677368186414e-05
5632.0,-4.945930413668975e-05
6144.0,0.00012997270096093416
6656.0,0.0004476620815694332
7168.0,-0.00035684971953742206
7680.0,-0.00037166153197176754
8192.0,0.00011253100819885731
end
