version,3.0
numOfCh,1
type,point
parent_name,c1204_3dot0-0dot01
ch_type,1_1
kcount,1
numberNandB,1
brightnessNandB,1
carpet pos,0
pc,0
Time (ms),CH1 Auto-Correlation
1.0,0.02604837343096733
2.0,0.02127697505056858
3.0,0.01801452413201332
4.0,0.01558591052889824
5.0,0.013607043772935867
6.0,0.012036491185426712
7.0,0.010798454284667969
8.0,0.009753667749464512
9.0,0.008957075886428356
10.0,0.00820049550384283
11.0,0.007622115314006805
12.0,0.007088488899171352
13.0,0.006723076570779085
14.0,0.006453544832766056
15.0,0.006115834228694439
16.0,0.005879783537238836
18.0,0.00526470597833395
20.0,0.004659382626414299
22.0,0.004118891432881355
24.0,0.0036170894745737314
26.0,0.003236419288441539
28.0,0.003099201712757349
30.0,0.0029286593198776245
32.0,0.0025349899660795927
36.0,0.002194146392866969
40.0,0.0022483221255242825
44.0,0.002450840547680855
48.0,0.00231885421089828
52.0,0.002383565064519644
56.0,0.0021115480922162533
60.0,0.002212986582890153
64.0,0.001981459092348814
72.0,0.001823447528295219
80.0,0.0015732559841126204
88.0,0.0011522873537614942
96.0,0.00031213596230372787
104.0,-3.6422123230295256e-05
112.0,0.0003704242699313909
120.0,0.0006588642136193812
128.0,0.00037186325062066317
144.0,-0.0004834660212509334
160.0,-8.567675104131922e-05
176.0,0.00041318489820696414
192.0,0.0008479233947582543
208.0,-0.00040389495552517474
224.0,-0.0006095871794968843
240.0,1.965020055649802e-05
256.0,-0.0003172758442815393
288.0,8.367557165911421e-05
320.0,0.00011512988567119464
352.0,0.00010660340922186151
384.0,-1.704509304545354e-05
416.0,0.0005329099367372692
448.0,0.0005980145069770515
480.0,-0.0006337845697999001
512.0,-5.2037999012100045e-06
576.0,-0.00020807728287763894
640.0,0.0007211207994259894
704.0,0.00018736819038167596
768.0,8.6340238340199e-05
832.0,-0.000500137044582516
896.0,-0.001042238436639309
960.0,-1.9263423382653855e-05
1024.0,8.440643432550132e-05
1152.0,-0.0008320811903104186
1280.0,0.00013055282761342824
1408.0,0.00047308029024861753
1536.0,6.064068998057337e-07
1664.0,0.0007655733497813344
1792.0,0.0006819795235060155
1920.0,0.0002589905052445829
2048.0,0.0002389142318861559
2304.0,0.0003114486171398312
2560.0,-0.00019282707944512367
2816.0,0.0002800295769702643
3072.0,-1.5017936675576493e-05
3328.0,-0.000365514395525679
3584.0,-0.0001982317480724305
3840.0,-0.00034070335095748305
4096.0,5.448523006634787e-05
4608.0,8.839693327900022e-05
5120.0,-0.0004918056656606495
5632.0,-0.0004919914063066244
6144.0,-0.0003352905623614788
6656.0,0.0001623022835701704
7168.0,-0.0006150206318125129
7680.0,-0.0002834628976415843
8192.0,2.3609149138792418e-05
end
