version,3.0
numOfCh,1
type,point
parent_name,c1204_3dot0-0dot01
ch_type,1_1
kcount,1
numberNandB,1
brightnessNandB,1
carpet pos,0
pc,0
Time (ms),CH1 Auto-Correlation
1.0,0.026489412412047386
2.0,0.021970387548208237
3.0,0.018855242058634758
4.0,0.016358178108930588
5.0,0.014557239599525928
6.0,0.013084868900477886
7.0,0.011942096054553986
8.0,0.01093192771077156
9.0,0.009898838587105274
10.0,0.009086509235203266
11.0,0.008315722458064556
12.0,0.007877574302256107
13.0,0.007507093250751495
14.0,0.006960865575820208
15.0,0.006663551554083824
16.0,0.006386104039847851
18.0,0.005667970050126314
20.0,0.0050557865761220455
22.0,0.004618982784450054
24.0,0.004105053376406431
26.0,0.0037814814131706953
28.0,0.0034605171531438828
30.0,0.0034022186882793903
32.0,0.0033921310678124428
36.0,0.0031379028223454952
40.0,0.0023780043702572584
44.0,0.001997969578951597
48.0,0.0019304013112559915
52.0,0.0022885429207235575
56.0,0.002083823084831238
60.0,0.0018239890923723578
64.0,0.002069803886115551
72.0,0.0022305469028651714
80.0,0.0019090588903054595
88.0,0.001673221355304122
96.0,0.0008761793724261224
104.0,0.0005980556597933173
112.0,0.0014952311757951975
120.0,0.0016245160950347781
128.0,0.0015635860618203878
144.0,0.001971857389435172
160.0,0.001735217752866447
176.0,0.0011249745730310678
192.0,0.001001153141260147
208.0,0.0014335340820252895
224.0,0.0017846181290224195
240.0,0.001672257436439395
256.0,0.0015945134218782187
288.0,0.0008730686386115849
320.0,0.0011087829479947686
352.0,0.0003247128042858094
384.0,0.0004669237823691219
416.0,0.001030951738357544
448.0,0.0004267972835805267
480.0,-0.0009708600700832903
512.0,-0.0009536322322674096
576.0,0.0009392046486027539
640.0,0.0005015679635107517
704.0,6.271247548284009e-05
768.0,-0.00038333010161295533
832.0,-2.4438775653834455e-05
896.0,-9.83755035122158e-06
960.0,0.00027871454949490726
1024.0,-0.0008892433834262192
1152.0,-0.0005209458759054542
1280.0,-2.1728919818997383e-05
1408.0,-0.00035258964635431767
1536.0,2.480083094269503e-05
1664.0,0.0006310599856078625
1792.0,0.000521790876518935
1920.0,-0.00019494545995257795
2048.0,-0.00035394655424170196
2304.0,-0.0007230467163026333
2560.0,0.0001389000826748088
2816.0,0.00019954665913246572
3072.0,-0.0001446870155632496
3328.0,-5.36240913788788e-05
3584.0,-0.0003529141249600798
3840.0,-0.0009033711976371706
4096.0,-0.0006127841188572347
4608.0,9.631397551856935e-05
5120.0,-0.0008179278811439872
5632.0,-0.0012562586925923824
6144.0,0.0007225588778965175
6656.0,-0.0001042346193571575
7168.0,0.00039128187927417457
7680.0,0.000668926804792136
8192.0,0.00013821861648466438
end
