version,3.0
numOfCh,1
type,point
parent_name,c1204_3dot0-0dot01
ch_type,1_1
kcount,1
numberNandB,1
brightnessNandB,1
carpet pos,0
pc,0
Time (ms),CH1 Auto-Correlation
1.0,0.1172238290309906
2.0,0.11329612880945206
3.0,0.11003070324659348
4.0,0.1075923889875412
5.0,0.10576243698596954
6.0,0.10420117527246475
7.0,0.10284966975450516
8.0,0.10167388617992401
9.0,0.1008237823843956
10.0,0.09997673332691193
11.0,0.09898361563682556
12.0,0.09799408167600632
13.0,0.09718182682991028
14.0,0.0964924693107605
15.0,0.09586151689291
16.0,0.09539086371660233
18.0,0.09443550556898117
20.0,0.09346187114715576
22.0,0.09243407845497131
24.0,0.091128408908844
26.0,0.0896216332912445
28.0,0.08878502249717712
30.0,0.08793911337852478
32.0,0.087032750248909
36.0,0.08573168516159058
40.0,0.08463049679994583
44.0,0.0839284360408783
48.0,0.08347243070602417
52.0,0.08293507993221283
56.0,0.08252914994955063
60.0,0.08114617317914963
64.0,0.0806228294968605
72.0,0.07832562178373337
80.0,0.07599733024835587
88.0,0.07370499521493912
96.0,0.07067051529884338
104.0,0.06767489016056061
112.0,0.06480100005865097
120.0,0.06311735510826111
128.0,0.06175989657640457
144.0,0.0565011128783226
160.0,0.05040412396192551
176.0,0.04607025533914566
192.0,0.04208579286932945
208.0,0.03974606841802597
224.0,0.034948721528053284
240.0,0.029733559116721153
256.0,0.02720458246767521
288.0,0.022515706717967987
320.0,0.016493497416377068
352.0,0.014404362998902798
384.0,0.013562544248998165
416.0,0.012922625988721848
448.0,0.011708149686455727
480.0,0.01179434359073639
512.0,0.009813936427235603
576.0,0.004894405137747526
640.0,0.001352938823401928
704.0,-0.002895396901294589
768.0,-0.007243434898555279
832.0,-0.011726967990398407
896.0,-0.019497131928801537
960.0,-0.021336721256375313
1024.0,-0.022025009617209435
1152.0,-0.018595702946186066
1280.0,-0.015236725099384785
1408.0,-0.01714099384844303
1536.0,-0.014613375999033451
1664.0,-0.01749463938176632
1792.0,-0.020913617685437202
1920.0,-0.022465407848358154
2048.0,-0.015656866133213043
2304.0,-0.022662034258246422
2560.0,-0.012080365791916847
2816.0,-0.012099841609597206
3072.0,-0.014638427644968033
3328.0,0.003409863915294409
3584.0,0.01819019205868244
3840.0,0.03833157941699028
4096.0,0.09203977137804031
end
