version,3.0
numOfCh,1
type,point
parent_name,c1204_3dot0-0dot01
ch_type,1_1
kcount,1
numberNandB,1
brightnessNandB,1
carpet pos,0
pc,0
Time (ms),CH1 Auto-Correlation
1.0,0.02572908066213131
2.0,0.0208775382488966
3.0,0.01749376393854618
4.0,0.01503569632768631
5.0,0.013108476996421814
6.0,0.011772486381232738
7.0,0.010744144208729267
8.0,0.009712996892631054
9.0,0.008923107758164406
10.0,0.008009259589016438
11.0,0.007305825594812632
12.0,0.006821637041866779
13.0,0.00644830334931612
14.0,0.00613053236156702
15.0,0.0058130063116550446
16.0,0.005533960647881031
18.0,0.005109743215143681
20.0,0.004730559885501862
22.0,0.004562326706945896
24.0,0.0043984693475067616
26.0,0.004096286371350288
28.0,0.003707324154675007
30.0,0.0034533098805695772
32.0,0.0030823638662695885
36.0,0.0024990730453282595
40.0,0.002485541393980384
44.0,0.0023188237100839615
48.0,0.0018935840344056487
52.0,0.0018988280789926648
56.0,0.0023882901296019554
60.0,0.002367630833759904
64.0,0.00201398809440434
72.0,0.0018864334560930729
80.0,0.0016584276454523206
88.0,0.0013514453312382102
96.0,0.0009556706063449383
104.0,0.0010109728900715709
112.0,0.0010615660576149821
120.0,0.0008420291705988348
128.0,0.0008900277898646891
144.0,0.0007262056460604072
160.0,0.0005833488539792597
176.0,0.0010057247709482908
192.0,0.0012263251701369882
208.0,0.0002576847036834806
224.0,0.0005235106800682843
240.0,0.0009374464279972017
256.0,0.0005424550618045032
288.0,0.0006311010802164674
320.0,0.0007696127868257463
352.0,0.0009848978370428085
384.0,0.0016003927448764443
416.0,0.0016615419881418347
448.0,0.0008242649491876364
480.0,0.000978618860244751
512.0,0.0005336508620530367
576.0,0.0012274752371013165
640.0,0.0005232319817878306
704.0,6.605410362681141e-06
768.0,0.00014709621609654278
832.0,-0.00043091565021313727
896.0,0.0003867098712362349
960.0,0.0005112358485348523
1024.0,-0.0001706230832496658
1152.0,-0.00041646609315648675
1280.0,-0.00014980396372266114
1408.0,-0.00035774611751548946
1536.0,-0.000748867285437882
1664.0,-0.000760059105232358
1792.0,-0.0001981318782782182
1920.0,-0.0009930621599778533
2048.0,-0.000922021921724081
2304.0,-0.000721596647053957
2560.0,3.5392597055761144e-05
2816.0,0.00037557753967121243
3072.0,0.0005295000155456364
3328.0,0.00043454382102936506
3584.0,4.3566469685174525e-05
3840.0,0.0002236121508758515
4096.0,0.000370831839973107
4608.0,-0.0001800557947717607
5120.0,-0.0009803490247577429
5632.0,-0.0004490920982789248
6144.0,-4.51423111371696e-05
6656.0,0.00022417953005060554
7168.0,0.0013071771245449781
7680.0,0.0005821610102429986
8192.0,-0.000531233090441674
end
