version,3.0
numOfCh,1
type,point
parent_name,c1204_3dot0-0dot01
ch_type,1_1
kcount,1
numberNandB,1
brightnessNandB,1
carpet pos,0
pc,0
Time (ms),CH1 Auto-Correlation
1.0,0.027436600998044014
2.0,0.022902818396687508
3.0,0.019578637555241585
4.0,0.017212146893143654
5.0,0.015254499390721321
6.0,0.013684231787919998
7.0,0.012368986383080482
8.0,0.011423705145716667
9.0,0.01044389046728611
10.0,0.00973486714065075
11.0,0.00920839048922062
12.0,0.008655107580125332
13.0,0.008054578676819801
14.0,0.007536969613283873
15.0,0.007128539029508829
16.0,0.006803574971854687
18.0,0.005983506795018911
20.0,0.0052867187187075615
22.0,0.004757161717861891
24.0,0.004076319746673107
26.0,0.0038342811167240143
28.0,0.0034756732638925314
30.0,0.0030238365288823843
32.0,0.002863045083358884
36.0,0.002868904732167721
40.0,0.002589933341369033
44.0,0.0023682727478444576
48.0,0.0022946433164179325
52.0,0.0022972829174250364
56.0,0.0020393056329339743
60.0,0.00214352342300117
64.0,0.001691797748208046
72.0,0.0014546358725056052
80.0,0.0014502560952678323
88.0,0.0015600508777424693
96.0,0.0016852599801495671
104.0,0.0011750611010938883
112.0,0.0007246580207720399
120.0,0.0006503602489829063
128.0,0.0009630633285269141
144.0,0.0008961132843978703
160.0,0.0005802464438602328
176.0,0.0012814553920179605
192.0,0.001690548611804843
208.0,0.0014092896599322557
224.0,0.0007750399527139962
240.0,8.735908340895548e-05
256.0,0.0006932480027899146
288.0,0.00033466110471636057
320.0,0.0010866206139326096
352.0,0.001108798780478537
384.0,0.00011990891653113067
416.0,0.0002722330391407013
448.0,0.00040189834544435143
480.0,0.0009663638775236905
512.0,0.0007834702846594155
576.0,0.00042273200233466923
640.0,0.001457400619983673
704.0,-3.757807280635461e-05
768.0,-2.493839565431699e-05
832.0,0.0005541399586945772
896.0,-0.00031023641349747777
960.0,0.00011282111518085003
1024.0,0.0001625923760002479
1152.0,3.4494099963922054e-05
1280.0,-0.0001480786013416946
1408.0,3.519326355672092e-06
1536.0,-0.00013184377166908234
1664.0,-0.001602403586730361
1792.0,-0.0006108972593210638
1920.0,-0.0015513414982706308
2048.0,6.574115832336247e-05
2304.0,-0.0003346203302498907
2560.0,-0.0003096308500971645
2816.0,7.352964166784659e-05
3072.0,-0.0005075689987279475
3328.0,-3.865098187816329e-05
3584.0,1.1813324363174615e-06
3840.0,5.706225783796981e-05
4096.0,-0.00030374692869372666
4608.0,-0.00048424865235574543
5120.0,2.2351807274390012e-05
5632.0,7.858484605094418e-05
6144.0,0.00026995129883289337
6656.0,0.0007869001710787416
7168.0,-0.00010749529610620812
7680.0,-0.00034171747392974794
8192.0,-0.0005105401505716145
end
