version,3.0
numOfCh,1
type,point
parent_name,c1204_3dot0-0dot01
ch_type,1_1
kcount,1
numberNandB,1
brightnessNandB,1
carpet pos,0
pc,0
Time (ms),CH1 Auto-Correlation
1.0,0.047710224986076355
2.0,0.04306957125663757
3.0,0.03980812430381775
4.0,0.03732103109359741
5.0,0.035365477204322815
6.0,0.03390911594033241
7.0,0.032534677535295486
8.0,0.03136511147022247
9.0,0.030302397906780243
10.0,0.029509983956813812
11.0,0.028671039268374443
12.0,0.027951538562774658
13.0,0.027222350239753723
14.0,0.026231495663523674
15.0,0.02550368942320347
16.0,0.02484266273677349
18.0,0.023895923048257828
20.0,0.022974997758865356
22.0,0.021885966882109642
24.0,0.02138935774564743
26.0,0.020679906010627747
28.0,0.02013617753982544
30.0,0.019513018429279327
32.0,0.018949909135699272
36.0,0.018858926370739937
40.0,0.018675412982702255
44.0,0.017911646515130997
48.0,0.0176219642162323
52.0,0.016767088323831558
56.0,0.01578669622540474
60.0,0.015042705461382866
64.0,0.013970148749649525
72.0,0.012114986777305603
80.0,0.011412179097533226
88.0,0.01086509320884943
96.0,0.01040574349462986
104.0,0.009733937680721283
112.0,0.008842820301651955
120.0,0.008645771071314812
128.0,0.008619791828095913
144.0,0.007755020167678595
160.0,0.007357829250395298
176.0,0.005949856247752905
192.0,0.004238090943545103
208.0,0.0032785243820399046
224.0,0.004584412556141615
240.0,0.00440939562395215
256.0,0.00419129291549325
288.0,0.004815293475985527
320.0,0.004807073622941971
352.0,0.005280490033328533
384.0,0.004520275630056858
416.0,0.002722519915550947
448.0,0.002210994018241763
480.0,0.0023013970348984003
512.0,0.003221322549507022
576.0,0.0032902380917221308
640.0,0.0009186698589473963
704.0,-7.767354691168293e-05
768.0,-0.0003810179769061506
832.0,0.0009248012211173773
896.0,-5.4675569117534906e-05
960.0,-0.0012099045561626554
1024.0,-0.0008727737586013973
1152.0,-0.0013909297995269299
1280.0,0.0012428234331309795
1408.0,0.0008223065524362028
1536.0,-0.0013249925104901195
1664.0,-0.002403185935690999
1792.0,-0.0032217963598668575
1920.0,-0.002375823212787509
2048.0,-0.0024886324536055326
2304.0,-0.0013573836768046021
2560.0,0.0010308207711204886
2816.0,0.0008489693282172084
3072.0,0.001277789706364274
3328.0,0.0013617046643048525
3584.0,0.0012470462825149298
3840.0,0.0005840602098032832
4096.0,-0.0018076651031151414
4608.0,-0.004483306780457497
5120.0,-0.0032369792461395264
5632.0,-0.0019721535500139
6144.0,0.0003944832715205848
6656.0,0.003055035835132003
7168.0,-0.002722702454775572
7680.0,-0.003038352122530341
8192.0,-0.0007353288820013404
end
