version,3.0
numOfCh,1
type,point
parent_name,c1204_3dot0-0dot01
ch_type,1_1
kcount,1
numberNandB,1
brightnessNandB,1
carpet pos,0
pc,0
Time (ms),CH1 Auto-Correlation
1.0,0.0457223504781723
2.0,0.04130098596215248
3.0,0.038272369652986526
4.0,0.03593041002750397
5.0,0.03397613763809204
6.0,0.03238408640027046
7.0,0.03121490590274334
8.0,0.03025253862142563
9.0,0.029495829716324806
10.0,0.028876613825559616
11.0,0.02842712216079235
12.0,0.02773423120379448
13.0,0.027101991698145866
14.0,0.02664020285010338
15.0,0.026480164378881454
16.0,0.02638339065015316
18.0,0.025878019630908966
20.0,0.025472788140177727
22.0,0.02524648606777191
24.0,0.024805448949337006
26.0,0.02450207993388176
28.0,0.024136023595929146
30.0,0.02347017638385296
32.0,0.023056520149111748
36.0,0.021910835057497025
40.0,0.021374067291617393
44.0,0.021066412329673767
48.0,0.02062375843524933
52.0,0.020028095692396164
56.0,0.019574208185076714
60.0,0.018799999728798866
64.0,0.01859809085726738
72.0,0.017124107107520103
80.0,0.01721406914293766
88.0,0.016508502885699272
96.0,0.01664716936647892
104.0,0.01597016118466854
112.0,0.015646064653992653
120.0,0.016579920426011086
128.0,0.017229899764060974
144.0,0.01777712069451809
160.0,0.017398979514837265
176.0,0.016509898006916046
192.0,0.015602516010403633
208.0,0.013531613163650036
224.0,0.013750175945460796
240.0,0.013812211342155933
256.0,0.01442648284137249
288.0,0.014362278394401073
320.0,0.013127031736075878
352.0,0.011391355656087399
384.0,0.0092783747240901
416.0,0.008904854767024517
448.0,0.010579989291727543
480.0,0.008829035796225071
512.0,0.007922867313027382
576.0,0.00688331900164485
640.0,0.004191984888166189
704.0,0.0026053746696561575
768.0,0.0013533883029595017
832.0,-0.0002265403454657644
896.0,-5.266338121145964e-05
960.0,0.0004503905074670911
1024.0,-8.161849109455943e-05
1152.0,-0.001838032971136272
1280.0,-0.002191233215853572
1408.0,-0.002300810068845749
1536.0,-0.0039390153251588345
1664.0,-0.0027124616317451
1792.0,-0.003956761676818132
1920.0,-0.0008260204922407866
2048.0,-0.00030855456134304404
2304.0,-0.0008514858782291412
2560.0,-0.0022432333789765835
2816.0,-0.00658574141561985
3072.0,-0.006146335043013096
3328.0,-0.006845942232757807
3584.0,-0.005596385803073645
3840.0,-0.0074578095227479935
4096.0,-0.007583186030387878
end
