version,3.0
numOfCh,1
type,point
parent_name,c1204_3dot0-0dot01
ch_type,1_1
kcount,1
numberNandB,1
brightnessNandB,1
carpet pos,0
pc,0
Time (ms),CH1 Auto-Correlation
1.0,0.027323273941874504
2.0,0.022727174684405327
3.0,0.01942817121744156
4.0,0.01694575324654579
5.0,0.01503398921340704
6.0,0.013535569421947002
7.0,0.012287665158510208
8.0,0.011268566362559795
9.0,0.010401793755590916
10.0,0.00946215819567442
11.0,0.008760248310863972
12.0,0.008237502537667751
13.0,0.007796272169798613
14.0,0.007428837474435568
15.0,0.007064540404826403
16.0,0.00687729986384511
18.0,0.006228442769497633
20.0,0.005942146293818951
22.0,0.005628518294543028
24.0,0.005305777303874493
26.0,0.004925612825900316
28.0,0.004707516636699438
30.0,0.004418779630213976
32.0,0.004398595076054335
36.0,0.004056907724589109
40.0,0.0034996902104467154
44.0,0.0033674994483590126
48.0,0.0029135714285075665
52.0,0.002885257825255394
56.0,0.003161240601912141
60.0,0.003085479373112321
64.0,0.00318725174292922
72.0,0.002377317287027836
80.0,0.002253767801448703
88.0,0.0021448414772748947
96.0,0.00139642134308815
104.0,0.001482448074966669
112.0,0.0016244996804744005
120.0,0.0018656019819900393
128.0,0.0015444470336660743
144.0,0.0018852808279916644
160.0,0.0016936822794377804
176.0,0.0013691645581275225
192.0,0.0014836551854386926
208.0,0.00032915687188506126
224.0,0.0004214658110868186
240.0,0.00031234018388204277
256.0,0.0005323135410435498
288.0,0.0004492541484069079
320.0,0.00032962040859274566
352.0,0.000809443648904562
384.0,0.00011713384446920827
416.0,-0.00030131294624879956
448.0,0.00024952649255283177
480.0,0.001177475554868579
512.0,0.0015823508147150278
576.0,0.0006868257187306881
640.0,3.668893259600736e-05
704.0,0.00012801768025383353
768.0,0.0002110345521941781
832.0,-0.00033877731766551733
896.0,-7.243378058774397e-05
960.0,-3.149788244627416e-05
1024.0,0.0004471217398531735
1152.0,-0.00019648036686703563
1280.0,0.0006350863841362298
1408.0,0.00035510456655174494
1536.0,0.00018585045472718775
1664.0,-0.0001579229865456
1792.0,0.00033670576522126794
1920.0,0.00150976306758821
2048.0,0.0012026529293507338
2304.0,-4.1419134504394606e-05
2560.0,0.00011297124729026109
2816.0,-0.00030916676041670144
3072.0,-0.0004055169119965285
3328.0,-0.00019415756105445325
3584.0,9.281880920752883e-05
3840.0,3.4407316888973583e-06
4096.0,-0.0008251454564742744
4608.0,-0.0003433840174693614
5120.0,0.00033360288944095373
5632.0,0.0007279474521055818
6144.0,0.00013579364167526364
6656.0,-0.000703737314324826
7168.0,0.00044528685975819826
7680.0,0.0010066588874906301
8192.0,-0.0002471843035891652
end
