version,3.0
numOfCh,1
type,point
parent_name,c1204_3dot0-0dot01
ch_type,1_1
kcount,1
numberNandB,1
brightnessNandB,1
carpet pos,0
pc,0
Time (ms),CH1 Auto-Correlation
1.0,0.027824167162179947
2.0,0.023817287757992744
3.0,0.02100151963531971
4.0,0.01896539144217968
5.0,0.017466573044657707
6.0,0.016170844435691833
7.0,0.015016207471489906
8.0,0.013962897472083569
9.0,0.013037236407399178
10.0,0.012268691323697567
11.0,0.01166016235947609
12.0,0.01128791831433773
13.0,0.011022385209798813
14.0,0.010683237574994564
15.0,0.01030746940523386
16.0,0.010068236850202084
18.0,0.009651818312704563
20.0,0.00941469892859459
22.0,0.00935934018343687
24.0,0.008853201754391193
26.0,0.008259144611656666
28.0,0.007996509782969952
30.0,0.007643162272870541
32.0,0.007317219395190477
36.0,0.006330166477710009
40.0,0.0059585366398096085
44.0,0.005985618103295565
48.0,0.005344851408153772
52.0,0.004536251537501812
56.0,0.004500035662204027
60.0,0.0043309093452990055
64.0,0.00445682043209672
72.0,0.004941300954669714
80.0,0.004992554429918528
88.0,0.005225613247603178
96.0,0.005392174702137709
104.0,0.005211943294852972
112.0,0.005118260160088539
120.0,0.0048851813189685345
128.0,0.0050398558378219604
144.0,0.005134755279868841
160.0,0.0038467859849333763
176.0,0.0036790319718420506
192.0,0.003797096200287342
208.0,0.0037615711335092783
224.0,0.0045066713355481625
240.0,0.002872106386348605
256.0,0.0026357530150562525
288.0,0.0023851238656789064
320.0,0.003369397483766079
352.0,0.003214365104213357
384.0,0.0021081469021737576
416.0,0.0011382935335859656
448.0,0.0007696847897022963
480.0,0.0007437444292008877
512.0,0.0006563761853612959
576.0,0.0014635699335485697
640.0,4.456072565517388e-05
704.0,2.7358270017430186e-05
768.0,-0.0010217954404652119
832.0,-0.001529052620753646
896.0,-0.001134062884375453
960.0,-0.0016969222342595458
1024.0,-0.001559157855808735
1152.0,-0.002622381318360567
1280.0,-0.002321649109944701
1408.0,-0.0031156425829976797
1536.0,-0.0037799847777932882
1664.0,-0.0025722337886691093
1792.0,-0.0016860257601365447
1920.0,0.00030343260732479393
2048.0,0.001409689662978053
2304.0,0.0019256117520853877
2560.0,0.000643433362711221
2816.0,0.0007686917087994516
3072.0,0.0010588379809632897
3328.0,0.0008283658535219729
3584.0,-0.001539316843263805
3840.0,-0.0008124388405121863
4096.0,0.0009409370250068605
end
