version,3.0
numOfCh,1
type,point
parent_name,c1204_3dot0-0dot01
ch_type,1_1
kcount,1
numberNandB,1
brightnessNandB,1
carpet pos,0
pc,0
Time (ms),CH1 Auto-Correlation
1.0,0.8199536204338074
2.0,0.8171879053115845
3.0,0.8149712085723877
4.0,0.8131469488143921
5.0,0.8115282654762268
6.0,0.8100489974021912
7.0,0.8086092472076416
8.0,0.8072291612625122
9.0,0.8058522939682007
10.0,0.8045513033866882
11.0,0.8034873008728027
12.0,0.8023465275764465
13.0,0.8011900782585144
14.0,0.7998930215835571
15.0,0.7986078858375549
16.0,0.7974690794944763
18.0,0.7952880859375
20.0,0.7931734323501587
22.0,0.7911001443862915
24.0,0.7893275022506714
26.0,0.7873650193214417
28.0,0.785213828086853
30.0,0.7831683158874512
32.0,0.7812952995300293
36.0,0.7775501608848572
40.0,0.7737710475921631
44.0,0.7701213359832764
48.0,0.7666275501251221
52.0,0.7634211778640747
56.0,0.7600170373916626
60.0,0.7570177316665649
64.0,0.7539533376693726
72.0,0.7468962669372559
80.0,0.7401055693626404
88.0,0.7326206564903259
96.0,0.7246764302253723
104.0,0.7166059017181396
112.0,0.7095863819122314
120.0,0.703071653842926
128.0,0.6956268548965454
144.0,0.679741382598877
160.0,0.6656219959259033
176.0,0.6539811491966248
192.0,0.6444112658500671
208.0,0.6350626349449158
224.0,0.6244725584983826
240.0,0.612136721611023
256.0,0.5973771810531616
288.0,0.5703052878379822
320.0,0.5429928302764893
352.0,0.5134176015853882
384.0,0.48157742619514465
416.0,0.44687020778656006
448.0,0.41353943943977356
480.0,0.3828754425048828
512.0,0.35552752017974854
576.0,0.318637877702713
640.0,0.2810441553592682
704.0,0.23501244187355042
768.0,0.20224574208259583
832.0,0.1731450855731964
896.0,0.15016451478004456
960.0,0.13265982270240784
1024.0,0.11163663119077682
1152.0,0.0699298307299614
1280.0,0.035565800964832306
1408.0,-0.0008884849958121777
1536.0,-0.03615881875157356
1664.0,-0.04880242794752121
1792.0,-0.058764878660440445
1920.0,-0.05778679996728897
2048.0,-0.05299648642539978
2304.0,-0.04220087081193924
2560.0,-0.049555279314517975
2816.0,-0.06030559912323952
3072.0,-0.07188312709331512
3328.0,-0.0827428326010704
3584.0,-0.09630685299634933
3840.0,-0.10127706825733185
4096.0,-0.10237932205200195
4608.0,-0.09092310070991516
5120.0,-0.11316686868667603
5632.0,-0.1472594290971756
6144.0,-0.22012442350387573
6656.0,-0.29163920879364014
7168.0,-0.37664732336997986
7680.0,-0.3864611089229584
8192.0,-0.17796237766742706
end
