version,3.0
numOfCh,1
type,point
parent_name,c1204_3dot0-0dot01
ch_type,1_1
kcount,1
numberNandB,1
brightnessNandB,1
carpet pos,0
pc,0
Time (ms),CH1 Auto-Correlation
1.0,0.027743710204958916
2.0,0.0228875745087862
3.0,0.019529487937688828
4.0,0.017084984108805656
5.0,0.01518156286329031
6.0,0.013854620046913624
7.0,0.012485446408390999
8.0,0.01128306146711111
9.0,0.01016481127589941
10.0,0.009320879355072975
11.0,0.008716253563761711
12.0,0.008115939795970917
13.0,0.007693350315093994
14.0,0.007206400856375694
15.0,0.006819624453783035
16.0,0.0066122086718678474
18.0,0.005906832404434681
20.0,0.005225938279181719
22.0,0.004931093659251928
24.0,0.004677790682762861
26.0,0.004097240511327982
28.0,0.0038151610642671585
30.0,0.003961178939789534
32.0,0.003708436619490385
36.0,0.003194760298356414
40.0,0.0022965522948652506
44.0,0.0020316867157816887
48.0,0.0015157959423959255
52.0,0.0014920858666300774
56.0,0.0011417280184105039
60.0,0.00090882828226313
64.0,0.000958198681473732
72.0,0.0008411560556851327
80.0,0.0007048650877550244
88.0,0.0010391795076429844
96.0,0.0008745592785999179
104.0,0.0006725428975187242
112.0,0.001330197206698358
120.0,0.0016037474852055311
128.0,0.0010392213007435203
144.0,0.0005417228094302118
160.0,-0.00032265204936265945
176.0,-0.0008637463906779885
192.0,-0.00018251838628202677
208.0,-0.0010283716255798936
224.0,-0.0006329160532914102
240.0,7.631290645804256e-05
256.0,0.0008032505866140127
288.0,0.00020891291205771267
320.0,-0.0007803281187079847
352.0,-0.0005941069102846086
384.0,0.00020499779202509671
416.0,-2.705559199966956e-05
448.0,-0.00028693443164229393
480.0,-0.0006207808619365096
512.0,-0.00018455839017406106
576.0,0.00010756503615994006
640.0,-0.0005722827627323568
704.0,-0.00024889945052564144
768.0,0.00018060856382362545
832.0,0.0006834419909864664
896.0,-0.00044081659871153533
960.0,-0.0006989733083173633
1024.0,-0.0007393682026304305
1152.0,0.00024526932975277305
1280.0,9.971555118681863e-05
1408.0,-0.0006454993272200227
1536.0,-0.0006438044947572052
1664.0,-0.0001879227056633681
1792.0,-0.0006104215863160789
1920.0,-8.511215128237382e-05
2048.0,-0.0001353510597255081
2304.0,0.0004689118068199605
2560.0,0.00014879816444590688
2816.0,-0.00017416404443793
3072.0,0.00021354183263611048
3328.0,0.00040542869828641415
3584.0,0.0002811613667290658
3840.0,9.06349450815469e-05
4096.0,-0.0007649082690477371
4608.0,-0.00023022806271910667
5120.0,0.00022077046742197126
5632.0,-0.00018501711019780487
6144.0,0.00027461329591460526
6656.0,9.768461313797161e-05
7168.0,-0.00040824527968652546
7680.0,-0.0007465078961104155
8192.0,0.0004320437437854707
end
