version,3.0
numOfCh,1
type,point
parent_name,c1204_3dot0-0dot01
ch_type,1_1
kcount,1
numberNandB,1
brightnessNandB,1
carpet pos,0
pc,0
Time (ms),CH1 Auto-Correlation
1.0,0.03248872980475426
2.0,0.02808658592402935
3.0,0.025132393464446068
4.0,0.023033661767840385
5.0,0.02139483019709587
6.0,0.02010124921798706
7.0,0.019101787358522415
8.0,0.018287675455212593
9.0,0.017473837360739708
10.0,0.016665002331137657
11.0,0.016097066923975945
12.0,0.015649981796741486
13.0,0.015053946524858475
14.0,0.014414718374609947
15.0,0.01412256620824337
16.0,0.013691073283553123
18.0,0.013290583156049252
20.0,0.012539823539555073
22.0,0.012002408504486084
24.0,0.011449635028839111
26.0,0.010844890028238297
28.0,0.0102906608954072
30.0,0.010149809531867504
32.0,0.009944697842001915
36.0,0.00980272889137268
40.0,0.009919119998812675
44.0,0.00975506380200386
48.0,0.009386405348777771
52.0,0.008735188283026218
56.0,0.008438927121460438
60.0,0.007863855920732021
64.0,0.007443578448146582
72.0,0.007423435803502798
80.0,0.007139811757951975
88.0,0.006735865026712418
96.0,0.0064234607852995396
104.0,0.006300053559243679
112.0,0.006588858086615801
120.0,0.006276301573961973
128.0,0.00645306333899498
144.0,0.00578003516420722
160.0,0.004316215869039297
176.0,0.0033618055749684572
192.0,0.004019946325570345
208.0,0.003908578772097826
224.0,0.0029425385873764753
240.0,0.0036370004527270794
256.0,0.0035342657938599586
288.0,0.0021377827506512403
320.0,0.003450087271630764
352.0,0.002728219609707594
384.0,0.0015615439042448997
416.0,-0.00011027005530195311
448.0,-0.0002920372935477644
480.0,-0.00036344819818623364
512.0,0.0005023805424571037
576.0,0.00011943960271310061
640.0,-0.0008355836034752429
704.0,-0.0010485169477760792
768.0,-0.0029991837218403816
832.0,-0.002256169682368636
896.0,-0.001631488441489637
960.0,-0.0019166364800184965
1024.0,-0.0011443429393693805
1152.0,-0.001386159216053784
1280.0,-0.0010802411707118154
1408.0,-0.0005208731163293123
1536.0,-0.0014050727477297187
1664.0,0.0002789697318803519
1792.0,-0.00036761839874088764
1920.0,0.0008559362031519413
2048.0,0.0012062257155776024
2304.0,0.0006240499205887318
2560.0,-0.0005772380973212421
2816.0,-0.001072404906153679
3072.0,0.0008067688904702663
3328.0,-0.0007315487018786371
3584.0,-0.0005840140511281788
3840.0,-0.0025035503786057234
4096.0,-0.001318048220127821
4608.0,0.0002540156419854611
5120.0,0.0007940783398225904
5632.0,-0.00134890410117805
6144.0,-7.494590136047918e-06
6656.0,-0.0021336551290005445
7168.0,0.0008125933236442506
7680.0,0.0002051040210062638
8192.0,-0.007036321796476841
end
