version,3.0
numOfCh,1
type,point
parent_name,19e3e_0dot08-0dot1
ch_type,1_1
kcount,1
numberNandB,1
brightnessNandB,1
carpet pos,0
pc,0
Time (ms),CH1 Auto-Correlation
1.0,0.06435659527778625
2.0,0.06371952593326569
3.0,0.06309953331947327
4.0,0.06251747161149979
5.0,0.06196765601634979
6.0,0.06142975017428398
7.0,0.06092337891459465
8.0,0.060428913682699203
9.0,0.05991753190755844
10.0,0.059400856494903564
11.0,0.05888579040765762
12.0,0.05837317928671837
13.0,0.057896073907613754
14.0,0.05742385610938072
15.0,0.056942809373140335
16.0,0.05643919110298157
18.0,0.05547396466135979
20.0,0.05452996864914894
22.0,0.05365627631545067
24.0,0.052803073078393936
26.0,0.051959551870822906
28.0,0.051092516630887985
30.0,0.05020160600543022
32.0,0.04934115707874298
36.0,0.047725144773721695
40.0,0.04633224382996559
44.0,0.04510778933763504
48.0,0.04393618181347847
52.0,0.04276071861386299
56.0,0.041724223643541336
60.0,0.0407722108066082
64.0,0.03983797878026962
72.0,0.03814123943448067
80.0,0.03657557815313339
88.0,0.03530777618288994
96.0,0.034228019416332245
104.0,0.03330879285931587
112.0,0.03278619796037674
120.0,0.0325394906103611
128.0,0.032048773020505905
144.0,0.03107459284365177
160.0,0.030078915879130363
176.0,0.02919968217611313
192.0,0.02859640307724476
208.0,0.028362547978758812
224.0,0.028370169922709465
240.0,0.028393294662237167
256.0,0.028285056352615356
288.0,0.027044691145420074
320.0,0.0257404837757349
352.0,0.02435356378555298
384.0,0.022402504459023476
416.0,0.02092800661921501
448.0,0.02121138758957386
480.0,0.020785251632332802
512.0,0.020036958158016205
576.0,0.01898624561727047
640.0,0.01820443570613861
704.0,0.016440140083432198
768.0,0.017292257398366928
832.0,0.018709594383835793
896.0,0.017376353964209557
960.0,0.01189650222659111
1024.0,0.008710427209734917
1152.0,0.004254734143614769
1280.0,0.0010330165969207883
1408.0,0.00032065538107417524
1536.0,8.173463720595464e-05
1664.0,-6.649627175647765e-05
1792.0,-0.002613163786008954
1920.0,-0.005853766575455666
2048.0,-0.007543974090367556
2304.0,-0.007048785220831633
2560.0,-0.006611451972275972
2816.0,-0.01323250588029623
3072.0,-0.01861254684627056
3328.0,-0.018887152895331383
3584.0,-0.022184932604432106
3840.0,-0.024045025929808617
4096.0,-0.023413201794028282
4608.0,-0.021100623533129692
5120.0,-0.0035256510600447655
5632.0,0.004413630813360214
6144.0,0.012239697389304638
6656.0,0.011813625693321228
7168.0,0.014897176995873451
7680.0,0.018855536356568336
8192.0,0.011759893037378788
end
