version,3.0
numOfCh,1
type,point
parent_name,19e3e_0dot08-0dot1
ch_type,1_1
kcount,1
numberNandB,1
brightnessNandB,1
carpet pos,0
pc,0
Time (ms),CH1 Auto-Correlation
1.0,0.07881364226341248
2.0,0.07795758545398712
3.0,0.07715917378664017
4.0,0.07638764381408691
5.0,0.07564123719930649
6.0,0.074920155107975
7.0,0.0742332935333252
8.0,0.0735689252614975
9.0,0.07292930781841278
10.0,0.07235618680715561
11.0,0.07175983488559723
12.0,0.07114042341709137
13.0,0.070543073117733
14.0,0.06996544450521469
15.0,0.0693424791097641
16.0,0.06878271698951721
18.0,0.06776445358991623
20.0,0.06676290184259415
22.0,0.06576802581548691
24.0,0.0647505670785904
26.0,0.06369657814502716
28.0,0.06265822798013687
30.0,0.06155884638428688
32.0,0.06055784597992897
36.0,0.05868314206600189
40.0,0.05681008845567703
44.0,0.05501622334122658
48.0,0.05321092531085014
52.0,0.05150698870420456
56.0,0.05001477524638176
60.0,0.04848376661539078
64.0,0.04695858433842659
72.0,0.04409687593579292
80.0,0.04150142893195152
88.0,0.03946129232645035
96.0,0.03755513206124306
104.0,0.03596921265125275
112.0,0.034789688885211945
120.0,0.03348561003804207
128.0,0.03189733996987343
144.0,0.027912886813282967
160.0,0.02380969002842903
176.0,0.01986256055533886
192.0,0.016726085916161537
208.0,0.013933125883340836
224.0,0.012556535191833973
240.0,0.012247683480381966
256.0,0.012001411989331245
288.0,0.011370615102350712
320.0,0.010822934098541737
352.0,0.009028405882418156
384.0,0.006670484784990549
416.0,0.0071825552731752396
448.0,0.007612425368279219
480.0,0.007903187535703182
512.0,0.005887689534574747
576.0,0.00299812201410532
640.0,0.0023870535660535097
704.0,-0.0001626586017664522
768.0,-0.0007387924706563354
832.0,-0.0022336868569254875
896.0,-0.002269966993480921
960.0,-0.005648021120578051
1024.0,-0.00858626514673233
1152.0,-0.007690849248319864
1280.0,-0.0004919613711535931
1408.0,0.004540179390460253
1536.0,0.0011825435794889927
1664.0,-0.005678749177604914
1792.0,-0.008374360390007496
1920.0,-0.0006331703625619411
2048.0,0.0022390952799469233
2304.0,-0.0044753518886864185
2560.0,-0.002980248536914587
2816.0,0.002537540625780821
3072.0,0.005616501905024052
3328.0,0.0001422060013283044
3584.0,-0.00036467183963395655
3840.0,0.0009608998079784214
4096.0,-0.004325245972722769
4608.0,0.0019924244843423367
5120.0,-0.00455583306029439
5632.0,-0.011017684824764729
6144.0,-0.006612096447497606
6656.0,0.009340306743979454
7168.0,-0.010065298527479172
7680.0,-0.0008145598112605512
8192.0,-0.008031618781387806
end
