version,3.0
numOfCh,1
type,point
parent_name,19e3e_0dot08-0dot1
ch_type,1_1
kcount,1
numberNandB,1
brightnessNandB,1
carpet pos,0
pc,0
Time (ms),CH1 Auto-Correlation
1.0,0.06718389689922333
2.0,0.06623907387256622
3.0,0.06539636850357056
4.0,0.06458130478858948
5.0,0.06382761895656586
6.0,0.06310897320508957
7.0,0.06241109222173691
8.0,0.06170611083507538
9.0,0.061019498854875565
10.0,0.060361698269844055
11.0,0.05972578376531601
12.0,0.0590931661427021
13.0,0.05849706009030342
14.0,0.057868700474500656
15.0,0.05722012743353844
16.0,0.05655175819993019
18.0,0.05542100593447685
20.0,0.05432412028312683
22.0,0.053248919546604156
24.0,0.052106793969869614
26.0,0.050980083644390106
28.0,0.04979882761836052
30.0,0.04859672486782074
32.0,0.047477930784225464
36.0,0.045361097902059555
40.0,0.043453115969896317
44.0,0.041584715247154236
48.0,0.039623379707336426
52.0,0.03765466809272766
56.0,0.03575687110424042
60.0,0.033980391919612885
64.0,0.0321941040456295
72.0,0.028725268319249153
80.0,0.025721773505210876
88.0,0.023293044418096542
96.0,0.020903680473566055
104.0,0.018781403079628944
112.0,0.017060676589608192
120.0,0.015543418005108833
128.0,0.014160611666738987
144.0,0.012175125069916248
160.0,0.010120835155248642
176.0,0.007506882306188345
192.0,0.005373523570597172
208.0,0.0035742116160690784
224.0,0.0019532188307493925
240.0,0.0011006832355633378
256.0,0.0011770060518756509
288.0,0.0017868023132905364
320.0,0.0038540861569344997
352.0,0.005322649143636227
384.0,0.005524912383407354
416.0,0.004996063187718391
448.0,0.004017448052763939
480.0,0.00431685009971261
512.0,0.00642222398892045
576.0,0.005077150650322437
640.0,0.0049959830939769745
704.0,0.009791106916964054
768.0,0.00724629545584321
832.0,0.002270151861011982
896.0,-0.005234041716903448
960.0,-0.009747849777340889
1024.0,-0.010886751115322113
1152.0,-0.009027332067489624
1280.0,-0.004043794237077236
1408.0,-0.007466290611773729
1536.0,-0.014558867551386356
1664.0,-0.007276540622115135
1792.0,-0.0036559845320880413
1920.0,-0.0003971685655415058
2048.0,0.0036243812646716833
2304.0,0.006086012348532677
2560.0,0.013295003212988377
2816.0,0.0023022990208119154
3072.0,0.008171696215867996
3328.0,0.0032782219350337982
3584.0,-0.009079528972506523
3840.0,-0.011876854114234447
4096.0,-0.01057948637753725
4608.0,-0.004878758452832699
5120.0,0.004890518728643656
5632.0,0.008747734129428864
6144.0,0.0020903912372887135
6656.0,-0.009719151072204113
7168.0,-0.008871096186339855
7680.0,-0.0015287981368601322
8192.0,0.0006653195596300066
end
