version,3.0
numOfCh,1
type,point
parent_name,19e3e_0dot08-0dot1
ch_type,1_1
kcount,1
numberNandB,1
brightnessNandB,1
carpet pos,0
pc,0
Time (ms),CH1 Auto-Correlation
1.0,0.07674463838338852
2.0,0.07616035640239716
3.0,0.07559353858232498
4.0,0.07505887746810913
5.0,0.07454410195350647
6.0,0.07406606525182724
7.0,0.07358671724796295
8.0,0.07312066853046417
9.0,0.07266771793365479
10.0,0.07223339378833771
11.0,0.07180081307888031
12.0,0.07138894498348236
13.0,0.07097700238227844
14.0,0.07056713849306107
15.0,0.07015462219715118
16.0,0.06976000964641571
18.0,0.0689774602651596
20.0,0.06822608411312103
22.0,0.06747013330459595
24.0,0.06667846441268921
26.0,0.06590692698955536
28.0,0.06512180715799332
30.0,0.06437486410140991
32.0,0.06366202235221863
36.0,0.062250569462776184
40.0,0.060758307576179504
44.0,0.059268876910209656
48.0,0.05782930180430412
52.0,0.05648178979754448
56.0,0.0553184449672699
60.0,0.05413847789168358
64.0,0.05310692638158798
72.0,0.05111417919397354
80.0,0.049322403967380524
88.0,0.04771655052900314
96.0,0.04641798511147499
104.0,0.04528876021504402
112.0,0.04420937970280647
120.0,0.04298969730734825
128.0,0.041733186691999435
144.0,0.03940599411725998
160.0,0.03704357519745827
176.0,0.03475991636514664
192.0,0.03228089213371277
208.0,0.02985605038702488
224.0,0.027762269601225853
240.0,0.025568604469299316
256.0,0.023542232811450958
288.0,0.02021564170718193
320.0,0.01676926016807556
352.0,0.01325993612408638
384.0,0.010916302911937237
416.0,0.009574941359460354
448.0,0.009112657979130745
480.0,0.008035330101847649
512.0,0.0066941166296601295
576.0,0.005357184447348118
640.0,0.005106961354613304
704.0,0.0038512509781867266
768.0,0.0007414640858769417
832.0,-0.003191643860191107
896.0,-0.007135107647627592
960.0,-0.008966756984591484
1024.0,-0.008621621876955032
1152.0,-0.006250306032598019
1280.0,0.0007032351568341255
1408.0,0.0022264933213591576
1536.0,0.0002995864488184452
1664.0,-0.0005296653835102916
1792.0,0.004453851375728846
1920.0,0.00669866381213069
2048.0,0.00608708243817091
2304.0,-0.001172494376078248
2560.0,-0.0016987989656627178
2816.0,0.004158284980803728
3072.0,-0.00017836462939158082
3328.0,0.002360803773626685
3584.0,0.006289428099989891
3840.0,0.013685355894267559
4096.0,0.010837232694029808
4608.0,-0.013008153066039085
5120.0,-0.02063906006515026
5632.0,-0.010090861469507217
6144.0,-0.0004580076492857188
6656.0,-0.007005981635302305
7168.0,-0.012609991244971752
7680.0,-0.0009638511692173779
8192.0,-0.004555484279990196
end
