version,3.0
numOfCh,1
type,point
parent_name,19e3e_0dot08-0dot1
ch_type,1_1
kcount,1
numberNandB,1
brightnessNandB,1
carpet pos,0
pc,0
Time (ms),CH1 Auto-Correlation
1.0,0.053618982434272766
2.0,0.053143955767154694
3.0,0.052681636065244675
4.0,0.05222177505493164
5.0,0.051767993718385696
6.0,0.05133269354701042
7.0,0.05091388523578644
8.0,0.05048274248838425
9.0,0.050062164664268494
10.0,0.049643754959106445
11.0,0.04924236610531807
12.0,0.048843350261449814
13.0,0.04847090691328049
14.0,0.048106372356414795
15.0,0.04774726554751396
16.0,0.047404978424310684
18.0,0.04670951887965202
20.0,0.04603871330618858
22.0,0.04538683593273163
24.0,0.044758446514606476
26.0,0.04415635019540787
28.0,0.04359889030456543
30.0,0.0430462583899498
32.0,0.04250074550509453
36.0,0.04148152843117714
40.0,0.040479354560375214
44.0,0.0395306795835495
48.0,0.03860095888376236
52.0,0.03777804225683212
56.0,0.037009891122579575
60.0,0.03623907268047333
64.0,0.035470861941576004
72.0,0.03407423943281174
80.0,0.03278050571680069
88.0,0.03143575042486191
96.0,0.03029995784163475
104.0,0.029300937429070473
112.0,0.028335722163319588
120.0,0.02742813155055046
128.0,0.026767438277602196
144.0,0.025670582428574562
160.0,0.024516241624951363
176.0,0.0231880322098732
192.0,0.02186950482428074
208.0,0.020822130143642426
224.0,0.01986808143556118
240.0,0.018576961010694504
256.0,0.017412185668945312
288.0,0.015808599069714546
320.0,0.013859061524271965
352.0,0.011479707434773445
384.0,0.009468036703765392
416.0,0.008238445036113262
448.0,0.0076997061260044575
480.0,0.007789280731230974
512.0,0.008219565264880657
576.0,0.008199028670787811
640.0,0.010217847302556038
704.0,0.009760702028870583
768.0,0.009794243611395359
832.0,0.009849890135228634
896.0,0.007540483959019184
960.0,0.003995345905423164
1024.0,0.0007738089771009982
1152.0,-0.004063713829964399
1280.0,-0.004762735217809677
1408.0,-0.0011507889721542597
1536.0,0.0012549355160444975
1664.0,0.00516857486218214
1792.0,0.004900356754660606
1920.0,0.004346870817244053
2048.0,0.005890716332942247
2304.0,0.007267396431416273
2560.0,0.010240557603538036
2816.0,0.006533308885991573
3072.0,-0.0019693179056048393
3328.0,-0.002492750994861126
3584.0,-0.0011835306650027633
3840.0,-0.007124024443328381
4096.0,-0.0012100380845367908
4608.0,0.0007047633407637477
5120.0,0.005664232186973095
5632.0,-0.0028089680708944798
6144.0,-0.008019285276532173
6656.0,0.0028935016598552465
7168.0,0.0038978937081992626
7680.0,0.005781463347375393
8192.0,-0.0026430757716298103
end
