version,3.0
numOfCh,1
type,point
parent_name,19e3e_0dot08-0dot1
ch_type,1_1
kcount,1
numberNandB,1
brightnessNandB,1
carpet pos,0
pc,0
Time (ms),CH1 Auto-Correlation
1.0,0.07575861364603043
2.0,0.07505462318658829
3.0,0.0743904709815979
4.0,0.07374530285596848
5.0,0.07311903685331345
6.0,0.0725347027182579
7.0,0.0719803124666214
8.0,0.07145799696445465
9.0,0.07094987481832504
10.0,0.07043655216693878
11.0,0.06992864608764648
12.0,0.06943684071302414
13.0,0.06897173821926117
14.0,0.06850913166999817
15.0,0.06804688274860382
16.0,0.06761038303375244
18.0,0.06681172549724579
20.0,0.06603124737739563
22.0,0.06528111547231674
24.0,0.06452102959156036
26.0,0.06368537992238998
28.0,0.06287889182567596
30.0,0.06208617985248566
32.0,0.06129458174109459
36.0,0.05965890735387802
40.0,0.05821085348725319
44.0,0.0568196102976799
48.0,0.05541442334651947
52.0,0.05405726283788681
56.0,0.052680645138025284
60.0,0.05126296728849411
64.0,0.04988628253340721
72.0,0.04750281572341919
80.0,0.04535875469446182
88.0,0.043151240795850754
96.0,0.041055381298065186
104.0,0.039592161774635315
112.0,0.03832818567752838
120.0,0.03695445507764816
128.0,0.03560011461377144
144.0,0.03187387064099312
160.0,0.027852138504385948
176.0,0.024120615795254707
192.0,0.020915400236845016
208.0,0.018215062096714973
224.0,0.01621166057884693
240.0,0.014680883847177029
256.0,0.013893243856728077
288.0,0.01149051170796156
320.0,0.009841442108154297
352.0,0.009701120667159557
384.0,0.008305487222969532
416.0,0.005241741426289082
448.0,0.0026454455219209194
480.0,0.0016542135272175074
512.0,0.0008607815834693611
576.0,-0.004052651114761829
640.0,-0.007000976242125034
704.0,-0.008672094903886318
768.0,-0.010766538791358471
832.0,-0.01287868432700634
896.0,-0.012464860454201698
960.0,-0.010942294262349606
1024.0,-0.010445444844663143
1152.0,-0.01672169752418995
1280.0,-0.013784541748464108
1408.0,-0.004545614123344421
1536.0,-0.0004928048001602292
1664.0,0.0018867884064093232
1792.0,0.006169020663946867
1920.0,0.003225184278562665
2048.0,-0.0030494430102407932
2304.0,-0.007037976291030645
2560.0,-0.0006002391455695033
2816.0,-0.0039929491467773914
3072.0,-0.009949315339326859
3328.0,-0.006642032880336046
3584.0,-0.0003727065632119775
3840.0,0.00410047173500061
4096.0,0.014472318813204765
4608.0,0.005266171880066395
5120.0,-0.011167983524501324
5632.0,-0.0022957429755479097
6144.0,-0.007583386730402708
6656.0,-0.006119807716459036
7168.0,0.010390846990048885
7680.0,0.0023181941360235214
8192.0,0.0037304554134607315
end
