version,3.0
numOfCh,1
type,point
parent_name,19e3e_0dot08-0dot1
ch_type,1_1
kcount,1
numberNandB,1
brightnessNandB,1
carpet pos,0
pc,0
Time (ms),CH1 Auto-Correlation
1.0,0.05891316384077072
2.0,0.0583144910633564
3.0,0.05774272233247757
4.0,0.05719295144081116
5.0,0.056640200316905975
6.0,0.05609701946377754
7.0,0.055568061769008636
8.0,0.05504724383354187
9.0,0.05454179644584656
10.0,0.0540502667427063
11.0,0.05357130244374275
12.0,0.05310504510998726
13.0,0.0526435561478138
14.0,0.05219194293022156
15.0,0.05174518749117851
16.0,0.05132515728473663
18.0,0.05046391114592552
20.0,0.04967520758509636
22.0,0.0489211268723011
24.0,0.04816257208585739
26.0,0.047434840351343155
28.0,0.04673668369650841
30.0,0.04605405777692795
32.0,0.04532920569181442
36.0,0.04386981576681137
40.0,0.04246494546532631
44.0,0.04112111032009125
48.0,0.03982999548316002
52.0,0.03861119970679283
56.0,0.03738010674715042
60.0,0.03624508157372475
64.0,0.03512399643659592
72.0,0.033068470656871796
80.0,0.031161166727542877
88.0,0.029240936040878296
96.0,0.027498723939061165
104.0,0.02575603872537613
112.0,0.02415264956653118
120.0,0.02275463379919529
128.0,0.021463880315423012
144.0,0.018843911588191986
160.0,0.016427509486675262
176.0,0.014775470830500126
192.0,0.013802473433315754
208.0,0.01298259012401104
224.0,0.012008166871964931
240.0,0.011044391430914402
256.0,0.010254641994833946
288.0,0.009083660319447517
320.0,0.00915523525327444
352.0,0.008244394324719906
384.0,0.006946357898414135
416.0,0.005445173475891352
448.0,0.004252894315868616
480.0,0.002406262094154954
512.0,0.0012351555051282048
576.0,0.004109613597393036
640.0,0.005597097799181938
704.0,0.0043906657956540585
768.0,0.001162841566838324
832.0,-0.0006881474400870502
896.0,0.0010855242144316435
960.0,0.0012214432936161757
1024.0,0.003797581885010004
1152.0,-0.000678392534609884
1280.0,-0.006462089251726866
1408.0,-0.003663619514554739
1536.0,-0.001313579734414816
1664.0,0.003104102797806263
1792.0,0.0008982543367892504
1920.0,-0.00449339160695672
2048.0,0.00029455425101332366
2304.0,-0.003987759351730347
2560.0,-0.0077112047001719475
2816.0,-0.003212342970073223
3072.0,-0.0041628736071288586
3328.0,-0.008183848112821579
3584.0,-0.006349719595164061
3840.0,0.0019304241286590695
4096.0,-0.0007349876104854047
4608.0,-0.0012163757346570492
5120.0,0.0013871456030756235
5632.0,0.0005522311548702419
6144.0,0.006188992410898209
6656.0,0.007278180215507746
7168.0,-0.0004477120528463274
7680.0,-0.0051956819370388985
8192.0,-0.005853481125086546
end
