version,3.0
numOfCh,1
type,point
parent_name,19e3e_0dot08-0dot1
ch_type,1_1
kcount,1
numberNandB,1
brightnessNandB,1
carpet pos,0
pc,0
Time (ms),CH1 Auto-Correlation
1.0,0.06246931105852127
2.0,0.061780981719493866
3.0,0.06114856153726578
4.0,0.060508716851472855
5.0,0.05989661440253258
6.0,0.05931802839040756
7.0,0.058736734092235565
8.0,0.05815840885043144
9.0,0.05759945511817932
10.0,0.05706460401415825
11.0,0.056561391800642014
12.0,0.05607800930738449
13.0,0.055567968636751175
14.0,0.05508377403020859
15.0,0.05458034202456474
16.0,0.054118022322654724
18.0,0.05319679155945778
20.0,0.05233176425099373
22.0,0.051508013159036636
24.0,0.050730276852846146
26.0,0.050003889948129654
28.0,0.049322377890348434
30.0,0.04870690032839775
32.0,0.048099253326654434
36.0,0.04678742215037346
40.0,0.04544096812605858
44.0,0.04414571821689606
48.0,0.042916372418403625
52.0,0.04182865470647812
56.0,0.04075010493397713
60.0,0.03965005651116371
64.0,0.03862587362527847
72.0,0.03681199997663498
80.0,0.03505254164338112
88.0,0.03340394049882889
96.0,0.03194060176610947
104.0,0.030833778902888298
112.0,0.030034523457288742
120.0,0.02951197884976864
128.0,0.029140042141079903
144.0,0.028953252360224724
160.0,0.02821364253759384
176.0,0.027096480131149292
192.0,0.025906141847372055
208.0,0.024685166776180267
224.0,0.02395542524755001
240.0,0.02369033545255661
256.0,0.023668305948376656
288.0,0.024022210389375687
320.0,0.023844437673687935
352.0,0.023474697023630142
384.0,0.02419007197022438
416.0,0.025763994082808495
448.0,0.026270102709531784
480.0,0.025457093492150307
512.0,0.02412210777401924
576.0,0.021265562623739243
640.0,0.019533753395080566
704.0,0.018284842371940613
768.0,0.015655461698770523
832.0,0.015871254727244377
896.0,0.015776263549923897
960.0,0.012334899976849556
1024.0,0.010277659632265568
1152.0,0.004616305232048035
1280.0,0.0011249289382249117
1408.0,0.0008998513803817332
1536.0,-0.00391216529533267
1664.0,-0.005278212483972311
1792.0,-0.0035887339618057013
1920.0,-0.0031172989401966333
2048.0,-0.006205795332789421
2304.0,-0.0024639670737087727
2560.0,-0.0027132704854011536
2816.0,0.0011090391781181097
3072.0,-0.00042798093636520207
3328.0,-0.0007695380481891334
3584.0,-0.0019354757387191057
3840.0,-0.007190905045717955
4096.0,-0.011245490051805973
4608.0,-0.022174842655658722
5120.0,-0.024263449013233185
5632.0,-0.018739376217126846
6144.0,-0.008696985431015491
6656.0,-0.00033213719143532217
7168.0,0.004979598801583052
7680.0,0.003956668544560671
8192.0,0.003184482455253601
end
