version,3.0
numOfCh,1
type,point
parent_name,19e3e_0dot08-0dot1
ch_type,1_1
kcount,1
numberNandB,1
brightnessNandB,1
carpet pos,0
pc,0
Time (ms),CH1 Auto-Correlation
1.0,0.05987629294395447
2.0,0.0592571496963501
3.0,0.0586484856903553
4.0,0.05803796276450157
5.0,0.057443249970674515
6.0,0.05686354264616966
7.0,0.05630922317504883
8.0,0.05576968565583229
9.0,0.05524732917547226
10.0,0.05473371222615242
11.0,0.054228782653808594
12.0,0.05375606566667557
13.0,0.05329114943742752
14.0,0.052821651101112366
15.0,0.052362799644470215
16.0,0.051902398467063904
18.0,0.051059331744909286
20.0,0.0502767413854599
22.0,0.049559127539396286
24.0,0.04886390268802643
26.0,0.04818572849035263
28.0,0.04752618074417114
30.0,0.046881210058927536
32.0,0.046284906566143036
36.0,0.045082416385412216
40.0,0.04401382431387901
44.0,0.04298314079642296
48.0,0.04196076840162277
52.0,0.040895916521549225
56.0,0.0398382805287838
60.0,0.03877120465040207
64.0,0.037718866020441055
72.0,0.03607923537492752
80.0,0.03465002775192261
88.0,0.033209167420864105
96.0,0.03159967064857483
104.0,0.030104277655482292
112.0,0.02871721237897873
120.0,0.027322806417942047
128.0,0.025983208790421486
144.0,0.023940475657582283
160.0,0.023166561499238014
176.0,0.02300531044602394
192.0,0.022451408207416534
208.0,0.021858833730220795
224.0,0.02084590122103691
240.0,0.019263548776507378
256.0,0.01745785027742386
288.0,0.015098254196345806
320.0,0.012662915512919426
352.0,0.010882426984608173
384.0,0.008256658911705017
416.0,0.0058635203167796135
448.0,0.0048467316664755344
480.0,0.0038529704324901104
512.0,0.0035908787976950407
576.0,0.003048877464607358
640.0,0.0006626810063607991
704.0,-0.0005245300708338618
768.0,0.0011818606872111559
832.0,0.0018772885669022799
896.0,0.0011931812623515725
960.0,0.0016311414074152708
1024.0,0.0019927038811147213
1152.0,0.007214584853500128
1280.0,0.007746913004666567
1408.0,0.005292973481118679
1536.0,0.004282200708985329
1664.0,-0.0008985962485894561
1792.0,-0.0059063327498734
1920.0,-0.006021659355610609
2048.0,-0.007802366744726896
2304.0,-0.005726629868149757
2560.0,-0.00492481142282486
2816.0,-0.004247322678565979
3072.0,-0.010972054675221443
3328.0,-0.013711745850741863
3584.0,-0.005408841650933027
3840.0,-0.0021952525712549686
4096.0,0.0009593299473635852
4608.0,-0.006894864607602358
5120.0,0.004601037595421076
5632.0,-0.001584356534294784
6144.0,0.0003767823800444603
6656.0,0.007237400859594345
7168.0,0.006298359017819166
7680.0,0.007546453736722469
8192.0,-0.003718120278790593
end
