version,3.0
numOfCh,1
type,point
parent_name,19e3e_0dot08-0dot1
ch_type,1_1
kcount,1
numberNandB,1
brightnessNandB,1
carpet pos,0
pc,0
Time (ms),CH1 Auto-Correlation
1.0,0.0656355693936348
2.0,0.0648358091711998
3.0,0.06409173458814621
4.0,0.0634048655629158
5.0,0.06273876875638962
6.0,0.06208713352680206
7.0,0.061505988240242004
8.0,0.06091185659170151
9.0,0.06036071479320526
10.0,0.05980047583580017
11.0,0.059279631823301315
12.0,0.05875476077198982
13.0,0.05824960023164749
14.0,0.057754967361688614
15.0,0.057323306798934937
16.0,0.05689985677599907
18.0,0.05597259849309921
20.0,0.05509592592716217
22.0,0.05423777177929878
24.0,0.05341048911213875
26.0,0.05260381102561951
28.0,0.05180492624640465
30.0,0.051030706614255905
32.0,0.05029068514704704
36.0,0.04877826198935509
40.0,0.047334060072898865
44.0,0.04605398327112198
48.0,0.04484665393829346
52.0,0.043752823024988174
56.0,0.04273715242743492
60.0,0.041626397520303726
64.0,0.040497541427612305
72.0,0.0381610207259655
80.0,0.03600776940584183
88.0,0.034467484802007675
96.0,0.032929498702287674
104.0,0.03154759109020233
112.0,0.030194437131285667
120.0,0.02869158610701561
128.0,0.02755015343427658
144.0,0.02598918415606022
160.0,0.024568986147642136
176.0,0.023142937570810318
192.0,0.02229987643659115
208.0,0.021618634462356567
224.0,0.02068747580051422
240.0,0.019857188686728477
256.0,0.018529295921325684
288.0,0.013936297036707401
320.0,0.011084850877523422
352.0,0.010525418445467949
384.0,0.010758800432085991
416.0,0.00934220664203167
448.0,0.006420123856514692
480.0,0.004095916170626879
512.0,0.0017810018034651875
576.0,-0.000791219063103199
640.0,-0.0014664845075458288
704.0,-0.0007258866098709404
768.0,-0.000809613848105073
832.0,-0.0035762067418545485
896.0,-0.005524171981960535
960.0,-0.007342380005866289
1024.0,-0.008703929372131824
1152.0,-0.005333118140697479
1280.0,-0.007109302096068859
1408.0,-0.01089799590408802
1536.0,-0.01171742845326662
1664.0,-0.012867078185081482
1792.0,-0.012606071308255196
1920.0,-0.010392549447715282
2048.0,-0.009838785044848919
2304.0,-0.017293386161327362
2560.0,-0.013804399408400059
2816.0,0.0025530559942126274
3072.0,0.007828674279153347
3328.0,0.012259881012141705
3584.0,0.006853905040770769
3840.0,0.008749348111450672
4096.0,0.008150105364620686
4608.0,0.005610563326627016
5120.0,-0.0028911179397255182
5632.0,-0.0039400444366037846
6144.0,-0.002901808125898242
6656.0,-0.000989129301160574
7168.0,-0.005602933932095766
7680.0,0.007524651940912008
8192.0,-0.008519897237420082
end
