version,3.0
numOfCh,1
type,point
parent_name,19e3e_0dot08-0dot1
ch_type,1_1
kcount,1
numberNandB,1
brightnessNandB,1
carpet pos,0
pc,0
Time (ms),CH1 Auto-Correlation
1.0,0.06274563819169998
2.0,0.06220405548810959
3.0,0.06167275086045265
4.0,0.061147067695856094
5.0,0.060633692890405655
6.0,0.060133494436740875
7.0,0.05960826948285103
8.0,0.059096816927194595
9.0,0.058606699109077454
10.0,0.0581197626888752
11.0,0.057635702192783356
12.0,0.05715998262166977
13.0,0.056692421436309814
14.0,0.056244198232889175
15.0,0.05578772723674774
16.0,0.05533195659518242
18.0,0.05447838082909584
20.0,0.05364210158586502
22.0,0.05281412601470947
24.0,0.052031390368938446
26.0,0.05127597972750664
28.0,0.050543587654829025
30.0,0.04984734207391739
32.0,0.049168940633535385
36.0,0.04794570803642273
40.0,0.046842534095048904
44.0,0.045867349952459335
48.0,0.04490644857287407
52.0,0.04398748651146889
56.0,0.043108150362968445
60.0,0.04210052639245987
64.0,0.04101982340216637
72.0,0.039074838161468506
80.0,0.037457358092069626
88.0,0.035967275500297546
96.0,0.03457874432206154
104.0,0.03335146978497505
112.0,0.032172176986932755
120.0,0.031022630631923676
128.0,0.030101777985692024
144.0,0.028610961511731148
160.0,0.02736450545489788
176.0,0.02637917548418045
192.0,0.02573903277516365
208.0,0.024909229949116707
224.0,0.02368748188018799
240.0,0.02284081280231476
256.0,0.02237865887582302
288.0,0.02239263243973255
320.0,0.021680621430277824
352.0,0.021363187581300735
384.0,0.02027077041566372
416.0,0.0188406091183424
448.0,0.017665542662143707
480.0,0.01614227332174778
512.0,0.015942392870783806
576.0,0.016247859224677086
640.0,0.015545566566288471
704.0,0.013924826867878437
768.0,0.013328091241419315
832.0,0.011294589377939701
896.0,0.0075138891115784645
960.0,0.0057450770400464535
1024.0,0.007669424172490835
1152.0,0.007515767123550177
1280.0,-0.0018755013588815928
1408.0,-0.008532932959496975
1536.0,-0.006348056718707085
1664.0,-0.007583747152239084
1792.0,-0.0071127586998045444
1920.0,-0.006103116553276777
2048.0,-0.008236289024353027
2304.0,-0.0028499991167336702
2560.0,0.002231261460110545
2816.0,0.007036940660327673
3072.0,0.00473574735224247
3328.0,0.002475176239386201
3584.0,0.005400438327342272
3840.0,0.006520387250930071
4096.0,-0.0010630256729200482
4608.0,-0.0003501104947645217
5120.0,-0.0032561644911766052
5632.0,0.005183719098567963
6144.0,-0.0012556519359350204
6656.0,-0.0045721628703176975
7168.0,-0.012282098643481731
7680.0,-0.017316430807113647
8192.0,-0.0195405762642622
end
