version,3.0
numOfCh,1
type,point
parent_name,19e3e_0dot08-0dot1
ch_type,1_1
kcount,1
numberNandB,1
brightnessNandB,1
carpet pos,0
pc,0
Time (ms),CH1 Auto-Correlation
1.0,0.08573954552412033
2.0,0.08513271808624268
3.0,0.08454222232103348
4.0,0.08397700637578964
5.0,0.0834268182516098
6.0,0.08287274092435837
7.0,0.08233505487442017
8.0,0.08183227479457855
9.0,0.0813216045498848
10.0,0.08079279959201813
11.0,0.08028417080640793
12.0,0.0797748938202858
13.0,0.07927317172288895
14.0,0.07875034213066101
15.0,0.07823793590068817
16.0,0.07775746285915375
18.0,0.07683277130126953
20.0,0.07593213021755219
22.0,0.07506046444177628
24.0,0.07417894154787064
26.0,0.07328873872756958
28.0,0.07243888080120087
30.0,0.07159115374088287
32.0,0.07074131816625595
36.0,0.06914425641298294
40.0,0.06766599416732788
44.0,0.06624531000852585
48.0,0.06486764550209045
52.0,0.06358516216278076
56.0,0.06237605959177017
60.0,0.06126685068011284
64.0,0.0601617768406868
72.0,0.057682428508996964
80.0,0.055496763437986374
88.0,0.05357908457517624
96.0,0.051362548023462296
104.0,0.048926129937171936
112.0,0.0467873215675354
120.0,0.044967494904994965
128.0,0.0432596318423748
144.0,0.040169063955545425
160.0,0.0374247245490551
176.0,0.03488742932677269
192.0,0.03248786926269531
208.0,0.031137777492403984
224.0,0.030396156013011932
240.0,0.029364431276917458
256.0,0.02804868295788765
288.0,0.025950156152248383
320.0,0.02342281863093376
352.0,0.021206162869930267
384.0,0.018743526190519333
416.0,0.015715399757027626
448.0,0.0135654266923666
480.0,0.012514068745076656
512.0,0.012339196167886257
576.0,0.00914085004478693
640.0,0.004203811287879944
704.0,-0.0009196948376484215
768.0,-0.003950370475649834
832.0,-0.005557752214372158
896.0,-0.005603461991995573
960.0,-0.007043319754302502
1024.0,-0.010721824131906033
1152.0,-0.015526887960731983
1280.0,-0.014406641945242882
1408.0,-0.019646691158413887
1536.0,-0.021198514848947525
1664.0,-0.016992179676890373
1792.0,-0.012274299748241901
1920.0,-0.003917687572538853
2048.0,-0.0025582509115338326
2304.0,0.00036504928721114993
2560.0,0.0027030392084270716
2816.0,0.003284021746367216
3072.0,0.007907602936029434
3328.0,0.004716928116977215
3584.0,-0.0009080231538973749
3840.0,-0.0006595932063646615
4096.0,-0.006035699974745512
4608.0,-0.012261428870260715
5120.0,-0.00809731986373663
5632.0,-0.0010652246419340372
6144.0,-0.007174589671194553
6656.0,0.000249129137955606
7168.0,0.023084329441189766
7680.0,0.02584545500576496
8192.0,-0.0028287419117987156
end
