version,3.0
numOfCh,1
type,point
parent_name,19e3e_0dot08-0dot1
ch_type,1_1
kcount,1
numberNandB,1
brightnessNandB,1
carpet pos,0
pc,0
Time (ms),CH1 Auto-Correlation
1.0,0.07125174254179001
2.0,0.07040861994028091
3.0,0.06962929666042328
4.0,0.06888629496097565
5.0,0.06820390373468399
6.0,0.06752536445856094
7.0,0.06684955954551697
8.0,0.06618911772966385
9.0,0.06555630266666412
10.0,0.06494545936584473
11.0,0.06433974206447601
12.0,0.06374173611402512
13.0,0.06317874044179916
14.0,0.06260895729064941
15.0,0.062076546251773834
16.0,0.06154341250658035
18.0,0.06052662059664726
20.0,0.05956704169511795
22.0,0.05859983712434769
24.0,0.057724762707948685
26.0,0.05686572566628456
28.0,0.056029628962278366
30.0,0.05524890497326851
32.0,0.054490212351083755
36.0,0.05328044667840004
40.0,0.05232619121670723
44.0,0.05136584863066673
48.0,0.050362519919872284
52.0,0.04944701865315437
56.0,0.048521511256694794
60.0,0.04759158194065094
64.0,0.046718746423721313
72.0,0.04511886090040207
80.0,0.043910570442676544
88.0,0.042665254324674606
96.0,0.04165167734026909
104.0,0.04048473387956619
112.0,0.03930826485157013
120.0,0.03838936984539032
128.0,0.0374501533806324
144.0,0.03557071462273598
160.0,0.03326038643717766
176.0,0.03062923066318035
192.0,0.02892754226922989
208.0,0.027608755975961685
224.0,0.02592950500547886
240.0,0.024472517892718315
256.0,0.023266972973942757
288.0,0.021518055349588394
320.0,0.01987200230360031
352.0,0.01988893933594227
384.0,0.020230986177921295
416.0,0.02032298594713211
448.0,0.019485920667648315
480.0,0.019234132021665573
512.0,0.019525902345776558
576.0,0.017280079424381256
640.0,0.008655442856252193
704.0,0.0011295619187876582
768.0,-0.000943298393394798
832.0,-0.002622725209221244
896.0,-0.0032732952386140823
960.0,-0.003111716592684388
1024.0,-0.0026196553371846676
1152.0,-0.0006662881933152676
1280.0,-0.0063296835869550705
1408.0,-0.006354026962071657
1536.0,-0.0011877730721607804
1664.0,0.004480736795812845
1792.0,0.004697195719927549
1920.0,0.0044365692883729935
2048.0,0.004991124849766493
2304.0,0.008598187007009983
2560.0,0.008080780506134033
2816.0,0.010159263387322426
3072.0,0.010059546679258347
3328.0,0.005532154813408852
3584.0,-0.003233089577406645
3840.0,-0.005454316269606352
4096.0,-0.005407671444118023
4608.0,0.004728998523205519
5120.0,0.0016988879069685936
5632.0,-0.008770914748311043
6144.0,-0.0030870698392391205
6656.0,0.000905023654922843
7168.0,0.0031065926887094975
7680.0,0.004304884001612663
8192.0,-0.0128139927983284
end
