version,3.0
numOfCh,1
type,point
parent_name,19e3e_0dot08-0dot1
ch_type,1_1
kcount,1
numberNandB,1
brightnessNandB,1
carpet pos,0
pc,0
Time (ms),CH1 Auto-Correlation
1.0,0.07977069169282913
2.0,0.07915616780519485
3.0,0.0785931944847107
4.0,0.07802999764680862
5.0,0.07749634236097336
6.0,0.07696004956960678
7.0,0.07641377300024033
8.0,0.0758843868970871
9.0,0.07535351067781448
10.0,0.0748375952243805
11.0,0.07431982457637787
12.0,0.07382688671350479
13.0,0.07336749136447906
14.0,0.0729115754365921
15.0,0.07246808707714081
16.0,0.0720234364271164
18.0,0.07116333395242691
20.0,0.07030535489320755
22.0,0.06947487592697144
24.0,0.0686902403831482
26.0,0.06788632273674011
28.0,0.06714165210723877
30.0,0.06639371812343597
32.0,0.06564559042453766
36.0,0.06421323865652084
40.0,0.06274651736021042
44.0,0.06137356534600258
48.0,0.060024816542863846
52.0,0.058738064020872116
56.0,0.0575987733900547
60.0,0.0565825030207634
64.0,0.05567486956715584
72.0,0.05413245037198067
80.0,0.05266151577234268
88.0,0.051582589745521545
96.0,0.05071511119604111
104.0,0.049835581332445145
112.0,0.048757825046777725
120.0,0.047870490700006485
128.0,0.04693540185689926
144.0,0.04514583945274353
160.0,0.04337775707244873
176.0,0.04176635667681694
192.0,0.04089674353599548
208.0,0.04050436243414879
224.0,0.03966645151376724
240.0,0.038300372660160065
256.0,0.036682479083538055
288.0,0.03373776748776436
320.0,0.03201858326792717
352.0,0.030964713543653488
384.0,0.029514331370592117
416.0,0.027383888140320778
448.0,0.025176173076033592
480.0,0.02264365740120411
512.0,0.020252488553524017
576.0,0.018231868743896484
640.0,0.016087306663393974
704.0,0.01514409203082323
768.0,0.014266954734921455
832.0,0.012189988046884537
896.0,0.007051768712699413
960.0,0.0034694864880293608
1024.0,0.0013775053666904569
1152.0,0.0003439504071138799
1280.0,-0.000579464714974165
1408.0,-0.0033840450923889875
1536.0,-0.002357500372454524
1664.0,-0.0009128809324465692
1792.0,0.001411937060765922
1920.0,0.0022214872296899557
2048.0,0.00412016361951828
2304.0,0.002108974615111947
2560.0,0.0013796791899949312
2816.0,0.0007792640244588256
3072.0,-0.007269967347383499
3328.0,-0.015387280844151974
3584.0,-0.021222854033112526
3840.0,-0.0258331336081028
4096.0,-0.02761719562113285
4608.0,-0.017733359709382057
5120.0,-0.0021069368813186884
5632.0,-0.005492510739713907
6144.0,-0.0066141351126134396
6656.0,-0.005963530857115984
7168.0,0.007856655865907669
7680.0,0.017290154471993446
8192.0,0.015623440966010094
end
