version,3.0
numOfCh,1
type,point
parent_name,19e3e_0dot08-0dot1
ch_type,1_1
kcount,1
numberNandB,1
brightnessNandB,1
carpet pos,0
pc,0
Time (ms),CH1 Auto-Correlation
1.0,0.06225493177771568
2.0,0.061774302273988724
3.0,0.06130458042025566
4.0,0.060836952179670334
5.0,0.06039107218384743
6.0,0.05994734540581703
7.0,0.059508636593818665
8.0,0.05907943472266197
9.0,0.05865607038140297
10.0,0.05824117362499237
11.0,0.05782937631011009
12.0,0.05742840841412544
13.0,0.05701499432325363
14.0,0.05663419887423515
15.0,0.056242313235998154
16.0,0.05585832521319389
18.0,0.0550948791205883
20.0,0.05434950813651085
22.0,0.05364188551902771
24.0,0.052957117557525635
26.0,0.05230392888188362
28.0,0.051666297018527985
30.0,0.051044315099716187
32.0,0.05045090988278389
36.0,0.049315664917230606
40.0,0.04826285317540169
44.0,0.047295618802309036
48.0,0.0463884137570858
52.0,0.04546346142888069
56.0,0.04461267963051796
60.0,0.043848272413015366
64.0,0.04308119788765907
72.0,0.04141821712255478
80.0,0.039823658764362335
88.0,0.03816903382539749
96.0,0.03651014715433121
104.0,0.03483545035123825
112.0,0.033301763236522675
120.0,0.03198481723666191
128.0,0.03089507855474949
144.0,0.028498101979494095
160.0,0.02597424015402794
176.0,0.02367817983031273
192.0,0.021807096898555756
208.0,0.020392142236232758
224.0,0.019275130704045296
240.0,0.017959000542759895
256.0,0.016930950805544853
288.0,0.015993766486644745
320.0,0.014797544106841087
352.0,0.013796450570225716
384.0,0.012935264967381954
416.0,0.010984108783304691
448.0,0.008410989306867123
480.0,0.007213003933429718
512.0,0.006784379016608
576.0,0.007769211195409298
640.0,0.009393741376698017
704.0,0.011292172595858574
768.0,0.011479844339191914
832.0,0.01069492194801569
896.0,0.010717177763581276
960.0,0.010961944237351418
1024.0,0.010070748627185822
1152.0,0.009282651357352734
1280.0,0.00910062063485384
1408.0,0.005663770250976086
1536.0,0.00357494642958045
1664.0,0.0023868416901677847
1792.0,-0.0011010837042704225
1920.0,0.0032837861217558384
2048.0,0.007963433861732483
2304.0,0.013038964942097664
2560.0,0.010115522891283035
2816.0,0.008116324432194233
3072.0,0.004761496093124151
3328.0,0.0013111031148582697
3584.0,0.0006786453304812312
3840.0,-0.008041707798838615
4096.0,-0.00696598133072257
4608.0,0.0018791735637933016
5120.0,0.0019566465634852648
5632.0,-0.0029389436822384596
6144.0,-0.008010664954781532
6656.0,-0.009123852476477623
7168.0,-0.003010232001543045
7680.0,-0.0012523471377789974
8192.0,-0.003510721493512392
end
