version,3.0
numOfCh,1
type,point
parent_name,19e3e_0dot08-0dot1
ch_type,1_1
kcount,1
numberNandB,1
brightnessNandB,1
carpet pos,0
pc,0
Time (ms),CH1 Auto-Correlation
1.0,0.0612046904861927
2.0,0.06039831414818764
3.0,0.05962331220507622
4.0,0.05889720469713211
5.0,0.058218564838171005
6.0,0.05754604935646057
7.0,0.05687359347939491
8.0,0.05620799586176872
9.0,0.05554892122745514
10.0,0.05490444600582123
11.0,0.05427592247724533
12.0,0.053695134818553925
13.0,0.053164467215538025
14.0,0.05265403166413307
15.0,0.05213239789009094
16.0,0.05164081230759621
18.0,0.05069269612431526
20.0,0.04975169152021408
22.0,0.048870161175727844
24.0,0.048022910952568054
26.0,0.04718705266714096
28.0,0.04628270864486694
30.0,0.04534643888473511
32.0,0.04445229470729828
36.0,0.04276897385716438
40.0,0.04112644121050835
44.0,0.039594635367393494
48.0,0.03813039883971214
52.0,0.03686520829796791
56.0,0.035814329981803894
60.0,0.03489166870713234
64.0,0.034055788069963455
72.0,0.03247585892677307
80.0,0.031075719743967056
88.0,0.02982616052031517
96.0,0.028982261195778847
104.0,0.028233932331204414
112.0,0.027359191328287125
120.0,0.02642333321273327
128.0,0.02549499273300171
144.0,0.02345404587686062
160.0,0.021660134196281433
176.0,0.019918125122785568
192.0,0.018376734107732773
208.0,0.016482481732964516
224.0,0.014824874699115753
240.0,0.012642323970794678
256.0,0.010634870268404484
288.0,0.0070729185827076435
320.0,0.00588670838624239
352.0,0.0048304894007742405
384.0,0.0033570851664990187
416.0,0.002201672177761793
448.0,0.0009995343862101436
480.0,0.00036232025013305247
512.0,-7.890404958743602e-05
576.0,-0.0023223820608109236
640.0,-0.002699864562600851
704.0,-0.0022372500970959663
768.0,0.0014180665602907538
832.0,0.0021970279049128294
896.0,0.002725916216149926
960.0,-0.001430732081644237
1024.0,-0.00458173593506217
1152.0,-0.0028226657304912806
1280.0,0.002822898793965578
1408.0,0.0015445251483470201
1536.0,0.0015789419412612915
1664.0,0.0008933027274906635
1792.0,-0.005302324891090393
1920.0,-0.01080908440053463
2048.0,-0.013322136364877224
2304.0,-0.017961829900741577
2560.0,-0.011134784668684006
2816.0,-0.00574582489207387
3072.0,0.0025491835549473763
3328.0,0.008424208499491215
3584.0,-0.006727610249072313
3840.0,-0.007339571602642536
4096.0,-0.005406184121966362
4608.0,0.015307868830859661
5120.0,0.007344875019043684
5632.0,0.001039639813825488
6144.0,0.006485233549028635
6656.0,0.00013259350089356303
7168.0,-0.017852801829576492
7680.0,-0.0036558485589921474
8192.0,-0.006467447616159916
end
