version,3.0
numOfCh,1
type,point
parent_name,19e3e_0dot08-0dot1
ch_type,1_1
kcount,1
numberNandB,1
brightnessNandB,1
carpet pos,0
pc,0
Time (ms),CH1 Auto-Correlation
1.0,0.06549013406038284
2.0,0.06477130204439163
3.0,0.06406836956739426
4.0,0.06341887265443802
5.0,0.06279720366001129
6.0,0.06220603734254837
7.0,0.061624038964509964
8.0,0.061056192964315414
9.0,0.06053200736641884
10.0,0.060014545917510986
11.0,0.05950754135847092
12.0,0.058982107788324356
13.0,0.058492548763751984
14.0,0.057996295392513275
15.0,0.057526640594005585
16.0,0.057066407054662704
18.0,0.05611482635140419
20.0,0.05519430711865425
22.0,0.054255880415439606
24.0,0.053328633308410645
26.0,0.0524764209985733
28.0,0.051696907728910446
30.0,0.050895772874355316
32.0,0.050102461129426956
36.0,0.04847778379917145
40.0,0.04686000943183899
44.0,0.045309893786907196
48.0,0.04367903992533684
52.0,0.04214265197515488
56.0,0.04061669856309891
60.0,0.03910423070192337
64.0,0.03761548921465874
72.0,0.03499747812747955
80.0,0.032639529556035995
88.0,0.030275246128439903
96.0,0.02809196524322033
104.0,0.026047397404909134
112.0,0.024334220215678215
120.0,0.022841840982437134
128.0,0.02164025604724884
144.0,0.019389666616916656
160.0,0.01792048290371895
176.0,0.01661522500216961
192.0,0.01591474562883377
208.0,0.015687478706240654
224.0,0.015336497686803341
240.0,0.015422482043504715
256.0,0.015434387139976025
288.0,0.014612159691751003
320.0,0.01379393134266138
352.0,0.012179888784885406
384.0,0.010381623171269894
416.0,0.009066691622138023
448.0,0.008399838581681252
480.0,0.00726592680439353
512.0,0.005753383040428162
576.0,0.0027511538937687874
640.0,0.002602524124085903
704.0,0.0021395054645836353
768.0,0.0013926696265116334
832.0,0.001628237310796976
896.0,-0.002321802079677582
960.0,-0.0051652900874614716
1024.0,-0.007138484623283148
1152.0,-0.005942736752331257
1280.0,0.0021419443655759096
1408.0,-0.000422501441789791
1536.0,0.0002083904983010143
1664.0,-0.002369127469137311
1792.0,-0.0007249244372360408
1920.0,0.0036989625077694654
2048.0,0.0025260138791054487
2304.0,-0.003214114811271429
2560.0,-0.004003835842013359
2816.0,0.007041293662041426
3072.0,0.009712357074022293
3328.0,0.001530504203401506
3584.0,-0.0016379280714318156
3840.0,-0.010055526159703732
4096.0,-0.007228422444313765
4608.0,-0.013138719834387302
5120.0,-0.009492096491158009
5632.0,-0.007849473506212234
6144.0,-0.0005387203418649733
6656.0,-0.00250104907900095
7168.0,-0.011237382888793945
7680.0,-0.010800760239362717
8192.0,-0.003285908605903387
end
