version,3.0
numOfCh,1
type,point
parent_name,19e3e_0dot08-0dot1
ch_type,1_1
kcount,1
numberNandB,1
brightnessNandB,1
carpet pos,0
pc,0
Time (ms),CH1 Auto-Correlation
1.0,0.053209587931632996
2.0,0.052550625056028366
3.0,0.05191747844219208
4.0,0.05133969709277153
5.0,0.05076625198125839
6.0,0.05022615194320679
7.0,0.049720779061317444
8.0,0.04922507330775261
9.0,0.04873649403452873
10.0,0.04827091097831726
11.0,0.04784683510661125
12.0,0.04742618277668953
13.0,0.047008927911520004
14.0,0.04656554386019707
15.0,0.04616548493504524
16.0,0.045793063938617706
18.0,0.04508698731660843
20.0,0.04440900683403015
22.0,0.043740686029195786
24.0,0.04309144616127014
26.0,0.04239968955516815
28.0,0.041761547327041626
30.0,0.04117849841713905
32.0,0.0405767597258091
36.0,0.03943461924791336
40.0,0.03831113502383232
44.0,0.03727297484874725
48.0,0.03618304803967476
52.0,0.03514480963349342
56.0,0.034089598804712296
60.0,0.033069394528865814
64.0,0.03211212903261185
72.0,0.0302361361682415
80.0,0.028473228216171265
88.0,0.02685093693435192
96.0,0.025136254727840424
104.0,0.02347235009074211
112.0,0.02192053012549877
120.0,0.02057441510260105
128.0,0.01917949505150318
144.0,0.01701703853905201
160.0,0.01525028795003891
176.0,0.01436912827193737
192.0,0.013861274346709251
208.0,0.013512401841580868
224.0,0.01301254890859127
240.0,0.012617334723472595
256.0,0.012284116819500923
288.0,0.010833059437572956
320.0,0.009787031449377537
352.0,0.008479297161102295
384.0,0.007681742310523987
416.0,0.007670504041016102
448.0,0.006166120991110802
480.0,0.004790171980857849
512.0,0.0033703527878969908
576.0,-0.0006486836355179548
640.0,-0.0023280782625079155
704.0,-0.0025928951799869537
768.0,-0.0018882256699725986
832.0,-0.0013193698832765222
896.0,-0.0014537943061441183
960.0,-0.005439372267574072
1024.0,-0.006362943910062313
1152.0,-0.003992592450231314
1280.0,-0.0024690269492566586
1408.0,-0.0023947872687131166
1536.0,0.001324139884673059
1664.0,0.002520232927054167
1792.0,0.006265073083341122
1920.0,0.006369778420776129
2048.0,0.0039050974883139133
2304.0,-0.00270629720762372
2560.0,0.0027745445258915424
2816.0,0.0010617602383717895
3072.0,-0.002275055041536689
3328.0,0.0015315402997657657
3584.0,-0.0006721765385009348
3840.0,0.0009124932112172246
4096.0,-0.004183238372206688
4608.0,-0.002610736759379506
5120.0,0.005365217570215464
5632.0,0.005686926655471325
6144.0,-0.007472680415958166
6656.0,-0.0005241697072051466
7168.0,-0.0005547501496039331
7680.0,-0.0049461969174444675
8192.0,-0.012128429487347603
end
