version,3.0
numOfCh,1
type,point
parent_name,19e3e_0dot08-0dot1
ch_type,1_1
kcount,1
numberNandB,1
brightnessNandB,1
carpet pos,0
pc,0
Time (ms),CH1 Auto-Correlation
1.0,0.077212393283844
2.0,0.07653907686471939
3.0,0.07588876038789749
4.0,0.07528127729892731
5.0,0.07468530535697937
6.0,0.07409166544675827
7.0,0.07352549582719803
8.0,0.07294560968875885
9.0,0.07237784564495087
10.0,0.07180862128734589
11.0,0.07126054167747498
12.0,0.07070683687925339
13.0,0.07018060982227325
14.0,0.06966377794742584
15.0,0.06916238367557526
16.0,0.0686519667506218
18.0,0.06765445321798325
20.0,0.06670936942100525
22.0,0.0657496228814125
24.0,0.06480644643306732
26.0,0.06391081213951111
28.0,0.06299994885921478
30.0,0.062136195600032806
32.0,0.06133599951863289
36.0,0.059836048632860184
40.0,0.05835540592670441
44.0,0.05683990195393562
48.0,0.0553935207426548
52.0,0.05417482927441597
56.0,0.05309170484542847
60.0,0.05207875743508339
64.0,0.051044341176748276
72.0,0.04901986941695213
80.0,0.0471513457596302
88.0,0.04570163041353226
96.0,0.044171061366796494
104.0,0.04260695353150368
112.0,0.04128402844071388
120.0,0.04024814814329147
128.0,0.03909796103835106
144.0,0.036086682230234146
160.0,0.03324396163225174
176.0,0.030638113617897034
192.0,0.028251102194190025
208.0,0.026631660759449005
224.0,0.025643309578299522
240.0,0.023771921172738075
256.0,0.02229279838502407
288.0,0.0215052030980587
320.0,0.020214855670928955
352.0,0.017854468896985054
384.0,0.014636848121881485
416.0,0.011343613266944885
448.0,0.007035775110125542
480.0,0.002126203151419759
512.0,-0.002662574639543891
576.0,-0.008548480458557606
640.0,-0.013332393951714039
704.0,-0.01609819009900093
768.0,-0.01689305156469345
832.0,-0.014460698701441288
896.0,-0.011477813124656677
960.0,-0.0074711330235004425
1024.0,-0.009041788056492805
1152.0,-0.00627418328076601
1280.0,-0.0006433200323954225
1408.0,0.0011349860578775406
1536.0,-0.00019889249233528972
1664.0,-0.0015044801402837038
1792.0,-0.0015143625205382705
1920.0,7.752030796837062e-06
2048.0,0.002399067161604762
2304.0,0.007456636056303978
2560.0,-0.0037750969640910625
2816.0,-0.009213920682668686
3072.0,-0.016328291967511177
3328.0,-0.00818548072129488
3584.0,0.0003810149501077831
3840.0,0.0007841597544029355
4096.0,0.001333385705947876
4608.0,0.007343753706663847
5120.0,-0.0025903841014951468
5632.0,-0.007346448954194784
6144.0,-0.0009538409649394453
6656.0,0.0059692589566111565
7168.0,0.010856512933969498
7680.0,-0.01343719381839037
8192.0,-0.02207467146217823
end
