version,3.0
numOfCh,1
type,point
parent_name,19e3e_0dot08-0dot1
ch_type,1_1
kcount,1
numberNandB,1
brightnessNandB,1
carpet pos,0
pc,0
Time (ms),CH1 Auto-Correlation
1.0,0.05728109925985336
2.0,0.05668334662914276
3.0,0.05611172690987587
4.0,0.055567141622304916
5.0,0.05501896142959595
6.0,0.054473843425512314
7.0,0.05392514169216156
8.0,0.053413476794958115
9.0,0.05291870981454849
10.0,0.0524275079369545
11.0,0.05191652104258537
12.0,0.051406316459178925
13.0,0.0509028285741806
14.0,0.05039645731449127
15.0,0.04988711699843407
16.0,0.04938140884041786
18.0,0.04839709773659706
20.0,0.04743751138448715
22.0,0.04650523141026497
24.0,0.04560110345482826
26.0,0.04475251957774162
28.0,0.04389934241771698
30.0,0.04304075986146927
32.0,0.042237307876348495
36.0,0.04066188260912895
40.0,0.03919607028365135
44.0,0.0378296785056591
48.0,0.036603450775146484
52.0,0.03547176346182823
56.0,0.03438327834010124
60.0,0.03337623178958893
64.0,0.032397083938121796
72.0,0.030556797981262207
80.0,0.028947588056325912
88.0,0.027436526492238045
96.0,0.025712614879012108
104.0,0.023932423442602158
112.0,0.022372998297214508
120.0,0.021084485575556755
128.0,0.020066166296601295
144.0,0.018787359818816185
160.0,0.01817427948117256
176.0,0.01789482682943344
192.0,0.017580579966306686
208.0,0.017089342698454857
224.0,0.016846902668476105
240.0,0.016144372522830963
256.0,0.014914160594344139
288.0,0.011178066022694111
320.0,0.008683710359036922
352.0,0.006750678177922964
384.0,0.005085335113108158
416.0,0.004948161076754332
448.0,0.004315955098718405
480.0,0.0026735945139080286
512.0,0.0013703490840271115
576.0,0.0021711327135562897
640.0,0.003967559430748224
704.0,0.004511845298111439
768.0,0.0026302854530513287
832.0,0.003327728481963277
896.0,0.004815342370420694
960.0,0.0022709814365953207
1024.0,0.0019435875583440065
1152.0,0.0026299175806343555
1280.0,0.004086555913090706
1408.0,0.0052871075458824635
1536.0,0.005928836762905121
1664.0,0.0048317257314920425
1792.0,0.000750958570279181
1920.0,0.0009180917404592037
2048.0,0.00031020911410450935
2304.0,0.0009987886296585202
2560.0,0.003415780607610941
2816.0,0.003198547987267375
3072.0,0.005643831565976143
3328.0,0.0069501204416155815
3584.0,0.0032507898285984993
3840.0,0.0030555264092981815
4096.0,-0.004942439496517181
4608.0,0.001548915053717792
5120.0,-0.001153942197561264
5632.0,0.003639718983322382
6144.0,-0.0014817689079791307
6656.0,-0.007267116568982601
7168.0,-0.0032723024487495422
7680.0,-0.009194983169436455
8192.0,-0.004281141329556704
end
