version,3.0
numOfCh,1
type,point
parent_name,19e3e_0dot08-0dot1
ch_type,1_1
kcount,1
numberNandB,1
brightnessNandB,1
carpet pos,0
pc,0
Time (ms),CH1 Auto-Correlation
1.0,0.0577658973634243
2.0,0.0572495199739933
3.0,0.05674636736512184
4.0,0.056259606033563614
5.0,0.05579725280404091
6.0,0.05535470321774483
7.0,0.054917145520448685
8.0,0.05448064208030701
9.0,0.05404997617006302
10.0,0.05361977592110634
11.0,0.05319823697209358
12.0,0.05278725549578667
13.0,0.052367258816957474
14.0,0.05195068567991257
15.0,0.05154915899038315
16.0,0.05115154758095741
18.0,0.050361573696136475
20.0,0.04959060996770859
22.0,0.04883435741066933
24.0,0.04809998348355293
26.0,0.04737020656466484
28.0,0.04665897414088249
30.0,0.04595636576414108
32.0,0.045287929475307465
36.0,0.04402982443571091
40.0,0.04290067031979561
44.0,0.041826583445072174
48.0,0.04068795219063759
52.0,0.03948269784450531
56.0,0.03827851638197899
60.0,0.03709268569946289
64.0,0.03596213832497597
72.0,0.03402332216501236
80.0,0.032199274748563766
88.0,0.03065517358481884
96.0,0.029227182269096375
104.0,0.02770836465060711
112.0,0.026213956996798515
120.0,0.024896230548620224
128.0,0.023715147748589516
144.0,0.021594900637865067
160.0,0.01944522000849247
176.0,0.01726311631500721
192.0,0.015153517946600914
208.0,0.012954945676028728
224.0,0.010985438711941242
240.0,0.0094533646479249
256.0,0.00821322575211525
288.0,0.005545380525290966
320.0,0.004636143799871206
352.0,0.005102802067995071
384.0,0.005278461612761021
416.0,0.0050015938468277454
448.0,0.003426661714911461
480.0,0.002684732200577855
512.0,0.001734442892484367
576.0,-0.00020996770763304085
640.0,-0.0025070656556636095
704.0,-0.002181119052693248
768.0,-0.002091227099299431
832.0,-0.0002923862193711102
896.0,0.0025188543368130922
960.0,0.0026967041194438934
1024.0,0.0035230875946581364
1152.0,0.007451676297932863
1280.0,0.005242283456027508
1408.0,0.0014820938231423497
1536.0,-0.0005589274223893881
1664.0,-0.0030932279769331217
1792.0,-0.00017723155906423926
1920.0,0.003973845392465591
2048.0,0.0033390112221240997
2304.0,0.006389221642166376
2560.0,0.0011179125867784023
2816.0,-0.002650150330737233
3072.0,-0.008032186888158321
3328.0,-0.008600382134318352
3584.0,0.0014827072154730558
3840.0,-0.006323713809251785
4096.0,0.0004120214143767953
4608.0,-0.0005779549246653914
5120.0,-0.006581123452633619
5632.0,-0.0028976788744330406
6144.0,-0.0014045522548258305
6656.0,-0.0031317381653934717
7168.0,-0.0031287348829209805
7680.0,0.0025235090870410204
8192.0,0.007027326617389917
end
