version,3.0
numOfCh,1
type,point
parent_name,19e3e_0dot08-0dot1
ch_type,1_1
kcount,1
numberNandB,1
brightnessNandB,1
carpet pos,0
pc,0
Time (ms),CH1 Auto-Correlation
1.0,0.0702126994729042
2.0,0.06930974125862122
3.0,0.06850637495517731
4.0,0.06773312389850616
5.0,0.06695714592933655
6.0,0.06619996577501297
7.0,0.06547338515520096
8.0,0.0647692009806633
9.0,0.06409548968076706
10.0,0.06343371421098709
11.0,0.0627959668636322
12.0,0.06220854073762894
13.0,0.06159239262342453
14.0,0.060994863510131836
15.0,0.06042225658893585
16.0,0.059868842363357544
18.0,0.05880703032016754
20.0,0.057868026196956635
22.0,0.05700434371829033
24.0,0.056178200989961624
26.0,0.05537227913737297
28.0,0.0545559860765934
30.0,0.05366099253296852
32.0,0.052793268114328384
36.0,0.05107365921139717
40.0,0.04925496131181717
44.0,0.04740648716688156
48.0,0.045872919261455536
52.0,0.04458995908498764
56.0,0.043425463140010834
60.0,0.04215719550848007
64.0,0.04078533500432968
72.0,0.03787193447351456
80.0,0.03542090207338333
88.0,0.03387898579239845
96.0,0.0322909839451313
104.0,0.03027571551501751
112.0,0.028521008789539337
120.0,0.027182023972272873
128.0,0.026377836242318153
144.0,0.025208154693245888
160.0,0.023847902193665504
176.0,0.02168053574860096
192.0,0.01995532400906086
208.0,0.017994821071624756
224.0,0.015833565965294838
240.0,0.014187831431627274
256.0,0.013200685381889343
288.0,0.011947233229875565
320.0,0.011503863148391247
352.0,0.011668485589325428
384.0,0.010347327217459679
416.0,0.007378745824098587
448.0,0.0031466532964259386
480.0,-0.0005032235058024526
512.0,-0.001740719424560666
576.0,-0.0010463263606652617
640.0,-0.0018155655125156045
704.0,-0.0005062702111899853
768.0,0.0029257843270897865
832.0,0.0037235806230455637
896.0,0.003353069070726633
960.0,0.006617168430238962
1024.0,0.007989422418177128
1152.0,0.007411399390548468
1280.0,0.0034670657478272915
1408.0,0.002416247734799981
1536.0,0.001125628245063126
1664.0,0.00017281738109886646
1792.0,-0.00012379650434013456
1920.0,-0.0015525704948231578
2048.0,0.0031798570416867733
2304.0,0.002413768321275711
2560.0,-0.007192205637693405
2816.0,-0.010192071087658405
3072.0,-0.004723362158983946
3328.0,-0.004536338150501251
3584.0,-0.0014181737788021564
3840.0,0.0034145640674978495
4096.0,0.0017731616972014308
4608.0,-0.004198070149868727
5120.0,-5.750584932684433e-06
5632.0,-0.009354096837341785
6144.0,0.007155949715524912
6656.0,-0.009467328898608685
7168.0,-0.02136877365410328
7680.0,-0.015482058748602867
8192.0,-0.010485831648111343
end
