version,3.0
numOfCh,1
type,point
parent_name,19e3e_0dot08-0dot1
ch_type,1_1
kcount,1
numberNandB,1
brightnessNandB,1
carpet pos,0
pc,0
Time (ms),CH1 Auto-Correlation
1.0,0.059421949088573456
2.0,0.058838505297899246
3.0,0.05830157920718193
4.0,0.05778922140598297
5.0,0.057319242507219315
6.0,0.056851111352443695
7.0,0.05640389025211334
8.0,0.05595821142196655
9.0,0.05553126707673073
10.0,0.05511879175901413
11.0,0.05471111461520195
12.0,0.05429859459400177
13.0,0.05391665920615196
14.0,0.053517844527959824
15.0,0.05311909690499306
16.0,0.05275370925664902
18.0,0.05202480033040047
20.0,0.05128651112318039
22.0,0.050597596913576126
24.0,0.04988788440823555
26.0,0.04918273165822029
28.0,0.04849725216627121
30.0,0.047790758311748505
32.0,0.047091588377952576
36.0,0.04575201869010925
40.0,0.04445847496390343
44.0,0.04321987181901932
48.0,0.04205430671572685
52.0,0.040931154042482376
56.0,0.040000077337026596
60.0,0.03912096098065376
64.0,0.03829959034919739
72.0,0.036758292466402054
80.0,0.0351167768239975
88.0,0.03325047343969345
96.0,0.03132769092917442
104.0,0.02949545532464981
112.0,0.02770228683948517
120.0,0.025907475501298904
128.0,0.024181412532925606
144.0,0.02127401903271675
160.0,0.018768643960356712
176.0,0.016654500737786293
192.0,0.015081019140779972
208.0,0.013568335212767124
224.0,0.012065268121659756
240.0,0.01058847177773714
256.0,0.009085061028599739
288.0,0.006028678733855486
320.0,0.0028831600211560726
352.0,-0.0013804931659251451
384.0,-0.0056601958349347115
416.0,-0.006786913610994816
448.0,-0.007057207636535168
480.0,-0.007427585776895285
512.0,-0.006776134483516216
576.0,-0.005512414965778589
640.0,-0.0038646261673420668
704.0,-3.378415931365453e-05
768.0,0.003912942949682474
832.0,0.0061987838707864285
896.0,0.004800727590918541
960.0,0.0018148201052099466
1024.0,-0.0003692193713504821
1152.0,-0.003917026799172163
1280.0,-0.002554304664954543
1408.0,0.0025011999532580376
1536.0,0.010376494377851486
1664.0,0.012883483432233334
1792.0,0.006731543689966202
1920.0,0.0011113998480141163
2048.0,-0.0020959051325917244
2304.0,-0.008529305458068848
2560.0,-0.006682754959911108
2816.0,-0.0007969069411046803
3072.0,0.006256535183638334
3328.0,0.009113489650189877
3584.0,0.0043367003090679646
3840.0,-0.002282970119267702
4096.0,-0.00019103485101368278
4608.0,-0.005915111396461725
5120.0,0.0017683143960312009
5632.0,-0.0017982344143092632
6144.0,-0.004806342534720898
6656.0,0.007707974407821894
7168.0,0.002207656390964985
7680.0,-0.0105285020545125
8192.0,0.009387795813381672
end
