version,3.0
numOfCh,1
type,point
parent_name,19e3e_0dot08-0dot1
ch_type,1_1
kcount,1
numberNandB,1
brightnessNandB,1
carpet pos,0
pc,0
Time (ms),CH1 Auto-Correlation
1.0,0.060545045882463455
2.0,0.05956033617258072
3.0,0.05862748622894287
4.0,0.057729367166757584
5.0,0.05685221031308174
6.0,0.05603865161538124
7.0,0.05522496625781059
8.0,0.054435715079307556
9.0,0.053658805787563324
10.0,0.05292115360498428
11.0,0.05217614024877548
12.0,0.051481638103723526
13.0,0.050798337906599045
14.0,0.05010523647069931
15.0,0.0494295209646225
16.0,0.04874685779213905
18.0,0.04747645929455757
20.0,0.04634864255785942
22.0,0.045289646834135056
24.0,0.04428763687610626
26.0,0.04334943741559982
28.0,0.04252191632986069
30.0,0.041839491575956345
32.0,0.041249316185712814
36.0,0.04005272686481476
40.0,0.03882136568427086
44.0,0.03765278309583664
48.0,0.03662595897912979
52.0,0.035586148500442505
56.0,0.03455718234181404
60.0,0.03359103575348854
64.0,0.0325995497405529
72.0,0.030852563679218292
80.0,0.029348937794566154
88.0,0.02772543579339981
96.0,0.026012469083070755
104.0,0.02436726540327072
112.0,0.0228984747081995
120.0,0.02187773957848549
128.0,0.021316632628440857
144.0,0.02017122134566307
160.0,0.019204968586564064
176.0,0.017511924728751183
192.0,0.01649211347103119
208.0,0.015729747712612152
224.0,0.015165501274168491
240.0,0.014128485694527626
256.0,0.013800994493067265
288.0,0.01360815018415451
320.0,0.013673749752342701
352.0,0.013551533222198486
384.0,0.013734987936913967
416.0,0.015089417807757854
448.0,0.01442207396030426
480.0,0.013559664599597454
512.0,0.013642789795994759
576.0,0.013196851126849651
640.0,0.012027894146740437
704.0,0.009103845804929733
768.0,0.007203125394880772
832.0,0.006610667333006859
896.0,0.003203175263479352
960.0,0.0027717675548046827
1024.0,0.002224771771579981
1152.0,-0.0026589150074869394
1280.0,-0.005931129213422537
1408.0,-0.004038738552480936
1536.0,-0.005187456961721182
1664.0,-0.007185704540461302
1792.0,-0.0064824894070625305
1920.0,-0.0012769317254424095
2048.0,-0.0005661089671775699
2304.0,0.0022600821685045958
2560.0,0.006939864717423916
2816.0,0.006899475120007992
3072.0,0.0056865098886191845
3328.0,0.0028188552241772413
3584.0,-0.0010305170435458422
3840.0,-0.0032715764828026295
4096.0,-0.003157510655000806
4608.0,-0.0027540801092982292
5120.0,-0.0029429160058498383
5632.0,-0.0031726337037980556
6144.0,-0.00869383942335844
6656.0,-0.014241821132600307
7168.0,-0.014982610940933228
7680.0,-0.0070099295116961
8192.0,0.004183424636721611
end
