version,3.0
numOfCh,1
type,point
parent_name,19e3e_0dot08-0dot1
ch_type,1_1
kcount,1
numberNandB,1
brightnessNandB,1
carpet pos,0
pc,0
Time (ms),CH1 Auto-Correlation
1.0,0.052034489810466766
2.0,0.05147336423397064
3.0,0.050932928919792175
4.0,0.05040735378861427
5.0,0.04989396408200264
6.0,0.049383681267499924
7.0,0.04889504984021187
8.0,0.04841981455683708
9.0,0.04795626178383827
10.0,0.04750577360391617
11.0,0.04704738035798073
12.0,0.04658525809645653
13.0,0.04612228274345398
14.0,0.04566393420100212
15.0,0.04522507265210152
16.0,0.04481104016304016
18.0,0.04398118704557419
20.0,0.0432283952832222
22.0,0.042515579611063004
24.0,0.04181976243853569
26.0,0.041173484176397324
28.0,0.04056163877248764
30.0,0.03998322784900665
32.0,0.03945460170507431
36.0,0.03847559913992882
40.0,0.03758865222334862
44.0,0.03673775866627693
48.0,0.03584666550159454
52.0,0.0349649116396904
56.0,0.03416523337364197
60.0,0.03340761363506317
64.0,0.03265682980418205
72.0,0.031086362898349762
80.0,0.029500916600227356
88.0,0.027864856645464897
96.0,0.026484495028853416
104.0,0.025143051519989967
112.0,0.024097954854369164
120.0,0.02321343868970871
128.0,0.022402852773666382
144.0,0.021198933944106102
160.0,0.019968798384070396
176.0,0.01872851327061653
192.0,0.017738090828061104
208.0,0.016987832263112068
224.0,0.015811214223504066
240.0,0.015131722204387188
256.0,0.014198058284819126
288.0,0.011284560896456242
320.0,0.008803109638392925
352.0,0.006959439720958471
384.0,0.005908596329391003
416.0,0.005080073140561581
448.0,0.00450839614495635
480.0,0.004463121760636568
512.0,0.0041828453540802
576.0,0.001962833572179079
640.0,-0.0012142924824729562
704.0,-0.0025595950428396463
768.0,-0.0017374836606904864
832.0,-0.002424075733870268
896.0,-0.0035231502261012793
960.0,-0.003491178620606661
1024.0,-0.00232870620675385
1152.0,-0.0023152136709541082
1280.0,-0.0013062807265669107
1408.0,-0.0017534004291519523
1536.0,-0.003326655365526676
1664.0,-0.0028756186366081238
1792.0,-0.0018293459434062243
1920.0,0.0009510906529612839
2048.0,0.003218139288946986
2304.0,0.006237694062292576
2560.0,0.0017725529614835978
2816.0,0.0007057437323965132
3072.0,-0.0006804228178225458
3328.0,-0.0006552662816829979
3584.0,-0.006627077702432871
3840.0,-0.0091145234182477
4096.0,-0.011857602745294571
4608.0,-0.004595664795488119
5120.0,0.0013072227593511343
5632.0,0.0030214169528335333
6144.0,-0.014372381381690502
6656.0,-0.005961086135357618
7168.0,0.0026602884754538536
7680.0,0.006463365629315376
8192.0,-0.0024880270939320326
end
