version,3.0
numOfCh,1
type,point
parent_name,19e3e_0dot08-0dot1
ch_type,1_1
kcount,1
numberNandB,1
brightnessNandB,1
carpet pos,0
pc,0
Time (ms),CH1 Auto-Correlation
1.0,0.09033364057540894
2.0,0.08973324298858643
3.0,0.08913859724998474
4.0,0.08858024328947067
5.0,0.08804702013731003
6.0,0.08753606677055359
7.0,0.08703019469976425
8.0,0.08652015775442123
9.0,0.08603869378566742
10.0,0.08556139469146729
11.0,0.08510945737361908
12.0,0.08466170728206635
13.0,0.08423273265361786
14.0,0.08375909924507141
15.0,0.08329908549785614
16.0,0.08285585045814514
18.0,0.08196917176246643
20.0,0.08108098804950714
22.0,0.08024203032255173
24.0,0.07944976538419724
26.0,0.07865689694881439
28.0,0.07784421741962433
30.0,0.07702705264091492
32.0,0.0762365311384201
36.0,0.0747704729437828
40.0,0.0733536034822464
44.0,0.07199909538030624
48.0,0.0706363320350647
52.0,0.06930339336395264
56.0,0.06797043234109879
60.0,0.06676023453474045
64.0,0.06559392064809799
72.0,0.06343186646699905
80.0,0.061195988208055496
88.0,0.05874244123697281
96.0,0.05636410415172577
104.0,0.05427159368991852
112.0,0.0525326132774353
120.0,0.05120658874511719
128.0,0.05005018785595894
144.0,0.04816310480237007
160.0,0.04609309881925583
176.0,0.0434962660074234
192.0,0.04126952216029167
208.0,0.04029567167162895
224.0,0.03914752975106239
240.0,0.038200996816158295
256.0,0.03683212026953697
288.0,0.035140130668878555
320.0,0.0320790633559227
352.0,0.029580431059002876
384.0,0.028391988947987556
416.0,0.028018329292535782
448.0,0.028761684894561768
480.0,0.029129156842827797
512.0,0.028654545545578003
576.0,0.024603864178061485
640.0,0.02033521980047226
704.0,0.019112028181552887
768.0,0.018524274230003357
832.0,0.017115764319896698
896.0,0.013835228979587555
960.0,0.009434136562049389
1024.0,0.008271086029708385
1152.0,0.005408116150647402
1280.0,0.0026855592150241137
1408.0,0.0011252445401623845
1536.0,0.003758647944778204
1664.0,0.010999944992363453
1792.0,0.016361931338906288
1920.0,0.01661614142358303
2048.0,0.018477912992239
2304.0,0.022448211908340454
2560.0,0.01973869651556015
2816.0,0.015175191685557365
3072.0,0.012255488894879818
3328.0,0.009567758068442345
3584.0,0.008626792579889297
3840.0,0.0011764076771214604
4096.0,-0.008992942050099373
4608.0,-0.00746457464993
5120.0,-0.005770284216850996
5632.0,0.002314087236300111
6144.0,-0.015364090912044048
6656.0,-0.035403359681367874
7168.0,-0.019526232033967972
7680.0,-0.022850725799798965
8192.0,-0.01743995025753975
end
