version,3.0
numOfCh,1
type,point
parent_name,19e3e_0dot08-0dot1
ch_type,1_1
kcount,1
numberNandB,1
brightnessNandB,1
carpet pos,0
pc,0
Time (ms),CH1 Auto-Correlation
1.0,0.06517404317855835
2.0,0.06450147926807404
3.0,0.0638497993350029
4.0,0.06324655562639236
5.0,0.06266894191503525
6.0,0.062087532132864
7.0,0.06151723116636276
8.0,0.06096985191106796
9.0,0.06044444814324379
10.0,0.059967540204524994
11.0,0.0595119372010231
12.0,0.05906613916158676
13.0,0.05862584337592125
14.0,0.05818936601281166
15.0,0.05778186768293381
16.0,0.057395387440919876
18.0,0.05663696676492691
20.0,0.05590548366308212
22.0,0.05520732328295708
24.0,0.05454834923148155
26.0,0.05392739176750183
28.0,0.05327535793185234
30.0,0.05257817357778549
32.0,0.05190606787800789
36.0,0.050706859678030014
40.0,0.049587182700634
44.0,0.048480816185474396
48.0,0.047422923147678375
52.0,0.04645685479044914
56.0,0.045444075018167496
60.0,0.044309746474027634
64.0,0.04316263645887375
72.0,0.04111316800117493
80.0,0.039026930928230286
88.0,0.03709699958562851
96.0,0.03532867506146431
104.0,0.03353099897503853
112.0,0.03190585598349571
120.0,0.03054124303162098
128.0,0.02891668677330017
144.0,0.025510963052511215
160.0,0.022407103329896927
176.0,0.019455429166555405
192.0,0.01678059808909893
208.0,0.014434825628995895
224.0,0.012925058603286743
240.0,0.011897335760295391
256.0,0.01096993125975132
288.0,0.008889750577509403
320.0,0.0063448455184698105
352.0,0.0033999087754637003
384.0,0.000643544306512922
416.0,-0.0020257162395864725
448.0,-0.003994869068264961
480.0,-0.005899959709495306
512.0,-0.007296377327293158
576.0,-0.006024593021720648
640.0,-0.005663283634930849
704.0,-0.0024041859433054924
768.0,0.001608450897037983
832.0,0.004965934902429581
896.0,0.0027580137830227613
960.0,-0.0013916408643126488
1024.0,-0.005732120480388403
1152.0,-0.008562573231756687
1280.0,-0.00778680294752121
1408.0,-0.008883228525519371
1536.0,-0.007102088071405888
1664.0,-0.0008547345642000437
1792.0,-0.0029900369700044394
1920.0,-0.0038468227721750736
2048.0,-0.002667976077646017
2304.0,-0.005834310315549374
2560.0,-0.002144037978723645
2816.0,-0.00217547919601202
3072.0,0.002064748900011182
3328.0,0.005365604069083929
3584.0,0.007708550896495581
3840.0,0.005737164989113808
4096.0,-0.0028103473596274853
4608.0,-0.0012599499896168709
5120.0,-0.008883647620677948
5632.0,-0.0061665549874305725
6144.0,-0.0034492360427975655
6656.0,0.006937442347407341
7168.0,0.008397301658987999
7680.0,-0.00703385379165411
8192.0,-0.002380716847255826
end
