version,3.0
numOfCh,1
type,point
parent_name,19e3e_0dot08-0dot1
ch_type,1_1
kcount,1
numberNandB,1
brightnessNandB,1
carpet pos,0
pc,0
Time (ms),CH1 Auto-Correlation
1.0,0.09541763365268707
2.0,0.09484577178955078
3.0,0.09430677443742752
4.0,0.09379107505083084
5.0,0.0932871475815773
6.0,0.09279454499483109
7.0,0.09232500940561295
8.0,0.09186503291130066
9.0,0.09141387045383453
10.0,0.09098214656114578
11.0,0.09056873619556427
12.0,0.09016542881727219
13.0,0.08977357298135757
14.0,0.08939025551080704
15.0,0.0890025943517685
16.0,0.08862575143575668
18.0,0.0878610908985138
20.0,0.0871351808309555
22.0,0.08641059696674347
24.0,0.0857064425945282
26.0,0.08498435467481613
28.0,0.08431123942136765
30.0,0.08367982506752014
32.0,0.08312220126390457
36.0,0.08209096640348434
40.0,0.08106302469968796
44.0,0.08006760478019714
48.0,0.07912582904100418
52.0,0.07816855609416962
56.0,0.07717198133468628
60.0,0.07621078193187714
64.0,0.07529323548078537
72.0,0.07344082742929459
80.0,0.0714503675699234
88.0,0.06946690380573273
96.0,0.06737577170133591
104.0,0.06549693644046783
112.0,0.06370000541210175
120.0,0.06199975311756134
128.0,0.06050734221935272
144.0,0.057524748146533966
160.0,0.054881442338228226
176.0,0.052119720727205276
192.0,0.04925448074936867
208.0,0.0460067056119442
224.0,0.04284617677330971
240.0,0.03933611139655113
256.0,0.036035601049661636
288.0,0.030904721468687057
320.0,0.02720619924366474
352.0,0.024377789348363876
384.0,0.022719992324709892
416.0,0.02190377190709114
448.0,0.02095257118344307
480.0,0.020104436203837395
512.0,0.01989877223968506
576.0,0.0187396090477705
640.0,0.0195115115493536
704.0,0.01980825699865818
768.0,0.018755372613668442
832.0,0.014378267340362072
896.0,0.006836640182882547
960.0,0.0001275253016501665
1024.0,-0.007848947308957577
1152.0,-0.0188838429749012
1280.0,-0.017438087612390518
1408.0,-0.01004005316644907
1536.0,-0.006356679834425449
1664.0,-0.007441874127835035
1792.0,-0.0076850648038089275
1920.0,-0.007685298565775156
2048.0,-0.005250229500234127
2304.0,-0.0016107321716845036
2560.0,0.0010292560327798128
2816.0,0.006105638574808836
3072.0,0.0017225919291377068
3328.0,-0.0005080215050838888
3584.0,0.012614697217941284
3840.0,0.011058962903916836
4096.0,0.0011323995422571898
4608.0,-0.012443294748663902
5120.0,-0.03034375049173832
5632.0,-0.020814599469304085
6144.0,0.00019464603974483907
6656.0,-0.0023544388823211193
7168.0,-0.004717694595456123
7680.0,0.0008890150347724557
8192.0,-0.011977381072938442
end
