version,3.0
numOfCh,1
type,point
parent_name,19e3e_0dot08-0dot1
ch_type,1_1
kcount,1
numberNandB,1
brightnessNandB,1
carpet pos,0
pc,0
Time (ms),CH1 Auto-Correlation
1.0,0.05751228332519531
2.0,0.056811511516571045
3.0,0.05612734705209732
4.0,0.0554589219391346
5.0,0.0548025406897068
6.0,0.05414148420095444
7.0,0.05350283160805702
8.0,0.05288313701748848
9.0,0.052296847105026245
10.0,0.05171290040016174
11.0,0.051136720925569534
12.0,0.05057782679796219
13.0,0.050023507326841354
14.0,0.04946455359458923
15.0,0.04888344556093216
16.0,0.04833025485277176
18.0,0.04729929938912392
20.0,0.04630758613348007
22.0,0.04533986747264862
24.0,0.044436533004045486
26.0,0.0435456745326519
28.0,0.04263658821582794
30.0,0.041772350668907166
32.0,0.040910523384809494
36.0,0.03929322957992554
40.0,0.037803735584020615
44.0,0.03636113554239273
48.0,0.03505786135792732
52.0,0.03386888653039932
56.0,0.03271098434925079
60.0,0.031675949692726135
64.0,0.030659737065434456
72.0,0.028555719181895256
80.0,0.02691616304218769
88.0,0.025577403604984283
96.0,0.024256713688373566
104.0,0.02279984951019287
112.0,0.021454475820064545
120.0,0.02025286667048931
128.0,0.01915629394352436
144.0,0.017963169142603874
160.0,0.017454352229833603
176.0,0.017192503437399864
192.0,0.017263764515519142
208.0,0.01678609475493431
224.0,0.015618177130818367
240.0,0.01438354142010212
256.0,0.012896580621600151
288.0,0.010284710675477982
320.0,0.008798262104392052
352.0,0.0069174086675047874
384.0,0.005804487969726324
416.0,0.005975429434329271
448.0,0.005691503640264273
480.0,0.00481009017676115
512.0,0.0040719215758144855
576.0,0.0015054665273055434
640.0,0.0006551970727741718
704.0,-0.0005527064204216003
768.0,-0.0023856235202401876
832.0,-0.0029661809094250202
896.0,-0.004274717066437006
960.0,-0.005947854369878769
1024.0,-0.007169557269662619
1152.0,-0.0040807779878377914
1280.0,-0.005442156922072172
1408.0,-0.00016044800577219576
1536.0,-0.00016782109742052853
1664.0,-0.0002158185961889103
1792.0,-0.0024469983763992786
1920.0,-0.0008461431716568768
2048.0,-0.00064560939790681
2304.0,-0.004369336646050215
2560.0,-0.006692828144878149
2816.0,-0.005955198314040899
3072.0,-0.0021056542173027992
3328.0,0.006880870554596186
3584.0,0.00892985612154007
3840.0,0.008213910274207592
4096.0,0.006677568424493074
4608.0,-0.00334381777793169
5120.0,-0.00150395929813385
5632.0,-0.004994075745344162
6144.0,-0.013955039903521538
6656.0,-0.007732439320534468
7168.0,0.000590984767768532
7680.0,0.0017136221285909414
8192.0,0.006651686038821936
end
