version,3.0
numOfCh,1
type,point
parent_name,19e3e_0dot08-0dot1
ch_type,1_1
kcount,1
numberNandB,1
brightnessNandB,1
carpet pos,0
pc,0
Time (ms),CH1 Auto-Correlation
1.0,0.06728110462427139
2.0,0.06642019003629684
3.0,0.06566892564296722
4.0,0.06493335962295532
5.0,0.0642257034778595
6.0,0.06349196285009384
7.0,0.06279832869768143
8.0,0.06215004622936249
9.0,0.061522360891103745
10.0,0.060941725969314575
11.0,0.060384251177310944
12.0,0.05983570218086243
13.0,0.05925896391272545
14.0,0.05866378918290138
15.0,0.05808787792921066
16.0,0.05746305733919144
18.0,0.05626847222447395
20.0,0.055010098963975906
22.0,0.05376504734158516
24.0,0.052653711289167404
26.0,0.051584888249635696
28.0,0.05056273564696312
30.0,0.04958793893456459
32.0,0.04866231605410576
36.0,0.046866174787282944
40.0,0.04515368118882179
44.0,0.04349000006914139
48.0,0.04164302721619606
52.0,0.039845168590545654
56.0,0.038110677152872086
60.0,0.03662952408194542
64.0,0.03530481457710266
72.0,0.03297335281968117
80.0,0.030879724770784378
88.0,0.028786053881049156
96.0,0.027059949934482574
104.0,0.025252854451537132
112.0,0.02345871739089489
120.0,0.021609751507639885
128.0,0.020009493455290794
144.0,0.016898885369300842
160.0,0.014754051342606544
176.0,0.013279653154313564
192.0,0.012055711820721626
208.0,0.010668542236089706
224.0,0.009680138900876045
240.0,0.008383329957723618
256.0,0.006622293498367071
288.0,0.005200123880058527
320.0,0.004148326814174652
352.0,0.004327559377998114
384.0,0.004102377220988274
416.0,0.0037420038133859634
448.0,0.005302520003169775
480.0,0.008106015622615814
512.0,0.009657081216573715
576.0,0.011035004630684853
640.0,0.013337312266230583
704.0,0.017049461603164673
768.0,0.018436793237924576
832.0,0.017353234812617302
896.0,0.014966593123972416
960.0,0.01177622377872467
1024.0,0.011347304098308086
1152.0,0.010690745897591114
1280.0,0.008894767612218857
1408.0,0.009135053493082523
1536.0,0.010998083278536797
1664.0,0.011691632680594921
1792.0,0.007032196503132582
1920.0,0.0028647116851061583
2048.0,-0.0011517819948494434
2304.0,0.00925031490623951
2560.0,0.0055166189558804035
2816.0,-0.01012363750487566
3072.0,0.0021632991265505552
3328.0,-0.0007583158439956605
3584.0,-0.009252152405679226
3840.0,-0.004739287309348583
4096.0,-0.005857785698026419
4608.0,-0.012728852219879627
5120.0,-0.010429075919091702
5632.0,-0.009809207171201706
6144.0,-0.010090363211929798
6656.0,-0.005385208874940872
7168.0,-0.008758198469877243
7680.0,-0.010619414038956165
8192.0,-0.003731900593265891
end
