version,3.0
numOfCh,1
type,point
parent_name,0cd20_3dot0-0dot1
ch_type,1_1
kcount,1
numberNandB,1
brightnessNandB,1
carpet pos,0
pc,0
Time (ms),CH1 Auto-Correlation
1.0,0.016681278124451637
2.0,0.013796527869999409
3.0,0.011693036183714867
4.0,0.010056301020085812
5.0,0.008846917189657688
6.0,0.007948319427669048
7.0,0.007306237239390612
8.0,0.006662377156317234
9.0,0.00614380044862628
10.0,0.00572067778557539
11.0,0.005289438646286726
12.0,0.004942398052662611
13.0,0.004591828677803278
14.0,0.004146711900830269
15.0,0.003873342415317893
16.0,0.003622228978201747
18.0,0.003352066269144416
20.0,0.0030307620763778687
22.0,0.0027023234870284796
24.0,0.002534746890887618
26.0,0.00229583284817636
28.0,0.002202011179178953
30.0,0.002141143660992384
32.0,0.002003928180783987
36.0,0.0017861623782664537
40.0,0.0015942283207550645
44.0,0.0015347151784226298
48.0,0.0011881530517712235
52.0,0.0008981498540379107
56.0,0.0006655429024249315
60.0,0.0005570093635469675
64.0,0.0005347603000700474
72.0,0.0003178416227456182
80.0,0.00048788267304189503
88.0,0.00027312187012284994
96.0,0.0002784009266179055
104.0,0.00034205292467959225
112.0,0.0002479627728462219
120.0,0.00019838655134662986
128.0,0.00030562191386707127
144.0,0.000356689328327775
160.0,0.00034328384208492935
176.0,0.0004166372527834028
192.0,0.00033093910315074027
208.0,-3.413750891922973e-05
224.0,-0.0006509784725494683
240.0,-0.0004176317888777703
256.0,-0.0004621038387995213
288.0,-0.0005664112977683544
320.0,-0.0007050473941490054
352.0,-0.000527923577465117
384.0,-1.844617690949235e-05
416.0,0.0003570475382730365
448.0,0.0002271435660077259
480.0,0.00026726644136942923
512.0,0.00047568604350090027
576.0,0.00036045219167135656
640.0,0.000185085809789598
704.0,-1.0220792319159955e-06
768.0,-4.819554305868223e-05
832.0,-0.00016399640298914164
896.0,0.0002751400170382112
960.0,-1.9357037672307342e-05
1024.0,0.00020008081628475338
1152.0,-0.00031869535450823605
1280.0,-0.0004949226859025657
1408.0,0.00020951619080733508
1536.0,0.0009446602780371904
1664.0,0.00020062716794200242
1792.0,-0.0004499964998103678
1920.0,0.000160234107170254
2048.0,0.00043059667223133147
2304.0,-0.00025528957485221326
2560.0,0.000302512024063617
2816.0,-0.00023420073557645082
3072.0,0.00017180318536702543
3328.0,-0.0006775875226594508
3584.0,0.00019702060671988875
3840.0,-0.0007036385941319168
4096.0,3.000985634571407e-05
4608.0,-8.277955203084275e-05
5120.0,-0.00011399057257222012
5632.0,-0.00022953376173973083
6144.0,-0.0002895834040828049
6656.0,-0.0001664234878262505
7168.0,0.0003934192645829171
7680.0,8.872117177816108e-05
8192.0,-5.7107172324322164e-05
end
