version,3.0
numOfCh,1
type,point
parent_name,0cd20_3dot0-0dot1
ch_type,1_1
kcount,1
numberNandB,1
brightnessNandB,1
carpet pos,0
pc,0
Time (ms),CH1 Auto-Correlation
1.0,0.0185052789747715
2.0,0.01575971581041813
3.0,0.013785203918814659
4.0,0.012265538796782494
5.0,0.011089554987847805
6.0,0.01017100177705288
7.0,0.00936166848987341
8.0,0.008688220754265785
9.0,0.008065732195973396
10.0,0.00754097243770957
11.0,0.007045212667435408
12.0,0.006640486419200897
13.0,0.006285011302679777
14.0,0.0058406321331858635
15.0,0.005407395772635937
16.0,0.005037133116275072
18.0,0.004460345022380352
20.0,0.004162191413342953
22.0,0.003962803166359663
24.0,0.0037576183676719666
26.0,0.0034569206181913614
28.0,0.0032145243603736162
30.0,0.0030665129888802767
32.0,0.003008104395121336
36.0,0.0027193641290068626
40.0,0.0025916954036802053
44.0,0.0023538104724138975
48.0,0.0022148522548377514
52.0,0.0019211674807593226
56.0,0.0016979769570752978
60.0,0.0013659157557412982
64.0,0.0010511607397347689
72.0,0.0009112257976084948
80.0,0.0006602363428100944
88.0,0.0006061375606805086
96.0,0.0005603015306405723
104.0,0.0006207201513461769
112.0,0.00032401311909779906
120.0,7.060464122332633e-05
128.0,5.045111902290955e-05
144.0,0.0002127742482116446
160.0,0.0001850167172960937
176.0,-0.00014499053941108286
192.0,-7.97587345005013e-05
208.0,-0.0008774916059337556
224.0,-0.000881473533809185
240.0,-0.0007490774733014405
256.0,-0.00017287350783590227
288.0,-0.0003538678865879774
320.0,-0.00043557031312957406
352.0,0.00011850571172544733
384.0,0.0009760818793438375
416.0,0.001157968072220683
448.0,0.0005640728049911559
480.0,0.00028747919714078307
512.0,2.952611612272449e-05
576.0,-0.00017920134996529669
640.0,-0.00038556032814085484
704.0,-0.0003860934230033308
768.0,9.169946861220524e-05
832.0,0.0007351184613071382
896.0,0.0002586333139333874
960.0,-0.0007885111845098436
1024.0,-0.0002753061708062887
1152.0,-0.00039936444954946637
1280.0,-0.00025515243760310113
1408.0,-1.8472659576218575e-05
1536.0,9.673309978097677e-05
1664.0,0.00024086458142846823
1792.0,0.0002809678844641894
1920.0,4.234975131112151e-05
2048.0,-1.7993394067161717e-05
2304.0,-3.6187706427881494e-05
2560.0,5.9742807934526354e-05
2816.0,4.8767891712486744e-05
3072.0,-6.35989272268489e-05
3328.0,0.0001033894150168635
3584.0,-2.7674539069266757e-06
3840.0,-0.0003194203309249133
4096.0,-0.0003298950905445963
4608.0,-0.00022131642617750913
5120.0,0.00017689465312287211
5632.0,0.00013440061593428254
6144.0,-0.00013311118527781218
6656.0,-0.00020736905571538955
7168.0,-6.617471080971882e-05
7680.0,-0.000504079507663846
8192.0,0.0001977171777980402
end
