version,3.0
numOfCh,1
type,point
parent_name,0cd20_3dot0-0dot1
ch_type,1_1
kcount,1
numberNandB,1
brightnessNandB,1
carpet pos,0
pc,0
Time (ms),CH1 Auto-Correlation
1.0,0.01625525765120983
2.0,0.013438371010124683
3.0,0.011495430953800678
4.0,0.009963666088879108
5.0,0.008861291222274303
6.0,0.007935531437397003
7.0,0.007203822489827871
8.0,0.006541567388921976
9.0,0.005898354575037956
10.0,0.005440658424049616
11.0,0.005066546145826578
12.0,0.004716646857559681
13.0,0.0044826241210103035
14.0,0.004394163843244314
15.0,0.004263359121978283
16.0,0.004125594161450863
18.0,0.0037931986153125763
20.0,0.003581558121368289
22.0,0.0033368230797350407
24.0,0.00316810654476285
26.0,0.003188863629475236
28.0,0.0031277600210160017
30.0,0.0030417379457503557
32.0,0.002736838301643729
36.0,0.0023726639337837696
40.0,0.002073856769129634
44.0,0.0017650884110480547
48.0,0.0013540603686124086
52.0,0.0014313203282654285
56.0,0.0013242625864222646
60.0,0.0012102866312488914
64.0,0.0010983389802277088
72.0,0.0010047067189589143
80.0,0.0008658812730573118
88.0,0.0007962278323248029
96.0,0.0007060874486342072
104.0,0.0007885271334089339
112.0,0.0012048219796270132
120.0,0.0006574466242454946
128.0,0.00029597122920677066
144.0,0.0003146480303257704
160.0,0.000560126849450171
176.0,0.0005635719862766564
192.0,0.000408592342864722
208.0,0.0007303114398382604
224.0,0.0009599268669262528
240.0,0.0007018530741333961
256.0,0.0006686929264105856
288.0,0.0003189055423717946
320.0,0.00037385907489806414
352.0,0.0008442368125542998
384.0,0.0005740008782595396
416.0,0.0007778717554174364
448.0,0.0007199184619821608
480.0,0.00014700541214551777
512.0,0.00023206921468954533
576.0,9.514360863249749e-05
640.0,-3.495218334137462e-05
704.0,0.00021672908042091876
768.0,0.000503144518006593
832.0,0.0004039170453324914
896.0,0.0003212527371942997
960.0,0.00036718821502290666
1024.0,0.0003818226687144488
1152.0,5.669204983860254e-05
1280.0,0.0006965809734538198
1408.0,0.0002631577954161912
1536.0,-0.00026923714904114604
1664.0,0.00025254872161895037
1792.0,-5.348489503376186e-05
1920.0,-6.897030834807083e-05
2048.0,-4.858944521402009e-05
2304.0,-0.00028933226712979376
2560.0,0.00038310448871925473
2816.0,-3.4073644201271236e-05
3072.0,-0.0004032289143651724
3328.0,0.0002124462480423972
3584.0,-0.0005441071116365492
3840.0,-0.0005413046455942094
4096.0,-0.0003225871187169105
4608.0,-0.0005678157904185355
5120.0,-0.0002026295114774257
5632.0,-0.0004027532122563571
6144.0,-0.00016716972459107637
6656.0,-0.00020461203530430794
7168.0,-0.00023582896392326802
7680.0,-5.98158803768456e-05
8192.0,0.00017099072283599526
end
