version,3.0
numOfCh,1
type,point
parent_name,0cd20_3dot0-0dot1
ch_type,1_1
kcount,1
numberNandB,1
brightnessNandB,1
carpet pos,0
pc,0
Time (ms),CH1 Auto-Correlation
1.0,0.014544214121997356
2.0,0.011788224801421165
3.0,0.00993751734495163
4.0,0.008592833764851093
5.0,0.007590072695165873
6.0,0.006679674610495567
7.0,0.0059910002164542675
8.0,0.005444040987640619
9.0,0.004875738639384508
10.0,0.0044172159396111965
11.0,0.004135944880545139
12.0,0.003977037966251373
13.0,0.003749195719137788
14.0,0.0035929959267377853
15.0,0.003269428852945566
16.0,0.003150560427457094
18.0,0.0029645843897014856
20.0,0.0028468011878430843
22.0,0.0025213053449988365
24.0,0.002175024012103677
26.0,0.0019944251980632544
28.0,0.0019892719574272633
30.0,0.0019734313245862722
32.0,0.0017219766741618514
36.0,0.0015516087878495455
40.0,0.0013486514799296856
44.0,0.0014100270345807076
48.0,0.0013045857194811106
52.0,0.0011287860106676817
56.0,0.0007796878926455975
60.0,0.0005356345209293067
64.0,0.00031314793159253895
72.0,0.00028513791039586067
80.0,0.00014674797421321273
88.0,0.00025321493740193546
96.0,0.0003580660850275308
104.0,0.0005721786292269826
112.0,0.0008725362713448703
120.0,0.0007320356671698391
128.0,0.0006540730246342719
144.0,0.00022982593509368598
160.0,-0.0003923655895050615
176.0,-9.933323599398136e-05
192.0,-0.000765395350754261
208.0,-0.0007876049494370818
224.0,-0.0003956721047870815
240.0,-0.0002661322942003608
256.0,0.00012529567175079137
288.0,0.00027486137696541846
320.0,0.0005759401828981936
352.0,0.0007363177719525993
384.0,0.0009516591671854258
416.0,0.0007544555119238794
448.0,0.00020076353393960744
480.0,5.775005411123857e-05
512.0,-5.251050242804922e-05
576.0,3.503509287838824e-05
640.0,0.00018515411647967994
704.0,0.0002713501744437963
768.0,0.00012700562365353107
832.0,-8.326280658366159e-05
896.0,-0.0003830304485745728
960.0,-0.0002947575703728944
1024.0,0.00013350254448596388
1152.0,5.8865025494014844e-05
1280.0,5.3456078603630885e-05
1408.0,-0.0005219638114795089
1536.0,-0.0004419448378030211
1664.0,-0.00018416260718367994
1792.0,-0.00016377714928239584
1920.0,-0.00017465485143475235
2048.0,-0.00020734034478664398
2304.0,-0.0003275593335274607
2560.0,-0.00010030648263636976
2816.0,0.000357755518052727
3072.0,-0.0001135790444095619
3328.0,-0.0006481298478320241
3584.0,-0.00024526697234250605
3840.0,7.523889507865533e-05
4096.0,-8.540118869859725e-07
4608.0,-8.593669917900115e-05
5120.0,5.8898735005641356e-05
5632.0,0.0004358319565653801
6144.0,-0.00026024921680800617
6656.0,0.00020560977282002568
7168.0,7.191605982370675e-05
7680.0,0.00031783070880919695
8192.0,6.050473530194722e-05
end
