version,3.0
numOfCh,1
type,point
parent_name,0cd20_3dot0-0dot1
ch_type,1_1
kcount,1
numberNandB,1
brightnessNandB,1
carpet pos,0
pc,0
Time (ms),CH1 Auto-Correlation
1.0,0.01628660224378109
2.0,0.01340158749371767
3.0,0.011456403881311417
4.0,0.010050381533801556
5.0,0.008936974219977856
6.0,0.008020379580557346
7.0,0.007250365801155567
8.0,0.006683399900794029
9.0,0.0062775276601314545
10.0,0.005760085303336382
11.0,0.005222751293331385
12.0,0.0048947627656161785
13.0,0.004623323678970337
14.0,0.004390231799334288
15.0,0.004103455226868391
16.0,0.0038297628052532673
18.0,0.0034669251181185246
20.0,0.0032538403756916523
22.0,0.002922378247603774
24.0,0.0025774845853447914
26.0,0.002242712303996086
28.0,0.0022157118655741215
30.0,0.0022456494625657797
32.0,0.002031811745837331
36.0,0.0017825146205723286
40.0,0.0017243220936506987
44.0,0.0016565732657909393
48.0,0.00136601144913584
52.0,0.00110281677916646
56.0,0.0007760891458019614
60.0,0.0003485978813841939
64.0,0.0003417217521928251
72.0,0.0007434881408698857
80.0,0.0005339573253877461
88.0,0.0008384115644730628
96.0,0.0006901174201630056
104.0,0.00018689653370529413
112.0,0.00013235845835879445
120.0,0.00016063035582192242
128.0,-3.135766746709123e-05
144.0,-0.0003297407820355147
160.0,-0.0003231615701224655
176.0,3.0402248739846982e-05
192.0,0.000306570203974843
208.0,-0.00024125548952724785
224.0,-0.0003625837271101773
240.0,0.00010164760169573128
256.0,4.854989310842939e-05
288.0,-0.00016142323147505522
320.0,-0.0003084382915403694
352.0,-0.00027379990206100047
384.0,1.1697833542712033e-05
416.0,0.00040802176226861775
448.0,0.0002759322233032435
480.0,0.00034005631459876895
512.0,-0.00042748136911541224
576.0,-0.00028279933030717075
640.0,-0.0005890723550692201
704.0,1.440116193407448e-05
768.0,-0.00010000633483286947
832.0,-0.0003042604948859662
896.0,-0.00027247570687904954
960.0,-0.00015959235315676779
1024.0,0.00023809066624380648
1152.0,1.746961788740009e-05
1280.0,2.4899101845221594e-05
1408.0,-0.0004372145049273968
1536.0,-5.903798955841921e-05
1664.0,-0.00022898252063896507
1792.0,-0.000484472926473245
1920.0,0.0002473685599397868
2048.0,-0.00011197345156688243
2304.0,-0.000320378749165684
2560.0,-0.0002374177856836468
2816.0,4.767521386384033e-05
3072.0,0.0002420109522063285
3328.0,5.172611054149456e-05
3584.0,9.400025737704709e-05
3840.0,0.00028498569736257195
4096.0,-0.00023420163779519498
4608.0,0.00011485364666441455
5120.0,0.00036123141762800515
5632.0,-5.417688225861639e-05
6144.0,-0.00021607158123515546
6656.0,3.4276665246579796e-05
7168.0,-9.076969581656158e-05
7680.0,-0.0002940277336165309
8192.0,0.00013553786266129464
end
