version,3.0
numOfCh,1
type,point
parent_name,0cd20_3dot0-0dot1
ch_type,1_1
kcount,1
numberNandB,1
brightnessNandB,1
carpet pos,0
pc,0
Time (ms),CH1 Auto-Correlation
1.0,0.0167984701693058
2.0,0.013940002769231796
3.0,0.011921877041459084
4.0,0.010490603744983673
5.0,0.009332503192126751
6.0,0.008351504802703857
7.0,0.007547983434051275
8.0,0.007003926672041416
9.0,0.006444231141358614
10.0,0.005960735026746988
11.0,0.005431654397398233
12.0,0.004995367024093866
13.0,0.004617228638380766
14.0,0.004336916841566563
15.0,0.004108124878257513
16.0,0.0038857590407133102
18.0,0.00347132608294487
20.0,0.0032806897070258856
22.0,0.003125193063169718
24.0,0.00298096751794219
26.0,0.0027101319283246994
28.0,0.002444263780489564
30.0,0.002317536622285843
32.0,0.0021891307551413774
36.0,0.0016726296162232757
40.0,0.0016064882511273026
44.0,0.0014801676152274013
48.0,0.0010424628853797913
52.0,0.0007015946321189404
56.0,0.0005553620867431164
60.0,0.0004240583803039044
64.0,0.0006069483351893723
72.0,0.0002536904066801071
80.0,0.0005561315338127315
88.0,0.0005660422029905021
96.0,0.0005825109547004104
104.0,0.0006498852744698524
112.0,0.0007139578810892999
120.0,0.0007464758236892521
128.0,0.0006187607650645077
144.0,0.0007954094326123595
160.0,0.0005433187470771372
176.0,0.0007132831960916519
192.0,0.0005806193221360445
208.0,0.00044289344805292785
224.0,0.000512388302013278
240.0,9.030500223161653e-05
256.0,0.00017663453763816506
288.0,8.402641105931252e-05
320.0,-0.0003611253050621599
352.0,-0.00044316911953501403
384.0,-0.00016840791795402765
416.0,0.0004400101024657488
448.0,0.0007114694453775883
480.0,0.0005205902270972729
512.0,0.0004642709973268211
576.0,0.00044981061364524066
640.0,0.0006761395488865674
704.0,0.0005560588324442506
768.0,0.00019729723862838
832.0,0.0004585839924402535
896.0,9.906251216307282e-05
960.0,-0.00019083624647464603
1024.0,-0.0003264469560235739
1152.0,4.756509224534966e-05
1280.0,7.199822721304372e-05
1408.0,-9.852372022578493e-05
1536.0,-0.00034173583844676614
1664.0,-0.00042544418829493225
1792.0,-0.00023778609465807676
1920.0,-0.0004123238322790712
2048.0,4.2030049371533096e-05
2304.0,0.00013792465324513614
2560.0,0.0002001739339902997
2816.0,0.00028734307852573693
3072.0,-0.00015533070836681873
3328.0,0.00044423918006941676
3584.0,-0.00013915443560108542
3840.0,0.00012849134509451687
4096.0,-0.00028012788970954716
4608.0,-0.00013283753651194274
5120.0,0.0002535397361498326
5632.0,0.00033352250466123223
6144.0,-0.000233014376135543
6656.0,-0.0008527240133844316
7168.0,-0.0005400960217230022
7680.0,-0.0004256714310031384
8192.0,0.00021574889251496643
end
