version,3.0
numOfCh,1
type,point
parent_name,0cd20_3dot0-0dot1
ch_type,1_1
kcount,1
numberNandB,1
brightnessNandB,1
carpet pos,0
pc,0
Time (ms),CH1 Auto-Correlation
1.0,0.0162960197776556
2.0,0.013430454768240452
3.0,0.011328490450978279
4.0,0.009886112064123154
5.0,0.008862505666911602
6.0,0.007864514365792274
7.0,0.006986263673752546
8.0,0.006386290770024061
9.0,0.005858005490154028
10.0,0.005440487992018461
11.0,0.005045098718255758
12.0,0.004596554208546877
13.0,0.00424102833494544
14.0,0.0038809452671557665
15.0,0.0035469334106892347
16.0,0.0032282713800668716
18.0,0.002968710847198963
20.0,0.002693554386496544
22.0,0.002482379088178277
24.0,0.0023795021697878838
26.0,0.002122369594871998
28.0,0.0019261266570538282
30.0,0.0016929488629102707
32.0,0.0014290156541392207
36.0,0.0013173195766285062
40.0,0.0015835146186873317
44.0,0.0013710433850064874
48.0,0.0007567409775219858
52.0,0.0006772337364964187
56.0,0.0007084514945745468
60.0,0.00038391517591662705
64.0,0.0002504402364138514
72.0,0.00015735655324533582
80.0,0.0005194598925299942
88.0,6.363137072185054e-05
96.0,-0.0004714011156465858
104.0,-0.00023343104112427682
112.0,0.0007621225668117404
120.0,0.0009910775115713477
128.0,0.0006080159218981862
144.0,-0.0003944092313759029
160.0,-0.00011783991794800386
176.0,-4.7288212954299524e-05
192.0,3.467179340077564e-05
208.0,-0.000628362933639437
224.0,-0.0006798983667977154
240.0,-0.000594272802118212
256.0,-0.0003378919209353626
288.0,0.0004621273837983608
320.0,0.00042073684744536877
352.0,0.0002815486222971231
384.0,5.339355629985221e-05
416.0,-6.194159504957497e-05
448.0,2.364134525123518e-05
480.0,-0.0004946073750033975
512.0,-0.0006321416585706174
576.0,0.0002776383771561086
640.0,0.00041064212564378977
704.0,7.814879791112617e-05
768.0,-0.000338902318617329
832.0,-0.00035928451688960195
896.0,-7.044302037684247e-05
960.0,-2.5999841454904526e-05
1024.0,-0.00013634969945997
1152.0,0.00011277235171291977
1280.0,2.581892658781726e-05
1408.0,-0.00020801024220418185
1536.0,4.8136109398910776e-05
1664.0,3.3745847758837044e-05
1792.0,-0.00026317278388887644
1920.0,0.00019685983716044575
2048.0,-6.004927126923576e-05
2304.0,-2.808258795994334e-05
2560.0,-0.00014101190026849508
2816.0,-0.00024826740263961256
3072.0,-0.0001246112078661099
3328.0,-0.00018093676771968603
3584.0,0.00012316423817537725
3840.0,0.0003073560947086662
4096.0,0.00013521191431209445
4608.0,1.6796089767012745e-05
5120.0,-6.092212424846366e-05
5632.0,0.0001426968810847029
6144.0,0.00016917529865168035
6656.0,-0.00034862806205637753
7168.0,-0.0001612534251762554
7680.0,5.150280412635766e-05
8192.0,0.00019609661831054837
end
