version,3.0
numOfCh,1
type,point
parent_name,0cd20_3dot0-0dot1
ch_type,1_1
kcount,1
numberNandB,1
brightnessNandB,1
carpet pos,0
pc,0
Time (ms),CH1 Auto-Correlation
1.0,0.02113736793398857
2.0,0.018204709514975548
3.0,0.016204196959733963
4.0,0.01465480588376522
5.0,0.013428924605250359
6.0,0.012453337199985981
7.0,0.011616470292210579
8.0,0.010832264088094234
9.0,0.010154499672353268
10.0,0.00948933232575655
11.0,0.008832303807139397
12.0,0.008373522199690342
13.0,0.008028742857277393
14.0,0.007513899356126785
15.0,0.007233227603137493
16.0,0.006878925487399101
18.0,0.006288656499236822
20.0,0.005881280172616243
22.0,0.005505762528628111
24.0,0.005190256983041763
26.0,0.005020161159336567
28.0,0.004643274936825037
30.0,0.004375956486910582
32.0,0.004145522136241198
36.0,0.0033703658264130354
40.0,0.002722633071243763
44.0,0.002612036420032382
48.0,0.0024340623058378696
52.0,0.001984921284019947
56.0,0.0016937191830947995
60.0,0.001580473966896534
64.0,0.001585293561220169
72.0,0.0016021676128730178
80.0,0.0014043735573068261
88.0,0.0007633607019670308
96.0,0.0007377275614999235
104.0,0.0013306139735504985
112.0,0.0014497644733637571
120.0,0.001364798517897725
128.0,0.0014498194213956594
144.0,0.0011885602725669742
160.0,0.0016315741231665015
176.0,0.0014805301325395703
192.0,0.0009143309434875846
208.0,-2.926729393948335e-06
224.0,0.00027309448341839015
240.0,-0.00017811408906709403
256.0,-2.8085911253583618e-05
288.0,0.0008813642780296504
320.0,0.0009016364929266274
352.0,0.0012620785273611546
384.0,0.0008786307298578322
416.0,0.0009941112948581576
448.0,0.00041720125591382384
480.0,-0.00018497784913051873
512.0,0.00013116894115228206
576.0,0.0016702980501577258
640.0,0.0004887384129688144
704.0,0.0012859960552304983
768.0,-0.00028881870093755424
832.0,0.00036004986031912267
896.0,0.001091051148250699
960.0,0.0003299671516288072
1024.0,0.0006800227565690875
1152.0,0.0003324716817587614
1280.0,-0.0007363376789726317
1408.0,-0.00045668528764508665
1536.0,-6.528567610075697e-05
1664.0,-0.00038687317282892764
1792.0,0.00019445313955657184
1920.0,0.00023945521388668567
2048.0,0.0010603619739413261
2304.0,0.0003464982728473842
2560.0,-9.95434311334975e-05
2816.0,0.0004525060940068215
3072.0,-0.0002837560896296054
3328.0,-0.0002927927707787603
3584.0,-0.00042498254333622754
3840.0,0.00022975723550189286
4096.0,-0.00016456753655802459
4608.0,0.00036926622851751745
5120.0,-9.857631812337786e-05
5632.0,-5.7677018048707396e-05
6144.0,-0.0009211842552758753
6656.0,-0.00020793981093447655
7168.0,-0.00040690996684134007
7680.0,3.093117629759945e-05
8192.0,-0.001033757347613573
end
