version,3.0
numOfCh,1
type,point
parent_name,0cd20_3dot0-0dot1
ch_type,1_1
kcount,1
numberNandB,1
brightnessNandB,1
carpet pos,0
pc,0
Time (ms),CH1 Auto-Correlation
1.0,0.016089776530861855
2.0,0.013323497958481312
3.0,0.01143198274075985
4.0,0.010111180134117603
5.0,0.009154842235147953
6.0,0.008333495818078518
7.0,0.007625732105225325
8.0,0.007033562753349543
9.0,0.006484953686594963
10.0,0.006059715524315834
11.0,0.005636847112327814
12.0,0.005290667526423931
13.0,0.00491561321541667
14.0,0.004552619066089392
15.0,0.004167119972407818
16.0,0.0038617169484496117
18.0,0.003393135266378522
20.0,0.0028574715834110975
22.0,0.002650730311870575
24.0,0.002494280692189932
26.0,0.0022020628675818443
28.0,0.001992958365008235
30.0,0.0016391894314438105
32.0,0.0015101362951099873
36.0,0.0013315319083631039
40.0,0.0011043006088584661
44.0,0.001137485378421843
48.0,0.0010541470255702734
52.0,0.0011420079972594976
56.0,0.0010735953692346811
60.0,0.00113408372271806
64.0,0.000918761536013335
72.0,0.0006368057802319527
80.0,0.0008261102484539151
88.0,0.0006537965382449329
96.0,0.00046619438217021525
104.0,0.00036808769800700247
112.0,0.0003839548153337091
120.0,0.00037100701592862606
128.0,0.00022269437613431364
144.0,0.00016704006702639163
160.0,0.0006802562274970114
176.0,0.00013888422108720988
192.0,-0.00016525707906112075
208.0,-0.00023057164798956364
224.0,0.0005232105031609535
240.0,0.0007250923081301153
256.0,0.00023936624347697943
288.0,0.00021635049779433757
320.0,0.00020123945432715118
352.0,0.0003615521127358079
384.0,-4.830714897252619e-05
416.0,0.00042820049566216767
448.0,0.0006332051125355065
480.0,-0.00037012455868534744
512.0,-5.335710284271045e-06
576.0,-0.00012125436478527263
640.0,0.0005268375389277935
704.0,-0.0001197073288494721
768.0,0.0004302325251046568
832.0,4.464759331312962e-05
896.0,0.0005859771044924855
960.0,-0.00015051820082589984
1024.0,-0.0004600351967383176
1152.0,-0.00013006088556721807
1280.0,-0.00028815207770094275
1408.0,0.00015622004866600037
1536.0,1.1498352250782773e-05
1664.0,0.00013553386088460684
1792.0,-8.109495684038848e-05
1920.0,-0.00015360205725301057
2048.0,-0.0005729998811148107
2304.0,0.00033610581886023283
2560.0,-0.00019028977840207517
2816.0,-0.0002549921628087759
3072.0,0.0002616868878249079
3328.0,8.903926209313795e-05
3584.0,0.00022435597202274948
3840.0,9.289690206060186e-05
4096.0,-2.2256306692725047e-05
4608.0,-0.00014593114610761404
5120.0,-3.0814622732577845e-05
5632.0,-0.00014710670802742243
6144.0,-0.0005345724057406187
6656.0,-0.00014709004608448595
7168.0,2.9376018574112095e-05
7680.0,4.532276579993777e-05
8192.0,-0.0003153462312184274
end
