version,3.0
numOfCh,1
type,point
parent_name,0cd20_3dot0-0dot1
ch_type,1_1
kcount,1
numberNandB,1
brightnessNandB,1
carpet pos,0
pc,0
Time (ms),CH1 Auto-Correlation
1.0,0.0160526093095541
2.0,0.013211900368332863
3.0,0.011227206327021122
4.0,0.009591597132384777
5.0,0.008368698880076408
6.0,0.007503512315452099
7.0,0.006807023659348488
8.0,0.00632513640448451
9.0,0.005825947038829327
10.0,0.0055021680891513824
11.0,0.0052759950049221516
12.0,0.0050050243735313416
13.0,0.004827545024454594
14.0,0.004680490121245384
15.0,0.004458416253328323
16.0,0.0042060003615915775
18.0,0.0036490741185843945
20.0,0.00323491171002388
22.0,0.0029170738998800516
24.0,0.0027622468769550323
26.0,0.0026444378308951855
28.0,0.0025813516695052385
30.0,0.00253131496720016
32.0,0.0024863481521606445
36.0,0.0017889615846797824
40.0,0.0017701243050396442
44.0,0.001465398003347218
48.0,0.0011362426448613405
52.0,0.0011476926738396287
56.0,0.0012671684380620718
60.0,0.0009821425192058086
64.0,0.0008551243809051812
72.0,0.0007749487995170057
80.0,0.0004119918157812208
88.0,-9.371261694468558e-05
96.0,-0.00020947493612766266
104.0,0.00026746088406071067
112.0,0.00028910423861816525
120.0,0.0006273493636399508
128.0,0.00036890499177388847
144.0,-1.9664590581669472e-05
160.0,-0.00031719516846351326
176.0,0.0002789943537209183
192.0,0.00016557126946281642
208.0,-0.0001435274025425315
224.0,-0.0005017651128582656
240.0,-0.000508718250785023
256.0,-8.298922330141068e-05
288.0,0.0002454901987221092
320.0,-1.852769491961226e-05
352.0,-0.0002165951591450721
384.0,-6.420540012186393e-05
416.0,-0.000135058508021757
448.0,7.743569585727528e-05
480.0,0.00020553427748382092
512.0,-2.958276127174031e-05
576.0,-0.0003264585684519261
640.0,-0.000371199450455606
704.0,0.00016315105312969536
768.0,-3.685963019961491e-05
832.0,-0.0001578827650519088
896.0,-0.0002890374744310975
960.0,-0.00011312183050904423
1024.0,-0.0005186068592593074
1152.0,-0.0003865492471959442
1280.0,-2.7157797376275994e-05
1408.0,0.00016411881370004267
1536.0,0.0005586295737884939
1664.0,0.0004309013020247221
1792.0,-0.000318429694743827
1920.0,-0.00031911637051962316
2048.0,0.0001382409973302856
2304.0,-7.391621329588816e-05
2560.0,-0.00017147792095784098
2816.0,-0.00033061494468711317
3072.0,0.00020814707386307418
3328.0,-0.00047722237650305033
3584.0,0.00012725379201583564
3840.0,0.00010646195005392656
4096.0,8.807760605122894e-05
4608.0,0.00010180772369494662
5120.0,-0.00013673014473170042
5632.0,-1.8916030967375264e-05
6144.0,1.8213388102594763e-05
6656.0,2.9117831218172796e-05
7168.0,-0.0005389444413594902
7680.0,0.00012331485049799085
8192.0,0.00010962083615595475
end
