version,3.0
numOfCh,1
type,point
parent_name,0cd20_3dot0-0dot1
ch_type,1_1
kcount,1
numberNandB,1
brightnessNandB,1
carpet pos,0
pc,0
Time (ms),CH1 Auto-Correlation
1.0,0.01825409010052681
2.0,0.015415532514452934
3.0,0.013327442109584808
4.0,0.011610276997089386
5.0,0.010378562845289707
6.0,0.00937090627849102
7.0,0.008501775562763214
8.0,0.00785996112972498
9.0,0.007321968674659729
10.0,0.0067619625478982925
11.0,0.006245613098144531
12.0,0.005802684463560581
13.0,0.005335179623216391
14.0,0.005020535085350275
15.0,0.0046317316591739655
16.0,0.004402941558510065
18.0,0.004060644190758467
20.0,0.003860864555463195
22.0,0.0036448496393859386
24.0,0.003262019483372569
26.0,0.0031093440484255552
28.0,0.0030244621448218822
30.0,0.0028951510321348906
32.0,0.0026705998461693525
36.0,0.0022104126401245594
40.0,0.001959850313141942
44.0,0.0019238826353102922
48.0,0.001800379017367959
52.0,0.0016515711322426796
56.0,0.0015758462250232697
60.0,0.0014413644094020128
64.0,0.0016197047661989927
72.0,0.0007803979679010808
80.0,-4.687856926466338e-05
88.0,-0.0004179599054623395
96.0,-0.000547613890375942
104.0,-0.0006519019370898604
112.0,-0.0008664146298542619
120.0,-0.0007186072180047631
128.0,-7.233424548758194e-05
144.0,-9.579589459463023e-06
160.0,-0.00032784242648631334
176.0,-0.00013508116535376757
192.0,0.0003193037991877645
208.0,0.00032589511829428375
224.0,6.542129995068535e-05
240.0,-0.00019880043691955507
256.0,0.00032450450817123055
288.0,-9.348882304038852e-05
320.0,-0.0004837469896301627
352.0,-9.234026038029697e-06
384.0,-8.526648889528587e-05
416.0,-0.00027433608192950487
448.0,-0.0004163430421613157
480.0,0.00019838720618281513
512.0,4.616325895767659e-06
576.0,-3.123466012766585e-05
640.0,-0.00017833038873504847
704.0,-0.00042564081377349794
768.0,-0.00027363645494915545
832.0,3.6678452488558833e-06
896.0,7.51903498894535e-05
960.0,0.0003051515086553991
1024.0,0.000680383003782481
1152.0,-0.0007147386204451323
1280.0,-0.0006801118142902851
1408.0,-0.0002770356077235192
1536.0,-5.8807356253964826e-05
1664.0,0.0008560168789699674
1792.0,-2.6298786906409077e-05
1920.0,-0.0002632890536915511
2048.0,0.00022862515470478684
2304.0,-0.0002483073913026601
2560.0,0.00034909421810880303
2816.0,-0.00019976991461589932
3072.0,0.00013989114086143672
3328.0,7.122197712305933e-05
3584.0,0.00011568181071197614
3840.0,-8.418528886977583e-05
4096.0,-0.0001784294145181775
4608.0,-0.0001223173749167472
5120.0,-4.328855357016437e-05
5632.0,2.813485116348602e-05
6144.0,-1.7449239749112166e-05
6656.0,-0.00019009703828487545
7168.0,-7.68299196352018e-06
7680.0,4.339665247243829e-05
8192.0,-0.0002926478045992553
end
