version,3.0
numOfCh,1
type,point
parent_name,0cd20_3dot0-0dot1
ch_type,1_1
kcount,1
numberNandB,1
brightnessNandB,1
carpet pos,0
pc,0
Time (ms),CH1 Auto-Correlation
1.0,0.015359531156718731
2.0,0.012548464350402355
3.0,0.010593259707093239
4.0,0.009137988090515137
5.0,0.007832184433937073
6.0,0.00683737313374877
7.0,0.0061311800964176655
8.0,0.005631626583635807
9.0,0.005265968851745129
10.0,0.004931409377604723
11.0,0.004487657453864813
12.0,0.004198845010250807
13.0,0.004009990021586418
14.0,0.0037765514571219683
15.0,0.003543116617947817
16.0,0.003391788573935628
18.0,0.0030398303642868996
20.0,0.0026391835417598486
22.0,0.0021825546864420176
24.0,0.0017260850872844458
26.0,0.001230383524671197
28.0,0.0010375293204560876
30.0,0.0009535490535199642
32.0,0.0006377980462275445
36.0,0.0002270614932058379
40.0,4.406353764352389e-05
44.0,6.652674346696585e-05
48.0,0.0002319338236702606
52.0,0.000493119063321501
56.0,0.0007036856841295958
60.0,0.0004798787704203278
64.0,0.0007654102519154549
72.0,0.0006226128316484392
80.0,0.00037962375790812075
88.0,0.00034251168835908175
96.0,3.2037540222518146e-05
104.0,-0.00013632023183163255
112.0,-0.000344782107276842
120.0,-2.0948038581991568e-05
128.0,-0.00020473168115131557
144.0,3.123788337688893e-05
160.0,0.00036806915886700153
176.0,0.0003875684051308781
192.0,0.0002065239823423326
208.0,0.000139152369229123
224.0,-2.476713234500494e-06
240.0,-0.00021248302073217928
256.0,-4.862344212597236e-05
288.0,-0.0005386784323491156
320.0,-0.0005097843240946531
352.0,-0.0002459511160850525
384.0,-0.0004439926997292787
416.0,-0.00018305561388842762
448.0,7.431920676026493e-05
480.0,0.0001166760703199543
512.0,-4.920665014651604e-05
576.0,-0.00024027594190556556
640.0,-0.0002893762430176139
704.0,0.00024431588826701045
768.0,0.00018963293405249715
832.0,0.0001451979042030871
896.0,0.00027791893808171153
960.0,0.0002119812270393595
1024.0,0.00037351675564423203
1152.0,-0.0001256668329006061
1280.0,-0.00033784459810703993
1408.0,-3.8187292375369e-05
1536.0,-0.00028405344346538186
1664.0,1.5244906535372138e-05
1792.0,0.00027581676840782166
1920.0,-0.00018982442270498723
2048.0,-0.0003000398282893002
2304.0,7.807378278812394e-05
2560.0,-1.2975407116755378e-05
2816.0,-7.52501655369997e-05
3072.0,1.9319155398989096e-05
3328.0,0.00011177349369972944
3584.0,1.540054290671833e-05
3840.0,-0.00045095026143826544
4096.0,4.4902830268256366e-05
4608.0,8.530091145075858e-05
5120.0,-0.00013211207988206297
5632.0,-4.3839709178428166e-06
6144.0,-4.170237298239954e-05
6656.0,0.0001423756475560367
7168.0,0.00020174340170342475
7680.0,9.042528836289421e-05
8192.0,-0.00045833081821911037
end
