version,3.0
numOfCh,1
type,point
parent_name,0cd20_3dot0-0dot1
ch_type,1_1
kcount,1
numberNandB,1
brightnessNandB,1
carpet pos,0
pc,0
Time (ms),CH1 Auto-Correlation
1.0,0.017496420070528984
2.0,0.014584196731448174
3.0,0.012465788051486015
4.0,0.010924752801656723
5.0,0.009612536057829857
6.0,0.008522660471498966
7.0,0.007698924280703068
8.0,0.006962860934436321
9.0,0.0065596578642725945
10.0,0.006082796026021242
11.0,0.005679254420101643
12.0,0.005231567192822695
13.0,0.004858862608671188
14.0,0.004525169730186462
15.0,0.004241693764925003
16.0,0.003932236228138208
18.0,0.0034420432057231665
20.0,0.0030001148115843534
22.0,0.0025032171979546547
24.0,0.002430024789646268
26.0,0.0023404245730489492
28.0,0.0022036663722246885
30.0,0.002019182313233614
32.0,0.0019304229645058513
36.0,0.0015257957857102156
40.0,0.0013749009231105447
44.0,0.0014645287301391363
48.0,0.001468053669668734
52.0,0.0014281760668382049
56.0,0.0013312135124579072
60.0,0.0012800248805433512
64.0,0.0011227804934605956
72.0,0.0010195889044553041
80.0,0.0008788479026407003
88.0,0.000745525467209518
96.0,0.000650646397843957
104.0,0.00021238984481897205
112.0,0.0002262844645883888
120.0,-0.00010188845044467598
128.0,-0.00016688840696588159
144.0,-0.0001255755196325481
160.0,-0.0005761206848546863
176.0,-0.00025767620536498725
192.0,0.00021032709628343582
208.0,-0.0002238972665509209
224.0,-0.00011475289647933096
240.0,0.0002147422346752137
256.0,-3.672270031529479e-05
288.0,0.00015225866809487343
320.0,0.0002503666910342872
352.0,0.0003285809652879834
384.0,0.00018901147996075451
416.0,-7.185144204413518e-05
448.0,-7.664255826966837e-05
480.0,-0.00029225184698589146
512.0,-0.00016602719551883638
576.0,0.0002032016491284594
640.0,-0.0002313397271791473
704.0,-0.00020453707838896662
768.0,-0.0006491717067547143
832.0,9.619825141271576e-05
896.0,0.00046103904605843127
960.0,0.00023751215485390276
1024.0,-0.00015020713908597827
1152.0,0.00017071334877982736
1280.0,0.0008859408553689718
1408.0,0.0003234479227103293
1536.0,1.8936370906885713e-05
1664.0,-9.381736163049936e-05
1792.0,7.422314956784248e-05
1920.0,0.0002499788242857903
2048.0,-8.678447193233296e-05
2304.0,-0.0002974931849166751
2560.0,-2.0881285308860242e-05
2816.0,4.4177082600072026e-05
3072.0,0.0002891664335038513
3328.0,0.0003305086283944547
3584.0,-0.00039304737583734095
3840.0,-0.0003101058828178793
4096.0,-0.00011448443547124043
4608.0,9.807235619518906e-05
5120.0,-0.00020498571393545717
5632.0,-0.0001523932151030749
6144.0,1.5422021533595398e-05
6656.0,-0.00024159766326192766
7168.0,-0.00014228674990590662
7680.0,-0.00010531397128943354
8192.0,-0.0002515375381335616
end
