version,3.0
numOfCh,1
type,point
parent_name,0cd20_3dot0-0dot1
ch_type,1_1
kcount,1
numberNandB,1
brightnessNandB,1
carpet pos,0
pc,0
Time (ms),CH1 Auto-Correlation
1.0,0.03852028399705887
2.0,0.03545767068862915
3.0,0.03303113952279091
4.0,0.03101041167974472
5.0,0.029403872787952423
6.0,0.02795482613146305
7.0,0.026865538209676743
8.0,0.025715578347444534
9.0,0.024776924401521683
10.0,0.024057572707533836
11.0,0.023409677669405937
12.0,0.022936102002859116
13.0,0.02238106168806553
14.0,0.021959621459245682
15.0,0.021443068981170654
16.0,0.021087316796183586
18.0,0.020436998456716537
20.0,0.01972760073840618
22.0,0.01916060410439968
24.0,0.01859433203935623
26.0,0.018176985904574394
28.0,0.017737241461873055
30.0,0.01719421148300171
32.0,0.01659342274069786
36.0,0.0157175213098526
40.0,0.014971843920648098
44.0,0.014570437371730804
48.0,0.014160054735839367
52.0,0.013931049033999443
56.0,0.013814393430948257
60.0,0.013316001743078232
64.0,0.012955828569829464
72.0,0.012149049900472164
80.0,0.01130683720111847
88.0,0.010263248346745968
96.0,0.00986325554549694
104.0,0.010087712667882442
112.0,0.009434070438146591
120.0,0.008561019785702229
128.0,0.00786514487117529
144.0,0.008005174808204174
160.0,0.007383124437183142
176.0,0.006889619864523411
192.0,0.007543961051851511
208.0,0.008133793249726295
224.0,0.0076398481614887714
240.0,0.00805261917412281
256.0,0.009844297543168068
288.0,0.008620350621640682
320.0,0.008246627636253834
352.0,0.007423702161759138
384.0,0.007690550293773413
416.0,0.008545545861124992
448.0,0.009766392409801483
480.0,0.00932167936116457
512.0,0.010290573351085186
576.0,0.010029521770775318
640.0,0.009658458642661572
704.0,0.008574845269322395
768.0,0.006938176695257425
832.0,0.005235081538558006
896.0,0.005400838330388069
960.0,0.005481894128024578
1024.0,0.003697951789945364
1152.0,0.006837837398052216
1280.0,0.0027008443139493465
1408.0,0.0005191369564272463
1536.0,0.0003091181570198387
1664.0,0.002609803806990385
1792.0,0.0004475702589843422
1920.0,-8.628301293356344e-05
2048.0,-0.0009647267870604992
2304.0,-0.0004313891695346683
2560.0,-0.0015690848231315613
2816.0,-0.0009339629905298352
3072.0,-0.002865389222279191
3328.0,-0.0016464204527437687
3584.0,-0.002147483639419079
3840.0,-0.00314325955696404
4096.0,-0.0025681329425424337
4608.0,-0.004565824754536152
5120.0,-0.0051633743569254875
5632.0,-0.004191058222204447
6144.0,-0.0030467913020402193
6656.0,-0.0017454959452152252
7168.0,-0.003271752502769232
7680.0,-0.005625148769468069
8192.0,-0.007634045090526342
end
