version,3.0
numOfCh,1
type,point
parent_name,0cd20_3dot0-0dot1
ch_type,1_1
kcount,1
numberNandB,1
brightnessNandB,1
carpet pos,0
pc,0
Time (ms),CH1 Auto-Correlation
1.0,0.015083695761859417
2.0,0.012301326729357243
3.0,0.010276789776980877
4.0,0.008779400959610939
5.0,0.00766660226508975
6.0,0.006768754683434963
7.0,0.006060190498828888
8.0,0.005487256217747927
9.0,0.005057168658822775
10.0,0.004625278525054455
11.0,0.00427575409412384
12.0,0.003901736345142126
13.0,0.003585450118407607
14.0,0.003292771987617016
15.0,0.0030734252650290728
16.0,0.0027617320884019136
18.0,0.002158843446522951
20.0,0.0018175110453739762
22.0,0.0016848610248416662
24.0,0.0016037489986047149
26.0,0.0014491011388599873
28.0,0.001273281523026526
30.0,0.001222752034664154
32.0,0.0011930814944207668
36.0,0.0015000182902440429
40.0,0.0012984435306861997
44.0,0.0009486640919931233
48.0,0.000991549459286034
52.0,0.0010189253371208906
56.0,0.0008955660741776228
60.0,0.001023203250952065
64.0,0.0007056869799271226
72.0,0.0005710574914701283
80.0,0.00036470466875471175
88.0,0.0003240866935811937
96.0,0.0004042554064653814
104.0,0.0004123013059142977
112.0,0.00043589805136434734
120.0,2.9820454074069858e-05
128.0,-0.00011259115126449615
144.0,0.0005084332660771906
160.0,0.000326140463585034
176.0,0.00021273338643368334
192.0,0.0002058678219327703
208.0,7.326170452870429e-05
224.0,0.00014797422045376152
240.0,0.0003966983058489859
256.0,0.0006884873146191239
288.0,0.0006999847828410566
320.0,-4.212243220536038e-05
352.0,0.00045650883112102747
384.0,0.0005592319066636264
416.0,0.00019063812214881182
448.0,-0.00014052161714062095
480.0,-0.00021099927835166454
512.0,-0.00011283627827651799
576.0,0.00015691001317463815
640.0,0.0001515557087259367
704.0,0.00018978149455506355
768.0,7.211917545646429e-05
832.0,-6.196331378305331e-05
896.0,-0.00016852824774105102
960.0,0.0001535678602522239
1024.0,-0.00011835862824227661
1152.0,2.175145891669672e-05
1280.0,-0.00025611647288315
1408.0,-0.00029517163056880236
1536.0,-0.00010264092270517722
1664.0,-0.00063372275326401
1792.0,-0.0007149411248974502
1920.0,-0.00010283695155521855
2048.0,0.00011330109555274248
2304.0,-0.00016154385230038315
2560.0,-0.0002828528231475502
2816.0,-6.336160004138947e-05
3072.0,0.0002845766139216721
3328.0,0.00013384310295805335
3584.0,0.00014449364971369505
3840.0,-3.6969181564927567e-06
4096.0,-0.0002507358731236309
4608.0,-0.0003218402562197298
5120.0,-0.0003021875163540244
5632.0,0.00022996801999397576
6144.0,0.000604415952693671
6656.0,0.00015605430235154927
7168.0,7.494419696740806e-05
7680.0,-0.00012055873958161101
8192.0,-0.00019868325034622103
end
