version,3.0
numOfCh,1
type,point
parent_name,0cd20_3dot0-0dot1
ch_type,1_1
kcount,1
numberNandB,1
brightnessNandB,1
carpet pos,0
pc,0
Time (ms),CH1 Auto-Correlation
1.0,0.015297743491828442
2.0,0.012455777265131474
3.0,0.01036108285188675
4.0,0.008787984028458595
5.0,0.007620363961905241
6.0,0.006698267534375191
7.0,0.005872517824172974
8.0,0.005137833766639233
9.0,0.00462025310844183
10.0,0.004243591334670782
11.0,0.0039130644872784615
12.0,0.0035956362262368202
13.0,0.0033829219173640013
14.0,0.0031824042089283466
15.0,0.0030812390614300966
16.0,0.0028992651496082544
18.0,0.002472418127581477
20.0,0.0021108826622366905
22.0,0.0017413815949112177
24.0,0.0014950820477679372
26.0,0.0012557931477203965
28.0,0.0012290768790990114
30.0,0.0011358095798641443
32.0,0.0008934184443205595
36.0,0.0005421319510787725
40.0,0.00046006726915948093
44.0,0.0005097488174214959
48.0,0.0005027056322433054
52.0,0.0005535152740776539
56.0,0.0005687862867489457
60.0,0.0006851541111245751
64.0,0.0008366054971702397
72.0,0.0012439702404662967
80.0,0.0007223652210086584
88.0,0.00045478035463020205
96.0,0.000428843661211431
104.0,0.0003989271353930235
112.0,0.0002971469075419009
120.0,5.508839876711136e-06
128.0,0.00011216352140763775
144.0,7.289281347766519e-05
160.0,-0.00029438763158395886
176.0,-0.0009643314406275749
192.0,-0.0005916128284297884
208.0,-0.0003493124386295676
224.0,-7.747958443360403e-05
240.0,6.271999154705554e-05
256.0,-0.00014875733177177608
288.0,0.0002454658970236778
320.0,0.0002018868108280003
352.0,0.0006639601779170334
384.0,-4.799128510057926e-05
416.0,-0.00012753631744999439
448.0,-7.213806384243071e-05
480.0,-0.0001768317015375942
512.0,-3.0086344850133173e-05
576.0,0.00019050718401558697
640.0,5.275203147903085e-05
704.0,-0.00046211545122787356
768.0,-0.00033218643511645496
832.0,0.00020340406626928598
896.0,0.0001107935604522936
960.0,0.0001907218829728663
1024.0,-0.00015660653298255056
1152.0,-0.00010125336848432198
1280.0,7.45808647479862e-05
1408.0,8.037279621930793e-05
1536.0,-0.00019979302305728197
1664.0,-9.004983439808711e-05
1792.0,-0.00019399083976168185
1920.0,0.00033045097370631993
2048.0,0.00024414443760178983
2304.0,0.000218766086618416
2560.0,0.00014983869914431125
2816.0,0.00020226916240062565
3072.0,-0.00024689704878255725
3328.0,-0.0002847647701855749
3584.0,-0.000251109799137339
3840.0,0.0001641284761717543
4096.0,0.00020366886747069657
4608.0,1.7650956579018384e-05
5120.0,4.1321178287034854e-05
5632.0,-0.00017399627540726215
6144.0,2.353225318074692e-05
6656.0,0.00026962929405272007
7168.0,-0.0002026011497946456
7680.0,0.0001370804093312472
8192.0,-0.00026187862385995686
end
