version,3.0
numOfCh,1
type,point
parent_name,0cd20_3dot0-0dot1
ch_type,1_1
kcount,1
numberNandB,1
brightnessNandB,1
carpet pos,0
pc,0
Time (ms),CH1 Auto-Correlation
1.0,0.017398247495293617
2.0,0.01465351041406393
3.0,0.012661246582865715
4.0,0.011177759617567062
5.0,0.009969398379325867
6.0,0.009041124023497105
7.0,0.008269320242106915
8.0,0.007492953445762396
9.0,0.0069555118680000305
10.0,0.0065449308604002
11.0,0.006163636688143015
12.0,0.005842655431479216
13.0,0.00554119236767292
14.0,0.005091833882033825
15.0,0.004676248878240585
16.0,0.004292037803679705
18.0,0.004077904857695103
20.0,0.003952652215957642
22.0,0.0035911505110561848
24.0,0.003267847001552582
26.0,0.0030384515412151814
28.0,0.0027972066309303045
30.0,0.002626528264954686
32.0,0.0025973236188292503
36.0,0.0026266444474458694
40.0,0.0025801043957471848
44.0,0.0023817073088139296
48.0,0.00206613726913929
52.0,0.002140428638085723
56.0,0.0018939974252134562
60.0,0.0014262547483667731
64.0,0.001180953113362193
72.0,0.0015965310158208013
80.0,0.0014506313018500805
88.0,0.0010762076126411557
96.0,0.0009154539438895881
104.0,0.0009761276887729764
112.0,0.0009678248316049576
120.0,0.0006801340496167541
128.0,0.000530024291947484
144.0,0.000515118648763746
160.0,0.0003461678861640394
176.0,-0.00044184905709698796
192.0,-0.00016493145085405558
208.0,-0.000245489994995296
224.0,-0.0003848129417747259
240.0,-3.482095416984521e-05
256.0,-0.00017823871166910976
288.0,-0.0007319243741221726
320.0,-0.00022396314307115972
352.0,0.0001970633602468297
384.0,-0.0002884783025365323
416.0,-0.00011362969235051423
448.0,0.0004011878918390721
480.0,0.00016150137525983155
512.0,-2.137321644113399e-05
576.0,0.0004943055100739002
640.0,0.000499596877489239
704.0,0.00020993224461562932
768.0,8.173267997335643e-05
832.0,3.2054853363661095e-05
896.0,0.00014689957606606185
960.0,0.0006138787139207125
1024.0,0.00011011971218977123
1152.0,-0.0003919109294656664
1280.0,1.000757038127631e-05
1408.0,0.00030640210025012493
1536.0,0.000604181841481477
1664.0,0.00030920046265237033
1792.0,-2.6938449082081206e-05
1920.0,-0.000543546921107918
2048.0,9.223344386555254e-05
2304.0,3.504505002638325e-05
2560.0,-0.0001987806026590988
2816.0,-0.0003452800738159567
3072.0,0.00011455833009677008
3328.0,-0.00029440567595884204
3584.0,-0.00015309265290852636
3840.0,0.0001983320398721844
4096.0,-0.00020775960001628846
4608.0,0.0001482949301134795
5120.0,0.0001922373630804941
5632.0,0.00016294349916279316
6144.0,0.00018307522987015545
6656.0,-0.0002236065483884886
7168.0,0.00036493613151833415
7680.0,-0.0006579881883226335
8192.0,-0.0004099626967217773
end
