version,3.0
numOfCh,1
type,point
parent_name,0cd20_3dot0-0dot1
ch_type,1_1
kcount,1
numberNandB,1
brightnessNandB,1
carpet pos,0
pc,0
Time (ms),CH1 Auto-Correlation
1.0,0.01532871462404728
2.0,0.012419185601174831
3.0,0.01050338614732027
4.0,0.009113827720284462
5.0,0.008052540943026543
6.0,0.007153786718845367
7.0,0.006439405959099531
8.0,0.005932605359703302
9.0,0.005383661016821861
10.0,0.004785597324371338
11.0,0.0042318846099078655
12.0,0.00374626531265676
13.0,0.003444425528869033
14.0,0.003262852318584919
15.0,0.0030994978733360767
16.0,0.0030307346023619175
18.0,0.002720871940255165
20.0,0.0023178572300821543
22.0,0.0020647181663662195
24.0,0.0019504367373883724
26.0,0.0017753175925463438
28.0,0.0014458888908848166
30.0,0.001178884762339294
32.0,0.001112151425331831
36.0,0.0010748280910775065
40.0,0.0009034852264449
44.0,0.0006234918837435544
48.0,0.000596682308241725
52.0,0.000454858411103487
56.0,0.0003025941550731659
60.0,1.966592753888108e-05
64.0,-9.433952072868124e-06
72.0,-0.00018165807705372572
80.0,-0.000419306248659268
88.0,-0.000284495617961511
96.0,6.49726134724915e-05
104.0,0.0004579338419716805
112.0,0.00034605147084221244
120.0,0.00018516171257942915
128.0,0.0001387109950883314
144.0,-0.0004061159852426499
160.0,-0.0009702790412120521
176.0,-0.0010680189589038491
192.0,-0.0007707542972639203
208.0,-0.0009522113832645118
224.0,-0.0007038523908704519
240.0,-0.0002339981438126415
256.0,-0.00016149207658600062
288.0,8.938671817304567e-05
320.0,0.0003058784350287169
352.0,0.00020890541782137007
384.0,0.0001415493170497939
416.0,8.936684025684372e-05
448.0,-0.00059314671671018
480.0,-0.00019300929852761328
512.0,0.00018077576532959938
576.0,0.00011831152369268239
640.0,-0.000612198025919497
704.0,-7.139589433791116e-05
768.0,4.977698336006142e-05
832.0,0.0003006381157319993
896.0,0.0004278755804989487
960.0,-1.8000944692175835e-05
1024.0,0.00012902796152047813
1152.0,-0.00013771017256658524
1280.0,0.00010090995056089014
1408.0,6.639864295721054e-05
1536.0,-0.0004582690307870507
1664.0,0.0004413659917190671
1792.0,-0.000143766199471429
1920.0,-0.0003332767228130251
2048.0,0.00016682024579495192
2304.0,-0.00034476909786462784
2560.0,-3.6364181141834706e-05
2816.0,-7.732964877504855e-05
3072.0,-0.00011851060116896406
3328.0,0.0001663374569034204
3584.0,-0.0003558917378541082
3840.0,-9.041777229867876e-05
4096.0,7.746095798211172e-05
4608.0,0.00011056278890464455
5120.0,0.00015235655882861465
5632.0,0.00010536257468629628
6144.0,1.5941472156555392e-05
6656.0,-1.5961351891746745e-05
7168.0,-8.617083221906796e-05
7680.0,-3.64189654646907e-05
8192.0,-0.00016231235349550843
end
