version,3.0
numOfCh,1
type,point
parent_name,0cd20_3dot0-0dot1
ch_type,1_1
kcount,1
numberNandB,1
brightnessNandB,1
carpet pos,0
pc,0
Time (ms),CH1 Auto-Correlation
1.0,0.01791156269609928
2.0,0.015048244968056679
3.0,0.012914421036839485
4.0,0.011288278736174107
5.0,0.01001124270260334
6.0,0.009038335643708706
7.0,0.008245058357715607
8.0,0.007447174284607172
9.0,0.006938186939805746
10.0,0.0063901906833052635
11.0,0.0061106919310987
12.0,0.005933520849794149
13.0,0.005687834694981575
14.0,0.00543511938303709
15.0,0.005192374810576439
16.0,0.004969176836311817
18.0,0.004617689177393913
20.0,0.004336305428296328
22.0,0.0039538308046758175
24.0,0.003497383091598749
26.0,0.0031554908491671085
28.0,0.0029717234428972006
30.0,0.002807422075420618
32.0,0.0024954569526016712
36.0,0.001992101315408945
40.0,0.0017267762450501323
44.0,0.001511770416982472
48.0,0.0015731413150206208
52.0,0.0012331457110121846
56.0,0.0010279384441673756
60.0,0.0009558991296216846
64.0,0.0010292972438037395
72.0,0.0010180441895499825
80.0,0.0009464652393944561
88.0,0.0009934072149917483
96.0,0.0007757301209494472
104.0,0.0007930888095870614
112.0,0.0005131096113473177
120.0,0.00036803429247811437
128.0,0.00022342437296174467
144.0,-4.470903513720259e-05
160.0,-0.0004607406153809279
176.0,-0.0002126017352566123
192.0,-0.000338538084179163
208.0,-0.0006355280638672411
224.0,-0.0007593301124870777
240.0,-0.0006656283512711525
256.0,-0.0007632118067704141
288.0,-0.0006664034444838762
320.0,-0.0007635994115844369
352.0,-0.0004623184213414788
384.0,-0.0006877637933939695
416.0,-0.0008650588570162654
448.0,-0.0010867369128391147
480.0,0.00022465964138973504
512.0,0.00035546525032259524
576.0,0.0008345545502379537
640.0,0.0006324449786916375
704.0,0.0005389535217545927
768.0,-0.00029661323060281575
832.0,-0.00046397073310799897
896.0,-0.0005716448067687452
960.0,-0.00043334925430826843
1024.0,-0.00032389239640906453
1152.0,-0.0004552111786324531
1280.0,9.920994489220902e-05
1408.0,0.00020753902208525687
1536.0,-0.0005581608274951577
1664.0,0.00014157328405417502
1792.0,-0.0007148943841457367
1920.0,0.0002396331838099286
2048.0,0.00048402920947410166
2304.0,0.0001385605282848701
2560.0,-0.000469470105599612
2816.0,0.0006567630916833878
3072.0,-0.00015732226893305779
3328.0,-0.00029535521753132343
3584.0,0.0002014626661548391
3840.0,-0.0003439997090026736
4096.0,-1.0046319403045345e-05
4608.0,0.00024875503731891513
5120.0,-0.0003921756288036704
5632.0,0.0002825655392371118
6144.0,-0.00030792359029874206
6656.0,-0.00018337256915401667
7168.0,-0.0002767085679806769
7680.0,0.0002993111847899854
8192.0,-1.9407936633797362e-05
end
