version,3.0
numOfCh,1
type,point
parent_name,0cd20_3dot0-0dot1
ch_type,1_1
kcount,1
numberNandB,1
brightnessNandB,1
carpet pos,0
pc,0
Time (ms),CH1 Auto-Correlation
1.0,0.01736106164753437
2.0,0.014473614282906055
3.0,0.01245914213359356
4.0,0.01100662350654602
5.0,0.009889020584523678
6.0,0.00902558583766222
7.0,0.008258785121142864
8.0,0.007553255185484886
9.0,0.0068739065900444984
10.0,0.006390056572854519
11.0,0.005964050069451332
12.0,0.00568875577300787
13.0,0.005387330427765846
14.0,0.0051068952307105064
15.0,0.004742207005620003
16.0,0.004455481190234423
18.0,0.00415013637393713
20.0,0.003866790095344186
22.0,0.0036597205325961113
24.0,0.0033854420762509108
26.0,0.0032185660675168037
28.0,0.00309220002964139
30.0,0.00282877660356462
32.0,0.0026433903258293867
36.0,0.0021658949553966522
40.0,0.0018232022412121296
44.0,0.0014752426650375128
48.0,0.00104175740852952
52.0,0.0008958008256740868
56.0,0.001008103252388537
60.0,0.0009825545130297542
64.0,0.0009039200958795846
72.0,0.0007058756891638041
80.0,0.0006021158769726753
88.0,0.0005327433464117348
96.0,0.0005530546186491847
104.0,0.0005386126576922834
112.0,0.0005519374972209334
120.0,0.0002274577273055911
128.0,0.0008852141327224672
144.0,0.00035990795004181564
160.0,-0.00016565012629143894
176.0,-0.0003562421479728073
192.0,-0.0004859800392296165
208.0,-0.00024030826170928776
224.0,-9.633684385335073e-05
240.0,-0.0002803028328344226
256.0,-0.0007397952140308917
288.0,-0.00032532960176467896
320.0,-0.00010607958392938599
352.0,-0.0009383255382999778
384.0,-0.0006070657982490957
416.0,0.0001343087205896154
448.0,-0.00029293412808328867
480.0,-0.0010162125108763576
512.0,-0.0005108357290737331
576.0,-0.00042846138239838183
640.0,-0.00020211660012137145
704.0,-0.0003055676643270999
768.0,0.000176304136402905
832.0,0.00043234950862824917
896.0,0.00045440904796123505
960.0,0.00013151626626495272
1024.0,-0.0005457758088596165
1152.0,-2.7913001758861355e-05
1280.0,0.00013843787019141018
1408.0,-0.0002495642111171037
1536.0,-0.00010016951273428276
1664.0,-0.0002786391705740243
1792.0,0.00016180932288989425
1920.0,-6.391199713107198e-05
2048.0,-0.00043091841507703066
2304.0,0.0004950027796439826
2560.0,-8.861240348778665e-05
2816.0,-0.00043218821519985795
3072.0,0.0003298474184703082
3328.0,-1.5031808288767934e-05
3584.0,0.0004244040756020695
3840.0,-0.0004884015070274472
4096.0,0.0005274814320728183
4608.0,-1.1514825928315986e-05
5120.0,-9.09054942894727e-05
5632.0,-0.0002638010773807764
6144.0,7.728710625087842e-05
6656.0,0.00035739594022743404
7168.0,-0.0003878823481500149
7680.0,-9.602629870641977e-05
8192.0,0.00018920557340607047
end
