version,3.0
numOfCh,1
type,point
parent_name,0cd20_3dot0-0dot1
ch_type,1_1
kcount,1
numberNandB,1
brightnessNandB,1
carpet pos,0
pc,0
Time (ms),CH1 Auto-Correlation
1.0,0.01770935393869877
2.0,0.01478661596775055
3.0,0.012616767548024654
4.0,0.011071725748479366
5.0,0.009876159951090813
6.0,0.00881079863756895
7.0,0.007998110726475716
8.0,0.0073766205459833145
9.0,0.006908516399562359
10.0,0.006577679421752691
11.0,0.006240592338144779
12.0,0.005821942817419767
13.0,0.005403534043580294
14.0,0.0050708395428955555
15.0,0.004841851536184549
16.0,0.004683094099164009
18.0,0.004315516911447048
20.0,0.003922120667994022
22.0,0.00379540934227407
24.0,0.0037792662624269724
26.0,0.00381058850325644
28.0,0.0038188460748642683
30.0,0.003911202773451805
32.0,0.0038298603612929583
36.0,0.00308670150116086
40.0,0.00254694907926023
44.0,0.002406884916126728
48.0,0.002408461645245552
52.0,0.002179369330406189
56.0,0.0023443892132490873
60.0,0.0020605758763849735
64.0,0.001522053382359445
72.0,0.0008704509236849844
80.0,0.0007799921440891922
88.0,0.0006117316661402583
96.0,0.0009958419250324368
104.0,0.0010394613491371274
112.0,0.0009118425077758729
120.0,0.0004336974525358528
128.0,0.00032208848278969526
144.0,0.000351966533344239
160.0,0.0004605056601576507
176.0,0.000492968421895057
192.0,0.00029877733322791755
208.0,0.00046627959818579257
224.0,0.0001843498757807538
240.0,0.00035342227783985436
256.0,-2.0492685507633723e-05
288.0,0.0002701330231502652
320.0,0.0008053170167841017
352.0,0.0010475171729922295
384.0,0.0005776319303549826
416.0,-0.0003495340934023261
448.0,-0.0005845263367518783
480.0,-0.00010008174285758287
512.0,-1.7637630662648007e-05
576.0,-0.00016090339340735227
640.0,-0.0005371544393710792
704.0,-0.0003265294653829187
768.0,-0.00015576192527078092
832.0,-0.000759327202104032
896.0,-9.991326805902645e-05
960.0,-0.0001991000899579376
1024.0,-0.00023525602591689676
1152.0,-0.0007288295892067254
1280.0,-0.0006709567387588322
1408.0,-0.00010101464431500062
1536.0,-0.0008164855535142124
1664.0,-4.254797750036232e-05
1792.0,-0.0005712716956622899
1920.0,-0.00034851746750064194
2048.0,-2.849640804925002e-05
2304.0,-0.00015830328629817814
2560.0,0.0006047006463631988
2816.0,0.000765572942327708
3072.0,0.000492498860694468
3328.0,0.00025100362836383283
3584.0,-5.287277963361703e-05
3840.0,-0.0001067237535608001
4096.0,-0.0004914281889796257
4608.0,-6.031259908922948e-05
5120.0,-0.0004632812924683094
5632.0,0.0008473134366795421
6144.0,-5.138056440046057e-05
6656.0,-0.00043566341628320515
7168.0,2.082078754028771e-05
7680.0,-0.000757357629481703
8192.0,5.726399649574887e-06
end
