version,3.0
numOfCh,1
type,point
parent_name,0cd20_3dot0-0dot1
ch_type,1_1
kcount,1
numberNandB,1
brightnessNandB,1
carpet pos,0
pc,0
Time (ms),CH1 Auto-Correlation
1.0,0.016208145767450333
2.0,0.013315467163920403
3.0,0.011245972476899624
4.0,0.009632278233766556
5.0,0.00847088173031807
6.0,0.007715409155935049
7.0,0.007013177033513784
8.0,0.0064758737571537495
9.0,0.0059835645370185375
10.0,0.005452555138617754
11.0,0.005047827027738094
12.0,0.004753206390887499
13.0,0.004495727363973856
14.0,0.004376391414552927
15.0,0.004248733166605234
16.0,0.003993160091340542
18.0,0.003567694453522563
20.0,0.003366322023794055
22.0,0.003006977029144764
24.0,0.002693577203899622
26.0,0.0024847330059856176
28.0,0.002182342577725649
30.0,0.0020481599494814873
32.0,0.0019442789489403367
36.0,0.001853971160016954
40.0,0.00194041826762259
44.0,0.0017872531898319721
48.0,0.0014716405421495438
52.0,0.0012640643399208784
56.0,0.001115713152103126
60.0,0.0008967546746134758
64.0,0.000702481425832957
72.0,0.0007079992792569101
80.0,0.0005409928853623569
88.0,0.00043991979327984154
96.0,0.0005808460409753025
104.0,0.0006796136731281877
112.0,0.00017734631546773016
120.0,0.00019485423399601132
128.0,0.0004137661017011851
144.0,0.0003824064915534109
160.0,-0.00013628888700623065
176.0,-7.063613156788051e-05
192.0,0.0004619511018972844
208.0,0.00020645017502829432
224.0,0.00030823415727354586
240.0,0.0005301508354023099
256.0,0.0004951829323545098
288.0,0.0006777464295737445
320.0,0.0002788080892059952
352.0,-0.00013678886170964688
384.0,-2.4729009965085424e-05
416.0,-0.0006417014519684017
448.0,-0.0004333984397817403
480.0,-0.00022815258125774562
512.0,-0.0005411060992628336
576.0,-0.00047860489576123655
640.0,0.0006373575306497514
704.0,-0.0003253920585848391
768.0,3.070809907512739e-05
832.0,-0.00013072341971565038
896.0,0.0005161730223335326
960.0,0.00015704678662586957
1024.0,-1.576032991579268e-05
1152.0,-0.0002479790127836168
1280.0,-0.0007952835876494646
1408.0,-0.0008603415917605162
1536.0,5.099430927657522e-05
1664.0,-0.00011886090942425653
1792.0,3.729711170308292e-05
1920.0,0.0003126827359665185
2048.0,-0.00023793957370799035
2304.0,0.00036248977994546294
2560.0,-0.00020082142145838588
2816.0,-0.00016432850679848343
3072.0,0.0001019928022287786
3328.0,-0.00015233730664476752
3584.0,-0.0008106898167170584
3840.0,8.0333229561802e-05
4096.0,0.0006429672939702868
4608.0,0.0004758868017233908
5120.0,-0.00025955543969757855
5632.0,-1.828311724239029e-05
6144.0,-0.00036501334398053586
6656.0,-0.00027105826302431524
7168.0,0.0004316363192629069
7680.0,-0.00015268191054929048
8192.0,-8.21808644104749e-05
end
