version,3.0
numOfCh,1
type,point
parent_name,0cd20_3dot0-0dot1
ch_type,1_1
kcount,1
numberNandB,1
brightnessNandB,1
carpet pos,0
pc,0
Time (ms),CH1 Auto-Correlation
1.0,0.016473887488245964
2.0,0.013552695512771606
3.0,0.01149899885058403
4.0,0.010052314959466457
5.0,0.008842319250106812
6.0,0.007947992533445358
7.0,0.007270291447639465
8.0,0.006654092110693455
9.0,0.006076443009078503
10.0,0.005595732945948839
11.0,0.005200585350394249
12.0,0.004930457100272179
13.0,0.004664954729378223
14.0,0.004260709043592215
15.0,0.003877194132655859
16.0,0.0037407875061035156
18.0,0.0033575771376490593
20.0,0.0031055796425789595
22.0,0.0029806969687342644
24.0,0.002758749295026064
26.0,0.0023586663883179426
28.0,0.0020689531229436398
30.0,0.001876881462521851
32.0,0.001768292160704732
36.0,0.001478109392337501
40.0,0.0013136067427694798
44.0,0.0012381199048832059
48.0,0.0009472427773289382
52.0,0.000993533176369965
56.0,0.000867013237439096
60.0,0.0008204862824641168
64.0,0.0007292909431271255
72.0,0.0008681509061716497
80.0,0.000846854702103883
88.0,0.000670533103402704
96.0,0.0006906589260324836
104.0,0.0005148050258867443
112.0,-0.00022871873807162046
120.0,-9.232907905243337e-05
128.0,-0.00013640025281347334
144.0,0.00022481671476271003
160.0,0.00017784487863536924
176.0,0.00037404612521640956
192.0,0.00011468990851426497
208.0,0.0005236780853010714
224.0,0.00034777060500346124
240.0,0.00024234486045315862
256.0,0.0003873925597872585
288.0,0.0005430186865851283
320.0,-6.232680607354268e-05
352.0,1.0728705092333257e-05
384.0,-0.00012245668040122837
416.0,-0.0005338203045539558
448.0,1.4334576917462982e-05
480.0,0.0004952041781507432
512.0,0.0006503879558295012
576.0,-0.0002753685985226184
640.0,-0.0003395422245375812
704.0,-0.00023115883232094347
768.0,-6.007240153849125e-05
832.0,0.0002572260273154825
896.0,5.6207500165328383e-05
960.0,0.00012632604921236634
1024.0,9.640644566388801e-05
1152.0,0.0006099142483435571
1280.0,-0.00026635677204467356
1408.0,0.00032685347832739353
1536.0,-0.00010814508277690038
1664.0,0.00026468545547686517
1792.0,-3.956475484301336e-05
1920.0,5.2123130444670096e-05
2048.0,-2.556982963142218e-07
2304.0,-0.00012278990470804274
2560.0,0.00011662873293971643
2816.0,8.148409506247845e-06
3072.0,-0.00017182284500449896
3328.0,-0.0004181958793196827
3584.0,-0.00030430936021730304
3840.0,-5.5729655286995694e-05
4096.0,-5.918554961681366e-05
4608.0,9.333997877547517e-05
5120.0,2.8561358703882433e-05
5632.0,-1.8190852642874233e-05
6144.0,0.00010926266259048134
6656.0,-4.10265929531306e-05
7168.0,1.2248626262589823e-05
7680.0,-0.0004834567953366786
8192.0,-0.00010992808529408649
end
