version,3.0
numOfCh,1
type,point
parent_name,0cd20_3dot0-0dot1
ch_type,1_1
kcount,1
numberNandB,1
brightnessNandB,1
carpet pos,0
pc,0
Time (ms),CH1 Auto-Correlation
1.0,0.015299967490136623
2.0,0.01234898716211319
3.0,0.010329069569706917
4.0,0.008852513507008553
5.0,0.0076933447271585464
6.0,0.006791823543608189
7.0,0.006199945230036974
8.0,0.005591348744928837
9.0,0.005162613932043314
10.0,0.004840049892663956
11.0,0.004469538573175669
12.0,0.00414913147687912
13.0,0.0038373025599867105
14.0,0.003499184502288699
15.0,0.0032022057566791773
16.0,0.0029029552824795246
18.0,0.002298802835866809
20.0,0.001973534934222698
22.0,0.001815985655412078
24.0,0.0015822936547920108
26.0,0.0013959595235064626
28.0,0.0011573639931157231
30.0,0.0010294560343027115
32.0,0.0009481837041676044
36.0,0.0010208801832050085
40.0,0.0010729311034083366
44.0,0.0009118183515965939
48.0,0.0007018375908955932
52.0,0.0005646569770760834
56.0,0.0005688610835932195
60.0,0.0005703179049305618
64.0,0.0006473446264863014
72.0,0.0006930225645191967
80.0,0.00028871206450276077
88.0,-0.00025023537455126643
96.0,-0.0003579724580049515
104.0,3.676043706946075e-05
112.0,0.0004880711203441024
120.0,0.0004884092486463487
128.0,0.00046303842100314796
144.0,0.00041658690315671265
160.0,1.2399031220411416e-05
176.0,-0.00011933149653486907
192.0,-0.0001629918406251818
208.0,-0.0001266018662136048
224.0,-3.0999231967143714e-05
240.0,4.21312142862007e-06
256.0,5.52360579604283e-05
288.0,0.0003593444998841733
320.0,9.459667489863932e-05
352.0,0.0003394265950191766
384.0,7.214188372017816e-05
416.0,0.00043166824616491795
448.0,0.00018356549844611436
480.0,0.0005998031119816005
512.0,0.0004560451488941908
576.0,-3.834743256447837e-05
640.0,0.0001622993004275486
704.0,9.348644198325928e-06
768.0,-0.0001490611321059987
832.0,-3.331774132675491e-05
896.0,-0.00020178619888611138
960.0,0.00039353154716081917
1024.0,0.00018741018720902503
1152.0,0.0003343326970934868
1280.0,0.000283688073977828
1408.0,0.00010286697943229228
1536.0,0.00026562451967038214
1664.0,-0.00010224537982139736
1792.0,0.0001466913818148896
1920.0,1.9988576241303235e-05
2048.0,-0.00026864372193813324
2304.0,-0.00014769331028219312
2560.0,0.00013800093438476324
2816.0,2.8769121854566038e-05
3072.0,4.162782715866342e-05
3328.0,-0.0002051554329227656
3584.0,-0.0002175991830881685
3840.0,4.673283183365129e-05
4096.0,-0.00020712157129310071
4608.0,-0.000590024224948138
5120.0,-0.0002691248373594135
5632.0,-0.00018048222409561276
6144.0,-5.6958600907819346e-05
6656.0,3.1384610338136554e-05
7168.0,1.896998037409503e-05
7680.0,-0.00011303155042696744
8192.0,2.2900727344676852e-05
end
