version,3.0
numOfCh,1
type,point
parent_name,0cd20_3dot0-0dot1
ch_type,1_1
kcount,1
numberNandB,1
brightnessNandB,1
carpet pos,0
pc,0
Time (ms),CH1 Auto-Correlation
1.0,0.016149977222085
2.0,0.013390677981078625
3.0,0.011392668820917606
4.0,0.00991099327802658
5.0,0.008710553869605064
6.0,0.007742414716631174
7.0,0.006889633368700743
8.0,0.006270923651754856
9.0,0.005753564182668924
10.0,0.005301772616803646
11.0,0.004971165210008621
12.0,0.004696148447692394
13.0,0.004451997112482786
14.0,0.004264717921614647
15.0,0.003954601474106312
16.0,0.003692405065521598
18.0,0.0033288667909801006
20.0,0.0029106575530022383
22.0,0.0024856620002537966
24.0,0.002301909727975726
26.0,0.002135366667062044
28.0,0.0018966832431033254
30.0,0.001822526566684246
32.0,0.0016040278133004904
36.0,0.0012149225221946836
40.0,0.0007345938356593251
44.0,0.0007506972760893404
48.0,0.00042829077574424446
52.0,0.00024384362041018903
56.0,0.0002215533168055117
60.0,2.5179317162837833e-05
64.0,0.00012413608783390373
72.0,0.00010637418745318428
80.0,-0.00016514105664100498
88.0,9.796250378713012e-05
96.0,8.403450920013711e-05
104.0,4.549717777990736e-05
112.0,-0.00015228077245410532
120.0,-0.0002794926112983376
128.0,-0.00022051806445233524
144.0,0.00041035047615878284
160.0,-0.00028503366047516465
176.0,-0.00021054132957942784
192.0,-0.00045238638995215297
208.0,-0.00030903247534297407
224.0,-0.0002242678456241265
240.0,-0.00017909925372805446
256.0,-1.62423457368277e-05
288.0,0.00033905450254678726
320.0,8.772193541517481e-05
352.0,-0.00020161992870271206
384.0,3.3632979466347024e-05
416.0,-0.00024984643096104264
448.0,-0.00023172155488282442
480.0,-0.00036152603570371866
512.0,-6.0540944105014205e-05
576.0,0.00025575002655386925
640.0,0.000358282879460603
704.0,1.6597517969785258e-05
768.0,3.262540758441901e-06
832.0,0.00025874696439132094
896.0,0.00011291879491182044
960.0,-0.00027132974355481565
1024.0,-0.00029805515077896416
1152.0,-0.0003597559698391706
1280.0,1.7931315596797504e-05
1408.0,0.0003453944227658212
1536.0,0.0002410671004327014
1664.0,4.559621447697282e-05
1792.0,-0.0004205451114103198
1920.0,0.00014085881412029266
2048.0,0.00023368479742202908
2304.0,-9.319678792962804e-05
2560.0,-9.383024735143408e-05
2816.0,4.2753206798806787e-05
3072.0,-0.0002766670659184456
3328.0,-8.718946628505364e-05
3584.0,-4.000092303613201e-05
3840.0,-0.0005386620759963989
4096.0,0.0003327108279336244
4608.0,1.3029161891608965e-05
5120.0,-0.00020008257706649601
5632.0,9.525592031423002e-05
6144.0,0.0001311835367232561
6656.0,1.9924123989767395e-05
7168.0,0.00010784420737763867
7680.0,6.29974965704605e-05
8192.0,-0.00012586041702888906
end
