version,3.0
numOfCh,1
type,point
parent_name,0cd20_3dot0-0dot1
ch_type,1_1
kcount,1
numberNandB,1
brightnessNandB,1
carpet pos,0
pc,0
Time (ms),CH1 Auto-Correlation
1.0,0.014972463250160217
2.0,0.012109391391277313
3.0,0.010013073682785034
4.0,0.008423857390880585
5.0,0.0072305151261389256
6.0,0.006284912582486868
7.0,0.005601590499281883
8.0,0.004944556392729282
9.0,0.00438755052164197
10.0,0.003926178440451622
11.0,0.0036261831410229206
12.0,0.003435635007917881
13.0,0.003285398706793785
14.0,0.0031131466384977102
15.0,0.0030041360296308994
16.0,0.00283001153729856
18.0,0.0024314720649272203
20.0,0.0019059075275436044
22.0,0.0015317148063331842
24.0,0.0014161592116579413
26.0,0.0012899837456643581
28.0,0.0012433063238859177
30.0,0.0013191546313464642
32.0,0.0012282064417377114
36.0,0.0012339602690190077
40.0,0.0012139208847656846
44.0,0.0014172445517033339
48.0,0.0011980443960055709
52.0,0.0010442837374284863
56.0,0.0008851100574247539
60.0,0.0009460618603043258
64.0,0.0009223109227605164
72.0,0.0010182501282542944
80.0,0.0010913374135270715
88.0,0.0007425041985698044
96.0,0.0004137359792366624
104.0,0.0006410088972188532
112.0,0.0005862566758878529
120.0,0.00032036443008109927
128.0,-5.373193198465742e-05
144.0,3.0914183298591524e-05
160.0,0.00028618099167943
176.0,-9.46946965996176e-06
192.0,-0.00031079904874786735
208.0,1.7772104911273345e-05
224.0,-0.00020089039753656834
240.0,-7.63225179980509e-05
256.0,-6.5312568040099e-05
288.0,-0.0003266005078330636
320.0,-0.0001358779554720968
352.0,-0.00025774966343306005
384.0,-0.00029305389034561813
416.0,-8.84358087205328e-05
448.0,-0.00029165655723772943
480.0,-0.0001528121647424996
512.0,0.0003057862923014909
576.0,0.00014855140761937946
640.0,6.967678928049281e-05
704.0,0.00032421600189991295
768.0,0.00034198295907117426
832.0,0.0007555988267995417
896.0,0.00022128921409603208
960.0,-0.00034914983552880585
1024.0,-0.0004917331389151514
1152.0,-0.0002467143931426108
1280.0,8.268104465969373e-06
1408.0,0.00038158311508595943
1536.0,0.000323032058076933
1664.0,0.00021234604355413467
1792.0,-2.3387896362692118e-05
1920.0,3.409298733458854e-05
2048.0,-0.00027868521283380687
2304.0,8.154304669005796e-05
2560.0,2.207781835750211e-05
2816.0,-5.038139715907164e-05
3072.0,-0.00015912628441583365
3328.0,-7.414015999529511e-05
3584.0,0.00019778136629611254
3840.0,1.733449607854709e-05
4096.0,-0.00015434717352036387
4608.0,0.00015881912258919328
5120.0,8.587489719502628e-05
5632.0,-0.00014708974049426615
6144.0,-8.435163908870891e-05
6656.0,9.002270417113323e-06
7168.0,-0.0002916576631832868
7680.0,-0.0002908073947764933
8192.0,0.00019641418475657701
end
