version,3.0
numOfCh,1
type,point
parent_name,0cd20_3dot0-0dot1
ch_type,1_1
kcount,1
numberNandB,1
brightnessNandB,1
carpet pos,0
pc,0
Time (ms),CH1 Auto-Correlation
1.0,0.01470378041267395
2.0,0.011894653551280499
3.0,0.009988520294427872
4.0,0.00849837251007557
5.0,0.007402378134429455
6.0,0.0065249307081103325
7.0,0.005799023900181055
8.0,0.005206969100981951
9.0,0.00451944675296545
10.0,0.0039702425710856915
11.0,0.003534340765327215
12.0,0.003252337221056223
13.0,0.0029812343418598175
14.0,0.0026546167209744453
15.0,0.002411397872492671
16.0,0.002295441459864378
18.0,0.002008399460464716
20.0,0.001743600587360561
22.0,0.0017500822432339191
24.0,0.001771900919266045
26.0,0.0017275458667427301
28.0,0.0015733498148620129
30.0,0.0014438624493777752
32.0,0.0012911007506772876
36.0,0.0009137424640357494
40.0,0.000785278039984405
44.0,0.0005562775186263025
48.0,0.00043352210195735097
52.0,0.00032152593485079706
56.0,0.0002858408261090517
60.0,0.00037924692151136696
64.0,0.00046052277320995927
72.0,0.0004481774813029915
80.0,9.574352588970214e-05
88.0,-8.388710557483137e-05
96.0,-4.715283239420387e-07
104.0,0.00026359083130955696
112.0,0.0006154653965495527
120.0,0.0006724569830112159
128.0,0.0004656653036363423
144.0,5.1864033594029024e-05
160.0,-0.0001577026559971273
176.0,0.00020072568440809846
192.0,-0.00048565908218733966
208.0,-0.00023025395057629794
224.0,0.0005525059532374144
240.0,0.0004895040765404701
256.0,0.0005206923233345151
288.0,0.00016480583872180432
320.0,-0.00022518877813126892
352.0,-0.00025952403666451573
384.0,-4.0583945519756526e-05
416.0,6.530734390253201e-05
448.0,-0.00015699815412517637
480.0,0.00032961979741230607
512.0,0.0005161006120033562
576.0,0.0004589287855196744
640.0,6.138997559901327e-05
704.0,-0.0003022837918251753
768.0,0.00011989067570539191
832.0,-0.00014642758469562978
896.0,-0.00020099832909181714
960.0,5.9420413890620694e-05
1024.0,-0.0003454703837633133
1152.0,-0.00042489668703638017
1280.0,3.6138870200375095e-05
1408.0,7.704743620706722e-05
1536.0,-0.00011341392382746562
1664.0,-0.00011074050416937098
1792.0,0.00019568248535506427
1920.0,9.235093602910638e-05
2048.0,0.00011090930638602003
2304.0,9.291413334722165e-06
2560.0,-0.00016237226373050362
2816.0,-7.910512067610398e-06
3072.0,-7.941648073028773e-05
3328.0,0.0003682806855067611
3584.0,0.00031149451388046145
3840.0,3.0490517019643448e-05
4096.0,-0.00011131392238894477
4608.0,-0.00035157206002622843
5120.0,-6.552454578923061e-05
5632.0,-4.396750591695309e-05
6144.0,-9.782853885553777e-05
6656.0,2.4092259991448373e-05
7168.0,0.00010223172284895554
7680.0,-0.00018765874847304076
8192.0,-0.0002565383620094508
end
