version,3.0
numOfCh,1
type,point
parent_name,1-cuts
ch_type,1_1
kcount,1
numberNandB,1
brightnessNandB,1
carpet pos,0
pc,0
Time (ms),CH1 Auto-Correlation
1.0,0.12105906754732132
2.0,0.12046011537313461
3.0,0.11986926943063736
4.0,0.11929883807897568
5.0,0.11871901899576187
6.0,0.11812609434127808
7.0,0.11754436045885086
8.0,0.11696108430624008
9.0,0.11637706309556961
10.0,0.11577637493610382
11.0,0.11517364531755447
12.0,0.11456812173128128
13.0,0.11395922303199768
14.0,0.11336571723222733
15.0,0.11277676373720169
16.0,0.11219977587461472
18.0,0.11103833466768265
20.0,0.10987935215234756
22.0,0.10874063521623611
24.0,0.10762592405080795
26.0,0.10653921961784363
28.0,0.10546591132879257
30.0,0.1044490709900856
32.0,0.10349616408348083
36.0,0.101654551923275
40.0,0.09992320090532303
44.0,0.09829594194889069
48.0,0.0967550203204155
52.0,0.09526684135198593
56.0,0.09384284913539886
60.0,0.09240996092557907
64.0,0.09102893620729446
72.0,0.0884149819612503
80.0,0.08594296127557755
88.0,0.08366253226995468
96.0,0.08160800486803055
104.0,0.07952960580587387
112.0,0.07731644064188004
120.0,0.07522167265415192
128.0,0.0733601301908493
144.0,0.07074957340955734
160.0,0.06883139163255692
176.0,0.0666901245713234
192.0,0.06464936584234238
208.0,0.0627838522195816
224.0,0.06052649766206741
240.0,0.057731229811906815
256.0,0.05510811507701874
288.0,0.04971884936094284
320.0,0.04468081519007683
352.0,0.03856402635574341
384.0,0.034188058227300644
416.0,0.030077021569013596
448.0,0.025656402111053467
480.0,0.021340854465961456
512.0,0.016995396465063095
576.0,0.009671465493738651
640.0,0.001925644581206143
704.0,-0.004807392600923777
768.0,-0.007654472254216671
832.0,-0.010899548418819904
896.0,-0.013675155118107796
960.0,-0.013488884083926678
1024.0,-0.012120839208364487
1152.0,-0.014846167527139187
1280.0,-0.016785653308033943
1408.0,-0.02187402732670307
1536.0,-0.021154144778847694
1664.0,-0.01897030882537365
1792.0,-0.01575920358300209
1920.0,-0.017602046951651573
2048.0,-0.014862802810966969
2304.0,-0.003751894924789667
2560.0,-0.007651412393897772
2816.0,-0.002085816115140915
3072.0,-0.0019568917341530323
3328.0,-0.0021084134932607412
3584.0,-0.008391745388507843
3840.0,-0.010126741603016853
4096.0,0.01124381273984909
4608.0,0.014630554243922234
5120.0,0.00043930369429290295
5632.0,-0.011337240226566792
6144.0,-0.00877400767058134
6656.0,-0.008856737986207008
7168.0,-0.0013859563041478395
7680.0,0.004501542542129755
8192.0,0.01748398318886757
9216.0,-0.0011845874832943082
10240.0,-0.02313322387635708
11264.0,0.004479901399463415
12288.0,0.011130350641906261
13312.0,-0.03765721991658211
14336.0,0.0070116338320076466
end
