version,3.0
numOfCh,1
type,point
parent_name,1-cuts
ch_type,1_1
kcount,1
numberNandB,1
brightnessNandB,1
carpet pos,0
pc,0
Time (ms),CH1 Auto-Correlation
1.0,0.062100112438201904
2.0,0.061658915132284164
3.0,0.06122780963778496
4.0,0.06080923601984978
5.0,0.06039508804678917
6.0,0.05999409034848213
7.0,0.059586770832538605
8.0,0.05918312072753906
9.0,0.05879132077097893
10.0,0.05840878561139107
11.0,0.05803252384066582
12.0,0.057665299624204636
13.0,0.05730633810162544
14.0,0.05694275721907616
15.0,0.05657533183693886
16.0,0.05619702860713005
18.0,0.05547487363219261
20.0,0.05477956682443619
22.0,0.05410043150186539
24.0,0.053427062928676605
26.0,0.052759088575839996
28.0,0.05210263654589653
30.0,0.05146779119968414
32.0,0.05084248259663582
36.0,0.04961705952882767
40.0,0.04845067113637924
44.0,0.047294922173023224
48.0,0.046149492263793945
52.0,0.04508182033896446
56.0,0.044063128530979156
60.0,0.04307335242629051
64.0,0.04212462902069092
72.0,0.0403255820274353
80.0,0.038529008626937866
88.0,0.03675715997815132
96.0,0.035167306661605835
104.0,0.03359207138419151
112.0,0.0320681557059288
120.0,0.03067486733198166
128.0,0.02939368225634098
144.0,0.027296103537082672
160.0,0.02529195137321949
176.0,0.023325718939304352
192.0,0.02151026949286461
208.0,0.019983448088169098
224.0,0.01882939226925373
240.0,0.017950216308236122
256.0,0.017188208177685738
288.0,0.015619435347616673
320.0,0.014349853619933128
352.0,0.013281119056046009
384.0,0.012980191968381405
416.0,0.013662400655448437
448.0,0.012920011766254902
480.0,0.01144228782504797
512.0,0.009664414450526237
576.0,0.007583989761769772
640.0,0.0037391756195575
704.0,-0.0002358143392484635
768.0,-0.003193252719938755
832.0,-0.003770627314224839
896.0,-0.00524245947599411
960.0,-0.0063472832553088665
1024.0,-0.007429045625030994
1152.0,-0.01066010445356369
1280.0,-0.01492681447416544
1408.0,-0.011914738453924656
1536.0,-0.01373574323952198
1664.0,-0.01597742922604084
1792.0,-0.012528733350336552
1920.0,-0.009101872332394123
2048.0,-0.005795668810606003
2304.0,-0.00026682254974730313
2560.0,0.009643654339015484
2816.0,0.008032468147575855
3072.0,0.011089772917330265
3328.0,0.0065658120438456535
3584.0,-0.0036702121142297983
3840.0,-0.008886871859431267
4096.0,-0.011613192036747932
4608.0,-0.007476135157048702
5120.0,0.008318301290273666
5632.0,0.01181783340871334
6144.0,0.00712404353544116
6656.0,-0.0044449265114963055
7168.0,-0.010575789958238602
7680.0,-0.00827648863196373
8192.0,-0.001904319622553885
9216.0,0.005563188809901476
10240.0,-0.006510504987090826
11264.0,0.0006670249858871102
12288.0,0.0005154343089088798
13312.0,-0.013049923814833164
14336.0,0.0087124677374959
end
