version,3.0
numOfCh,1
type,point
parent_name,1-cuts
ch_type,1_1
kcount,1
numberNandB,1
brightnessNandB,1
carpet pos,0
pc,0
Time (ms),CH1 Auto-Correlation
1.0,0.13897085189819336
2.0,0.13837508857250214
3.0,0.13779403269290924
4.0,0.13720744848251343
5.0,0.1366228610277176
6.0,0.13605520129203796
7.0,0.13549040257930756
8.0,0.13492803275585175
9.0,0.13436682522296906
10.0,0.133821502327919
11.0,0.13327109813690186
12.0,0.13270758092403412
13.0,0.13214676082134247
14.0,0.13159061968326569
15.0,0.13105833530426025
16.0,0.130525141954422
18.0,0.12948352098464966
20.0,0.12844406068325043
22.0,0.1274620145559311
24.0,0.12651953101158142
26.0,0.125589519739151
28.0,0.12468701601028442
30.0,0.12379664182662964
32.0,0.12293022871017456
36.0,0.1212543472647667
40.0,0.11951397359371185
44.0,0.11773975938558578
48.0,0.11605026572942734
52.0,0.11438623070716858
56.0,0.1126924678683281
60.0,0.11108816415071487
64.0,0.10954976826906204
72.0,0.10686328262090683
80.0,0.10430681705474854
88.0,0.10189146548509598
96.0,0.09954298287630081
104.0,0.09734074771404266
112.0,0.0950026661157608
120.0,0.09290366619825363
128.0,0.09112026542425156
144.0,0.08735575526952744
160.0,0.08411464840173721
176.0,0.08155404031276703
192.0,0.0792907327413559
208.0,0.0776965543627739
224.0,0.07653329521417618
240.0,0.07527369260787964
256.0,0.07411716133356094
288.0,0.07087361812591553
320.0,0.06740915775299072
352.0,0.06390146911144257
384.0,0.061406418681144714
416.0,0.05943354219198227
448.0,0.05810363218188286
480.0,0.05717099457979202
512.0,0.05635813623666763
576.0,0.0572962760925293
640.0,0.05615977942943573
704.0,0.05025738850235939
768.0,0.04393519461154938
832.0,0.041726794093847275
896.0,0.039310019463300705
960.0,0.030967656522989273
1024.0,0.0197219867259264
1152.0,0.006798833142966032
1280.0,-0.0061555360443890095
1408.0,-0.009839512407779694
1536.0,-0.005815798416733742
1664.0,-0.009810377843677998
1792.0,-0.017609411850571632
1920.0,-0.023462092503905296
2048.0,-0.028105048462748528
2304.0,-0.028476329520344734
2560.0,-0.03040776588022709
2816.0,-0.031103825196623802
3072.0,-0.03153860941529274
3328.0,-0.03495115786790848
3584.0,-0.033101074397563934
3840.0,-0.0326693169772625
4096.0,-0.03152962401509285
4608.0,-0.009768960997462273
5120.0,0.003519413759931922
5632.0,0.009163041599094868
6144.0,0.010226351208984852
6656.0,0.015435352921485901
7168.0,0.00932160671800375
7680.0,0.0014867050340399146
8192.0,-0.004845198709517717
9216.0,-0.026711422950029373
10240.0,0.0015256160404533148
11264.0,0.007582785561680794
12288.0,0.009366007521748543
13312.0,0.006832685321569443
14336.0,0.01747596263885498
end
