version,3.0
numOfCh,1
type,point
parent_name,1-cuts
ch_type,1_1
kcount,1
numberNandB,1
brightnessNandB,1
carpet pos,0
pc,0
Time (ms),CH1 Auto-Correlation
1.0,0.027022840455174446
2.0,0.026829073205590248
3.0,0.026640675961971283
4.0,0.02645002119243145
5.0,0.026259036734700203
6.0,0.026068778708577156
7.0,0.02587827853858471
8.0,0.025694716721773148
9.0,0.025513093918561935
10.0,0.025330426171422005
11.0,0.02515282668173313
12.0,0.02497667260468006
13.0,0.024800579994916916
14.0,0.024625059217214584
15.0,0.02445157989859581
16.0,0.024275923147797585
18.0,0.023930247873067856
20.0,0.023580776527523994
22.0,0.023238399997353554
24.0,0.02290637604892254
26.0,0.022580021992325783
28.0,0.02226029336452484
30.0,0.021952785551548004
32.0,0.021646622568368912
36.0,0.021040821447968483
40.0,0.020467136055231094
44.0,0.01994660496711731
48.0,0.019449613988399506
52.0,0.018962807953357697
56.0,0.018502194434404373
60.0,0.01807221956551075
64.0,0.01766207627952099
72.0,0.016907157376408577
80.0,0.016183337196707726
88.0,0.015472658909857273
96.0,0.014813906513154507
104.0,0.014278938993811607
112.0,0.013771425001323223
120.0,0.013287600129842758
128.0,0.012909168377518654
144.0,0.012060018256306648
160.0,0.010948175564408302
176.0,0.009887940250337124
192.0,0.008931766264140606
208.0,0.008118197321891785
224.0,0.007594998460263014
240.0,0.007307951804250479
256.0,0.007275725249201059
288.0,0.0073804655112326145
320.0,0.0075208209455013275
352.0,0.007809658534824848
384.0,0.007951182313263416
416.0,0.00821118988096714
448.0,0.008275318890810013
480.0,0.00870335754007101
512.0,0.008929556235671043
576.0,0.008816164918243885
640.0,0.007417834829539061
704.0,0.007112622726708651
768.0,0.007419520057737827
832.0,0.0063679395243525505
896.0,0.0058349003084003925
960.0,0.005287707317620516
1024.0,0.0063383979722857475
1152.0,0.0071212369948625565
1280.0,0.005149656906723976
1408.0,0.004561090841889381
1536.0,0.004112939815968275
1664.0,0.0038376054726541042
1792.0,0.002860298380255699
1920.0,0.0001828836975619197
2048.0,-0.0012071646051481366
2304.0,0.0006025150651112199
2560.0,-0.0029383294750005007
2816.0,-0.0008665574714541435
3072.0,-0.004132304340600967
3328.0,-0.005358005873858929
3584.0,-0.006926313042640686
3840.0,-0.006238893140107393
4096.0,-0.005950585938990116
4608.0,-0.006733614020049572
5120.0,-0.005566881038248539
5632.0,-0.005808722227811813
6144.0,-0.004458520095795393
6656.0,-0.001716287457384169
7168.0,0.0007527779671363533
7680.0,0.0017621490405872464
8192.0,0.0040016863495111465
9216.0,0.00841981079429388
10240.0,0.009249234572052956
11264.0,0.006226544268429279
12288.0,-0.006013938225805759
13312.0,-0.015210052952170372
14336.0,-0.0236495491117239
end
