version,3.0
numOfCh,1
type,point
parent_name,1-cuts
ch_type,1_1
kcount,1
numberNandB,1
brightnessNandB,1
carpet pos,0
pc,0
Time (ms),CH1 Auto-Correlation
1.0,0.04040616750717163
2.0,0.04020886495709419
3.0,0.04001525044441223
4.0,0.03981797397136688
5.0,0.039626676589250565
6.0,0.039436399936676025
7.0,0.03924671187996864
8.0,0.03906431794166565
9.0,0.03888612985610962
10.0,0.03871452063322067
11.0,0.03854108229279518
12.0,0.03836583346128464
13.0,0.03819770738482475
14.0,0.03802986070513725
15.0,0.03786296397447586
16.0,0.03770190104842186
18.0,0.03738395497202873
20.0,0.037072233855724335
22.0,0.03677106648683548
24.0,0.03647497668862343
26.0,0.03617880493402481
28.0,0.03589221090078354
30.0,0.035609737038612366
32.0,0.03533533588051796
36.0,0.03480807691812515
40.0,0.034274566918611526
44.0,0.033780891448259354
48.0,0.03334210440516472
52.0,0.0329292006790638
56.0,0.03252822160720825
60.0,0.03211774304509163
64.0,0.03171250596642494
72.0,0.031010868027806282
80.0,0.030483148992061615
88.0,0.03003578446805477
96.0,0.029553135856986046
104.0,0.029009370133280754
112.0,0.028488656505942345
120.0,0.027943920344114304
128.0,0.02742631547152996
144.0,0.026568301022052765
160.0,0.025679923593997955
176.0,0.024874841794371605
192.0,0.02419164776802063
208.0,0.023704111576080322
224.0,0.023221373558044434
240.0,0.022615661844611168
256.0,0.022031636908650398
288.0,0.02094454877078533
320.0,0.019867300987243652
352.0,0.01857594959437847
384.0,0.017467817291617393
416.0,0.016316955909132957
448.0,0.015525797381997108
480.0,0.014922256581485271
512.0,0.014251833781599998
576.0,0.012743514031171799
640.0,0.011096448637545109
704.0,0.00990783516317606
768.0,0.00894277822226286
832.0,0.00718935951590538
896.0,0.006176462862640619
960.0,0.006115297321230173
1024.0,0.005801224149763584
1152.0,0.003221327904611826
1280.0,0.003157521365210414
1408.0,0.003729831427335739
1536.0,0.0028860382735729218
1664.0,0.00222390447743237
1792.0,0.0037219265941530466
1920.0,0.005004799924790859
2048.0,0.0070159523747861385
2304.0,0.0068943384103477
2560.0,0.007178009487688541
2816.0,0.003999494016170502
3072.0,-0.0014486133586615324
3328.0,-0.001988347852602601
3584.0,-0.001657809247262776
3840.0,-0.004018554929643869
4096.0,-0.002895614132285118
4608.0,-0.0038492779713124037
5120.0,-0.005870914086699486
5632.0,-0.010790367610752583
6144.0,-0.01567717455327511
6656.0,-0.009593772701919079
7168.0,-0.006229095626622438
7680.0,-0.003832634538412094
8192.0,-0.0063089109025895596
9216.0,-0.006708482280373573
10240.0,-0.003308522282168269
11264.0,0.002471780404448509
12288.0,0.0016392776742577553
13312.0,0.007915851660072803
14336.0,-0.005691779311746359
end
