version,3.0
numOfCh,1
type,point
parent_name,1-cuts
ch_type,1_1
kcount,1
numberNandB,1
brightnessNandB,1
carpet pos,0
pc,0
Time (ms),CH1 Auto-Correlation
1.0,0.03245941549539566
2.0,0.03227248042821884
3.0,0.03208542242646217
4.0,0.031898193061351776
5.0,0.03170804679393768
6.0,0.03152717277407646
7.0,0.031347185373306274
8.0,0.031167641282081604
9.0,0.03098887950181961
10.0,0.030809808522462845
11.0,0.030630817636847496
12.0,0.03044772520661354
13.0,0.030268462374806404
14.0,0.03008745051920414
15.0,0.029908182099461555
16.0,0.029731497168540955
18.0,0.029389824718236923
20.0,0.029065094888210297
22.0,0.02875039167702198
24.0,0.028431857004761696
26.0,0.02812020853161812
28.0,0.02780899964272976
30.0,0.02750936895608902
32.0,0.027224121615290642
36.0,0.026684464886784554
40.0,0.026179155334830284
44.0,0.02568966895341873
48.0,0.025235891342163086
52.0,0.0248100608587265
56.0,0.0243866927921772
60.0,0.023977261036634445
64.0,0.023583054542541504
72.0,0.02285979501903057
80.0,0.02217830903828144
88.0,0.02157067134976387
96.0,0.0210023932158947
104.0,0.02037212811410427
112.0,0.01968415267765522
120.0,0.019013121724128723
128.0,0.018388036638498306
144.0,0.017316067591309547
160.0,0.016575559973716736
176.0,0.01586039923131466
192.0,0.01522935088723898
208.0,0.014704140834510326
224.0,0.014147626236081123
240.0,0.01354478020220995
256.0,0.013083857484161854
288.0,0.011979508213698864
320.0,0.01067391224205494
352.0,0.009537098929286003
384.0,0.008702044375240803
416.0,0.008450106717646122
448.0,0.007810997311025858
480.0,0.0071506621316075325
512.0,0.0062606846913695335
576.0,0.004692068789154291
640.0,0.0037688324227929115
704.0,0.0030735258478671312
768.0,0.0022234537173062563
832.0,0.001035394030623138
896.0,-0.00022704120783600956
960.0,-0.0012976628495380282
1024.0,-0.0026546167209744453
1152.0,-0.00257864804007113
1280.0,-0.002522352384403348
1408.0,-0.0032276883721351624
1536.0,-0.0034133761655539274
1664.0,-0.002002557972446084
1792.0,0.0004949591821059585
1920.0,0.004446295090019703
2048.0,0.005443012807518244
2304.0,0.0059654503129422665
2560.0,0.004477738868445158
2816.0,0.0017008292488753796
3072.0,-0.0004774370463564992
3328.0,-0.00303445290774107
3584.0,-0.0039174496196210384
3840.0,-0.0021294679027050734
4096.0,-0.0008348136907443404
4608.0,0.0018001875141635537
5120.0,0.0010404906934127212
5632.0,-0.0007918645860627294
6144.0,-0.0016200653044506907
6656.0,-0.0014070278266444802
7168.0,-0.0024736905470490456
7680.0,-0.0017801572103053331
8192.0,-0.006888082250952721
9216.0,-0.0015278833452612162
10240.0,-0.0047331033274531364
11264.0,-0.00843120738863945
12288.0,0.0016653765924274921
13312.0,-0.0022885650396347046
14336.0,-0.0009522799518890679
end
