version,3.0
numOfCh,1
type,point
parent_name,1-cuts
ch_type,1_1
kcount,1
numberNandB,1
brightnessNandB,1
carpet pos,0
pc,0
Time (ms),CH1 Auto-Correlation
1.0,0.07094112038612366
2.0,0.07039907574653625
3.0,0.06987259536981583
4.0,0.06934591382741928
5.0,0.0688229650259018
6.0,0.06830412894487381
7.0,0.06778210401535034
8.0,0.06727399677038193
9.0,0.06677240878343582
10.0,0.06628481298685074
11.0,0.06579308211803436
12.0,0.06532365083694458
13.0,0.06486336141824722
14.0,0.06438060104846954
15.0,0.06390995532274246
16.0,0.06344638764858246
18.0,0.06254582107067108
20.0,0.061635132879018784
22.0,0.06070255860686302
24.0,0.05975409224629402
26.0,0.058803800493478775
28.0,0.05785980820655823
30.0,0.05692683532834053
32.0,0.05601094290614128
36.0,0.05417174473404884
40.0,0.05244024470448494
44.0,0.05076074227690697
48.0,0.049090735614299774
52.0,0.04747944697737694
56.0,0.0459744818508625
60.0,0.044586002826690674
64.0,0.043256670236587524
72.0,0.04058881476521492
80.0,0.03799942135810852
88.0,0.03561884164810181
96.0,0.03346807137131691
104.0,0.03157467022538185
112.0,0.029913851991295815
120.0,0.028450697660446167
128.0,0.027194403111934662
144.0,0.025155581533908844
160.0,0.023377960547804832
176.0,0.02142263576388359
192.0,0.019264306873083115
208.0,0.017532311379909515
224.0,0.016039293259382248
240.0,0.01506888773292303
256.0,0.014257526025176048
288.0,0.011524209752678871
320.0,0.008660183288156986
352.0,0.005904513876885176
384.0,0.00404455978423357
416.0,0.0031952501740306616
448.0,0.0020832866430282593
480.0,0.0015396425733342767
512.0,0.0009975973516702652
576.0,0.0006074731354601681
640.0,0.0049147941172122955
704.0,0.006399159319698811
768.0,0.004103042185306549
832.0,0.0033373236656188965
896.0,0.004391898401081562
960.0,0.005386399105191231
1024.0,0.006125352345407009
1152.0,0.005438850726932287
1280.0,0.0034830919466912746
1408.0,0.0025016791187226772
1536.0,0.001519316341727972
1664.0,0.0004390650137793273
1792.0,0.0011428092839196324
1920.0,-1.1608283784880769e-05
2048.0,-0.0033192902337759733
2304.0,-0.00015540824097115546
2560.0,0.0025571184232831
2816.0,0.007511989679187536
3072.0,0.007617463823407888
3328.0,0.002596734557300806
3584.0,-0.0025652002077549696
3840.0,-0.009939175099134445
4096.0,-0.011343940161168575
4608.0,-0.004123838618397713
5120.0,-0.009682534262537956
5632.0,-0.00461985869333148
6144.0,-0.0011221225140616298
6656.0,-0.004717408213764429
7168.0,-0.007102790754288435
7680.0,0.0002884931454900652
8192.0,0.004390965215861797
9216.0,-0.000396415067370981
10240.0,-0.011002685874700546
11264.0,0.005590749904513359
12288.0,-0.008703017607331276
13312.0,-0.017200108617544174
14336.0,0.019921433180570602
end
