version,3.0
numOfCh,1
type,point
parent_name,1-cuts
ch_type,1_1
kcount,1
numberNandB,1
brightnessNandB,1
carpet pos,0
pc,0
Time (ms),CH1 Auto-Correlation
1.0,0.08842682093381882
2.0,0.08782742917537689
3.0,0.08723557740449905
4.0,0.08666975051164627
5.0,0.08609709143638611
6.0,0.0855279341340065
7.0,0.08495019376277924
8.0,0.084385447204113
9.0,0.08382093906402588
10.0,0.0832536593079567
11.0,0.08270137757062912
12.0,0.08214741200208664
13.0,0.08158759027719498
14.0,0.0810277983546257
15.0,0.08050074428319931
16.0,0.0799877941608429
18.0,0.07898736745119095
20.0,0.07801641523838043
22.0,0.07706418633460999
24.0,0.07614181190729141
26.0,0.07523893564939499
28.0,0.07434916496276855
30.0,0.07349388301372528
32.0,0.07269203662872314
36.0,0.07112956047058105
40.0,0.06957174092531204
44.0,0.06799715757369995
48.0,0.06648004800081253
52.0,0.06508868932723999
56.0,0.06378338485956192
60.0,0.06254813820123672
64.0,0.06137445941567421
72.0,0.0593118779361248
80.0,0.05748038738965988
88.0,0.05583200603723526
96.0,0.05416109785437584
104.0,0.05250782147049904
112.0,0.05090586841106415
120.0,0.04918903112411499
128.0,0.047407764941453934
144.0,0.04427581652998924
160.0,0.04160543158650398
176.0,0.03895854577422142
192.0,0.036963868886232376
208.0,0.03573445975780487
224.0,0.0345047228038311
240.0,0.033400196582078934
256.0,0.03225268796086311
288.0,0.029982658103108406
320.0,0.028611361980438232
352.0,0.02748286910355091
384.0,0.024739420041441917
416.0,0.02098952978849411
448.0,0.016818568110466003
480.0,0.013688767328858376
512.0,0.012057974003255367
576.0,0.010767074301838875
640.0,0.009284347295761108
704.0,0.007873833179473877
768.0,0.007944256998598576
832.0,0.004950546193867922
896.0,0.001820203149691224
960.0,-0.0014030964812263846
1024.0,-0.0016021961346268654
1152.0,0.0018639977788552642
1280.0,-0.002438424387946725
1408.0,-0.0033447411842644215
1536.0,-0.004360959865152836
1664.0,-0.008973244577646255
1792.0,-0.013018793426454067
1920.0,-0.01163787767291069
2048.0,-0.011028851382434368
2304.0,-0.005795289762318134
2560.0,-0.007221129722893238
2816.0,-0.012723302468657494
3072.0,-0.025210930034518242
3328.0,-0.02279987558722496
3584.0,-0.013604301027953625
3840.0,-0.0053938631899654865
4096.0,-0.010367780923843384
4608.0,-0.0019218565430492163
5120.0,0.013376601040363312
5632.0,-0.006246531382203102
6144.0,-0.004234753083437681
6656.0,-0.001013090368360281
7168.0,0.0054626609198749065
7680.0,0.021273570135235786
8192.0,0.004764630924910307
9216.0,0.015777992084622383
10240.0,-0.024479061365127563
11264.0,-0.015653498470783234
12288.0,0.00168526207562536
13312.0,0.013668807223439217
14336.0,0.027410592883825302
end
