version,3.0
numOfCh,1
type,point
parent_name,1-cuts
ch_type,1_1
kcount,1
numberNandB,1
brightnessNandB,1
carpet pos,0
pc,0
Time (ms),CH1 Auto-Correlation
1.0,0.08609125018119812
2.0,0.08559652417898178
3.0,0.08511856943368912
4.0,0.08463862538337708
5.0,0.08416049182415009
6.0,0.08367735892534256
7.0,0.08320385217666626
8.0,0.08272901177406311
9.0,0.08226162940263748
10.0,0.08179996907711029
11.0,0.08135046809911728
12.0,0.08090846985578537
13.0,0.08046341687440872
14.0,0.08002478629350662
15.0,0.07959139347076416
16.0,0.07915801554918289
18.0,0.07830391824245453
20.0,0.0774700716137886
22.0,0.07668735831975937
24.0,0.07590135186910629
26.0,0.07514461129903793
28.0,0.07441284507513046
30.0,0.07369839400053024
32.0,0.07300982624292374
36.0,0.07172166556119919
40.0,0.07054150849580765
44.0,0.06947185844182968
48.0,0.06849458813667297
52.0,0.06764059513807297
56.0,0.06683668494224548
60.0,0.06600257009267807
64.0,0.06518219411373138
72.0,0.06363116204738617
80.0,0.062109194695949554
88.0,0.06075591221451759
96.0,0.0595383383333683
104.0,0.05834950506687164
112.0,0.05722305178642273
120.0,0.05595419928431511
128.0,0.05474118888378143
144.0,0.052290841937065125
160.0,0.05007752403616905
176.0,0.048387277871370316
192.0,0.04713084176182747
208.0,0.04614346846938133
224.0,0.04502381384372711
240.0,0.04416686296463013
256.0,0.04314981400966644
288.0,0.0402342788875103
320.0,0.03811679780483246
352.0,0.03529530391097069
384.0,0.03167135640978813
416.0,0.028430044651031494
448.0,0.025625187903642654
480.0,0.023139264434576035
512.0,0.02113283984363079
576.0,0.017555750906467438
640.0,0.01332052145153284
704.0,0.010551192797720432
768.0,0.010196181014180183
832.0,0.010071116499602795
896.0,0.0052842041477561
960.0,0.0010348540963605046
1024.0,-0.0021255717147141695
1152.0,-0.005306750535964966
1280.0,-0.009669684804975986
1408.0,-0.013664476573467255
1536.0,-0.017294228076934814
1664.0,-0.015226236544549465
1792.0,-0.014193052425980568
1920.0,-0.010330292396247387
2048.0,-0.004650068003684282
2304.0,0.0023122811689972878
2560.0,0.0017387426923960447
2816.0,0.002231793710961938
3072.0,0.0075150360353291035
3328.0,0.009389991872012615
3584.0,0.009260368533432484
3840.0,0.005349676124751568
4096.0,0.014137309044599533
4608.0,0.009779387153685093
5120.0,-0.00538367684930563
5632.0,-0.021611222997307777
6144.0,-0.03534780070185661
6656.0,-0.023154787719249725
7168.0,0.006978598888963461
7680.0,0.017314055934548378
8192.0,-0.0027780188247561455
9216.0,-0.023379381746053696
10240.0,-0.018559269607067108
11264.0,0.001118842395953834
12288.0,0.03742372989654541
13312.0,-0.023755835369229317
14336.0,0.00443583307787776
end
