version,3.0
numOfCh,1
type,point
parent_name,1-cuts
ch_type,1_1
kcount,1
numberNandB,1
brightnessNandB,1
carpet pos,0
pc,0
Time (ms),CH1 Auto-Correlation
1.0,0.06026271730661392
2.0,0.05971693620085716
3.0,0.05919761210680008
4.0,0.05868052691221237
5.0,0.05817262828350067
6.0,0.05767802521586418
7.0,0.057206086814403534
8.0,0.056745123118162155
9.0,0.05629231035709381
10.0,0.055862296372652054
11.0,0.05543619394302368
12.0,0.055010370910167694
13.0,0.054585933685302734
14.0,0.05416315421462059
15.0,0.053742554038763046
16.0,0.05335194244980812
18.0,0.052587538957595825
20.0,0.051877036690711975
22.0,0.05117889866232872
24.0,0.05050935223698616
26.0,0.04983432963490486
28.0,0.049206092953681946
30.0,0.04859726503491402
32.0,0.048009078949689865
36.0,0.0469340942800045
40.0,0.04586562141776085
44.0,0.044751618057489395
48.0,0.04365065321326256
52.0,0.04253429174423218
56.0,0.04148304834961891
60.0,0.04061422497034073
64.0,0.03985326364636421
72.0,0.03867044672369957
80.0,0.037605758756399155
88.0,0.036509037017822266
96.0,0.03533913940191269
104.0,0.034091878682374954
112.0,0.03320285305380821
120.0,0.03227132558822632
128.0,0.03133050352334976
144.0,0.029345564544200897
160.0,0.027537284418940544
176.0,0.02613549306988716
192.0,0.024527771398425102
208.0,0.022522659972310066
224.0,0.020206565037369728
240.0,0.018215376883745193
256.0,0.01642019860446453
288.0,0.013952324166893959
320.0,0.011960068717598915
352.0,0.009700130671262741
384.0,0.007819222286343575
416.0,0.006412616930902004
448.0,0.004609175957739353
480.0,0.002694195369258523
512.0,0.0008748818072490394
576.0,-0.003674383508041501
640.0,-0.00853156391531229
704.0,-0.013280742801725864
768.0,-0.015584900975227356
832.0,-0.016650043427944183
896.0,-0.016892533749341965
960.0,-0.017897503450512886
1024.0,-0.01945316419005394
1152.0,-0.01788417622447014
1280.0,-0.013773835264146328
1408.0,-0.006108611822128296
1536.0,0.0020130379125475883
1664.0,0.005761101376265287
1792.0,0.005857736337929964
1920.0,0.005238870624452829
2048.0,0.008142284117639065
2304.0,0.0020587360486388206
2560.0,-0.0025864660274237394
2816.0,0.004023827146738768
3072.0,0.004623586777597666
3328.0,0.006146526895463467
3584.0,-0.00040973658906295896
3840.0,-0.00941805075854063
4096.0,-0.014436808414757252
4608.0,0.00047839334001764655
5120.0,0.007223836611956358
5632.0,0.003749324707314372
6144.0,-0.006879630032926798
6656.0,-0.000736728950869292
7168.0,-0.0014045778661966324
7680.0,-0.0049221026711165905
8192.0,0.004981060512363911
9216.0,0.0014607430202886462
10240.0,-2.600199331936892e-05
11264.0,-0.0035291877575218678
12288.0,0.0034941663034260273
13312.0,0.0054462323896586895
14336.0,-0.0003446070768404752
end
