version,3.0
numOfCh,1
type,point
parent_name,1-cuts
ch_type,1_1
kcount,1
numberNandB,1
brightnessNandB,1
carpet pos,0
pc,0
Time (ms),CH1 Auto-Correlation
1.0,0.03466486185789108
2.0,0.034444935619831085
3.0,0.03422444686293602
4.0,0.03400523588061333
5.0,0.03378087282180786
6.0,0.03355591371655464
7.0,0.03332884982228279
8.0,0.03310171514749527
9.0,0.032881222665309906
10.0,0.03266187384724617
11.0,0.032443318516016006
12.0,0.0322248600423336
13.0,0.03201063722372055
14.0,0.03179547190666199
15.0,0.03158652037382126
16.0,0.03137081116437912
18.0,0.030955277383327484
20.0,0.030550261959433556
22.0,0.030154112726449966
24.0,0.029759420081973076
26.0,0.029385559260845184
28.0,0.029024329036474228
30.0,0.028668487444519997
32.0,0.028323082253336906
36.0,0.02766420692205429
40.0,0.02705427072942257
44.0,0.02648957259953022
48.0,0.02595248632133007
52.0,0.02543974667787552
56.0,0.024952426552772522
60.0,0.024465132504701614
64.0,0.023978261277079582
72.0,0.023105181753635406
80.0,0.022330762818455696
88.0,0.021576110273599625
96.0,0.02085515670478344
104.0,0.02025972492992878
112.0,0.019723165780305862
120.0,0.01917961798608303
128.0,0.01865622214972973
144.0,0.017562612891197205
160.0,0.01668042503297329
176.0,0.01589265838265419
192.0,0.015377327799797058
208.0,0.01511232741177082
224.0,0.01490358728915453
240.0,0.014794914983212948
256.0,0.014536083675920963
288.0,0.013551220297813416
320.0,0.012795191258192062
352.0,0.011988912709057331
384.0,0.01123560220003128
416.0,0.010396100580692291
448.0,0.00982754398137331
480.0,0.009467795491218567
512.0,0.008890017867088318
576.0,0.00750738475471735
640.0,0.00640055863186717
704.0,0.00505639985203743
768.0,0.0033122203312814236
832.0,0.002807882148772478
896.0,0.002144545316696167
960.0,0.0004872753343079239
1024.0,-0.0032831227872520685
1152.0,-0.0063894642516970634
1280.0,-0.0077485591173172
1408.0,-0.007759259548038244
1536.0,-0.008664536289870739
1664.0,-0.010837206616997719
1792.0,-0.009239859879016876
1920.0,-0.0065042851492762566
2048.0,-0.006777146831154823
2304.0,-0.004092180170118809
2560.0,-0.0003939113230444491
2816.0,0.003214950207620859
3072.0,0.008293897844851017
3328.0,0.011474866420030594
3584.0,0.010749800130724907
3840.0,0.00601877411827445
4096.0,0.003608065191656351
4608.0,-0.008425160311162472
5120.0,-0.010953152552247047
5632.0,-0.005768443923443556
6144.0,0.001415063627064228
6656.0,0.0060396622866392136
7168.0,0.004362111911177635
7680.0,-0.0021864930167794228
8192.0,-0.008536920882761478
9216.0,-0.003268308937549591
10240.0,0.005524729378521442
11264.0,0.0017075962387025356
12288.0,-0.009745783172547817
13312.0,-0.0029027347918599844
14336.0,0.007976320572197437
end
