version,3.0
numOfCh,1
type,point
parent_name,1-cuts
ch_type,1_1
kcount,1
numberNandB,1
brightnessNandB,1
carpet pos,0
pc,0
Time (ms),CH1 Auto-Correlation
1.0,0.0689929947257042
2.0,0.06856332719326019
3.0,0.06813498586416245
4.0,0.06770773231983185
5.0,0.06727194041013718
6.0,0.06683778017759323
7.0,0.06641330569982529
8.0,0.06599601358175278
9.0,0.06558239459991455
10.0,0.06517838686704636
11.0,0.06478962302207947
12.0,0.06439735740423203
13.0,0.06401139497756958
14.0,0.06362807750701904
15.0,0.06324853748083115
16.0,0.06288374215364456
18.0,0.06216006353497505
20.0,0.06143922731280327
22.0,0.06071670725941658
24.0,0.05999992415308952
26.0,0.05932188034057617
28.0,0.05866803228855133
30.0,0.05803744122385979
32.0,0.05742446705698967
36.0,0.05626966804265976
40.0,0.055146608501672745
44.0,0.054083798080682755
48.0,0.05305001139640808
52.0,0.05192989856004715
56.0,0.05076203495264053
60.0,0.04960956051945686
64.0,0.04851604998111725
72.0,0.046528417617082596
80.0,0.04457348957657814
88.0,0.042763516306877136
96.0,0.04124847427010536
104.0,0.03995248302817345
112.0,0.038794297724962234
120.0,0.037816766649484634
128.0,0.03683687001466751
144.0,0.03509088233113289
160.0,0.03385292738676071
176.0,0.0325666218996048
192.0,0.03108825534582138
208.0,0.02938632294535637
224.0,0.02743307501077652
240.0,0.025647712871432304
256.0,0.024097898975014687
288.0,0.022853564471006393
320.0,0.021530739963054657
352.0,0.01892686076462269
384.0,0.016162274405360222
416.0,0.013743165880441666
448.0,0.012002544477581978
480.0,0.01014173123985529
512.0,0.007876910269260406
576.0,0.0036782599054276943
640.0,0.0036338455975055695
704.0,0.005656423047184944
768.0,0.005533300340175629
832.0,0.0035995198413729668
896.0,0.0033712713047862053
960.0,0.004280615132302046
1024.0,0.004306518938392401
1152.0,0.0023232733365148306
1280.0,-0.0013502856018021703
1408.0,-0.0024116334971040487
1536.0,-3.3376942155882716e-05
1664.0,0.0038634389638900757
1792.0,0.007713971193879843
1920.0,0.00962331797927618
2048.0,0.00566436443477869
2304.0,-0.003713235491886735
2560.0,-0.002167451661080122
2816.0,-0.0016232309862971306
3072.0,0.0075375535525381565
3328.0,0.004225310869514942
3584.0,0.008854937739670277
3840.0,0.01121657807379961
4096.0,0.004092357587069273
4608.0,-0.0013587535358965397
5120.0,0.0005229926900938153
5632.0,0.001933913677930832
6144.0,-0.005830966867506504
6656.0,0.0066614761017262936
7168.0,0.005005519837141037
7680.0,-0.006658829282969236
8192.0,-0.013480931520462036
9216.0,-0.012437589466571808
10240.0,-0.005594998132437468
11264.0,-0.011861387640237808
12288.0,-0.016897879540920258
13312.0,-0.017361866310238838
14336.0,0.003186182351782918
end
