version,3.0
numOfCh,1
type,point
parent_name,1-cuts
ch_type,1_1
kcount,1
numberNandB,1
brightnessNandB,1
carpet pos,0
pc,0
Time (ms),CH1 Auto-Correlation
1.0,0.03397572040557861
2.0,0.033785123378038406
3.0,0.033596668392419815
4.0,0.03341156244277954
5.0,0.03322760760784149
6.0,0.03304674103856087
7.0,0.032869670540094376
8.0,0.032694343477487564
9.0,0.03252040594816208
10.0,0.03234481438994408
11.0,0.032174114137887955
12.0,0.03200627118349075
13.0,0.031837098300457
14.0,0.03167254105210304
15.0,0.03151024132966995
16.0,0.03134767338633537
18.0,0.03103620372712612
20.0,0.03073783777654171
22.0,0.03044857271015644
24.0,0.030162092298269272
26.0,0.029882870614528656
28.0,0.029603997245430946
30.0,0.02932451106607914
32.0,0.02905707061290741
36.0,0.028561068698763847
40.0,0.028098097071051598
44.0,0.027618512511253357
48.0,0.027121875435113907
52.0,0.026652803644537926
56.0,0.02621924690902233
60.0,0.025812113657593727
64.0,0.025399429723620415
72.0,0.024558376520872116
80.0,0.023811398074030876
88.0,0.023202715441584587
96.0,0.022680064663290977
104.0,0.022176051512360573
112.0,0.021621476858854294
120.0,0.02095683105289936
128.0,0.02032279409468174
144.0,0.019374750554561615
160.0,0.018486056476831436
176.0,0.017421457916498184
192.0,0.016522003337740898
208.0,0.015768028795719147
224.0,0.01509111002087593
240.0,0.01459428109228611
256.0,0.014325538650155067
288.0,0.013718828558921814
320.0,0.013116101734340191
352.0,0.01237640343606472
384.0,0.011879587545990944
416.0,0.011114298366010189
448.0,0.010380049236118793
480.0,0.009437383152544498
512.0,0.007960507646203041
576.0,0.006449660751968622
640.0,0.005659287795424461
704.0,0.005841177422553301
768.0,0.005316202063113451
832.0,0.004334359895437956
896.0,0.003605480305850506
960.0,0.0039967079646885395
1024.0,0.003958418499678373
1152.0,0.005280400160700083
1280.0,0.006227194331586361
1408.0,0.006828737910836935
1536.0,0.007476620376110077
1664.0,0.006865445524454117
1792.0,0.006819854490458965
1920.0,0.0058729019947350025
2048.0,0.003679899265989661
2304.0,0.001849905587732792
2560.0,0.0009048978099599481
2816.0,-0.001472468487918377
3072.0,-0.00043307250598445535
3328.0,0.0014659244334325194
3584.0,0.0005641418974846601
3840.0,-0.00023974657233338803
4096.0,-0.0013231607154011726
4608.0,-0.0038600475527346134
5120.0,-0.0014565640594810247
5632.0,9.044273610925302e-05
6144.0,-0.0021462333388626575
6656.0,6.0074230532336514e-06
7168.0,0.0042661805637180805
7680.0,0.001502444501966238
8192.0,-0.0027000366244465113
9216.0,-0.0029803384095430374
10240.0,-0.007050127722322941
11264.0,-0.01317660789936781
12288.0,-0.007861456833779812
13312.0,-0.015397882089018822
14336.0,-0.0010817889124155045
end
