version,3.0
numOfCh,1
type,point
parent_name,1-cuts
ch_type,1_1
kcount,1
numberNandB,1
brightnessNandB,1
carpet pos,0
pc,0
Time (ms),CH1 Auto-Correlation
1.0,0.09454502910375595
2.0,0.09399370104074478
3.0,0.09343163669109344
4.0,0.0928683876991272
5.0,0.0923122838139534
6.0,0.09177832305431366
7.0,0.09123773127794266
8.0,0.09071913361549377
9.0,0.09020496904850006
10.0,0.08970656245946884
11.0,0.08920984715223312
12.0,0.08871691673994064
13.0,0.08822322636842728
14.0,0.0877445787191391
15.0,0.08728163689374924
16.0,0.08682363480329514
18.0,0.0859002098441124
20.0,0.08501425385475159
22.0,0.08418729901313782
24.0,0.08338220417499542
26.0,0.08262468874454498
28.0,0.08188887685537338
30.0,0.08119897544384003
32.0,0.08057443797588348
36.0,0.07934682071208954
40.0,0.07819367200136185
44.0,0.0770595371723175
48.0,0.07592851668596268
52.0,0.07484891265630722
56.0,0.07384081929922104
60.0,0.07289638370275497
64.0,0.07197721302509308
72.0,0.07023962587118149
80.0,0.06868043541908264
88.0,0.06732494384050369
96.0,0.06615275144577026
104.0,0.0651562362909317
112.0,0.06421514600515366
120.0,0.06327221542596817
128.0,0.0625249519944191
144.0,0.06123378127813339
160.0,0.059636667370796204
176.0,0.058125823736190796
192.0,0.05641091987490654
208.0,0.05436081066727638
224.0,0.0521746501326561
240.0,0.050316840410232544
256.0,0.04874134063720703
288.0,0.0452137291431427
320.0,0.04195041209459305
352.0,0.03823508322238922
384.0,0.03357357904314995
416.0,0.029586665332317352
448.0,0.02582474611699581
480.0,0.022407913580536842
512.0,0.01959901489317417
576.0,0.013916756957769394
640.0,0.011174487881362438
704.0,0.008528025820851326
768.0,0.00318549363873899
832.0,0.0026030356530100107
896.0,0.0015821442939341068
960.0,0.00014003730029799044
1024.0,-0.0003400022105779499
1152.0,0.0018747946014627814
1280.0,0.0005352620501071215
1408.0,-0.0019997297786176205
1536.0,-0.0013852285919710994
1664.0,0.0007191699114628136
1792.0,-0.002560204127803445
1920.0,-0.005488546099513769
2048.0,-0.010763010010123253
2304.0,-0.018558718264102936
2560.0,-0.018027648329734802
2816.0,-0.014882689341902733
3072.0,-0.016303693875670433
3328.0,-0.017681928351521492
3584.0,-0.012272519059479237
3840.0,-0.008105196058750153
4096.0,-0.0071788993664085865
4608.0,-0.0015968409134075046
5120.0,-0.0046589914709329605
5632.0,-0.006355587393045425
6144.0,-0.009380738250911236
6656.0,-0.010706301778554916
7168.0,-0.015428991988301277
7680.0,-0.004154372029006481
8192.0,0.009881047531962395
9216.0,0.016137871891260147
10240.0,0.032054029405117035
11264.0,-0.007236607372760773
12288.0,-0.041430771350860596
13312.0,-0.019326433539390564
14336.0,0.04789428412914276
end
