version,3.0
numOfCh,1
type,point
parent_name,1-cuts
ch_type,1_1
kcount,1
numberNandB,1
brightnessNandB,1
carpet pos,0
pc,0
Time (ms),CH1 Auto-Correlation
1.0,0.07053501158952713
2.0,0.07003597915172577
3.0,0.06955982744693756
4.0,0.06909786909818649
5.0,0.06863515824079514
6.0,0.06818582117557526
7.0,0.06773671507835388
8.0,0.06729158759117126
9.0,0.06685299426317215
10.0,0.06642178446054459
11.0,0.06598459929227829
12.0,0.06555400043725967
13.0,0.0651070773601532
14.0,0.06466604769229889
15.0,0.06421679258346558
16.0,0.06379208713769913
18.0,0.06295964121818542
20.0,0.062168654054403305
22.0,0.061427440494298935
24.0,0.06069253385066986
26.0,0.059992026537656784
28.0,0.059306107461452484
30.0,0.05861113592982292
32.0,0.0579528771340847
36.0,0.056685153394937515
40.0,0.05544236674904823
44.0,0.05421670526266098
48.0,0.05300064757466316
52.0,0.05179141089320183
56.0,0.05062926560640335
60.0,0.049517177045345306
64.0,0.04840411618351936
72.0,0.046166032552719116
80.0,0.04396622255444527
88.0,0.04204921796917915
96.0,0.04039732366800308
104.0,0.03887779265642166
112.0,0.037386298179626465
120.0,0.03591112419962883
128.0,0.0346011146903038
144.0,0.03204295411705971
160.0,0.029349947348237038
176.0,0.026793859899044037
192.0,0.024661915376782417
208.0,0.022067571058869362
224.0,0.01956046000123024
240.0,0.017193594947457314
256.0,0.01498930063098669
288.0,0.011472674086689949
320.0,0.009086878038942814
352.0,0.007892029359936714
384.0,0.0076838345266878605
416.0,0.007463147863745689
448.0,0.007079749833792448
480.0,0.005737890489399433
512.0,0.00391687685623765
576.0,-0.00021615719015244395
640.0,-0.0014075927902013063
704.0,-0.0015334809431806207
768.0,-0.0029236525297164917
832.0,-0.0027157764416188
896.0,-0.001892968313768506
960.0,-0.0004893345176242292
1024.0,0.0015263439854606986
1152.0,0.00217385683208704
1280.0,0.0005924869328737259
1408.0,-0.0008409931906498969
1536.0,-0.0037585434038192034
1664.0,-0.0057374159805476665
1792.0,-0.003700852394104004
1920.0,-0.003465021261945367
2048.0,-0.005346676800400019
2304.0,0.0018348522717133164
2560.0,-0.0007514478638768196
2816.0,-0.00014029846352059394
3072.0,0.005368760321289301
3328.0,0.004264711402356625
3584.0,0.004705262836068869
3840.0,0.0013227936578914523
4096.0,0.0028647391591221094
4608.0,0.008261182345449924
5120.0,-0.002233282197266817
5632.0,-0.009634166955947876
6144.0,-0.006172379478812218
6656.0,-0.008314935490489006
7168.0,-0.016561109572649002
7680.0,0.003082150360569358
8192.0,-0.0018729614093899727
9216.0,0.001620730385184288
10240.0,-0.015313182026147842
11264.0,-0.006073604803532362
12288.0,0.018140923231840134
13312.0,0.0036766696721315384
14336.0,-0.024552633985877037
end
