version,3.0
numOfCh,1
type,point
parent_name,1-cuts
ch_type,1_1
kcount,1
numberNandB,1
brightnessNandB,1
carpet pos,0
pc,0
Time (ms),CH1 Auto-Correlation
1.0,0.059907373040914536
2.0,0.059492312371730804
3.0,0.05909622833132744
4.0,0.05871066078543663
5.0,0.05832539498806
6.0,0.05793512985110283
7.0,0.05755133181810379
8.0,0.05718142166733742
9.0,0.05681953206658363
10.0,0.056462861597537994
11.0,0.05610566958785057
12.0,0.05574844032526016
13.0,0.05540350079536438
14.0,0.05505678802728653
15.0,0.05471808835864067
16.0,0.05439717322587967
18.0,0.0537630058825016
20.0,0.0531599335372448
22.0,0.052567191421985626
24.0,0.051986731588840485
26.0,0.05139688402414322
28.0,0.05081961303949356
30.0,0.05025751516222954
32.0,0.049706630408763885
36.0,0.048672355711460114
40.0,0.047684043645858765
44.0,0.04677758365869522
48.0,0.04589121416211128
52.0,0.04500408098101616
56.0,0.04416614770889282
60.0,0.04338189586997032
64.0,0.04262791946530342
72.0,0.04122457653284073
80.0,0.03988826647400856
88.0,0.03849772363901138
96.0,0.037203796207904816
104.0,0.036050643771886826
112.0,0.035175155848264694
120.0,0.0344742126762867
128.0,0.03373780846595764
144.0,0.03213745355606079
160.0,0.030251361429691315
176.0,0.02794812060892582
192.0,0.025632774457335472
208.0,0.023860914632678032
224.0,0.02239321731030941
240.0,0.02094896323978901
256.0,0.019360216334462166
288.0,0.016871929168701172
320.0,0.014774946495890617
352.0,0.013754474930465221
384.0,0.01283334195613861
416.0,0.011939308606088161
448.0,0.01080674771219492
480.0,0.01064428873360157
512.0,0.010998708195984364
576.0,0.008893302641808987
640.0,0.00607224740087986
704.0,0.0046193585731089115
768.0,0.004439779091626406
832.0,0.0031849718652665615
896.0,0.0007911021821200848
960.0,-0.0018459580605849624
1024.0,-0.0020382856018841267
1152.0,-0.0009839881677180529
1280.0,0.00023940138635225594
1408.0,0.00036485129385255277
1536.0,-0.00021041413128841668
1664.0,-0.0019295383244752884
1792.0,-0.00236115837469697
1920.0,0.001081762951798737
2048.0,0.0040815710090100765
2304.0,0.0031156374607235193
2560.0,-0.005814110394567251
2816.0,-0.01065791118890047
3072.0,-0.003896924667060375
3328.0,0.00022073440777603537
3584.0,0.006636535283178091
3840.0,0.003823803039267659
4096.0,-0.0015945070190355182
4608.0,0.0022430631797760725
5120.0,0.00032745942007750273
5632.0,0.007019921205937862
6144.0,-0.0031827439088374376
6656.0,-0.016581710427999496
7168.0,-0.01641610823571682
7680.0,-0.009251666255295277
8192.0,-0.007289859000593424
9216.0,-0.004924549721181393
10240.0,0.005568865220993757
11264.0,-0.005278544034808874
12288.0,-0.017175041139125824
13312.0,0.003387130331248045
14336.0,0.03240164741873741
end
