version,3.0
numOfCh,1
type,point
parent_name,1-cuts
ch_type,1_1
kcount,1
numberNandB,1
brightnessNandB,1
carpet pos,0
pc,0
Time (ms),CH1 Auto-Correlation
1.0,0.04807855933904648
2.0,0.04770896956324577
3.0,0.04733991622924805
4.0,0.046972308307886124
5.0,0.04660402238368988
6.0,0.04623323306441307
7.0,0.04587188735604286
8.0,0.045520659536123276
9.0,0.04516869783401489
10.0,0.044816210865974426
11.0,0.04446215555071831
12.0,0.04411518573760986
13.0,0.04378258436918259
14.0,0.04345421865582466
15.0,0.04312491789460182
16.0,0.042790737003088
18.0,0.04214033856987953
20.0,0.04150224104523659
22.0,0.04087462276220322
24.0,0.04025709256529808
26.0,0.039648305624723434
28.0,0.039049044251441956
30.0,0.038451049476861954
32.0,0.037886545062065125
36.0,0.036858540028333664
40.0,0.03587275370955467
44.0,0.03488995507359505
48.0,0.033932048827409744
52.0,0.032984305173158646
56.0,0.03204517066478729
60.0,0.031148595735430717
64.0,0.03028286248445511
72.0,0.02875472791492939
80.0,0.02742805704474449
88.0,0.02634936012327671
96.0,0.025430189445614815
104.0,0.02445770613849163
112.0,0.023584464564919472
120.0,0.022812988609075546
128.0,0.022063173353672028
144.0,0.020601613447070122
160.0,0.019273875281214714
176.0,0.017811128869652748
192.0,0.016430264338850975
208.0,0.015464751981198788
224.0,0.01481813658028841
240.0,0.014016262255609035
256.0,0.013452368788421154
288.0,0.011961523443460464
320.0,0.010041686706244946
352.0,0.009188799187541008
384.0,0.00958356074988842
416.0,0.009652984328567982
448.0,0.008602923713624477
480.0,0.007255916483700275
512.0,0.005520942620933056
576.0,0.0036497542168945074
640.0,0.0015202679205685854
704.0,0.0003381136048119515
768.0,-1.576638169353828e-05
832.0,0.00042736943578347564
896.0,0.0017258208245038986
960.0,0.004270273260772228
1024.0,0.005461645778268576
1152.0,0.003303778124973178
1280.0,0.001561133423820138
1408.0,0.0026202332228422165
1536.0,3.0295312171801925e-05
1664.0,-0.0020648925565183163
1792.0,-0.0006128543172962964
1920.0,-0.0016358206048607826
2048.0,-0.005219872109591961
2304.0,-0.0002675779105629772
2560.0,0.00230911816470325
2816.0,0.002093351213261485
3072.0,0.0003872845263686031
3328.0,-0.004686727654188871
3584.0,-0.009810489602386951
3840.0,-0.00962681882083416
4096.0,-0.006684000603854656
4608.0,-0.006601530592888594
5120.0,0.0004836644511669874
5632.0,0.006807628087699413
6144.0,-0.0010894871084019542
6656.0,0.0013268882175907493
7168.0,0.0024676581379026175
7680.0,0.0037376198451966047
8192.0,0.011373071931302547
9216.0,-0.0036967184860259295
10240.0,-0.008969202637672424
11264.0,-0.010474801994860172
12288.0,-0.013665654696524143
13312.0,0.0016026076627895236
14336.0,0.007644982077181339
end
