version,3.0
numOfCh,1
type,point
parent_name,1-cuts
ch_type,1_1
kcount,1
numberNandB,1
brightnessNandB,1
carpet pos,0
pc,0
Time (ms),CH1 Auto-Correlation
1.0,0.024670375511050224
2.0,0.024472545832395554
3.0,0.02427659183740616
4.0,0.024085134267807007
5.0,0.023902667686343193
6.0,0.023723464459180832
7.0,0.02355037070810795
8.0,0.023381102830171585
9.0,0.02321484312415123
10.0,0.023047488182783127
11.0,0.022882789373397827
12.0,0.022721759974956512
13.0,0.022562893107533455
14.0,0.022409634664654732
15.0,0.022264188155531883
16.0,0.022122321650385857
18.0,0.02184862457215786
20.0,0.021583642810583115
22.0,0.02133007161319256
24.0,0.021082650870084763
26.0,0.02083834633231163
28.0,0.02059413492679596
30.0,0.020352456718683243
32.0,0.020113196223974228
36.0,0.019663305953145027
40.0,0.01924535445868969
44.0,0.01881924830377102
48.0,0.018383167684078217
52.0,0.0179436057806015
56.0,0.017502285540103912
60.0,0.017081497237086296
64.0,0.016660643741488457
72.0,0.015873413532972336
80.0,0.015067324042320251
88.0,0.014290197752416134
96.0,0.01353595219552517
104.0,0.012841768562793732
112.0,0.01217901986092329
120.0,0.011528841219842434
128.0,0.010824709199368954
144.0,0.00946733821183443
160.0,0.00852997601032257
176.0,0.007963861338794231
192.0,0.007361548952758312
208.0,0.006778492126613855
224.0,0.006405940745025873
240.0,0.006222916767001152
256.0,0.006187551189213991
288.0,0.005889358464628458
320.0,0.0056463442742824554
352.0,0.005269625689834356
384.0,0.004650661256164312
416.0,0.0037648610305041075
448.0,0.0029242299497127533
480.0,0.002225447678938508
512.0,0.0018023133743554354
576.0,0.0007212475757114589
640.0,-0.00011666380305541679
704.0,-0.0014907331205904484
768.0,-0.002212919294834137
832.0,-0.0015871826326474547
896.0,-0.0014402968809008598
960.0,-0.0012835217639803886
1024.0,-0.0005347076221369207
1152.0,-0.00020847268751822412
1280.0,-0.0021467271726578474
1408.0,-0.0018084413604810834
1536.0,-0.002211080864071846
1664.0,-0.0017872342141345143
1792.0,-0.001524721970781684
1920.0,0.0005436033243313432
2048.0,0.003070377977564931
2304.0,0.0013123963726684451
2560.0,0.001895214430987835
2816.0,-0.0007452305289916694
3072.0,-0.0004933063173666596
3328.0,-0.0020986972376704216
3584.0,-0.0034500581678003073
3840.0,-0.004583306144922972
4096.0,-0.0012483351165428758
4608.0,0.0013393922708928585
5120.0,0.0014832009328529239
5632.0,-0.0028873933479189873
6144.0,-0.005307801999151707
6656.0,0.0011287902016192675
7168.0,0.0006781305419281125
7680.0,-0.0024235679302364588
8192.0,-0.004920628387480974
9216.0,0.0009565867949277163
10240.0,0.0022000435274094343
11264.0,-1.374478597426787e-05
12288.0,-0.0003429765347391367
13312.0,0.0017164255259558558
14336.0,0.00013163191033527255
end
