version,3.0
numOfCh,1
type,point
parent_name,1-cuts
ch_type,1_1
kcount,1
numberNandB,1
brightnessNandB,1
carpet pos,0
pc,0
Time (ms),CH1 Auto-Correlation
1.0,0.06960690766572952
2.0,0.069134421646595
3.0,0.06867271661758423
4.0,0.06821225583553314
5.0,0.06775207072496414
6.0,0.06730743497610092
7.0,0.06686970591545105
8.0,0.06644060462713242
9.0,0.06601285934448242
10.0,0.06559859216213226
11.0,0.06518036127090454
12.0,0.06476881355047226
13.0,0.0643610879778862
14.0,0.0639556273818016
15.0,0.06355002522468567
16.0,0.0631541907787323
18.0,0.062394920736551285
20.0,0.0616745762526989
22.0,0.06096697226166725
24.0,0.060304611921310425
26.0,0.059660956263542175
28.0,0.05901546776294708
30.0,0.058387935161590576
32.0,0.05779389664530754
36.0,0.056682586669921875
40.0,0.05561962351202965
44.0,0.05456686019897461
48.0,0.053545739501714706
52.0,0.052603378891944885
56.0,0.051746636629104614
60.0,0.05084605515003204
64.0,0.04991037771105766
72.0,0.048277441412210464
80.0,0.04670023173093796
88.0,0.045077163726091385
96.0,0.04356766864657402
104.0,0.04221918061375618
112.0,0.040998779237270355
120.0,0.039863113313913345
128.0,0.03893369063735008
144.0,0.037222009152173996
160.0,0.035516753792762756
176.0,0.0339929424226284
192.0,0.03245720639824867
208.0,0.030665036290884018
224.0,0.028805699199438095
240.0,0.02680586464703083
256.0,0.02511865831911564
288.0,0.022915145382285118
320.0,0.021153610199689865
352.0,0.018823156133294106
384.0,0.016495874151587486
416.0,0.014422539621591568
448.0,0.013324218802154064
480.0,0.013107298873364925
512.0,0.012204143218696117
576.0,0.008678064681589603
640.0,0.0036122677847743034
704.0,-0.000923691492062062
768.0,-0.003999610431492329
832.0,-0.0076195732690393925
896.0,-0.010942929424345493
960.0,-0.01129281334578991
1024.0,-0.012280828319489956
1152.0,-0.013158044777810574
1280.0,-0.012106324546039104
1408.0,-0.010652291588485241
1536.0,-0.008822686970233917
1664.0,-0.006084786262363195
1792.0,-0.001370300306007266
1920.0,-0.0009808946633711457
2048.0,0.001784352120012045
2304.0,-0.008472549729049206
2560.0,-0.01342253852635622
2816.0,-0.010949243791401386
3072.0,-0.004431095905601978
3328.0,0.004534541163593531
3584.0,0.01433164905756712
3840.0,0.009907282888889313
4096.0,0.009843003936111927
4608.0,-0.00538940355181694
5120.0,-0.005335597321391106
5632.0,-0.001623737276531756
6144.0,-0.003604883560910821
6656.0,-0.006060132756829262
7168.0,-0.0023005828261375427
7680.0,-0.0019311588257551193
8192.0,-0.0031733419746160507
9216.0,0.005307971965521574
10240.0,0.007613821886479855
11264.0,0.0019172681495547295
12288.0,-0.007089725695550442
13312.0,-0.0006188127445057034
14336.0,0.0006600387278012931
end
