version,3.0
numOfCh,1
type,point
parent_name,1-cuts
ch_type,1_1
kcount,1
numberNandB,1
brightnessNandB,1
carpet pos,0
pc,0
Time (ms),CH1 Auto-Correlation
1.0,0.06176658719778061
2.0,0.061331696808338165
3.0,0.06089800223708153
4.0,0.060466568917036057
5.0,0.06002884730696678
6.0,0.05959475412964821
7.0,0.05915480852127075
8.0,0.058722108602523804
9.0,0.05829590559005737
10.0,0.05789164826273918
11.0,0.05749313905835152
12.0,0.05709315463900566
13.0,0.05670677870512009
14.0,0.056319743394851685
15.0,0.05594266951084137
16.0,0.05556924268603325
18.0,0.054835010319948196
20.0,0.054100267589092255
22.0,0.05337812751531601
24.0,0.052670981734991074
26.0,0.05196891352534294
28.0,0.051282308995723724
30.0,0.050617557018995285
32.0,0.049963608384132385
36.0,0.04867023974657059
40.0,0.04742170870304108
44.0,0.046215690672397614
48.0,0.04506465420126915
52.0,0.043950896710157394
56.0,0.04283522441983223
60.0,0.041713397949934006
64.0,0.04068498685956001
72.0,0.03869175910949707
80.0,0.03676984831690788
88.0,0.03485024720430374
96.0,0.033058494329452515
104.0,0.03152114152908325
112.0,0.030309394001960754
120.0,0.029391689226031303
128.0,0.02859669364988804
144.0,0.027140317484736443
160.0,0.025993874296545982
176.0,0.024927940219640732
192.0,0.02399645745754242
208.0,0.023380327969789505
224.0,0.022955583408474922
240.0,0.02206689864397049
256.0,0.02126733772456646
288.0,0.019871367141604424
320.0,0.018551627174019814
352.0,0.01776089519262314
384.0,0.017598986625671387
416.0,0.01724698394536972
448.0,0.01718532294034958
480.0,0.01675093173980713
512.0,0.016437072306871414
576.0,0.015029250644147396
640.0,0.014487848617136478
704.0,0.013839809224009514
768.0,0.014452819712460041
832.0,0.016511570662260056
896.0,0.016153862699866295
960.0,0.015402127988636494
1024.0,0.014361453242599964
1152.0,0.013718378730118275
1280.0,0.014017585664987564
1408.0,0.011601748876273632
1536.0,0.00931277871131897
1664.0,0.01186367217451334
1792.0,0.011240184307098389
1920.0,0.009166771546006203
2048.0,0.007370152976363897
2304.0,0.0011984874727204442
2560.0,-0.005582089070230722
2816.0,-0.005487505812197924
3072.0,-0.002371022943407297
3328.0,-0.0030635579023510218
3584.0,-0.006058593280613422
3840.0,-0.008731666021049023
4096.0,-0.008664383552968502
4608.0,-0.003753900295123458
5120.0,-0.004803209565579891
5632.0,-0.0022074291482567787
6144.0,-0.0015470498474314809
6656.0,0.000651429989375174
7168.0,-0.004691652487963438
7680.0,-0.0047399443574249744
8192.0,-0.004007931798696518
9216.0,-0.010360817424952984
10240.0,-0.015220968052744865
11264.0,-0.008014791645109653
12288.0,-0.006077478639781475
13312.0,0.004095515701919794
14336.0,0.00015021278522908688
end
