version,3.0
numOfCh,1
type,point
parent_name,1-cuts
ch_type,1_1
kcount,1
numberNandB,1
brightnessNandB,1
carpet pos,0
pc,0
Time (ms),CH1 Auto-Correlation
1.0,0.07453540712594986
2.0,0.07395606487989426
3.0,0.07338716834783554
4.0,0.07282306998968124
5.0,0.07225493341684341
6.0,0.07169080525636673
7.0,0.07114555686712265
8.0,0.07060188800096512
9.0,0.07007191330194473
10.0,0.06955089420080185
11.0,0.06904780119657516
12.0,0.06854917109012604
13.0,0.06806468963623047
14.0,0.06758970767259598
15.0,0.0671149268746376
16.0,0.06665074080228806
18.0,0.06570420414209366
20.0,0.06474220752716064
22.0,0.06380123645067215
24.0,0.06286700814962387
26.0,0.061930712312459946
28.0,0.06098785251379013
30.0,0.0600561760365963
32.0,0.05914706736803055
36.0,0.05743461474776268
40.0,0.05578002706170082
44.0,0.054130733013153076
48.0,0.05257230997085571
52.0,0.05112133175134659
56.0,0.049696605652570724
60.0,0.048289887607097626
64.0,0.04683886468410492
72.0,0.04403300955891609
80.0,0.041240159422159195
88.0,0.03856508433818817
96.0,0.03616933897137642
104.0,0.03424869850277901
112.0,0.032611340284347534
120.0,0.030999738723039627
128.0,0.029448218643665314
144.0,0.026249585673213005
160.0,0.023541053757071495
176.0,0.021423328667879105
192.0,0.01925317384302616
208.0,0.017191367223858833
224.0,0.01539673749357462
240.0,0.013710989616811275
256.0,0.01156069990247488
288.0,0.007834827527403831
320.0,0.0031992383301258087
352.0,-0.0010630943579599261
384.0,-0.003105865092948079
416.0,-0.0034221664536744356
448.0,-0.0028450866229832172
480.0,-0.002119355136528611
512.0,-0.0014913679333403707
576.0,0.0011870362795889378
640.0,0.0026545338332653046
704.0,0.0010316775878891349
768.0,-0.00011081351840402931
832.0,0.0016109977150335908
896.0,0.00516288448125124
960.0,0.005174568854272366
1024.0,0.003509108442813158
1152.0,0.0039687915705144405
1280.0,-0.004529235884547234
1408.0,-0.004016360733658075
1536.0,0.0026671825908124447
1664.0,0.00698073860257864
1792.0,0.011332171969115734
1920.0,0.005353561136871576
2048.0,0.0006813255604356527
2304.0,-0.004340075887739658
2560.0,-0.004483854863792658
2816.0,0.004286594223231077
3072.0,0.005995349492877722
3328.0,0.001977754756808281
3584.0,-0.0015019950224086642
3840.0,3.602388096624054e-05
4096.0,-0.011160002090036869
4608.0,-0.004147656727582216
5120.0,-0.006717646028846502
5632.0,0.005602588877081871
6144.0,-0.006318532396107912
6656.0,0.01184273511171341
7168.0,0.0012065960327163339
7680.0,0.003036526031792164
8192.0,0.0034853247925639153
9216.0,-0.0017169545171782374
10240.0,-0.0017979909898713231
11264.0,-0.011037658900022507
12288.0,-0.018681777641177177
13312.0,-0.013258786872029305
14336.0,0.0026953110937029123
end
