version,3.0
numOfCh,1
type,point
parent_name,1-cuts
ch_type,1_1
kcount,1
numberNandB,1
brightnessNandB,1
carpet pos,0
pc,0
Time (ms),CH1 Auto-Correlation
1.0,0.083835169672966
2.0,0.08326061069965363
3.0,0.08269630372524261
4.0,0.08214893937110901
5.0,0.08159604668617249
6.0,0.08104834705591202
7.0,0.0805116519331932
8.0,0.07996323704719543
9.0,0.07942145317792892
10.0,0.07889119535684586
11.0,0.07836025953292847
12.0,0.07782059907913208
13.0,0.07728468626737595
14.0,0.07674787938594818
15.0,0.07621853053569794
16.0,0.0756947249174118
18.0,0.07468664646148682
20.0,0.07372001558542252
22.0,0.07277437299489975
24.0,0.07183291018009186
26.0,0.07093397527933121
28.0,0.07007820159196854
30.0,0.06926886737346649
32.0,0.06846686452627182
36.0,0.06688576191663742
40.0,0.06534381210803986
44.0,0.06386994570493698
48.0,0.0625053197145462
52.0,0.061228666454553604
56.0,0.06002364680171013
60.0,0.05886619910597801
64.0,0.05774573236703873
72.0,0.055431805551052094
80.0,0.05312406271696091
88.0,0.05080796778202057
96.0,0.048583004623651505
104.0,0.04669667407870293
112.0,0.04498327523469925
120.0,0.04338264837861061
128.0,0.042080558836460114
144.0,0.03966030478477478
160.0,0.03734637051820755
176.0,0.036157939583063126
192.0,0.03529442846775055
208.0,0.034129444509744644
224.0,0.03215624392032623
240.0,0.029886519536376
256.0,0.028098685666918755
288.0,0.025314852595329285
320.0,0.021877102553844452
352.0,0.01948818936944008
384.0,0.017505692318081856
416.0,0.015135718509554863
448.0,0.013720449060201645
480.0,0.012817755341529846
512.0,0.012644764967262745
576.0,0.012281765230000019
640.0,0.01073523424565792
704.0,0.010486342012882233
768.0,0.012939087115228176
832.0,0.015062393620610237
896.0,0.014982832595705986
960.0,0.017903434112668037
1024.0,0.01998175121843815
1152.0,0.013717337511479855
1280.0,0.00994914211332798
1408.0,0.00486881984397769
1536.0,0.0017102884594351053
1664.0,-0.0007457016035914421
1792.0,-0.002532324753701687
1920.0,-0.0007812623516656458
2048.0,0.0049984036013484
2304.0,0.0020562780555337667
2560.0,0.0024206885136663914
2816.0,0.008026978932321072
3072.0,0.013368753716349602
3328.0,0.007245429791510105
3584.0,-0.003600192489102483
3840.0,-0.0004206332378089428
4096.0,-0.002981803845614195
4608.0,-0.012247715145349503
5120.0,-0.014557664282619953
5632.0,-0.015589957125484943
6144.0,-0.014161264523863792
6656.0,-0.014868306927382946
7168.0,-0.020173383876681328
7680.0,-0.01928103342652321
8192.0,-0.016802586615085602
9216.0,-0.0036125180777162313
10240.0,0.002202073810622096
11264.0,0.003734768368303776
12288.0,0.017985809594392776
13312.0,0.010542036034166813
14336.0,0.016782667487859726
end
