version,3.0
numOfCh,1
type,point
parent_name,1-cuts
ch_type,1_1
kcount,1
numberNandB,1
brightnessNandB,1
carpet pos,0
pc,0
Time (ms),CH1 Auto-Correlation
1.0,0.03345537185668945
2.0,0.03324642777442932
3.0,0.0330372229218483
4.0,0.03282766789197922
5.0,0.03262218087911606
6.0,0.03241918236017227
7.0,0.03221822902560234
8.0,0.03201742842793465
9.0,0.0318179689347744
10.0,0.03162034600973129
11.0,0.03142733499407768
12.0,0.031233204528689384
13.0,0.031045712530612946
14.0,0.030858054757118225
15.0,0.030671915039420128
16.0,0.030488669872283936
18.0,0.03012203238904476
20.0,0.02976340614259243
22.0,0.02941875159740448
24.0,0.029086293652653694
26.0,0.02875198796391487
28.0,0.02841591276228428
30.0,0.028081119060516357
32.0,0.02775014564394951
36.0,0.027096185833215714
40.0,0.02646985463798046
44.0,0.025861606001853943
48.0,0.025262316688895226
52.0,0.024691954255104065
56.0,0.02414236031472683
60.0,0.023615337908267975
64.0,0.02312168851494789
72.0,0.022206522524356842
80.0,0.021362697705626488
88.0,0.020564094185829163
96.0,0.019723132252693176
104.0,0.018887432292103767
112.0,0.018159788101911545
120.0,0.017516987398266792
128.0,0.01697687990963459
144.0,0.016097357496619225
160.0,0.0153550049290061
176.0,0.014595572836697102
192.0,0.014032822102308273
208.0,0.013447284698486328
224.0,0.012842660769820213
240.0,0.012315004132688046
256.0,0.011872257106006145
288.0,0.01139993965625763
320.0,0.010531260631978512
352.0,0.008999142795801163
384.0,0.007088841404765844
416.0,0.005897923838347197
448.0,0.005824313964694738
480.0,0.0055951620452106
512.0,0.004982195794582367
576.0,0.004329220857471228
640.0,0.003982568625360727
704.0,0.002513886196538806
768.0,0.0012201571371406317
832.0,-0.0007548850262537599
896.0,-0.0018108421936631203
960.0,-0.0017625429900363088
1024.0,-0.0032190505880862474
1152.0,-0.006109009031206369
1280.0,-0.005089139565825462
1408.0,-0.003287755884230137
1536.0,-0.0007408547098748386
1664.0,-0.001297285663895309
1792.0,-0.004271052312105894
1920.0,-0.0035600285045802593
2048.0,-0.003708482952788472
2304.0,0.00030858791433274746
2560.0,0.002434538910165429
2816.0,0.0016116028418764472
3072.0,0.0018030924256891012
3328.0,-3.0269939088611864e-05
3584.0,-0.0016723723383620381
3840.0,0.0020979968830943108
4096.0,0.002337925834581256
4608.0,-0.0014589413767680526
5120.0,-0.005476115737110376
5632.0,0.002011229982599616
6144.0,0.005660870112478733
6656.0,-1.8427490431349725e-05
7168.0,-0.006306900642812252
7680.0,-0.007339937146753073
8192.0,-0.0005725582013837993
9216.0,-0.008702131919562817
10240.0,-0.003854081965982914
11264.0,0.008582192473113537
12288.0,0.005771990865468979
13312.0,-0.017157725989818573
14336.0,0.0029096200596541166
end
