version,3.0
numOfCh,1
type,point
parent_name,1-cuts
ch_type,1_1
kcount,1
numberNandB,1
brightnessNandB,1
carpet pos,0
pc,0
Time (ms),CH1 Auto-Correlation
1.0,0.02787887305021286
2.0,0.027695154771208763
3.0,0.027511537075042725
4.0,0.02732773870229721
5.0,0.027147261425852776
6.0,0.0269729346036911
7.0,0.026801809668540955
8.0,0.026634803041815758
9.0,0.02646946907043457
10.0,0.02630666270852089
11.0,0.026144646108150482
12.0,0.025991257280111313
13.0,0.02583904191851616
14.0,0.025688523426651955
15.0,0.025538768619298935
16.0,0.025390883907675743
18.0,0.02511334978044033
20.0,0.024850213900208473
22.0,0.024595113471150398
24.0,0.024338584393262863
26.0,0.02408169023692608
28.0,0.023818355053663254
30.0,0.02355663850903511
32.0,0.023301873356103897
36.0,0.0227988101541996
40.0,0.022284867241978645
44.0,0.021796006709337234
48.0,0.021333850920200348
52.0,0.020868821069598198
56.0,0.020401883870363235
60.0,0.01993921957910061
64.0,0.019497081637382507
72.0,0.018652798607945442
80.0,0.017852284014225006
88.0,0.01708071306347847
96.0,0.016322501003742218
104.0,0.01562217716127634
112.0,0.01497191097587347
120.0,0.014369147829711437
128.0,0.013777435757219791
144.0,0.012641455046832561
160.0,0.011588850989937782
176.0,0.010593051090836525
192.0,0.009801932610571384
208.0,0.009170486591756344
224.0,0.008699596859514713
240.0,0.008231015875935555
256.0,0.00781302060931921
288.0,0.007018704898655415
320.0,0.006460155360400677
352.0,0.005873146932572126
384.0,0.005576987285166979
416.0,0.005436452105641365
448.0,0.005238072015345097
480.0,0.004917459096759558
512.0,0.0042831855826079845
576.0,0.0028799199499189854
640.0,0.0014766575768589973
704.0,0.000102320707810577
768.0,-0.0009527057991363108
832.0,-0.0005766659742221236
896.0,-0.0006306581781245768
960.0,-0.0010650630574673414
1024.0,-0.0009789655450731516
1152.0,0.003391945967450738
1280.0,0.006206839811056852
1408.0,0.005106260068714619
1536.0,0.003299073316156864
1664.0,0.0024124481715261936
1792.0,0.002133982488885522
1920.0,0.0014693810371682048
2048.0,0.0021129550877958536
2304.0,0.0024475655518472195
2560.0,0.001762306783348322
2816.0,0.0014097727835178375
3072.0,-0.0007520301733165979
3328.0,0.0007364227785728872
3584.0,-0.0008359993807971478
3840.0,-0.0018016432877629995
4096.0,-0.0026719842571765184
4608.0,-0.0016622436232864857
5120.0,-0.005347537808120251
5632.0,-0.008572297170758247
6144.0,-0.005118853412568569
6656.0,-0.003540352452546358
7168.0,-0.004530980251729488
7680.0,-0.0015201295027509332
8192.0,-0.002089869463816285
9216.0,-0.0002607323694974184
10240.0,-0.0003775946388486773
11264.0,0.0014011473394930363
12288.0,0.003809890244156122
13312.0,0.0034760136622935534
14336.0,0.0018958544824272394
end
