version,3.0
numOfCh,1
type,point
parent_name,1-cuts
ch_type,1_1
kcount,1
numberNandB,1
brightnessNandB,1
carpet pos,0
pc,0
Time (ms),CH1 Auto-Correlation
1.0,0.07723686844110489
2.0,0.0767098218202591
3.0,0.07617693394422531
4.0,0.07564503699541092
5.0,0.07513456046581268
6.0,0.0746375247836113
7.0,0.07415574043989182
8.0,0.07367857545614243
9.0,0.07320696115493774
10.0,0.07273152470588684
11.0,0.07228326797485352
12.0,0.0718393325805664
13.0,0.07139883935451508
14.0,0.07096457481384277
15.0,0.07053165137767792
16.0,0.07009216398000717
18.0,0.06923899799585342
20.0,0.06842651963233948
22.0,0.0676274225115776
24.0,0.06680828332901001
26.0,0.06602860987186432
28.0,0.06529414653778076
30.0,0.06455975025892258
32.0,0.06383722275495529
36.0,0.062417350709438324
40.0,0.06096726283431053
44.0,0.05951375141739845
48.0,0.058136966079473495
52.0,0.056841518729925156
56.0,0.055601879954338074
60.0,0.054471731185913086
64.0,0.05338196083903313
72.0,0.05142022669315338
80.0,0.04970172420144081
88.0,0.04811384528875351
96.0,0.04656239226460457
104.0,0.04509173333644867
112.0,0.04395868629217148
120.0,0.04283227398991585
128.0,0.04166000708937645
144.0,0.039043158292770386
160.0,0.03671513870358467
176.0,0.034959129989147186
192.0,0.03310298174619675
208.0,0.03127037733793259
224.0,0.02955954149365425
240.0,0.027517452836036682
256.0,0.025431692600250244
288.0,0.022687247022986412
320.0,0.020227592438459396
352.0,0.018200336024165154
384.0,0.0168340764939785
416.0,0.016150521114468575
448.0,0.015582009218633175
480.0,0.014771207235753536
512.0,0.013305101543664932
576.0,0.011530050076544285
640.0,0.011155026964843273
704.0,0.01054534874856472
768.0,0.010120774619281292
832.0,0.011572788469493389
896.0,0.013212076388299465
960.0,0.01304857898503542
1024.0,0.014426486566662788
1152.0,0.010309361852705479
1280.0,0.0010156735079362988
1408.0,-0.002947771456092596
1536.0,-0.005770089570432901
1664.0,-0.007260499522089958
1792.0,-0.010472376830875874
1920.0,-0.0043959845788776875
2048.0,-0.0019631453324109316
2304.0,0.00037857459392398596
2560.0,-0.007989724166691303
2816.0,-0.010887485928833485
3072.0,-0.0063263848423957825
3328.0,-0.012065164744853973
3584.0,-0.005420659203082323
3840.0,-0.00453924760222435
4096.0,-0.0005629730294458568
4608.0,-0.005599017720669508
5120.0,-0.0019753884989768267
5632.0,-0.00522724911570549
6144.0,0.00261086062528193
6656.0,0.004928219132125378
7168.0,-0.004613602068275213
7680.0,-0.0018562441691756248
8192.0,0.003754185512661934
9216.0,0.00043968542013317347
10240.0,-0.011935030110180378
11264.0,-0.014663152396678925
12288.0,0.009282036684453487
13312.0,-0.005311282351613045
14336.0,-0.007336458656936884
end
