version,3.0
numOfCh,1
type,point
parent_name,1-cuts
ch_type,1_1
kcount,1
numberNandB,1
brightnessNandB,1
carpet pos,0
pc,0
Time (ms),CH1 Auto-Correlation
1.0,0.09911932796239853
2.0,0.09857591241598129
3.0,0.09804028272628784
4.0,0.09749933332204819
5.0,0.09696444869041443
6.0,0.09643129259347916
7.0,0.09589093923568726
8.0,0.09535478800535202
9.0,0.09483227133750916
10.0,0.09431028366088867
11.0,0.09379120171070099
12.0,0.09326387941837311
13.0,0.09275516122579575
14.0,0.09223933517932892
15.0,0.09172507375478745
16.0,0.09123346954584122
18.0,0.0902395099401474
20.0,0.08926855027675629
22.0,0.08831536024808884
24.0,0.0874040499329567
26.0,0.08651866018772125
28.0,0.08562241494655609
30.0,0.08473196625709534
32.0,0.08383875340223312
36.0,0.08209719508886337
40.0,0.08043371140956879
44.0,0.07881108671426773
48.0,0.07726521044969559
52.0,0.0758657306432724
56.0,0.07458082586526871
60.0,0.07331831008195877
64.0,0.07211894541978836
72.0,0.06986356526613235
80.0,0.06747874617576599
88.0,0.06507878750562668
96.0,0.06296569854021072
104.0,0.060832563787698746
112.0,0.058600734919309616
120.0,0.05629590526223183
128.0,0.05425156280398369
144.0,0.051058486104011536
160.0,0.04795622453093529
176.0,0.0451490692794323
192.0,0.04252711310982704
208.0,0.039608560502529144
224.0,0.036593444645404816
240.0,0.03438030183315277
256.0,0.033543769270181656
288.0,0.03264649584889412
320.0,0.02968137338757515
352.0,0.027107179164886475
384.0,0.02406919375061989
416.0,0.02087511122226715
448.0,0.019331563264131546
480.0,0.01763712242245674
512.0,0.015888985246419907
576.0,0.013919935561716557
640.0,0.010593635961413383
704.0,0.005597447976469994
768.0,0.002186944242566824
832.0,0.00040454682311974466
896.0,-0.0022416780702769756
960.0,-0.007280612364411354
1024.0,-0.008302395232021809
1152.0,-0.0013578856596723199
1280.0,0.0011110107880085707
1408.0,-0.0006913334364071488
1536.0,3.9395315980073065e-05
1664.0,0.0043288604356348515
1792.0,0.0035531208850443363
1920.0,0.007427165284752846
2048.0,0.007783691864460707
2304.0,0.0012600308982655406
2560.0,-0.003914783243089914
2816.0,-0.005356285255402327
3072.0,-0.008715246804058552
3328.0,-0.004552248865365982
3584.0,-0.016378503292798996
3840.0,-0.02169845812022686
4096.0,-0.029582830145955086
4608.0,-0.022388966754078865
5120.0,-0.005330977030098438
5632.0,0.00046317954547703266
6144.0,-0.011194991879165173
6656.0,-0.02206738106906414
7168.0,0.0038347223307937384
7680.0,0.017788488417863846
8192.0,0.01924430951476097
9216.0,0.01458320114761591
10240.0,0.03016481176018715
11264.0,-0.0008226470090448856
12288.0,-0.030844083055853844
13312.0,-0.029177039861679077
14336.0,-0.02167697064578533
end
