version,3.0
numOfCh,1
type,point
parent_name,1-cuts
ch_type,1_1
kcount,1
numberNandB,1
brightnessNandB,1
carpet pos,0
pc,0
Time (ms),CH1 Auto-Correlation
1.0,0.029119158163666725
2.0,0.028916819021105766
3.0,0.028720906004309654
4.0,0.028531959280371666
5.0,0.028337080031633377
6.0,0.02815072610974312
7.0,0.027964727953076363
8.0,0.027776941657066345
9.0,0.027595965191721916
10.0,0.027413858100771904
11.0,0.02722977288067341
12.0,0.027047263458371162
13.0,0.02686464414000511
14.0,0.026686470955610275
15.0,0.026512347161769867
16.0,0.02633812092244625
18.0,0.025997577235102654
20.0,0.025670362636446953
22.0,0.025353694334626198
24.0,0.025051821023225784
26.0,0.024759775027632713
28.0,0.024473540484905243
30.0,0.024185623973608017
32.0,0.02390505000948906
36.0,0.02337373048067093
40.0,0.022881217300891876
44.0,0.022430073469877243
48.0,0.022016450762748718
52.0,0.021614601835608482
56.0,0.021223610267043114
60.0,0.020824754610657692
64.0,0.020415853708982468
72.0,0.01963348686695099
80.0,0.018931729719042778
88.0,0.018244091421365738
96.0,0.017602689564228058
104.0,0.017065368592739105
112.0,0.01655501499772072
120.0,0.01607518643140793
128.0,0.015609493479132652
144.0,0.014872202649712563
160.0,0.014146940782666206
176.0,0.013487676158547401
192.0,0.012776454910635948
208.0,0.011990041472017765
224.0,0.011319859884679317
240.0,0.010782239027321339
256.0,0.010332079604268074
288.0,0.009728696197271347
320.0,0.00931494403630495
352.0,0.008558659814298153
384.0,0.008018708787858486
416.0,0.007202821783721447
448.0,0.00624599726870656
480.0,0.005245519801974297
512.0,0.0050982763059437275
576.0,0.0051604583859443665
640.0,0.004804227035492659
704.0,0.002601391403004527
768.0,0.0006847443873994052
832.0,-7.766330236336216e-05
896.0,-0.0005254019051790237
960.0,-0.0009963319171220064
1024.0,-0.0014200139557942748
1152.0,-0.001898349029943347
1280.0,-0.002210026839748025
1408.0,-0.001974981976673007
1536.0,-0.002008004579693079
1664.0,-0.002251327969133854
1792.0,-0.003331707790493965
1920.0,-0.006218113005161285
2048.0,-0.006835962645709515
2304.0,-0.005668276455253363
2560.0,-0.006168000400066376
2816.0,-0.0058313338086009026
3072.0,-0.005230874754488468
3328.0,-0.005190691445022821
3584.0,-0.0031130036804825068
3840.0,0.0019686578307300806
4096.0,0.004027119372040033
4608.0,0.0048469603061676025
5120.0,0.0019991984590888023
5632.0,0.002148654544726014
6144.0,0.0043671890161931515
6656.0,0.004230685532093048
7168.0,-0.0020086546428501606
7680.0,-0.005471292417496443
8192.0,-0.003938447684049606
9216.0,-0.0083308769389987
10240.0,0.004038501530885696
11264.0,0.00934105459600687
12288.0,-0.00046223399112932384
13312.0,-0.004897407256066799
14336.0,-0.00402503926306963
end
