version,3.0
numOfCh,1
type,point
parent_name,1-cuts
ch_type,1_1
kcount,1
numberNandB,1
brightnessNandB,1
carpet pos,0
pc,0
Time (ms),CH1 Auto-Correlation
1.0,0.07684903591871262
2.0,0.07630543410778046
3.0,0.07578367739915848
4.0,0.07525856047868729
5.0,0.07473993301391602
6.0,0.0742223709821701
7.0,0.07370869070291519
8.0,0.07320093363523483
9.0,0.0727059617638588
10.0,0.07221674919128418
11.0,0.07173748314380646
12.0,0.07127027958631516
13.0,0.07080647349357605
14.0,0.07036036252975464
15.0,0.0699174702167511
16.0,0.0694892480969429
18.0,0.06863974779844284
20.0,0.06782756000757217
22.0,0.06702548265457153
24.0,0.06621203571557999
26.0,0.06541712582111359
28.0,0.06463324278593063
30.0,0.0638895332813263
32.0,0.06312987953424454
36.0,0.0615990124642849
40.0,0.06016702204942703
44.0,0.058768145740032196
48.0,0.05736011266708374
52.0,0.05592835694551468
56.0,0.054603930562734604
60.0,0.053410306572914124
64.0,0.05219998210668564
72.0,0.04948057979345322
80.0,0.046936340630054474
88.0,0.04465603083372116
96.0,0.042601123452186584
104.0,0.040897686034440994
112.0,0.039392340928316116
120.0,0.03815736994147301
128.0,0.03711656853556633
144.0,0.035120896995067596
160.0,0.033730123192071915
176.0,0.03263310343027115
192.0,0.03180693835020065
208.0,0.030816424638032913
224.0,0.029839809983968735
240.0,0.028847236186265945
256.0,0.027217606082558632
288.0,0.02369280345737934
320.0,0.020106418058276176
352.0,0.01757245883345604
384.0,0.015347489155828953
416.0,0.012739023193717003
448.0,0.010413325391709805
480.0,0.009457601234316826
512.0,0.009405910968780518
576.0,0.006390116177499294
640.0,0.0025264129508286715
704.0,-8.075415826169774e-05
768.0,-0.002073772484436631
832.0,-0.003575040027499199
896.0,-0.004326913505792618
960.0,-0.0039028350729495287
1024.0,-0.004532965831458569
1152.0,-0.011273718439042568
1280.0,-0.009885644540190697
1408.0,-0.012800279073417187
1536.0,-0.014332401566207409
1664.0,-0.013976065441966057
1792.0,-0.010495536960661411
1920.0,-0.010004374198615551
2048.0,-0.012200823053717613
2304.0,-0.0059417905285954475
2560.0,-0.0021657480392605066
2816.0,0.00020605319878086448
3072.0,-0.0053446339443326
3328.0,-0.002111719222739339
3584.0,0.009919030591845512
3840.0,0.012049746699631214
4096.0,0.009101459756493568
4608.0,-0.004353891592472792
5120.0,-0.0032023305539041758
5632.0,0.009727711789309978
6144.0,0.007840167731046677
6656.0,-0.006125698331743479
7168.0,-0.009301404468715191
7680.0,-0.00030132586834952235
8192.0,0.0037105027586221695
9216.0,0.0007063105585984886
10240.0,0.008168380707502365
11264.0,0.006546453572809696
12288.0,-0.0317867249250412
13312.0,-0.011495123617351055
14336.0,0.032118234783411026
end
