version,3.0
numOfCh,1
type,point
parent_name,1-cuts
ch_type,1_1
kcount,1
numberNandB,1
brightnessNandB,1
carpet pos,0
pc,0
Time (ms),CH1 Auto-Correlation
1.0,0.06602130085229874
2.0,0.0655902773141861
3.0,0.06515340507030487
4.0,0.06471466273069382
5.0,0.0642884150147438
6.0,0.06386975198984146
7.0,0.06345780193805695
8.0,0.06304748356342316
9.0,0.0626436099410057
10.0,0.06224765256047249
11.0,0.06184495612978935
12.0,0.06144818663597107
13.0,0.06105850636959076
14.0,0.0606762133538723
15.0,0.060295939445495605
16.0,0.05991971492767334
18.0,0.059199023991823196
20.0,0.05849943310022354
22.0,0.05782793462276459
24.0,0.05716930329799652
26.0,0.05652358755469322
28.0,0.05591743439435959
30.0,0.05534131079912186
32.0,0.054774172604084015
36.0,0.053657397627830505
40.0,0.05260317027568817
44.0,0.051594480872154236
48.0,0.05066152289509773
52.0,0.04972967505455017
56.0,0.048843659460544586
60.0,0.04797704890370369
64.0,0.047207217663526535
72.0,0.04583728685975075
80.0,0.04451891407370567
88.0,0.04322612285614014
96.0,0.04202653095126152
104.0,0.04077231138944626
112.0,0.039538342505693436
120.0,0.038471024483442307
128.0,0.0375334806740284
144.0,0.03557610511779785
160.0,0.03399715945124626
176.0,0.03281119838356972
192.0,0.031366996467113495
208.0,0.02934330143034458
224.0,0.027641551569104195
240.0,0.026375437155365944
256.0,0.025322092697024345
288.0,0.02345539629459381
320.0,0.022002412006258965
352.0,0.02049393579363823
384.0,0.019344588741660118
416.0,0.018666787073016167
448.0,0.01862221583724022
480.0,0.01869332417845726
512.0,0.018636222928762436
576.0,0.015752414241433144
640.0,0.012420752085745335
704.0,0.00881254393607378
768.0,0.004633259493857622
832.0,0.00212552840821445
896.0,-0.0005193160031922162
960.0,-0.002421712502837181
1024.0,-0.0026817177422344685
1152.0,-0.0026926847640424967
1280.0,-0.0023286803625524044
1408.0,-0.003371763974428177
1536.0,-0.0013094728346914053
1664.0,-0.0034396732226014137
1792.0,-0.0068508051335811615
1920.0,-0.00904618389904499
2048.0,-0.009757333435118198
2304.0,-0.00832267478108406
2560.0,-0.00544217973947525
2816.0,-0.005248779896646738
3072.0,-0.005055608227849007
3328.0,-0.014296961016952991
3584.0,-0.01486029103398323
3840.0,-0.008261248469352722
4096.0,0.004097011871635914
4608.0,0.01368766836822033
5120.0,0.0014273128472268581
5632.0,0.0007726859184913337
6144.0,0.0017898068763315678
6656.0,0.0006346770096570253
7168.0,0.005963032133877277
7680.0,-0.003994151018559933
8192.0,-0.011874444782733917
9216.0,-0.0015617420431226492
10240.0,-0.0005343587254174054
11264.0,0.010004824958741665
12288.0,0.006707945838570595
13312.0,-0.02234150841832161
14336.0,-0.03613832965493202
end
