version,3.0
numOfCh,1
type,point
parent_name,1-cuts
ch_type,1_1
kcount,1
numberNandB,1
brightnessNandB,1
carpet pos,0
pc,0
Time (ms),CH1 Auto-Correlation
1.0,0.06855162978172302
2.0,0.06816971302032471
3.0,0.0677940621972084
4.0,0.06742528080940247
5.0,0.0670521929860115
6.0,0.0666785016655922
7.0,0.06629861891269684
8.0,0.06592196971178055
9.0,0.06555163860321045
10.0,0.0651935562491417
11.0,0.06482932716608047
12.0,0.06446824967861176
13.0,0.06410539150238037
14.0,0.0637451782822609
15.0,0.06338053196668625
16.0,0.06303351372480392
18.0,0.062365610152482986
20.0,0.061715997755527496
22.0,0.061085961759090424
24.0,0.060453418642282486
26.0,0.05982816591858864
28.0,0.05922707915306091
30.0,0.05864306539297104
32.0,0.05807381495833397
36.0,0.05700024589896202
40.0,0.05602443590760231
44.0,0.055130038410425186
48.0,0.054260216653347015
52.0,0.05338241532444954
56.0,0.0525706447660923
60.0,0.05177702754735947
64.0,0.050978295505046844
72.0,0.04934610798954964
80.0,0.04776271432638168
88.0,0.04627155885100365
96.0,0.04492107406258583
104.0,0.04371807724237442
112.0,0.042699266225099564
120.0,0.04166023060679436
128.0,0.04065360128879547
144.0,0.03896765410900116
160.0,0.03771084547042847
176.0,0.03651272878050804
192.0,0.0353466272354126
208.0,0.03439559042453766
224.0,0.033509206026792526
240.0,0.03273959830403328
256.0,0.032035619020462036
288.0,0.030841592699289322
320.0,0.029441265389323235
352.0,0.028782762587070465
384.0,0.028497999534010887
416.0,0.026817167177796364
448.0,0.024206126108765602
480.0,0.021739810705184937
512.0,0.019858164712786674
576.0,0.016052909195423126
640.0,0.014082912355661392
704.0,0.011849899776279926
768.0,0.010487183928489685
832.0,0.01278382632881403
896.0,0.016115881502628326
960.0,0.01696068048477173
1024.0,0.0165193323045969
1152.0,0.016504041850566864
1280.0,0.01897509954869747
1408.0,0.013591671362519264
1536.0,0.012695341370999813
1664.0,0.01237474475055933
1792.0,0.007976162247359753
1920.0,0.00554504431784153
2048.0,0.004278981126844883
2304.0,0.0040444498881697655
2560.0,0.005480550229549408
2816.0,0.007480760104954243
3072.0,0.007842437364161015
3328.0,0.0020345207303762436
3584.0,-0.006837589666247368
3840.0,-0.010951646603643894
4096.0,-0.013732272200286388
4608.0,-0.015804216265678406
5120.0,-0.022481078281998634
5632.0,-0.018706515431404114
6144.0,-0.00542049715295434
6656.0,-0.012319746427237988
7168.0,-0.01440966222435236
7680.0,-0.008908804506063461
8192.0,-0.009000981226563454
9216.0,0.004512581508606672
10240.0,-0.004684862215071917
11264.0,-0.0039046285673975945
12288.0,0.012927585281431675
13312.0,-0.005991517100483179
14336.0,-0.014592094346880913
end
