version,3.0
numOfCh,1
type,point
parent_name,1-cuts
ch_type,1_1
kcount,1
numberNandB,1
brightnessNandB,1
carpet pos,0
pc,0
Time (ms),CH1 Auto-Correlation
1.0,0.09743314236402512
2.0,0.09690392017364502
3.0,0.09638060629367828
4.0,0.09586163610219955
5.0,0.0953480452299118
6.0,0.09483439475297928
7.0,0.09433317929506302
8.0,0.09382830560207367
9.0,0.09333700686693192
10.0,0.09284546226263046
11.0,0.09236080944538116
12.0,0.09188418835401535
13.0,0.09140396863222122
14.0,0.09092037379741669
15.0,0.090457983314991
16.0,0.0899970531463623
18.0,0.08908602595329285
20.0,0.08818776905536652
22.0,0.08731167018413544
24.0,0.08647478371858597
26.0,0.08562994003295898
28.0,0.08478523045778275
30.0,0.08396860957145691
32.0,0.08317060768604279
36.0,0.08162767440080643
40.0,0.080135278403759
44.0,0.07859399169683456
48.0,0.07699806988239288
52.0,0.07544874399900436
56.0,0.07401807606220245
60.0,0.07272619009017944
64.0,0.07151895016431808
72.0,0.06899121403694153
80.0,0.06641819328069687
88.0,0.0637417733669281
96.0,0.06099638715386391
104.0,0.05871168151497841
112.0,0.05689821019768715
120.0,0.05533803999423981
128.0,0.05398883298039436
144.0,0.05105871334671974
160.0,0.04807070270180702
176.0,0.04497896134853363
192.0,0.04228944331407547
208.0,0.040106210857629776
224.0,0.038554467260837555
240.0,0.037172578275203705
256.0,0.03619261085987091
288.0,0.03508946672081947
320.0,0.034408777952194214
352.0,0.033684466034173965
384.0,0.03303191810846329
416.0,0.0323314368724823
448.0,0.03156128525733948
480.0,0.029997067525982857
512.0,0.02619842067360878
576.0,0.01719794049859047
640.0,0.013492506928741932
704.0,0.014448936097323895
768.0,0.014484009705483913
832.0,0.01544487476348877
896.0,0.015318101271986961
960.0,0.010962309315800667
1024.0,0.0037328919861465693
1152.0,-0.0018784282729029655
1280.0,0.001839477103203535
1408.0,-0.0007911342545412481
1536.0,-0.006745961029082537
1664.0,-0.008508501574397087
1792.0,-0.0004536283086054027
1920.0,0.00344395125284791
2048.0,0.008511633612215519
2304.0,0.012847401201725006
2560.0,0.008211012929677963
2816.0,0.010895611718297005
3072.0,0.0032795611768960953
3328.0,0.0023773880675435066
3584.0,-0.002621121471747756
3840.0,-0.014457491226494312
4096.0,-0.008619474247097969
4608.0,0.006293817888945341
5120.0,0.004848904442042112
5632.0,0.006036941893398762
6144.0,-0.024221744388341904
6656.0,-0.031765781342983246
7168.0,-0.03105061873793602
7680.0,-0.010169800370931625
8192.0,-0.0008934195502661169
9216.0,-0.010931005701422691
10240.0,-0.00529629597440362
11264.0,-0.0028949736151844263
12288.0,0.006199187599122524
13312.0,0.008016800507903099
14336.0,-0.0004422487400006503
end
