version,3.0
numOfCh,1
type,point
parent_name,1-cuts
ch_type,1_1
kcount,1
numberNandB,1
brightnessNandB,1
carpet pos,0
pc,0
Time (ms),CH1 Auto-Correlation
1.0,0.029113806784152985
2.0,0.02889677882194519
3.0,0.028682906180620193
4.0,0.02847367897629738
5.0,0.02826874703168869
6.0,0.02807101048529148
7.0,0.027867332100868225
8.0,0.027666108682751656
9.0,0.02746845781803131
10.0,0.027276014909148216
11.0,0.027083775028586388
12.0,0.02688954584300518
13.0,0.026702074334025383
14.0,0.026512036100029945
15.0,0.0263275895267725
16.0,0.026145724579691887
18.0,0.025804679840803146
20.0,0.025478670373558998
22.0,0.025160085409879684
24.0,0.02484782785177231
26.0,0.024535464122891426
28.0,0.02423139475286007
30.0,0.023934338241815567
32.0,0.023648874834179878
36.0,0.023124201223254204
40.0,0.022611891850829124
44.0,0.02212284505367279
48.0,0.021649403497576714
52.0,0.021170584484934807
56.0,0.020720649510622025
60.0,0.020321572199463844
64.0,0.01994677260518074
72.0,0.01920395903289318
80.0,0.01858079992234707
88.0,0.018045106902718544
96.0,0.01749003492295742
104.0,0.016920197755098343
112.0,0.01636222004890442
120.0,0.015783073380589485
128.0,0.01519932970404625
144.0,0.014156941324472427
160.0,0.013437695801258087
176.0,0.01278203260153532
192.0,0.011958190239965916
208.0,0.01115021575242281
224.0,0.010325648821890354
240.0,0.009691364131867886
256.0,0.00930735096335411
288.0,0.009192094206809998
320.0,0.008664469234645367
352.0,0.007730032317340374
384.0,0.007226099725812674
416.0,0.006762433331459761
448.0,0.006563942413777113
480.0,0.006685860920697451
512.0,0.006886407267302275
576.0,0.006981296464800835
640.0,0.005756402853876352
704.0,0.004839849192649126
768.0,0.00417568814009428
832.0,0.004430142231285572
896.0,0.005262719467282295
960.0,0.005643861833959818
1024.0,0.0056997183710336685
1152.0,0.004778687842190266
1280.0,0.004102876875549555
1408.0,0.0028634071350097656
1536.0,0.0020450083538889885
1664.0,0.002167909871786833
1792.0,0.0009627696126699448
1920.0,0.0005991770303808153
2048.0,-0.00029880026704631746
2304.0,-0.004553975537419319
2560.0,-0.0033497822005301714
2816.0,-0.0029254320543259382
3072.0,-0.0016360480803996325
3328.0,-0.004298686049878597
3584.0,-0.006629676558077335
3840.0,-0.007178124506026506
4096.0,-0.0060919951647520065
4608.0,-0.004908233880996704
5120.0,-0.006944096181541681
5632.0,-0.005326061509549618
6144.0,-0.004142295569181442
6656.0,-0.0003119113971479237
7168.0,0.00487359007820487
7680.0,0.007799300365149975
8192.0,0.006791358347982168
9216.0,0.003983037080615759
10240.0,0.0006517734727822244
11264.0,-0.0016955523751676083
12288.0,-0.003930770792067051
13312.0,-0.006868019700050354
14336.0,-0.003872097237035632
end
