version,3.0
numOfCh,1
type,point
parent_name,1-cuts
ch_type,1_1
kcount,1
numberNandB,1
brightnessNandB,1
carpet pos,0
pc,0
Time (ms),CH1 Auto-Correlation
1.0,0.06731299310922623
2.0,0.06691204756498337
3.0,0.06652264297008514
4.0,0.06613916158676147
5.0,0.06574743986129761
6.0,0.06536822021007538
7.0,0.06499693542718887
8.0,0.06462658941745758
9.0,0.06426852941513062
10.0,0.06391941010951996
11.0,0.0635717362165451
12.0,0.06323449313640594
13.0,0.06289771944284439
14.0,0.06255020201206207
15.0,0.0621984489262104
16.0,0.06185206398367882
18.0,0.06116528436541557
20.0,0.06048836559057236
22.0,0.05983506515622139
24.0,0.0592089407145977
26.0,0.05859794467687607
28.0,0.057986706495285034
30.0,0.057390060275793076
32.0,0.05681484565138817
36.0,0.05568917095661163
40.0,0.05459585413336754
44.0,0.05354984104633331
48.0,0.0525783970952034
52.0,0.051641128957271576
56.0,0.05071263015270233
60.0,0.04976789280772209
64.0,0.048881907016038895
72.0,0.04732832685112953
80.0,0.04588181897997856
88.0,0.04457300901412964
96.0,0.04329710826277733
104.0,0.04200004041194916
112.0,0.04070092737674713
120.0,0.0393943153321743
128.0,0.038080282509326935
144.0,0.0353640653192997
160.0,0.03291531652212143
176.0,0.03071475401520729
192.0,0.028524009510874748
208.0,0.02670091763138771
224.0,0.025168998166918755
240.0,0.023544365540146828
256.0,0.021978085860610008
288.0,0.020126236602663994
320.0,0.018956607207655907
352.0,0.017588505521416664
384.0,0.016404075548052788
416.0,0.015037362463772297
448.0,0.014065957628190517
480.0,0.01370947528630495
512.0,0.013673667795956135
576.0,0.0122465705499053
640.0,0.012765435501933098
704.0,0.015156351029872894
768.0,0.017826633527874947
832.0,0.018293077126145363
896.0,0.017747728154063225
960.0,0.017160380259156227
1024.0,0.017378317192196846
1152.0,0.018564609810709953
1280.0,0.021992051973938942
1408.0,0.019199896603822708
1536.0,0.015162455849349499
1664.0,0.010499688796699047
1792.0,0.010843858122825623
1920.0,0.011080820113420486
2048.0,0.014634896069765091
2304.0,0.017782235518097878
2560.0,0.015275664627552032
2816.0,0.007523986045271158
3072.0,-0.00037624058313667774
3328.0,0.004737346898764372
3584.0,-0.0006658473866991699
3840.0,-0.0026238977443426847
4096.0,0.006627712864428759
4608.0,-0.0027060883585363626
5120.0,-0.002162048825994134
5632.0,-0.011462856084108353
6144.0,-0.00876904558390379
6656.0,-0.006754291709512472
7168.0,-0.01213549543172121
7680.0,-0.015111572109162807
8192.0,-0.027851033955812454
9216.0,-0.01917036809027195
10240.0,-0.01851489022374153
11264.0,-0.010819980874657631
12288.0,-0.007669081445783377
13312.0,0.00015310094750020653
14336.0,0.0004096628399565816
end
