version,3.0
numOfCh,1
type,point
parent_name,1-cuts
ch_type,1_1
kcount,1
numberNandB,1
brightnessNandB,1
carpet pos,0
pc,0
Time (ms),CH1 Auto-Correlation
1.0,0.08407798409461975
2.0,0.08362089097499847
3.0,0.08316919952630997
4.0,0.08271168917417526
5.0,0.08226187527179718
6.0,0.08180522918701172
7.0,0.08134336769580841
8.0,0.08088146150112152
9.0,0.08041904121637344
10.0,0.07997369021177292
11.0,0.07953792065382004
12.0,0.07910378277301788
13.0,0.07868465781211853
14.0,0.07826750725507736
15.0,0.07785405963659286
16.0,0.07744699716567993
18.0,0.07663258910179138
20.0,0.07582640647888184
22.0,0.0750565454363823
24.0,0.07430116087198257
26.0,0.07355856895446777
28.0,0.07285413891077042
30.0,0.07215061038732529
32.0,0.07145856320858002
36.0,0.07014840841293335
40.0,0.06885778903961182
44.0,0.06761915236711502
48.0,0.06636909395456314
52.0,0.06510604918003082
56.0,0.06391565501689911
60.0,0.06284325569868088
64.0,0.06183817610144615
72.0,0.05992228537797928
80.0,0.05809340626001358
88.0,0.05634802207350731
96.0,0.05481801927089691
104.0,0.0533667653799057
112.0,0.052087053656578064
120.0,0.05080674588680267
128.0,0.04961688444018364
144.0,0.04784538224339485
160.0,0.04624041169881821
176.0,0.04510916396975517
192.0,0.04444662109017372
208.0,0.04371800273656845
224.0,0.042878277599811554
240.0,0.041951365768909454
256.0,0.04126106575131416
288.0,0.03980063647031784
320.0,0.03801717981696129
352.0,0.03711137920618057
384.0,0.03578774631023407
416.0,0.0341784693300724
448.0,0.031040392816066742
480.0,0.02841784618794918
512.0,0.02596026100218296
576.0,0.02472274750471115
640.0,0.022651366889476776
704.0,0.017333846539258957
768.0,0.011863511055707932
832.0,0.010513377375900745
896.0,0.009785732254385948
960.0,0.00750627601519227
1024.0,0.00602822145447135
1152.0,0.001907440135255456
1280.0,0.001534087467007339
1408.0,0.0018366227159276605
1536.0,0.008354054763913155
1664.0,0.012396985664963722
1792.0,0.011880510486662388
1920.0,0.011865906417369843
2048.0,0.010867677628993988
2304.0,0.004349553491920233
2560.0,0.0010767022613435984
2816.0,-0.003556374693289399
3072.0,-0.013226356357336044
3328.0,-0.01670583337545395
3584.0,-0.022390229627490044
3840.0,-0.028853420168161392
4096.0,-0.031032489612698555
4608.0,-0.029867850244045258
5120.0,-0.021856902167201042
5632.0,-0.0172716174274683
6144.0,-0.01595297083258629
6656.0,-0.008057902567088604
7168.0,0.004042737185955048
7680.0,0.01208658516407013
8192.0,0.018687916919589043
9216.0,0.029013575986027718
10240.0,0.012596067041158676
11264.0,-0.006395095027983189
12288.0,-0.0023365607485175133
13312.0,-0.03234948217868805
14336.0,-0.0010442450875416398
end
