version,3.0
numOfCh,1
type,point
parent_name,1-cuts
ch_type,1_1
kcount,1
numberNandB,1
brightnessNandB,1
carpet pos,0
pc,0
Time (ms),CH1 Auto-Correlation
1.0,0.0207079965621233
2.0,0.020524075254797935
3.0,0.02034124732017517
4.0,0.02016059309244156
5.0,0.019982794299721718
6.0,0.019808439537882805
7.0,0.019638175144791603
8.0,0.019472217187285423
9.0,0.019307903945446014
10.0,0.01914861984550953
11.0,0.01898818649351597
12.0,0.018829572945833206
13.0,0.018670640885829926
14.0,0.01851593144237995
15.0,0.01836111582815647
16.0,0.01820952072739601
18.0,0.017919322475790977
20.0,0.01762971095740795
22.0,0.017345817759633064
24.0,0.017061907798051834
26.0,0.016778284683823586
28.0,0.016500642523169518
30.0,0.01622217521071434
32.0,0.015956608578562737
36.0,0.015469614416360855
40.0,0.015036764554679394
44.0,0.014619465917348862
48.0,0.014220557175576687
52.0,0.013816521503031254
56.0,0.013428475707769394
60.0,0.013040285557508469
64.0,0.012649268843233585
72.0,0.011935700662434101
80.0,0.01124888937920332
88.0,0.010591533966362476
96.0,0.009998993948101997
104.0,0.009408528916537762
112.0,0.008845229633152485
120.0,0.008340893313288689
128.0,0.007910553365945816
144.0,0.007245705462992191
160.0,0.00677091721445322
176.0,0.006406246684491634
192.0,0.006014950107783079
208.0,0.00563963083550334
224.0,0.0051212795078754425
240.0,0.004621151369065046
256.0,0.004200625233352184
288.0,0.003716116538271308
320.0,0.0036979408469051123
352.0,0.003977749962359667
384.0,0.004384612198919058
416.0,0.0044838860630989075
448.0,0.0043251896277070045
480.0,0.003953610081225634
512.0,0.0033850274048745632
576.0,0.0024143753107637167
640.0,0.0015567661030218005
704.0,0.0015139543684199452
768.0,0.0018910793587565422
832.0,0.0027145580388605595
896.0,0.0020265376660972834
960.0,0.0003967021475546062
1024.0,-0.0007707454496994615
1152.0,-0.001814122311770916
1280.0,-0.0020797476172447205
1408.0,-0.0023798514157533646
1536.0,-0.0008777502807788551
1664.0,-0.0008648335933685303
1792.0,-0.0006249499274417758
1920.0,-0.002001588698476553
2048.0,-0.0019418487790971994
2304.0,0.00032669681240804493
2560.0,-0.0004207473830319941
2816.0,-0.0012463004095479846
3072.0,-0.0033792846370488405
3328.0,-0.0030841962434351444
3584.0,-0.0046270741149783134
3840.0,-0.0020575900562107563
4096.0,-0.0015179908368736506
4608.0,-0.0009563027997501194
5120.0,-0.0004748570790980011
5632.0,0.0016771770315244794
6144.0,0.0030908025801181793
6656.0,0.0028978956397622824
7168.0,0.001521954545751214
7680.0,-0.00047163976705633104
8192.0,0.0014665216440334916
9216.0,-0.0015851366333663464
10240.0,-0.0002477884409017861
11264.0,7.465420367225306e-06
12288.0,-0.0019287258619442582
13312.0,-0.002089462475851178
14336.0,-0.0011352157453075051
end
