version,3.0
numOfCh,1
type,point
parent_name,1-cuts
ch_type,1_1
kcount,1
numberNandB,1
brightnessNandB,1
carpet pos,0
pc,0
Time (ms),CH1 Auto-Correlation
1.0,0.02990671806037426
2.0,0.029702408239245415
3.0,0.02950397878885269
4.0,0.029308736324310303
5.0,0.029109176248311996
6.0,0.028913386166095734
7.0,0.02871648408472538
8.0,0.028522415086627007
9.0,0.028334585949778557
10.0,0.02814439870417118
11.0,0.027958432212471962
12.0,0.027776431292295456
13.0,0.027595609426498413
14.0,0.027414483949542046
15.0,0.027241826057434082
16.0,0.027071326971054077
18.0,0.026731092482805252
20.0,0.026388853788375854
22.0,0.026050880551338196
24.0,0.02572000026702881
26.0,0.02541106939315796
28.0,0.025119194760918617
30.0,0.024833230301737785
32.0,0.024539988487958908
36.0,0.023977912962436676
40.0,0.023445596918463707
44.0,0.022943783551454544
48.0,0.02246011421084404
52.0,0.021976949647068977
56.0,0.021500691771507263
60.0,0.021026913076639175
64.0,0.020569536834955215
72.0,0.019724063575267792
80.0,0.018928131088614464
88.0,0.018179485574364662
96.0,0.017520491033792496
104.0,0.016931358724832535
112.0,0.016277076676487923
120.0,0.015651065856218338
128.0,0.015109900385141373
144.0,0.0142032066360116
160.0,0.01332793664187193
176.0,0.012540874071419239
192.0,0.011816103011369705
208.0,0.0112998578697443
224.0,0.0107912328094244
240.0,0.010358831845223904
256.0,0.010011936537921429
288.0,0.009096440859138966
320.0,0.008096924982964993
352.0,0.007603933569043875
384.0,0.007363810669630766
416.0,0.007190298289060593
448.0,0.0068006631918251514
480.0,0.006233962718397379
512.0,0.005261497106403112
576.0,0.0033904029987752438
640.0,0.0027597162406891584
704.0,0.004157589748501778
768.0,0.00566085334867239
832.0,0.004947395529597998
896.0,0.0038279767613857985
960.0,0.003123633097857237
1024.0,0.0020867190323770046
1152.0,0.002663025865331292
1280.0,0.00207462883554399
1408.0,-0.00031410707742907107
1536.0,-3.028042738151271e-05
1664.0,0.00010679162369342521
1792.0,-0.0019946072716265917
1920.0,-0.004218965768814087
2048.0,-0.004191138315945864
2304.0,-0.0020593826193362474
2560.0,0.0008099012193270028
2816.0,-0.0011088756145909429
3072.0,-0.005709117278456688
3328.0,-0.006995817646384239
3584.0,-0.004429987166076899
3840.0,-0.003910185769200325
4096.0,-0.0027768826112151146
4608.0,-0.0033936884719878435
5120.0,-0.0011102792341262102
5632.0,-0.003684967989102006
6144.0,-0.0045132869854569435
6656.0,-0.0002796596381813288
7168.0,-0.0012858289992436767
7680.0,0.0034128164406865835
8192.0,-0.0003319464158266783
9216.0,0.005070434417575598
10240.0,0.00045388840953819454
11264.0,-0.004437558352947235
12288.0,0.005289926193654537
13312.0,-3.5488839785102755e-05
14336.0,-0.004913778509944677
end
