version,3.0
numOfCh,1
type,point
parent_name,1-cuts
ch_type,1_1
kcount,1
numberNandB,1
brightnessNandB,1
carpet pos,0
pc,0
Time (ms),CH1 Auto-Correlation
1.0,0.047830116003751755
2.0,0.04743502661585808
3.0,0.04704391583800316
4.0,0.046648479998111725
5.0,0.046244680881500244
6.0,0.045852743089199066
7.0,0.04547524079680443
8.0,0.04509997367858887
9.0,0.04473090544342995
10.0,0.04437616840004921
11.0,0.04402386397123337
12.0,0.04367929697036743
13.0,0.0433339923620224
14.0,0.0429866649210453
15.0,0.04264846071600914
16.0,0.042311184108257294
18.0,0.04165571555495262
20.0,0.04100269824266434
22.0,0.04037009924650192
24.0,0.03976113721728325
26.0,0.03918993100523949
28.0,0.03862742334604263
30.0,0.038088854402303696
32.0,0.03754739835858345
36.0,0.036505647003650665
40.0,0.035497166216373444
44.0,0.0345560759305954
48.0,0.033681463450193405
52.0,0.03282599896192551
56.0,0.032027535140514374
60.0,0.031229248270392418
64.0,0.03046177700161934
72.0,0.028971679508686066
80.0,0.027732182294130325
88.0,0.02666662447154522
96.0,0.02579898200929165
104.0,0.02504114992916584
112.0,0.02434154599905014
120.0,0.023576926440000534
128.0,0.02275870367884636
144.0,0.021280402317643166
160.0,0.019829967990517616
176.0,0.01828649640083313
192.0,0.01696043834090233
208.0,0.015486674383282661
224.0,0.014052574522793293
240.0,0.01272545661777258
256.0,0.011660396121442318
288.0,0.009237116202712059
320.0,0.006723897531628609
352.0,0.005842783488333225
384.0,0.005455173552036285
416.0,0.004971212707459927
448.0,0.004197310656309128
480.0,0.004281824920326471
512.0,0.004975723102688789
576.0,0.005971600767225027
640.0,0.008359892293810844
704.0,0.01121892686933279
768.0,0.013053186237812042
832.0,0.011721591465175152
896.0,0.009782231412827969
960.0,0.007565089035779238
1024.0,0.006396579556167126
1152.0,0.004909825511276722
1280.0,0.0036753269378095865
1408.0,0.0037161901127547026
1536.0,0.0024653906002640724
1664.0,-0.0009142283233813941
1792.0,-0.0036705287639051676
1920.0,-0.003449804848060012
2048.0,-0.004426551051437855
2304.0,-0.005952418316155672
2560.0,-0.006681859493255615
2816.0,-0.006454471964389086
3072.0,-0.00837134849280119
3328.0,-0.015073316171765327
3584.0,-0.011078732088208199
3840.0,-0.0055215368047356606
4096.0,-0.008970687165856361
4608.0,-0.006150171160697937
5120.0,-0.000936690135858953
5632.0,0.0014104157453402877
6144.0,0.003071300918236375
6656.0,0.005046451929956675
7168.0,0.004692848306149244
7680.0,0.002518126741051674
8192.0,0.0013262949651107192
9216.0,0.00025173803442157805
10240.0,0.0013380199670791626
11264.0,0.0043924166820943356
12288.0,-0.005129111930727959
13312.0,-0.007302419748157263
14336.0,-0.0034250346943736076
end
