version,3.0
numOfCh,1
type,point
parent_name,1-cuts
ch_type,1_1
kcount,1
numberNandB,1
brightnessNandB,1
carpet pos,0
pc,0
Time (ms),CH1 Auto-Correlation
1.0,0.05529027432203293
2.0,0.05487927794456482
3.0,0.05446530878543854
4.0,0.05405662581324577
5.0,0.05365268141031265
6.0,0.053255047649145126
7.0,0.05285497382283211
8.0,0.052456386387348175
9.0,0.05207088589668274
10.0,0.05169571191072464
11.0,0.05133014917373657
12.0,0.05096932500600815
13.0,0.050607576966285706
14.0,0.05026959627866745
15.0,0.0499369278550148
16.0,0.04961061477661133
18.0,0.04895162582397461
20.0,0.048302631825208664
22.0,0.047667305916547775
24.0,0.04701681062579155
26.0,0.046377845108509064
28.0,0.045775625854730606
30.0,0.04517967253923416
32.0,0.044594477862119675
36.0,0.043457526713609695
40.0,0.04229794442653656
44.0,0.041153497993946075
48.0,0.04007824510335922
52.0,0.039075590670108795
56.0,0.038188058882951736
60.0,0.0373682826757431
64.0,0.03660967946052551
72.0,0.035156019032001495
80.0,0.03375731781125069
88.0,0.03258788585662842
96.0,0.03164856135845184
104.0,0.030655670911073685
112.0,0.02950788475573063
120.0,0.028568381443619728
128.0,0.027755238115787506
144.0,0.02637593261897564
160.0,0.02459629811346531
176.0,0.022677704691886902
192.0,0.020706431940197945
208.0,0.019021369516849518
224.0,0.01733211800456047
240.0,0.01582495868206024
256.0,0.014120982959866524
288.0,0.011483365669846535
320.0,0.010221969336271286
352.0,0.008883670903742313
384.0,0.006874988321214914
416.0,0.0055206469260156155
448.0,0.004590061958879232
480.0,0.004004315473139286
512.0,0.0029448794666677713
576.0,-0.0007424052455462515
640.0,-0.0042998697608709335
704.0,-0.0039744628593325615
768.0,-0.0035325661301612854
832.0,-0.0016860604519024491
896.0,-0.0024783508852124214
960.0,-0.004419228527694941
1024.0,-0.007474871817976236
1152.0,-0.010158183053135872
1280.0,-0.008542914874851704
1408.0,-0.007734050042927265
1536.0,-0.007181278429925442
1664.0,-0.004400956444442272
1792.0,-0.00019897693709935993
1920.0,0.0007809977396391332
2048.0,0.0008003758266568184
2304.0,0.0018411773489788175
2560.0,0.0013527176342904568
2816.0,-0.00657621817663312
3072.0,-0.007881861180067062
3328.0,-0.010824835859239101
3584.0,-0.007025066297501326
3840.0,-0.0016699543921276927
4096.0,-0.001649356447160244
4608.0,0.009962271898984909
5120.0,0.004827250726521015
5632.0,-0.002302745822817087
6144.0,-0.0007410196703858674
6656.0,0.002427818952128291
7168.0,0.002314744284376502
7680.0,-0.004369707312434912
8192.0,-0.007142492104321718
9216.0,-0.0010460043558850884
10240.0,0.003501016879454255
11264.0,0.007481425069272518
12288.0,-0.007514381781220436
13312.0,-0.0143222501501441
14336.0,0.0009707999997772276
end
