version,3.0
numOfCh,1
type,point
parent_name,1-cuts
ch_type,1_1
kcount,1
numberNandB,1
brightnessNandB,1
carpet pos,0
pc,0
Time (ms),CH1 Auto-Correlation
1.0,0.06817355006933212
2.0,0.06777133047580719
3.0,0.06738031655550003
4.0,0.0669889897108078
5.0,0.0665929988026619
6.0,0.06620147824287415
7.0,0.06580507755279541
8.0,0.06540785729885101
9.0,0.06503523141145706
10.0,0.06466564536094666
11.0,0.06429560482501984
12.0,0.06393148750066757
13.0,0.06357081234455109
14.0,0.0632103905081749
15.0,0.06285985559225082
16.0,0.0625041052699089
18.0,0.061780836433172226
20.0,0.06105998903512955
22.0,0.060334306210279465
24.0,0.05961132422089577
26.0,0.05890941247344017
28.0,0.05823168158531189
30.0,0.057567864656448364
32.0,0.05691082030534744
36.0,0.05563229322433472
40.0,0.054391250014305115
44.0,0.053189706057310104
48.0,0.05202552676200867
52.0,0.05092516168951988
56.0,0.04986333101987839
60.0,0.048834577202796936
64.0,0.047826994210481644
72.0,0.04598537087440491
80.0,0.04427057504653931
88.0,0.04274550825357437
96.0,0.04137898609042168
104.0,0.04006386175751686
112.0,0.0391191802918911
120.0,0.038316234946250916
128.0,0.03758347034454346
144.0,0.0364520326256752
160.0,0.035260360687971115
176.0,0.03380267322063446
192.0,0.032099753618240356
208.0,0.03031931445002556
224.0,0.028603501617908478
240.0,0.026801440864801407
256.0,0.025177786126732826
288.0,0.02245342545211315
320.0,0.021577192470431328
352.0,0.021484512835741043
384.0,0.02106304094195366
416.0,0.0206405371427536
448.0,0.020164038985967636
480.0,0.019890855997800827
512.0,0.019140461459755898
576.0,0.016612771898508072
640.0,0.013980217278003693
704.0,0.01118959579616785
768.0,0.006180156487971544
832.0,0.0023167135659605265
896.0,-0.00025683658896014094
960.0,-0.0021509570069611073
1024.0,-0.0035965084098279476
1152.0,-0.005880985874682665
1280.0,-0.011769250966608524
1408.0,-0.015279209241271019
1536.0,-0.014133743941783905
1664.0,-0.015401084907352924
1792.0,-0.018840549513697624
1920.0,-0.01684464141726494
2048.0,-0.012716726399958134
2304.0,-0.01458396203815937
2560.0,-0.015238188207149506
2816.0,-0.013012383133172989
3072.0,-0.005227729212492704
3328.0,0.0009289916488341987
3584.0,0.007772148586809635
3840.0,0.009907958097755909
4096.0,0.01047719269990921
4608.0,0.0030722839292138815
5120.0,0.003442623419687152
5632.0,-0.0021855386439710855
6144.0,-0.008744350634515285
6656.0,-0.011531629599630833
7168.0,0.004209624603390694
7680.0,0.011434896849095821
8192.0,0.004392148461192846
9216.0,-0.005936990957707167
10240.0,-0.005660643335431814
11264.0,0.00391722796484828
12288.0,0.0050006746314466
13312.0,0.007822605781257153
14336.0,-0.012368696741759777
end
