version,3.0
numOfCh,1
type,point
parent_name,714af_0dot08-1dot0
ch_type,1_1
kcount,1
numberNandB,1
brightnessNandB,1
carpet pos,0
pc,0
Time (ms),CH1 Auto-Correlation
1.0,0.029705114662647247
2.0,0.02950022555887699
3.0,0.029306549578905106
4.0,0.0291114654392004
5.0,0.028930824249982834
6.0,0.02874157950282097
7.0,0.02854755148291588
8.0,0.02836647257208824
9.0,0.028186248615384102
10.0,0.028011297807097435
11.0,0.027840841561555862
12.0,0.027671989053487778
13.0,0.027505390346050262
14.0,0.02733546495437622
15.0,0.027172453701496124
16.0,0.02700921706855297
18.0,0.02669624239206314
20.0,0.026387225836515427
22.0,0.026090150699019432
24.0,0.025792501866817474
26.0,0.02549547702074051
28.0,0.025194400921463966
30.0,0.02489452064037323
32.0,0.024590667337179184
36.0,0.024009432643651962
40.0,0.02346457540988922
44.0,0.02295694686472416
48.0,0.0224764347076416
52.0,0.02202158235013485
56.0,0.021571021527051926
60.0,0.02113240584731102
64.0,0.020729029551148415
72.0,0.019957447424530983
80.0,0.019315939396619797
88.0,0.018821388483047485
96.0,0.018409911543130875
104.0,0.01798953488469124
112.0,0.017589863389730453
120.0,0.01716245524585247
128.0,0.016749393194913864
144.0,0.01577586680650711
160.0,0.014709542505443096
176.0,0.013689710758626461
192.0,0.013065141625702381
208.0,0.012573153711855412
224.0,0.012179465964436531
240.0,0.01166385319083929
256.0,0.011132518760859966
288.0,0.010700649581849575
320.0,0.010537072084844112
352.0,0.010227370075881481
384.0,0.0093337781727314
416.0,0.008239642716944218
448.0,0.007189192343503237
480.0,0.006548535544425249
512.0,0.006110468879342079
576.0,0.005156832281500101
640.0,0.004297018051147461
704.0,0.00402380246669054
768.0,0.0034026734065264463
832.0,0.0022442408371716738
896.0,0.0004379860474728048
960.0,-0.0014614630490541458
1024.0,-0.002866063266992569
1152.0,-0.004275534767657518
1280.0,-0.005538441706448793
1408.0,-0.006143951788544655
1536.0,-0.0037196683697402477
1664.0,-0.00281709898263216
1792.0,-0.003180756466463208
1920.0,-0.003595108864828944
2048.0,-0.0017229265067726374
2304.0,-0.0025430587120354176
2560.0,-0.0040680537931621075
2816.0,-0.004440782591700554
3072.0,-0.0015429011546075344
3328.0,0.0016780456062406301
3584.0,0.003290442517027259
3840.0,0.007082178257405758
4096.0,0.006980462931096554
4608.0,-0.00048314090236090124
5120.0,-0.005405690986663103
5632.0,-0.007902910001575947
6144.0,-0.00437565054744482
6656.0,-0.0021160212345421314
7168.0,0.00041977918590418994
7680.0,0.002975799608975649
8192.0,0.005542415659874678
end
