version,3.0
numOfCh,1
type,point
parent_name,714af_0dot08-1dot0
ch_type,1_1
kcount,1
numberNandB,1
brightnessNandB,1
carpet pos,0
pc,0
Time (ms),CH1 Auto-Correlation
1.0,0.030443334951996803
2.0,0.030248574912548065
3.0,0.030061427503824234
4.0,0.02988310344517231
5.0,0.029713405296206474
6.0,0.02954501286149025
7.0,0.02937527559697628
8.0,0.029213927686214447
9.0,0.029059048742055893
10.0,0.028902707621455193
11.0,0.028744367882609367
12.0,0.02858666144311428
13.0,0.028434429317712784
14.0,0.02828352339565754
15.0,0.02813667058944702
16.0,0.02799723669886589
18.0,0.02771696448326111
20.0,0.027445906773209572
22.0,0.027179386466741562
24.0,0.02692423202097416
26.0,0.02667379565536976
28.0,0.02642873302102089
30.0,0.026188213378190994
32.0,0.025940867140889168
36.0,0.025446593761444092
40.0,0.024980606511235237
44.0,0.024568766355514526
48.0,0.024157002568244934
52.0,0.023743683472275734
56.0,0.02332770638167858
60.0,0.022903693839907646
64.0,0.022469835355877876
72.0,0.021613119170069695
80.0,0.020839789882302284
88.0,0.02013360895216465
96.0,0.019467370584607124
104.0,0.018843743950128555
112.0,0.01822279579937458
120.0,0.01758746989071369
128.0,0.016964025795459747
144.0,0.015858393162488937
160.0,0.015063119120895863
176.0,0.014449801295995712
192.0,0.013865853659808636
208.0,0.01325991190969944
224.0,0.012770024128258228
240.0,0.012339204549789429
256.0,0.01189267635345459
288.0,0.01120817381888628
320.0,0.010324234142899513
352.0,0.009214685298502445
384.0,0.008656468242406845
416.0,0.008623520843684673
448.0,0.008887668140232563
480.0,0.008890490978956223
512.0,0.008527933619916439
576.0,0.007392524741590023
640.0,0.005663575138896704
704.0,0.004173218738287687
768.0,0.0029827312100678682
832.0,0.002046366687864065
896.0,0.001725528622046113
960.0,0.001799415098503232
1024.0,0.0017385486280545592
1152.0,0.0015346959698945284
1280.0,0.0032812776044011116
1408.0,0.002113780239596963
1536.0,0.0014708073576912284
1664.0,0.0011906127911061049
1792.0,0.0027163191698491573
1920.0,0.0033973853569477797
2048.0,0.001774124102666974
2304.0,0.0016704582376405597
2560.0,0.0014499393291771412
2816.0,0.0019594270270317793
3072.0,0.001330565195530653
3328.0,8.374575554626063e-05
3584.0,9.690161823527887e-05
3840.0,-0.0022591850720345974
4096.0,-0.0020880938973277807
4608.0,-0.006151239387691021
5120.0,-0.005891553126275539
5632.0,-0.005295667797327042
6144.0,-0.0030219978652894497
6656.0,-0.007315583061426878
7168.0,-0.009145677089691162
7680.0,-0.00528306607156992
8192.0,-0.005943156313151121
end
