version,3.0
numOfCh,1
type,point
parent_name,714af_0dot08-1dot0
ch_type,1_1
kcount,1
numberNandB,1
brightnessNandB,1
carpet pos,0
pc,0
Time (ms),CH1 Auto-Correlation
1.0,0.018147150054574013
2.0,0.01792663335800171
3.0,0.017718706279993057
4.0,0.0175144225358963
5.0,0.017317507416009903
6.0,0.01712953671813011
7.0,0.01694638654589653
8.0,0.016767047345638275
9.0,0.016596881672739983
10.0,0.016430765390396118
11.0,0.01626637391746044
12.0,0.016097981482744217
13.0,0.01593879424035549
14.0,0.01578555628657341
15.0,0.015624058432877064
16.0,0.015457678586244583
18.0,0.015145027078688145
20.0,0.014843812212347984
22.0,0.014558262191712856
24.0,0.014281206764280796
26.0,0.014024981297552586
28.0,0.013780340552330017
30.0,0.013537466526031494
32.0,0.013293790630996227
36.0,0.012812589295208454
40.0,0.01234512124210596
44.0,0.011889240704476833
48.0,0.011435464955866337
52.0,0.010990011505782604
56.0,0.010556507855653763
60.0,0.010133080184459686
64.0,0.009743276983499527
72.0,0.008951995521783829
80.0,0.008193262852728367
88.0,0.0075490232557058334
96.0,0.007026405539363623
104.0,0.006539225112646818
112.0,0.006025285925716162
120.0,0.00549685675650835
128.0,0.005037657916545868
144.0,0.0041337464936077595
160.0,0.003550817957147956
176.0,0.0030835033394396305
192.0,0.002502124523743987
208.0,0.001718962681479752
224.0,0.0011618942953646183
240.0,0.0005427435389719903
256.0,0.00012661471555475146
288.0,-0.0005469143507070839
320.0,-0.0013981887605041265
352.0,-0.002096939366310835
384.0,-0.0023562116548419
416.0,-0.0017940219258889556
448.0,-0.00103598996065557
480.0,-0.0006768904277123511
512.0,-0.0009049475775100291
576.0,-0.001119075110182166
640.0,-0.0008550881175324321
704.0,-0.0004099111829418689
768.0,-0.0003067315265070647
832.0,-3.609211853472516e-05
896.0,0.00020931918697897345
960.0,0.0006265938864089549
1024.0,-8.95351422514068e-06
1152.0,-0.000382446451112628
1280.0,-0.00019319323473609984
1408.0,0.0003173380100633949
1536.0,0.0007878534961491823
1664.0,0.00198049983009696
1792.0,0.0012285136617720127
1920.0,0.00040025304770097136
2048.0,-0.0009317903313785791
2304.0,-0.0009205345413647592
2560.0,0.0008682343177497387
2816.0,-0.00036368818837217987
3072.0,-0.0003109702665824443
3328.0,-0.0005013744230382144
3584.0,-0.0005943410797044635
3840.0,-0.0008510944317094982
4096.0,-0.00025174813345074654
4608.0,0.00013418613525573164
5120.0,0.0004080011567566544
5632.0,0.0015768983867019415
6144.0,-0.0007394780404865742
6656.0,-0.0008390449802391231
7168.0,-0.0008969983318820596
7680.0,-1.9027627786272205e-05
8192.0,-0.00119771936442703
end
