version,3.0
numOfCh,1
type,point
parent_name,714af_0dot08-1dot0
ch_type,1_1
kcount,1
numberNandB,1
brightnessNandB,1
carpet pos,0
pc,0
Time (ms),CH1 Auto-Correlation
1.0,0.033816851675510406
2.0,0.03358400613069534
3.0,0.03337406739592552
4.0,0.03317948430776596
5.0,0.03300270810723305
6.0,0.03282333165407181
7.0,0.032649826258420944
8.0,0.032479263842105865
9.0,0.03231748566031456
10.0,0.03214952349662781
11.0,0.031979914754629135
12.0,0.03181527554988861
13.0,0.031649474054574966
14.0,0.03149070590734482
15.0,0.03133516013622284
16.0,0.031188933178782463
18.0,0.030905263498425484
20.0,0.03062491863965988
22.0,0.03033965453505516
24.0,0.030056064948439598
26.0,0.029774725437164307
28.0,0.029505284503102303
30.0,0.029245758429169655
32.0,0.028984351083636284
36.0,0.02845335751771927
40.0,0.027964383363723755
44.0,0.027499966323375702
48.0,0.027049630880355835
52.0,0.026631049811840057
56.0,0.02625497616827488
60.0,0.02591760642826557
64.0,0.025600479915738106
72.0,0.02504110150039196
80.0,0.024535318836569786
88.0,0.02407229132950306
96.0,0.023663265630602837
104.0,0.02333543635904789
112.0,0.02298440784215927
120.0,0.022651882842183113
128.0,0.02230946719646454
144.0,0.021686026826500893
160.0,0.021012064069509506
176.0,0.020313685759902
192.0,0.01980144903063774
208.0,0.019343866035342216
224.0,0.01886250264942646
240.0,0.018349086865782738
256.0,0.0178688894957304
288.0,0.0163250919431448
320.0,0.015157968737185001
352.0,0.01376147661358118
384.0,0.012623308226466179
416.0,0.011915544979274273
448.0,0.010996161960065365
480.0,0.009763472713530064
512.0,0.008714498020708561
576.0,0.007807247806340456
640.0,0.006083731539547443
704.0,0.005504346452653408
768.0,0.004397028125822544
832.0,0.0039076735265553
896.0,0.0033714233431965113
960.0,0.003108883509412408
1024.0,0.0031443308107554913
1152.0,0.0032959762029349804
1280.0,0.003013532841578126
1408.0,0.0023942096158862114
1536.0,-2.4187420422094874e-05
1664.0,2.6870942747336812e-05
1792.0,-0.0008888641023077071
1920.0,-0.00170734035782516
2048.0,-0.0015025017783045769
2304.0,-0.0004651971685234457
2560.0,0.0017876960337162018
2816.0,0.003043022472411394
3072.0,0.0005143501330167055
3328.0,-0.00048802426317706704
3584.0,-0.00019200058886781335
3840.0,-0.0009409793419763446
4096.0,-0.00026905775303021073
4608.0,-0.00307479128241539
5120.0,-0.004235388711094856
5632.0,-0.005924562457948923
6144.0,-0.0030228719115257263
6656.0,-0.0027299292851239443
7168.0,-0.0026467018760740757
7680.0,-0.005687268916517496
8192.0,-0.014508635737001896
end
