version,3.0
numOfCh,1
type,point
parent_name,714af_0dot08-1dot0
ch_type,1_1
kcount,1
numberNandB,1
brightnessNandB,1
carpet pos,0
pc,0
Time (ms),CH1 Auto-Correlation
1.0,0.021053370088338852
2.0,0.020865770056843758
3.0,0.02068081684410572
4.0,0.020497074350714684
5.0,0.02031797729432583
6.0,0.02013331465423107
7.0,0.01995617337524891
8.0,0.01978137530386448
9.0,0.019618257880210876
10.0,0.01945376582443714
11.0,0.01928584650158882
12.0,0.019120503216981888
13.0,0.018961401656270027
14.0,0.01881345920264721
15.0,0.018664725124835968
16.0,0.01852223463356495
18.0,0.01823919266462326
20.0,0.01795167662203312
22.0,0.017663832753896713
24.0,0.017384642735123634
26.0,0.017121385782957077
28.0,0.016873396933078766
30.0,0.01662570983171463
32.0,0.016381623223423958
36.0,0.015897851437330246
40.0,0.015439647249877453
44.0,0.01499180682003498
48.0,0.014546675607562065
52.0,0.014118240214884281
56.0,0.013742995448410511
60.0,0.013405932113528252
64.0,0.013080090284347534
72.0,0.012444115243852139
80.0,0.01185887772589922
88.0,0.011354882270097733
96.0,0.01089203916490078
104.0,0.01046531181782484
112.0,0.010164707899093628
120.0,0.00996012706309557
128.0,0.009757875464856625
144.0,0.009447786025702953
160.0,0.009076097048819065
176.0,0.008670184761285782
192.0,0.008396734483540058
208.0,0.008055295795202255
224.0,0.00787047017365694
240.0,0.007750294171273708
256.0,0.007595460396260023
288.0,0.007564009632915258
320.0,0.00751299737021327
352.0,0.007074484135955572
384.0,0.0061113107949495316
416.0,0.005104309879243374
448.0,0.0045710476115345955
480.0,0.004400619305670261
512.0,0.003921330440789461
576.0,0.003488031215965748
640.0,0.003365147626027465
704.0,0.0029420219361782074
768.0,0.0030798728112131357
832.0,0.003616360714659095
896.0,0.004464093595743179
960.0,0.004996168427169323
1024.0,0.004361076280474663
1152.0,0.004059916827827692
1280.0,0.004943210631608963
1408.0,0.004624820780009031
1536.0,0.0036955256946384907
1664.0,0.0047659012489020824
1792.0,0.005089705344289541
1920.0,0.004951080773025751
2048.0,0.003613831475377083
2304.0,0.00182064319960773
2560.0,0.0007100877701304853
2816.0,0.001272798515856266
3072.0,0.0006053500692360103
3328.0,0.0001445909438189119
3584.0,0.0007389996899291873
3840.0,0.0004204260476399213
4096.0,-0.0010151865426450968
4608.0,-0.003468687878921628
5120.0,-0.004355601035058498
5632.0,-0.003034209134057164
6144.0,-0.004027507267892361
6656.0,-0.0033715330064296722
7168.0,-0.001153252669610083
7680.0,-0.004729675129055977
8192.0,-0.005391325801610947
end
