version,3.0
numOfCh,1
type,point
parent_name,714af_0dot08-1dot0
ch_type,1_1
kcount,1
numberNandB,1
brightnessNandB,1
carpet pos,0
pc,0
Time (ms),CH1 Auto-Correlation
1.0,0.024623990058898926
2.0,0.024401288479566574
3.0,0.024198239669203758
4.0,0.024003364145755768
5.0,0.02381199225783348
6.0,0.023622579872608185
7.0,0.023440023884177208
8.0,0.0232557263225317
9.0,0.023071598261594772
10.0,0.02288764901459217
11.0,0.02271018549799919
12.0,0.02253708429634571
13.0,0.0223636906594038
14.0,0.022193672135472298
15.0,0.02202719822525978
16.0,0.02186812274158001
18.0,0.021551959216594696
20.0,0.02122517116367817
22.0,0.020889926701784134
24.0,0.02055353671312332
26.0,0.02022933028638363
28.0,0.019908670336008072
30.0,0.01959783025085926
32.0,0.019293205812573433
36.0,0.018708085641264915
40.0,0.018139783293008804
44.0,0.017606982961297035
48.0,0.017095914110541344
52.0,0.016592146828770638
56.0,0.016133878380060196
60.0,0.015725301578640938
64.0,0.015378166921436787
72.0,0.014735690318048
80.0,0.014178228564560413
88.0,0.013713132590055466
96.0,0.01329804863780737
104.0,0.012859423644840717
112.0,0.012366346083581448
120.0,0.011873017065227032
128.0,0.011425845324993134
144.0,0.010711113922297955
160.0,0.01008128747344017
176.0,0.009425798431038857
192.0,0.008625823073089123
208.0,0.00786926131695509
224.0,0.007255347445607185
240.0,0.006730465218424797
256.0,0.006486217025667429
288.0,0.006057968363165855
320.0,0.004988130182027817
352.0,0.0038049689028412104
384.0,0.0033077166881412268
416.0,0.0031496360898017883
448.0,0.0028457597363740206
480.0,0.0022961257491260767
512.0,0.0015294229378923774
576.0,-0.0008529610349796712
640.0,-0.002339240163564682
704.0,-0.00284340581856668
768.0,-0.003481111954897642
832.0,-0.0034398885909467936
896.0,-0.0037621569354087114
960.0,-0.003545863786712289
1024.0,-0.004187994636595249
1152.0,-0.005141302477568388
1280.0,-0.0047851144336164
1408.0,-0.004701248370110989
1536.0,-0.002638451522216201
1664.0,-8.12791331554763e-05
1792.0,0.0007759808795526624
1920.0,0.001056388020515442
2048.0,0.0008305056835524738
2304.0,-0.0021194666624069214
2560.0,-0.0015670834109187126
2816.0,0.001677650143392384
3072.0,0.00012564111966639757
3328.0,-0.0016097492771223187
3584.0,-0.0035125340800732374
3840.0,0.00020291609689593315
4096.0,-0.0008106452296487987
4608.0,0.0034482271876186132
5120.0,0.000758310838136822
5632.0,-0.00042628688970580697
6144.0,0.00017518682579975575
6656.0,0.0008074469515122473
7168.0,-0.0013981626834720373
7680.0,0.0037880924064666033
8192.0,-0.003573824418708682
end
