version,3.0
numOfCh,1
type,point
parent_name,714af_0dot08-1dot0
ch_type,1_1
kcount,1
numberNandB,1
brightnessNandB,1
carpet pos,0
pc,0
Time (ms),CH1 Auto-Correlation
1.0,0.02139294520020485
2.0,0.02118673548102379
3.0,0.020980719476938248
4.0,0.020794304087758064
5.0,0.020607974380254745
6.0,0.020428569987416267
7.0,0.020246252417564392
8.0,0.020071515813469887
9.0,0.019898507744073868
10.0,0.01972769945859909
11.0,0.019558265805244446
12.0,0.019389303401112556
13.0,0.019218964502215385
14.0,0.019054586067795753
15.0,0.018881328403949738
16.0,0.01871185004711151
18.0,0.018379995599389076
20.0,0.0180637389421463
22.0,0.017768437042832375
24.0,0.017491398379206657
26.0,0.01721077784895897
28.0,0.016933567821979523
30.0,0.01665627770125866
32.0,0.016397083178162575
36.0,0.01591968722641468
40.0,0.01547167543321848
44.0,0.015044604428112507
48.0,0.014620061963796616
52.0,0.014237078838050365
56.0,0.01389660220593214
60.0,0.013589874841272831
64.0,0.0132956737652421
72.0,0.012761305086314678
80.0,0.012273000553250313
88.0,0.011802616529166698
96.0,0.01133797038346529
104.0,0.01100207306444645
112.0,0.01074997428804636
120.0,0.010425548069179058
128.0,0.010013582184910774
144.0,0.009153940714895725
160.0,0.00839884951710701
176.0,0.00777133135125041
192.0,0.0072921584360301495
208.0,0.006987215951085091
224.0,0.006569156888872385
240.0,0.005873438436537981
256.0,0.005208350718021393
288.0,0.0042077600955963135
320.0,0.0032105338759720325
352.0,0.0025814943946897984
384.0,0.00204624910838902
416.0,0.0011650046799331903
448.0,0.00024565387866459787
480.0,-7.670591730857268e-05
512.0,-0.00016890592814888805
576.0,-1.7108510292018764e-05
640.0,0.0002948309702333063
704.0,-0.0010441072518005967
768.0,-0.0012411933857947588
832.0,-0.0010047302348539233
896.0,-0.0007742299931123853
960.0,-0.00043279124656692147
1024.0,-0.0001749999210005626
1152.0,-0.00014104119327384979
1280.0,-0.0005144725437276065
1408.0,-0.0004190347099211067
1536.0,-0.001163905137218535
1664.0,-0.0018580772448331118
1792.0,-0.002896019024774432
1920.0,-0.0026607001200318336
2048.0,-0.0010212411871179938
2304.0,-0.0014480327954515815
2560.0,-0.00023277767468243837
2816.0,0.0015415732050314546
3072.0,0.002963781589642167
3328.0,0.002309952862560749
3584.0,0.002489330479875207
3840.0,0.0006771811749786139
4096.0,-0.0003476867568679154
4608.0,-0.003559290198609233
5120.0,-0.003508029505610466
5632.0,0.00035025301622226834
6144.0,-0.000656092306599021
6656.0,0.0012008919147774577
7168.0,0.0016811683308333158
7680.0,-0.0006680856458842754
8192.0,-0.0034259839449077845
end
