version,3.0
numOfCh,1
type,point
parent_name,714af_0dot08-1dot0
ch_type,1_1
kcount,1
numberNandB,1
brightnessNandB,1
carpet pos,0
pc,0
Time (ms),CH1 Auto-Correlation
1.0,0.020515866577625275
2.0,0.020289195701479912
3.0,0.020075559616088867
4.0,0.01987563446164131
5.0,0.019680187106132507
6.0,0.019498012959957123
7.0,0.019315781071782112
8.0,0.01914365217089653
9.0,0.018979579210281372
10.0,0.018819143995642662
11.0,0.01865963637828827
12.0,0.018500126898288727
13.0,0.018339047208428383
14.0,0.018187887966632843
15.0,0.018038801848888397
16.0,0.01789253205060959
18.0,0.017589056864380836
20.0,0.017311178147792816
22.0,0.017049528658390045
24.0,0.01679052598774433
26.0,0.01654622331261635
28.0,0.016314975917339325
30.0,0.01609659567475319
32.0,0.01587287150323391
36.0,0.015398520044982433
40.0,0.014945633709430695
44.0,0.014501878060400486
48.0,0.014082293957471848
52.0,0.013695446774363518
56.0,0.01332695409655571
60.0,0.013017884455621243
64.0,0.012743222527205944
72.0,0.01218350138515234
80.0,0.011676378548145294
88.0,0.011269149370491505
96.0,0.010871636681258678
104.0,0.010464458726346493
112.0,0.010164034552872181
120.0,0.009973104111850262
128.0,0.009781607426702976
144.0,0.009159804321825504
160.0,0.008437583222985268
176.0,0.007761308923363686
192.0,0.007105184718966484
208.0,0.006621750071644783
224.0,0.00627829460427165
240.0,0.005785508081316948
256.0,0.005335840862244368
288.0,0.004713796079158783
320.0,0.003941903822124004
352.0,0.0031246428843587637
384.0,0.002380524529144168
416.0,0.0016736685065552592
448.0,0.0009741613175719976
480.0,0.0002721609198488295
512.0,-0.0003980630717705935
576.0,-0.001729347393848002
640.0,-0.002364916494116187
704.0,-0.003442807123064995
768.0,-0.003249877830967307
832.0,-0.002774322172626853
896.0,-0.002254459075629711
960.0,-0.0010593363549560308
1024.0,0.00013385401689447463
1152.0,0.0008751006098464131
1280.0,0.0009489328367635608
1408.0,0.0008523302967660129
1536.0,0.0005153795354999602
1664.0,-0.0005664763739332557
1792.0,-0.001301953219808638
1920.0,-0.0006146917585283518
2048.0,-0.0013397582806646824
2304.0,-0.0037327443715184927
2560.0,-0.004508626647293568
2816.0,-0.003907093778252602
3072.0,-0.0008473966736346483
3328.0,0.0013721222057938576
3584.0,0.0016464169602841139
3840.0,-0.0009226641268469393
4096.0,-0.0017332903807982802
4608.0,0.0016318925190716982
5120.0,-0.0002031972398981452
5632.0,-0.0017302843043580651
6144.0,-0.0004605177673511207
6656.0,-0.00028210895834490657
7168.0,0.0011423988034948707
7680.0,0.0029816962778568268
8192.0,0.0020104830618947744
end
