version,3.0
numOfCh,1
type,point
parent_name,714af_0dot08-1dot0
ch_type,1_1
kcount,1
numberNandB,1
brightnessNandB,1
carpet pos,0
pc,0
Time (ms),CH1 Auto-Correlation
1.0,0.020601758733391762
2.0,0.020386209711432457
3.0,0.02019963599741459
4.0,0.020009608939290047
5.0,0.019826728850603104
6.0,0.01965644210577011
7.0,0.019483517855405807
8.0,0.01932002604007721
9.0,0.01916484721004963
10.0,0.0190193559974432
11.0,0.018879206851124763
12.0,0.01874816231429577
13.0,0.018612006679177284
14.0,0.01847134158015251
15.0,0.018339531496167183
16.0,0.018209517002105713
18.0,0.017951054498553276
20.0,0.01768459752202034
22.0,0.017416147515177727
24.0,0.017141709104180336
26.0,0.01687644049525261
28.0,0.016628820449113846
30.0,0.016393838450312614
32.0,0.016171878203749657
36.0,0.015737177804112434
40.0,0.015296288765966892
44.0,0.014855173416435719
48.0,0.014438408426940441
52.0,0.014024983160197735
56.0,0.013618568889796734
60.0,0.013232666067779064
64.0,0.01285463199019432
72.0,0.012125633656978607
80.0,0.011447514407336712
88.0,0.010881848633289337
96.0,0.010420896112918854
104.0,0.009966086596250534
112.0,0.009478813037276268
120.0,0.009023395366966724
128.0,0.008564796298742294
144.0,0.008016874082386494
160.0,0.00749712809920311
176.0,0.007001831196248531
192.0,0.006509785540401936
208.0,0.00611138716340065
224.0,0.005656057503074408
240.0,0.005162583664059639
256.0,0.004710618406534195
288.0,0.0037892579566687346
320.0,0.0028783746529370546
352.0,0.002461896277964115
384.0,0.002175163011997938
416.0,0.00211362075060606
448.0,0.0024001148995012045
480.0,0.002998516196385026
512.0,0.00323957996442914
576.0,0.0027274293825030327
640.0,0.0021381357219070196
704.0,0.001797027769498527
768.0,0.001048455131240189
832.0,0.0005484324065037072
896.0,0.0010896336752921343
960.0,0.001901253592222929
1024.0,0.0018423058791086078
1152.0,0.0014071827754378319
1280.0,0.0010561072267591953
1408.0,0.0009556140867061913
1536.0,0.0008900321554392576
1664.0,5.345312456483953e-05
1792.0,-0.0012562337797135115
1920.0,-0.0005043901037424803
2048.0,0.00042639311868697405
2304.0,0.0012165071675553918
2560.0,0.0029469605069607496
2816.0,0.0028448316734284163
3072.0,0.0035430954303592443
3328.0,-0.0013125163968652487
3584.0,-0.0007555873598903418
3840.0,-0.001875152694992721
4096.0,-0.0009127002558670938
4608.0,-0.001297825830988586
5120.0,0.0010312885278835893
5632.0,0.0025771267246454954
6144.0,0.0006524772616103292
6656.0,-0.000142343997140415
7168.0,-0.0025497041642665863
7680.0,-0.0016593401087448
8192.0,-0.002696978859603405
end
