version,3.0
numOfCh,1
type,point
parent_name,714af_0dot08-1dot0
ch_type,1_1
kcount,1
numberNandB,1
brightnessNandB,1
carpet pos,0
pc,0
Time (ms),CH1 Auto-Correlation
1.0,0.022389663383364677
2.0,0.022197965532541275
3.0,0.022011129185557365
4.0,0.021838242188096046
5.0,0.021671919152140617
6.0,0.02150832861661911
7.0,0.021351870149374008
8.0,0.02120039612054825
9.0,0.021047577261924744
10.0,0.02089739963412285
11.0,0.02074579708278179
12.0,0.020605413243174553
13.0,0.0204671211540699
14.0,0.020329372957348824
15.0,0.020187176764011383
16.0,0.0200507789850235
18.0,0.01976776495575905
20.0,0.01948552578687668
22.0,0.019208256155252457
24.0,0.018936265259981155
26.0,0.01867257058620453
28.0,0.018429968506097794
30.0,0.018191726878285408
32.0,0.017954925075173378
36.0,0.017515573650598526
40.0,0.017117682844400406
44.0,0.0167518462985754
48.0,0.016409337520599365
52.0,0.016096634790301323
56.0,0.015791630372405052
60.0,0.015488981269299984
64.0,0.015178393572568893
72.0,0.01455722190439701
80.0,0.013959657400846481
88.0,0.013406246900558472
96.0,0.0128970667719841
104.0,0.012446527369320393
112.0,0.012104401364922523
120.0,0.011876698583364487
128.0,0.011662015691399574
144.0,0.011213487014174461
160.0,0.01069609634578228
176.0,0.01022857055068016
192.0,0.009946963749825954
208.0,0.00946806836873293
224.0,0.008868559263646603
240.0,0.008355160243809223
256.0,0.008000602945685387
288.0,0.007164243143051863
320.0,0.006481102667748928
352.0,0.005794148426502943
384.0,0.0050942604430019855
416.0,0.004304489120841026
448.0,0.00350936665199697
480.0,0.0031551045831292868
512.0,0.0025215991772711277
576.0,0.00045957471593283117
640.0,-0.0008898841333575547
704.0,-0.0015510099474340677
768.0,-0.0023818816989660263
832.0,-0.0037470634561032057
896.0,-0.004651016555726528
960.0,-0.004876257851719856
1024.0,-0.0039938283152878284
1152.0,-0.002163513330742717
1280.0,0.0004278936539776623
1408.0,0.0025615666527301073
1536.0,0.0036886255256831646
1664.0,0.004908176138997078
1792.0,0.005051922518759966
1920.0,0.0033049937337636948
2048.0,0.0005529315094463527
2304.0,-0.0001726628397591412
2560.0,-0.001164826680906117
2816.0,9.497665450908244e-05
3072.0,0.0010426975786685944
3328.0,0.0012566610239446163
3584.0,0.00041999382665380836
3840.0,0.0001515609910711646
4096.0,-0.0008751261048018932
4608.0,-0.0018412600038573146
5120.0,-0.0031466379296034575
5632.0,-0.00443728594109416
6144.0,-0.0029058214277029037
6656.0,0.000714208756107837
7168.0,-0.00041549463639967144
7680.0,-0.0020946734584867954
8192.0,-0.0015575415454804897
end
