version,3.0
numOfCh,1
type,point
parent_name,714af_0dot08-1dot0
ch_type,1_1
kcount,1
numberNandB,1
brightnessNandB,1
carpet pos,0
pc,0
Time (ms),CH1 Auto-Correlation
1.0,0.02153526432812214
2.0,0.021284226328134537
3.0,0.021063081920146942
4.0,0.020865464583039284
5.0,0.020673122256994247
6.0,0.020490746945142746
7.0,0.02032296173274517
8.0,0.020170189440250397
9.0,0.020017480477690697
10.0,0.01986108161509037
11.0,0.019722387194633484
12.0,0.019580960273742676
13.0,0.019444776698946953
14.0,0.01931198686361313
15.0,0.0191787276417017
16.0,0.01904858648777008
18.0,0.018802296370267868
20.0,0.018563738092780113
22.0,0.018333816900849342
24.0,0.018129654228687286
26.0,0.01791496016085148
28.0,0.017713982611894608
30.0,0.01751018688082695
32.0,0.017315635457634926
36.0,0.016992542892694473
40.0,0.01668018102645874
44.0,0.01636042259633541
48.0,0.016064636409282684
52.0,0.015761785209178925
56.0,0.015437076799571514
60.0,0.015069816261529922
64.0,0.014702199958264828
72.0,0.01416357047855854
80.0,0.013596705161035061
88.0,0.012949761934578419
96.0,0.012265391647815704
104.0,0.011630008928477764
112.0,0.011087177321314812
120.0,0.01053775567561388
128.0,0.010016003623604774
144.0,0.009064261801540852
160.0,0.008174861781299114
176.0,0.007494522724300623
192.0,0.00688328268006444
208.0,0.006384843960404396
224.0,0.005956276319921017
240.0,0.0055006155744194984
256.0,0.005043125711381435
288.0,0.00424584886059165
320.0,0.003425984177738428
352.0,0.0025555365718901157
384.0,0.001801970531232655
416.0,0.0012383469147607684
448.0,0.0009057391434907913
480.0,0.0005903345299884677
512.0,0.0003653120365925133
576.0,2.5214962079189718e-05
640.0,-0.00017471380124334246
704.0,-0.0004596658982336521
768.0,-0.0010496668983250856
832.0,-0.0006729161832481623
896.0,0.0006710184388794005
960.0,0.0017076017102226615
1024.0,0.0012353583006188273
1152.0,0.0007737729465588927
1280.0,0.0026804448571056128
1408.0,0.0018656161846593022
1536.0,0.0014965343289077282
1664.0,0.000419871648773551
1792.0,0.00042257196037098765
1920.0,0.00198931316845119
2048.0,0.0016419609310105443
2304.0,0.0009665943216532469
2560.0,0.0006056997226551175
2816.0,-0.00017763003415893763
3072.0,-0.0027279150672256947
3328.0,-0.0034741710405796766
3584.0,-0.0034175957553088665
3840.0,-0.0029445993714034557
4096.0,-0.005074811168015003
4608.0,-0.0034315851517021656
5120.0,-0.0019158482318744063
5632.0,-0.0021753052715212107
6144.0,-0.006047555711120367
6656.0,-0.0007661553681828082
7168.0,2.813022001646459e-05
7680.0,0.003945624455809593
8192.0,0.0016262258868664503
end
