version,3.0
numOfCh,1
type,point
parent_name,714af_0dot08-1dot0
ch_type,1_1
kcount,1
numberNandB,1
brightnessNandB,1
carpet pos,0
pc,0
Time (ms),CH1 Auto-Correlation
1.0,0.03421304374933243
2.0,0.033938806504011154
3.0,0.033700697124004364
4.0,0.03347882255911827
5.0,0.03327805548906326
6.0,0.03308768942952156
7.0,0.03291577100753784
8.0,0.03273544833064079
9.0,0.032558150589466095
10.0,0.03238876536488533
11.0,0.03221678361296654
12.0,0.03205136954784393
13.0,0.031879130750894547
14.0,0.03171525150537491
15.0,0.03155256807804108
16.0,0.031388137489557266
18.0,0.031076805666089058
20.0,0.030765481293201447
22.0,0.030438756570219994
24.0,0.03012314811348915
26.0,0.029826389625668526
28.0,0.029548143967986107
30.0,0.029272593557834625
32.0,0.028995346277952194
36.0,0.02850685641169548
40.0,0.028054622933268547
44.0,0.027589723467826843
48.0,0.027143459767103195
52.0,0.026764627546072006
56.0,0.026395734399557114
60.0,0.0260788481682539
64.0,0.025798875838518143
72.0,0.025346344336867332
80.0,0.0248564425855875
88.0,0.024315476417541504
96.0,0.023777173832058907
104.0,0.023314712569117546
112.0,0.022928103804588318
120.0,0.022560197860002518
128.0,0.022189481183886528
144.0,0.021501097828149796
160.0,0.020880382508039474
176.0,0.02027231454849243
192.0,0.019712192937731743
208.0,0.019178790971636772
224.0,0.01880672574043274
240.0,0.01847737282514572
256.0,0.017808973789215088
288.0,0.016250722110271454
320.0,0.015107990242540836
352.0,0.014453761279582977
384.0,0.014012232422828674
416.0,0.013454834930598736
448.0,0.012568945065140724
480.0,0.011622385121881962
512.0,0.010653922334313393
576.0,0.009674935601651669
640.0,0.009035935625433922
704.0,0.008504222147166729
768.0,0.008425380103290081
832.0,0.00866839662194252
896.0,0.008246331475675106
960.0,0.008366189897060394
1024.0,0.008403124287724495
1152.0,0.007610525470227003
1280.0,0.00823273416608572
1408.0,0.008781223557889462
1536.0,0.00838447641581297
1664.0,0.007112699095159769
1792.0,0.004840654321014881
1920.0,0.0020932110492140055
2048.0,-0.001296876696869731
2304.0,-0.008815509267151356
2560.0,-0.012223733589053154
2816.0,-0.012919500470161438
3072.0,-0.012321945279836655
3328.0,-0.011397195048630238
3584.0,-0.013470543548464775
3840.0,-0.0170470979064703
4096.0,-0.019119448959827423
4608.0,-0.012347379699349403
5120.0,-0.005256026983261108
5632.0,-0.006472908891737461
6144.0,0.00507656205445528
6656.0,0.011958214454352856
7168.0,0.011654512956738472
7680.0,0.008802777156233788
8192.0,0.014336924068629742
end
