version,3.0
numOfCh,1
type,point
parent_name,714af_0dot08-1dot0
ch_type,1_1
kcount,1
numberNandB,1
brightnessNandB,1
carpet pos,0
pc,0
Time (ms),CH1 Auto-Correlation
1.0,0.023440083488821983
2.0,0.023217057809233665
3.0,0.023006446659564972
4.0,0.02279217354953289
5.0,0.022586200386285782
6.0,0.022390881553292274
7.0,0.02219637669622898
8.0,0.02200426533818245
9.0,0.02181990072131157
10.0,0.0216334518045187
11.0,0.02146410569548607
12.0,0.021286115050315857
13.0,0.021113138645887375
14.0,0.02093813568353653
15.0,0.020770106464624405
16.0,0.020610494539141655
18.0,0.02031213417649269
20.0,0.020018912851810455
22.0,0.019722433760762215
24.0,0.01942463591694832
26.0,0.01914031244814396
28.0,0.01886085793375969
30.0,0.018579602241516113
32.0,0.018306100741028786
36.0,0.017773764207959175
40.0,0.017256706953048706
44.0,0.0167318694293499
48.0,0.016238456591963768
52.0,0.015790872275829315
56.0,0.015388264320790768
60.0,0.015011770650744438
64.0,0.014628683216869831
72.0,0.013915498740971088
80.0,0.013215940445661545
88.0,0.012564944103360176
96.0,0.011966636404395103
104.0,0.011440020985901356
112.0,0.011011925525963306
120.0,0.010653487406671047
128.0,0.010331577621400356
144.0,0.009762663394212723
160.0,0.009167002514004707
176.0,0.008708621375262737
192.0,0.008294928818941116
208.0,0.007791852578520775
224.0,0.007252906449139118
240.0,0.006650962866842747
256.0,0.005976455751806498
288.0,0.004850106779485941
320.0,0.004215078428387642
352.0,0.0038462085649371147
384.0,0.003443855792284012
416.0,0.0027230200357735157
448.0,0.002274374710395932
480.0,0.0016986116534098983
512.0,0.0008716401644051075
576.0,-0.0004879105254076421
640.0,-0.0006393651710823178
704.0,-0.00013761079753749073
768.0,-8.651478856336325e-05
832.0,-0.00023379102640319616
896.0,-0.0006834726664237678
960.0,-0.001828302163630724
1024.0,-0.0017076043877750635
1152.0,-0.0007578114746138453
1280.0,0.00021582384943030775
1408.0,0.0012543140910565853
1536.0,0.0009459066786803305
1664.0,0.002782327588647604
1792.0,0.003531612455844879
1920.0,0.0012201139470562339
2048.0,-0.00014534901129081845
2304.0,-0.001498610945418477
2560.0,-0.0026701116003096104
2816.0,-0.0002842604008037597
3072.0,0.0005187494680285454
3328.0,-0.0018478534184396267
3584.0,-0.0007584512350149453
3840.0,-0.0018919444410130382
4096.0,-0.004896066151559353
4608.0,-0.0050634220242500305
5120.0,-0.00122333865147084
5632.0,7.328809442697093e-05
6144.0,-0.002512908075004816
6656.0,-0.0005312721477821469
7168.0,0.0016237091040238738
7680.0,0.0014131715288385749
8192.0,0.001030338928103447
end
