version,3.0
numOfCh,1
type,point
parent_name,714af_0dot08-1dot0
ch_type,1_1
kcount,1
numberNandB,1
brightnessNandB,1
carpet pos,0
pc,0
Time (ms),CH1 Auto-Correlation
1.0,0.02456193044781685
2.0,0.023963065817952156
3.0,0.0233695600181818
4.0,0.022927092388272285
5.0,0.022635001689195633
6.0,0.0220603309571743
7.0,0.021690648049116135
8.0,0.021223828196525574
9.0,0.020938772708177567
10.0,0.020610341802239418
11.0,0.020213117823004723
12.0,0.020053161308169365
13.0,0.0199058186262846
14.0,0.019736498594284058
15.0,0.01954098790884018
16.0,0.019350526854395866
18.0,0.01906522735953331
20.0,0.018745113164186478
22.0,0.018464870750904083
24.0,0.018195752054452896
26.0,0.0179373100399971
28.0,0.0176986213773489
30.0,0.01745467260479927
32.0,0.017234493046998978
36.0,0.016778670251369476
40.0,0.016359511762857437
44.0,0.015956513583660126
48.0,0.015534712001681328
52.0,0.01510157436132431
56.0,0.014683336019515991
60.0,0.014319851994514465
64.0,0.013998067006468773
72.0,0.013390619307756424
80.0,0.01289158221334219
88.0,0.012361236847937107
96.0,0.011867336928844452
104.0,0.011341230943799019
112.0,0.010784649290144444
120.0,0.01021499466150999
128.0,0.00968711357563734
144.0,0.0089117381721735
160.0,0.008214930072426796
176.0,0.007779829204082489
192.0,0.0074324640445411205
208.0,0.00708663510158658
224.0,0.00668374914675951
240.0,0.006203414406627417
256.0,0.00575719028711319
288.0,0.005512435920536518
320.0,0.005873857997357845
352.0,0.0062303259037435055
384.0,0.0061140768229961395
416.0,0.0058501530438661575
448.0,0.005474692676216364
480.0,0.005384798161685467
512.0,0.0052429502829909325
576.0,0.0052321841940283775
640.0,0.005248996429145336
704.0,0.005822351202368736
768.0,0.006398850120604038
832.0,0.006728094536811113
896.0,0.005718540400266647
960.0,0.003785309847444296
1024.0,0.002320112893357873
1152.0,0.0007990530575625598
1280.0,-0.001386033371090889
1408.0,-0.0018635918386280537
1536.0,-0.001248276443220675
1664.0,-0.0011286266380921006
1792.0,-0.0016241229604929686
1920.0,-0.002236068481579423
2048.0,-0.0025168526917696
2304.0,-0.0015892701921984553
2560.0,-0.001489277696236968
2816.0,-0.0002088893234031275
3072.0,0.0005833244067616761
3328.0,-0.0004274325619917363
3584.0,-0.0011992324143648148
3840.0,-0.0013966889819130301
4096.0,-0.0015581630868837237
4608.0,-0.003464417066425085
5120.0,-0.0026448105927556753
5632.0,-0.00018923456082120538
6144.0,0.0011914951028302312
6656.0,0.0027634366415441036
7168.0,-0.0010180440731346607
7680.0,-0.0001125288981711492
8192.0,-5.201044768909924e-05
end
