version,3.0
numOfCh,1
type,point
parent_name,714af_0dot08-1dot0
ch_type,1_1
kcount,1
numberNandB,1
brightnessNandB,1
carpet pos,0
pc,0
Time (ms),CH1 Auto-Correlation
1.0,0.021082300692796707
2.0,0.020853674039244652
3.0,0.020636336877942085
4.0,0.020441172644495964
5.0,0.020248398184776306
6.0,0.020068271085619926
7.0,0.019882243126630783
8.0,0.01970876194536686
9.0,0.019538559019565582
10.0,0.01937009021639824
11.0,0.019204312935471535
12.0,0.01903817616403103
13.0,0.018872840330004692
14.0,0.018705757334828377
15.0,0.018541507422924042
16.0,0.018384568393230438
18.0,0.018081609159708023
20.0,0.017793316394090652
22.0,0.01751113496720791
24.0,0.01723995991051197
26.0,0.016965236514806747
28.0,0.016682812944054604
30.0,0.01640528067946434
32.0,0.01613464020192623
36.0,0.0156054412946105
40.0,0.015118386596441269
44.0,0.014640637673437595
48.0,0.01419055461883545
52.0,0.013808426447212696
56.0,0.013418508693575859
60.0,0.013020104728639126
64.0,0.012623603455722332
72.0,0.011828421615064144
80.0,0.011098607443273067
88.0,0.010418105870485306
96.0,0.009832342155277729
104.0,0.00935329869389534
112.0,0.009006800130009651
120.0,0.008705171756446362
128.0,0.00840845424681902
144.0,0.007804946042597294
160.0,0.007053345441818237
176.0,0.006295335944741964
192.0,0.005514466669410467
208.0,0.00470711337402463
224.0,0.0040665483102202415
240.0,0.0035815623123198748
256.0,0.0031353638041764498
288.0,0.0025750724598765373
320.0,0.00249053118750453
352.0,0.0027447473257780075
384.0,0.0026114375796169043
416.0,0.001881487318314612
448.0,0.0006625078385695815
480.0,-0.00021828095486853272
512.0,-0.0007576810312457383
576.0,-0.0009703375981189311
640.0,-0.0007933492306619883
704.0,-0.00022036157315596938
768.0,-8.852982864482328e-05
832.0,-2.7300680812913924e-05
896.0,-6.654048047494143e-05
960.0,-0.0003783375141210854
1024.0,-0.00047553854528814554
1152.0,-0.0010010042460635304
1280.0,-0.0005144844762980938
1408.0,-2.2870142856845632e-05
1536.0,-0.0007084985263645649
1664.0,-0.0019374979892745614
1792.0,-0.0026249438524246216
1920.0,-0.002149872248992324
2048.0,-0.002287343144416809
2304.0,-0.001642695628106594
2560.0,-0.0008946715970523655
2816.0,0.001745548564940691
3072.0,0.0014335412997752428
3328.0,0.0012649004347622395
3584.0,0.0003427020856179297
3840.0,-0.0006009995122440159
4096.0,0.0025468759704381227
4608.0,0.0008294584113173187
5120.0,0.00034222312388010323
5632.0,-0.0014026863500475883
6144.0,-0.002738721203058958
6656.0,-0.0035664027091115713
7168.0,0.0023670250084251165
7680.0,0.0012828162871301174
8192.0,0.0007161179673857987
end
