version,3.0
numOfCh,1
type,point
parent_name,714af_0dot08-1dot0
ch_type,1_1
kcount,1
numberNandB,1
brightnessNandB,1
carpet pos,0
pc,0
Time (ms),CH1 Auto-Correlation
1.0,0.02078825794160366
2.0,0.020552542060613632
3.0,0.020337635651230812
4.0,0.02013273350894451
5.0,0.019939040765166283
6.0,0.0197471734136343
7.0,0.019562719389796257
8.0,0.01937473937869072
9.0,0.019185971468687057
10.0,0.01900658942759037
11.0,0.01882781647145748
12.0,0.018653355538845062
13.0,0.01848052814602852
14.0,0.018313037231564522
15.0,0.018143167719244957
16.0,0.017978757619857788
18.0,0.017663827165961266
20.0,0.01735832169651985
22.0,0.017050985246896744
24.0,0.016763847321271896
26.0,0.016503039747476578
28.0,0.016244592145085335
30.0,0.01600264571607113
32.0,0.015765871852636337
36.0,0.015283194370567799
40.0,0.01479659229516983
44.0,0.014357205480337143
48.0,0.013946372084319592
52.0,0.013526350259780884
56.0,0.013110335916280746
60.0,0.01268642209470272
64.0,0.012244738638401031
72.0,0.011372867971658707
80.0,0.010640016756951809
88.0,0.009988047182559967
96.0,0.009356211870908737
104.0,0.00866096280515194
112.0,0.007970474660396576
120.0,0.007268473971635103
128.0,0.006583003792911768
144.0,0.0055101178586483
160.0,0.004844887647777796
176.0,0.0043044970370829105
192.0,0.003745695576071739
208.0,0.0033744550310075283
224.0,0.002958253026008606
240.0,0.00242844270542264
256.0,0.0020118425600230694
288.0,0.001662503113038838
320.0,0.0015585364308208227
352.0,0.0014570627827197313
384.0,0.0008466833969578147
416.0,5.803125895909034e-05
448.0,-0.0002572174125816673
480.0,-0.0003961400070693344
512.0,-0.0006398691330105066
576.0,-0.0006911177188158035
640.0,-8.963139407569543e-05
704.0,0.0008192606619559228
768.0,0.0007650649640709162
832.0,0.0004061320796608925
896.0,-0.0005142953596077859
960.0,-0.0009762134868651628
1024.0,-0.0005067058373242617
1152.0,-0.00041129952296614647
1280.0,-0.0003100605681538582
1408.0,-0.0005252977134659886
1536.0,-0.00046156212920323014
1664.0,-0.0016561944503337145
1792.0,-0.00028653256595134735
1920.0,0.001371609978377819
2048.0,-0.00025373531389050186
2304.0,-0.0012660435168072581
2560.0,8.512334716215264e-06
2816.0,-0.00012157755554653704
3072.0,-0.002965888474136591
3328.0,0.00014580129936803132
3584.0,0.0004493539745453745
3840.0,0.0015099749434739351
4096.0,0.0006323515553958714
4608.0,0.0020276918075978756
5120.0,-0.0023465841077268124
5632.0,-0.0011487865122035146
6144.0,2.0753566786879674e-05
6656.0,0.001010458217933774
7168.0,-0.0016275220550596714
7680.0,0.001950531150214374
8192.0,-0.002081085927784443
end
