version,3.0
numOfCh,1
type,point
parent_name,714af_0dot08-1dot0
ch_type,1_1
kcount,1
numberNandB,1
brightnessNandB,1
carpet pos,0
pc,0
Time (ms),CH1 Auto-Correlation
1.0,0.025411486625671387
2.0,0.0252061914652586
3.0,0.02501187101006508
4.0,0.024810584262013435
5.0,0.024617090821266174
6.0,0.024432267993688583
7.0,0.024248670786619186
8.0,0.024063661694526672
9.0,0.023888900876045227
10.0,0.02371649444103241
11.0,0.023547839373350143
12.0,0.02338193915784359
13.0,0.023217014968395233
14.0,0.02305362932384014
15.0,0.022901294752955437
16.0,0.022748436778783798
18.0,0.02246086485683918
20.0,0.022180767729878426
22.0,0.02191326953470707
24.0,0.021658798679709435
26.0,0.021418431773781776
28.0,0.021178334951400757
30.0,0.020936692133545876
32.0,0.020697202533483505
36.0,0.020225942134857178
40.0,0.019734010100364685
44.0,0.01927449367940426
48.0,0.018848810344934464
52.0,0.018444277346134186
56.0,0.018036389723420143
60.0,0.017648132517933846
64.0,0.017272381111979485
72.0,0.016552135348320007
80.0,0.01588696613907814
88.0,0.015209602192044258
96.0,0.01446639746427536
104.0,0.013681466691195965
112.0,0.012909416109323502
120.0,0.012169381603598595
128.0,0.011413268744945526
144.0,0.010041466914117336
160.0,0.008753999136388302
176.0,0.007566841784864664
192.0,0.006471679545938969
208.0,0.005491870921105146
224.0,0.004578257445245981
240.0,0.0036177777219563723
256.0,0.002778218127787113
288.0,0.0012769231107085943
320.0,-0.00014261247997637838
352.0,-0.0013023704523220658
384.0,-0.002231361111626029
416.0,-0.003117985324934125
448.0,-0.0037679013330489397
480.0,-0.004178834613412619
512.0,-0.004456006921827793
576.0,-0.005149697419255972
640.0,-0.005491574294865131
704.0,-0.006148301064968109
768.0,-0.006435408256947994
832.0,-0.00611935555934906
896.0,-0.0053886533714830875
960.0,-0.004728427156805992
1024.0,-0.003965823445469141
1152.0,0.0015649815322831273
1280.0,0.004485559184104204
1408.0,0.0039018660318106413
1536.0,0.0010741197038441896
1664.0,-0.002247605472803116
1792.0,-0.004424991551786661
1920.0,-0.0037054966669529676
2048.0,-0.0033779272343963385
2304.0,0.0010954438475891948
2560.0,0.003913007210940123
2816.0,0.0007014378788881004
3072.0,-0.0021674088202416897
3328.0,0.0009388941689394414
3584.0,0.0032742589246481657
3840.0,0.003638101276010275
4096.0,-0.006335900165140629
4608.0,-0.001992426812648773
5120.0,0.003160804510116577
5632.0,-0.002251920523121953
6144.0,0.0015097390860319138
6656.0,-0.0015627886168658733
7168.0,0.0030427321325987577
7680.0,-0.001855802140198648
8192.0,0.0005865130224265158
end
