version,3.0
numOfCh,1
type,point
parent_name,714af_0dot08-1dot0
ch_type,1_1
kcount,1
numberNandB,1
brightnessNandB,1
carpet pos,0
pc,0
Time (ms),CH1 Auto-Correlation
1.0,0.025182776153087616
2.0,0.024946946650743484
3.0,0.024727946147322655
4.0,0.0245225727558136
5.0,0.02433340810239315
6.0,0.02416306734085083
7.0,0.023997759446501732
8.0,0.02383863925933838
9.0,0.023683618754148483
10.0,0.02352239564061165
11.0,0.0233649592846632
12.0,0.0232172179967165
13.0,0.023063339293003082
14.0,0.022897914052009583
15.0,0.02274208888411522
16.0,0.022585218772292137
18.0,0.022298138588666916
20.0,0.02204197458922863
22.0,0.02179366908967495
24.0,0.021553903818130493
26.0,0.0212940014898777
28.0,0.021020300686359406
30.0,0.020748868584632874
32.0,0.02048557624220848
36.0,0.019957108423113823
40.0,0.01943267695605755
44.0,0.01892049051821232
48.0,0.018416909500956535
52.0,0.017942937090992928
56.0,0.01750081591308117
60.0,0.017085306346416473
64.0,0.016700543463230133
72.0,0.015978321433067322
80.0,0.015288542956113815
88.0,0.014625518582761288
96.0,0.014020920731127262
104.0,0.013436224311590195
112.0,0.012884462252259254
120.0,0.012334109283983707
128.0,0.01181424967944622
144.0,0.010704499669373035
160.0,0.009749401360750198
176.0,0.00902890507131815
192.0,0.008390010334551334
208.0,0.007740998640656471
224.0,0.007098364643752575
240.0,0.006625393871217966
256.0,0.006191045045852661
288.0,0.005632918328046799
320.0,0.00516930129379034
352.0,0.004615217912942171
384.0,0.004044919274747372
416.0,0.003115727100521326
448.0,0.002210518578067422
480.0,0.001835140399634838
512.0,0.0018702923553064466
576.0,0.0021035962272435427
640.0,0.0023273953702300787
704.0,0.0023025062400847673
768.0,0.0015142064075917006
832.0,0.0006910078809596598
896.0,0.0006067581125535071
960.0,0.00036093327798880637
1024.0,0.0002722408389672637
1152.0,-0.0019415877759456635
1280.0,-0.0011685467325150967
1408.0,-0.0005541873979382217
1536.0,0.0003632270381785929
1664.0,0.0012486274354159832
1792.0,0.0017757713794708252
1920.0,0.0026541852857917547
2048.0,0.004674270283430815
2304.0,0.0033340933732688427
2560.0,-0.001346155651845038
2816.0,-0.002622493077069521
3072.0,-0.0025822073221206665
3328.0,-0.0031074227299541235
3584.0,-0.001285818638280034
3840.0,0.0010142249520868063
4096.0,-0.0005953417858108878
4608.0,-0.0034798854030668736
5120.0,-0.005073904991149902
5632.0,-0.002192123793065548
6144.0,0.0006783472490496933
6656.0,0.0010440960759297013
7168.0,-0.0032176377717405558
7680.0,0.0005074397195130587
8192.0,0.0024364134296774864
end
