version,3.0
numOfCh,1
type,point
parent_name,714af_0dot08-1dot0
ch_type,1_1
kcount,1
numberNandB,1
brightnessNandB,1
carpet pos,0
pc,0
Time (ms),CH1 Auto-Correlation
1.0,0.02905324473977089
2.0,0.028856338933110237
3.0,0.02867041900753975
4.0,0.028487341478466988
5.0,0.028306670486927032
6.0,0.02811971865594387
7.0,0.027941925451159477
8.0,0.02777029760181904
9.0,0.027593161910772324
10.0,0.02742050215601921
11.0,0.027249755337834358
12.0,0.02708481438457966
13.0,0.026914244517683983
14.0,0.0267501100897789
15.0,0.026590624824166298
16.0,0.026438813656568527
18.0,0.026137439534068108
20.0,0.025845598429441452
22.0,0.025568528100848198
24.0,0.02529117651283741
26.0,0.025010621175169945
28.0,0.024728959426283836
30.0,0.024449700489640236
32.0,0.024178337305784225
36.0,0.023652099072933197
40.0,0.023161130025982857
44.0,0.022704174742102623
48.0,0.022258395329117775
52.0,0.02182423137128353
56.0,0.021407272666692734
60.0,0.02099105343222618
64.0,0.020624661818146706
72.0,0.019974535331130028
80.0,0.019397616386413574
88.0,0.01880747452378273
96.0,0.018195820972323418
104.0,0.017659896984696388
112.0,0.017141154035925865
120.0,0.01667199656367302
128.0,0.01622401736676693
144.0,0.015364790335297585
160.0,0.01468053087592125
176.0,0.01415291242301464
192.0,0.013676580972969532
208.0,0.013188477605581284
224.0,0.012700928375124931
240.0,0.012257939204573631
256.0,0.011793998070061207
288.0,0.011257078498601913
320.0,0.01103750616312027
352.0,0.011121133342385292
384.0,0.01083021517843008
416.0,0.009950073435902596
448.0,0.009206053800880909
480.0,0.008564818650484085
512.0,0.008115492761135101
576.0,0.007722205948084593
640.0,0.00782016757875681
704.0,0.008436902426183224
768.0,0.00790624599903822
832.0,0.007218612357974052
896.0,0.0075536263175308704
960.0,0.008589616976678371
1024.0,0.009289213456213474
1152.0,0.007265884429216385
1280.0,0.0049293129704892635
1408.0,0.002689190674573183
1536.0,0.001344995922408998
1664.0,0.00040306479786522686
1792.0,0.0003241642261855304
1920.0,0.00075644621392712
2048.0,0.0036841314285993576
2304.0,0.0021746521815657616
2560.0,0.000283747969660908
2816.0,-0.0008597602136433125
3072.0,0.0005841747042723
3328.0,0.00016858300659805536
3584.0,-0.0010217997478321195
3840.0,-0.0026094650384038687
4096.0,-0.001571825472638011
4608.0,-0.0008678340236656368
5120.0,0.0005423237453214824
5632.0,0.0025446880608797073
6144.0,0.002407895168289542
6656.0,0.0011005639098584652
7168.0,-0.0031694117933511734
7680.0,-0.006212229374796152
8192.0,-0.009425586089491844
end
