version,3.0
numOfCh,1
type,point
parent_name,714af_0dot08-1dot0
ch_type,1_1
kcount,1
numberNandB,1
brightnessNandB,1
carpet pos,0
pc,0
Time (ms),CH1 Auto-Correlation
1.0,0.023153938353061676
2.0,0.022964417934417725
3.0,0.02278384193778038
4.0,0.02261495590209961
5.0,0.022451126947999
6.0,0.022285902872681618
7.0,0.022117093205451965
8.0,0.02194702997803688
9.0,0.021781856194138527
10.0,0.02161663956940174
11.0,0.0214551892131567
12.0,0.02129574492573738
13.0,0.021130869165062904
14.0,0.020973121747374535
15.0,0.020817818120121956
16.0,0.020661255344748497
18.0,0.02036185935139656
20.0,0.0200713612139225
22.0,0.019773410633206367
24.0,0.019472425803542137
26.0,0.019172435626387596
28.0,0.018888123333454132
30.0,0.01861029863357544
32.0,0.018334507942199707
36.0,0.01780846156179905
40.0,0.01730174571275711
44.0,0.016811713576316833
48.0,0.016361141577363014
52.0,0.015913767740130424
56.0,0.015457937493920326
60.0,0.015017271973192692
64.0,0.014611387625336647
72.0,0.013949109241366386
80.0,0.013343865983188152
88.0,0.01278543472290039
96.0,0.01229300070554018
104.0,0.011845150962471962
112.0,0.011409882456064224
120.0,0.010973738506436348
128.0,0.010510867461562157
144.0,0.009679879993200302
160.0,0.00880645215511322
176.0,0.007974978536367416
192.0,0.0074531701393425465
208.0,0.007036983035504818
224.0,0.006575774401426315
240.0,0.00615529902279377
256.0,0.005712112411856651
288.0,0.005169819109141827
320.0,0.004787464160472155
352.0,0.004883402492851019
384.0,0.005306738894432783
416.0,0.005528115667402744
448.0,0.0053834388963878155
480.0,0.004658665042370558
512.0,0.00332583743147552
576.0,0.001487129251472652
640.0,0.0005384905962273479
704.0,4.0726299630478024e-05
768.0,-7.56342415115796e-05
832.0,-0.0002355702017666772
896.0,-3.773157732211985e-05
960.0,-0.0006229829741641879
1024.0,-0.0007146237185224891
1152.0,0.0007169456221163273
1280.0,0.0008757959003560245
1408.0,0.0005785170942544937
1536.0,-0.0004133931070100516
1664.0,-0.0010638199746608734
1792.0,-0.0015309943119063973
1920.0,-0.0021205435041338205
2048.0,-0.002673836424946785
2304.0,0.0003341390402056277
2560.0,0.002600946230813861
2816.0,0.004877248778939247
3072.0,0.0017598440172150731
3328.0,0.0017304772045463324
3584.0,-0.0018334118649363518
3840.0,-0.0004337859863881022
4096.0,-0.003559559118002653
4608.0,-0.004096107557415962
5120.0,-0.0022239764221012592
5632.0,-0.0011072070337831974
6144.0,0.0020037598442286253
6656.0,0.000291361880954355
7168.0,-0.0011345765087753534
7680.0,-0.0024481373839080334
8192.0,-0.0037225873675197363
end
