version,3.0
numOfCh,1
type,point
parent_name,714af_0dot08-1dot0
ch_type,1_1
kcount,1
numberNandB,1
brightnessNandB,1
carpet pos,0
pc,0
Time (ms),CH1 Auto-Correlation
1.0,0.020275501534342766
2.0,0.020092139020562172
3.0,0.01992337964475155
4.0,0.01975642330944538
5.0,0.019593125209212303
6.0,0.01942833699285984
7.0,0.019264234229922295
8.0,0.019096991047263145
9.0,0.018939409404993057
10.0,0.01878562569618225
11.0,0.018630050122737885
12.0,0.018476422876119614
13.0,0.01832529529929161
14.0,0.018171362578868866
15.0,0.01801920495927334
16.0,0.017874835059046745
18.0,0.017587974667549133
20.0,0.01731087453663349
22.0,0.017043082043528557
24.0,0.016784701496362686
26.0,0.016527188941836357
28.0,0.016274377703666687
30.0,0.016032103449106216
32.0,0.015795838087797165
36.0,0.015334032475948334
40.0,0.014873684383928776
44.0,0.014416240155696869
48.0,0.013988512568175793
52.0,0.013581880368292332
56.0,0.013201049529016018
60.0,0.01284013595432043
64.0,0.012497072108089924
72.0,0.01184218842536211
80.0,0.011200252920389175
88.0,0.010584169998764992
96.0,0.010019230656325817
104.0,0.00948735699057579
112.0,0.008935424499213696
120.0,0.008302778005599976
128.0,0.007647844031453133
144.0,0.006525262258946896
160.0,0.0055479505099356174
176.0,0.004656518343836069
192.0,0.003839636454358697
208.0,0.003039778908714652
224.0,0.002419173251837492
240.0,0.001778412377461791
256.0,0.0013062524376437068
288.0,0.00052613829029724
320.0,-0.00024512122035957873
352.0,-0.0006554856081493199
384.0,-0.0010816460708156228
416.0,-0.0015679245116189122
448.0,-0.0016354358522221446
480.0,-0.001557634212076664
512.0,-0.001564886886626482
576.0,-0.0012109898962080479
640.0,-0.00029931028257124126
704.0,-0.00011403540702303872
768.0,9.809113544179127e-05
832.0,0.0006203551893122494
896.0,0.001301552401855588
960.0,0.0014155481476336718
1024.0,0.0006277852226048708
1152.0,-0.001412294921465218
1280.0,-0.0010626133298501372
1408.0,-0.00038456724723801017
1536.0,-0.0003376054810360074
1664.0,-0.0010494721354916692
1792.0,-0.0018366825534030795
1920.0,-0.0030386776197701693
2048.0,-0.002693675924092531
2304.0,0.0012616550084203482
2560.0,0.0011646132916212082
2816.0,0.0015815328806638718
3072.0,0.0013972569722682238
3328.0,-0.0010051922872662544
3584.0,-0.0018026083707809448
3840.0,-0.0019153098110109568
4096.0,-0.002153374720364809
4608.0,-0.001372802653349936
5120.0,-0.0003311638720333576
5632.0,0.00047253980301320553
6144.0,-0.0014431574381887913
6656.0,-0.0009404770098626614
7168.0,-0.0006720767123624682
7680.0,0.0032488475553691387
8192.0,0.002518440131098032
end
