version,3.0
numOfCh,1
type,point
parent_name,714af_0dot08-1dot0
ch_type,1_1
kcount,1
numberNandB,1
brightnessNandB,1
carpet pos,0
pc,0
Time (ms),CH1 Auto-Correlation
1.0,0.025924382731318474
2.0,0.025699473917484283
3.0,0.02548961713910103
4.0,0.025276778265833855
5.0,0.02507881075143814
6.0,0.024887947365641594
7.0,0.02469463460147381
8.0,0.0245096106082201
9.0,0.024325966835021973
10.0,0.024146826937794685
11.0,0.02396640181541443
12.0,0.023795252665877342
13.0,0.023625237867236137
14.0,0.023466825485229492
15.0,0.02331782504916191
16.0,0.023170683532953262
18.0,0.022877056151628494
20.0,0.0225963294506073
22.0,0.022323807701468468
24.0,0.022049961611628532
26.0,0.02178344875574112
28.0,0.021514369174838066
30.0,0.02124752104282379
32.0,0.02099434845149517
36.0,0.02052071876823902
40.0,0.020002854987978935
44.0,0.0195113904774189
48.0,0.019040169194340706
52.0,0.01856885477900505
56.0,0.018110277131199837
60.0,0.017675230279564857
64.0,0.01727796345949173
72.0,0.01655023917555809
80.0,0.01586068980395794
88.0,0.015195976942777634
96.0,0.014566219411790371
104.0,0.01401616632938385
112.0,0.013520058244466782
120.0,0.013087253086268902
128.0,0.012662922032177448
144.0,0.011799945496022701
160.0,0.01098609995096922
176.0,0.010262182913720608
192.0,0.00965226348489523
208.0,0.009311684407293797
224.0,0.009165661409497261
240.0,0.009022451005876064
256.0,0.008961022831499577
288.0,0.008967124857008457
320.0,0.008941150270402431
352.0,0.008614030666649342
384.0,0.007849079556763172
416.0,0.00732617499306798
448.0,0.007129928562790155
480.0,0.0070747691206634045
512.0,0.007099431939423084
576.0,0.006252986378967762
640.0,0.005876168608665466
704.0,0.0056287553161382675
768.0,0.006057291757315397
832.0,0.007213188335299492
896.0,0.0075290752574801445
960.0,0.007440853398293257
1024.0,0.007419873494654894
1152.0,0.006434590555727482
1280.0,0.0047175707295536995
1408.0,0.004462093580514193
1536.0,0.004366400185972452
1664.0,0.004588298499584198
1792.0,0.004474557936191559
1920.0,0.005546230357140303
2048.0,0.0035763736814260483
2304.0,-0.0007858311291784048
2560.0,-0.0008002215181477368
2816.0,-0.0011537629179656506
3072.0,-0.0007646154263056815
3328.0,-0.002113120164722204
3584.0,-0.003188728354871273
3840.0,-0.005574478767812252
4096.0,-0.0042188577353954315
4608.0,-0.004792091436684132
5120.0,-0.007829185575246811
5632.0,-0.007277476601302624
6144.0,-0.007623791228979826
6656.0,-0.006178493611514568
7168.0,-0.0066049001179635525
7680.0,0.00022252676717471331
8192.0,-0.002900008112192154
end
