version,3.0
numOfCh,1
type,point
parent_name,714af_0dot08-1dot0
ch_type,1_1
kcount,1
numberNandB,1
brightnessNandB,1
carpet pos,0
pc,0
Time (ms),CH1 Auto-Correlation
1.0,0.022115712985396385
2.0,0.021923605352640152
3.0,0.021737772971391678
4.0,0.02156151831150055
5.0,0.021394355222582817
6.0,0.02123057097196579
7.0,0.021069597452878952
8.0,0.020917994901537895
9.0,0.020764995366334915
10.0,0.020621944218873978
11.0,0.020479612052440643
12.0,0.02033534087240696
13.0,0.020191160961985588
14.0,0.020049184560775757
15.0,0.019908053800463676
16.0,0.019766010344028473
18.0,0.019484777003526688
20.0,0.019219081848859787
22.0,0.01897040754556656
24.0,0.018726706504821777
26.0,0.01847628317773342
28.0,0.01823147013783455
30.0,0.017992638051509857
32.0,0.017752157524228096
36.0,0.01729767397046089
40.0,0.016857078298926353
44.0,0.016414955258369446
48.0,0.016000861302018166
52.0,0.01558754500001669
56.0,0.015185712836682796
60.0,0.0148015096783638
64.0,0.014411676675081253
72.0,0.013697327114641666
80.0,0.01304186973720789
88.0,0.012393497861921787
96.0,0.01179153099656105
104.0,0.011221899650990963
112.0,0.010704615153372288
120.0,0.010168296284973621
128.0,0.009694942273199558
144.0,0.0090103168040514
160.0,0.008258584886789322
176.0,0.007460986264050007
192.0,0.006963491905480623
208.0,0.00677725812420249
224.0,0.006681718397885561
240.0,0.006641751155257225
256.0,0.006646417547017336
288.0,0.00659091817215085
320.0,0.006104595493525267
352.0,0.00551491416990757
384.0,0.0050298068672418594
416.0,0.004514600615948439
448.0,0.0035422882065176964
480.0,0.002618222963064909
512.0,0.0021572611294686794
576.0,0.00250744866207242
640.0,0.002339740749448538
704.0,0.0013802872272208333
768.0,-0.0006355101941153407
832.0,-0.002130155684426427
896.0,-0.0024419049732387066
960.0,-0.0020108455792069435
1024.0,-0.0016286212485283613
1152.0,0.0004751379310619086
1280.0,0.0014520734548568726
1408.0,0.00135219085495919
1536.0,0.002287614159286022
1664.0,0.0028039340395480394
1792.0,0.0035870682913810015
1920.0,0.004034929908812046
2048.0,0.003951444290578365
2304.0,0.0017162089934572577
2560.0,-0.001206457382068038
2816.0,-0.0013031827984377742
3072.0,-0.0009171539568342268
3328.0,0.001022030715830624
3584.0,0.0014463807456195354
3840.0,0.0002822093665599823
4096.0,-0.001738829305395484
4608.0,-0.002021706197410822
5120.0,0.00010834814020199701
5632.0,-0.0018677638145163655
6144.0,-0.004221044480800629
6656.0,-0.003941938281059265
7168.0,-0.00381081597879529
7680.0,-0.003489001654088497
8192.0,-0.002837223932147026
end
