version,3.0
numOfCh,1
type,point
parent_name,34766_1dot0-0dot1
ch_type,1_1
kcount,1
numberNandB,1
brightnessNandB,1
carpet pos,0
pc,0
Time (ms),CH1 Auto-Correlation
1.0,0.0924675241112709
2.0,0.08570662140846252
3.0,0.08011271059513092
4.0,0.07515455782413483
5.0,0.07087227702140808
6.0,0.06725075840950012
7.0,0.06398802995681763
8.0,0.06098203361034393
9.0,0.058121588081121445
10.0,0.05550524592399597
11.0,0.05306365713477135
12.0,0.05095219612121582
13.0,0.048885539174079895
14.0,0.0470452643930912
15.0,0.04561344161629677
16.0,0.04408295825123787
18.0,0.041189391165971756
20.0,0.0387800857424736
22.0,0.03688230365514755
24.0,0.034753210842609406
26.0,0.032817088067531586
28.0,0.030987944453954697
30.0,0.029186008498072624
32.0,0.027660375460982323
36.0,0.02491205930709839
40.0,0.02275492437183857
44.0,0.02084220200777054
48.0,0.01908530853688717
52.0,0.01848168671131134
56.0,0.017281627282500267
60.0,0.016027098521590233
64.0,0.014123045839369297
72.0,0.012981372885406017
80.0,0.011814234778285027
88.0,0.010446751490235329
96.0,0.00795458909124136
104.0,0.005028511863201857
112.0,0.0036440142430365086
120.0,0.003813569899648428
128.0,0.00453968346118927
144.0,0.005716355051845312
160.0,0.005896459333598614
176.0,0.003727561328560114
192.0,5.0506656407378614e-05
208.0,-0.0014773282455280423
224.0,-0.0005743780639022589
240.0,0.00027885675081051886
256.0,-0.0007524932152591646
288.0,-0.0018514372641220689
320.0,-0.0008212340762838721
352.0,-5.29290900885826e-06
384.0,-0.0020396907348185778
416.0,-0.0036250813864171505
448.0,-0.0033962680026888847
480.0,-0.002654662588611245
512.0,-0.0014833767199888825
576.0,-0.0016752880765125155
640.0,0.0012317956425249577
704.0,0.0021053848322480917
768.0,0.003488293383270502
832.0,0.004200487397611141
896.0,0.0003749399911612272
960.0,0.00271386606618762
1024.0,0.0017247212817892432
1152.0,-0.004104512743651867
1280.0,-0.005484694615006447
1408.0,-0.004249529913067818
1536.0,-0.0008588145719841123
1664.0,0.0023163885343819857
1792.0,0.001523949089460075
1920.0,0.0015328568406403065
2048.0,-0.005874411668628454
2304.0,-0.002381860511377454
2560.0,0.0013918153708800673
2816.0,-0.0022122461814433336
3072.0,0.0023098697420209646
3328.0,0.0019862421322613955
3584.0,-0.00035201205173507333
3840.0,0.0023573054932057858
4096.0,0.0035202710423618555
4608.0,0.001067335600964725
5120.0,-0.0011582601582631469
5632.0,-0.003186334390193224
6144.0,-0.001383434166200459
6656.0,-0.002272746292874217
7168.0,0.00033652319689281285
7680.0,0.00017109101463574916
8192.0,0.005240372847765684
end
