version,3.0
numOfCh,1
type,point
parent_name,34766_1dot0-0dot1
ch_type,1_1
kcount,1
numberNandB,1
brightnessNandB,1
carpet pos,0
pc,0
Time (ms),CH1 Auto-Correlation
1.0,0.09719622880220413
2.0,0.09062220901250839
3.0,0.08484199643135071
4.0,0.08004268258810043
5.0,0.07575719803571701
6.0,0.07178477942943573
7.0,0.06808524578809738
8.0,0.06468867510557175
9.0,0.06167660653591156
10.0,0.05903814733028412
11.0,0.05673947185277939
12.0,0.05476861074566841
13.0,0.0528620183467865
14.0,0.05105842649936676
15.0,0.04938673600554466
16.0,0.0478188693523407
18.0,0.04471500590443611
20.0,0.04167694225907326
22.0,0.03926674276590347
24.0,0.03740241006016731
26.0,0.03575620427727699
28.0,0.033725813031196594
30.0,0.03168309107422829
32.0,0.029827231541275978
36.0,0.02718600630760193
40.0,0.02487827092409134
44.0,0.02324080839753151
48.0,0.02179371751844883
52.0,0.0202461089938879
56.0,0.01897094026207924
60.0,0.01755203679203987
64.0,0.01562099251896143
72.0,0.011540975421667099
80.0,0.008805029094219208
88.0,0.007800291292369366
96.0,0.006026354618370533
104.0,0.005105831194669008
112.0,0.004344236571341753
120.0,0.003653481602668762
128.0,0.002950976137071848
144.0,0.0032797374296933413
160.0,0.0034168760757893324
176.0,0.004283794667571783
192.0,0.004590483848005533
208.0,0.005328133702278137
224.0,0.0053827655501663685
240.0,0.0038466444239020348
256.0,0.0038579548709094524
288.0,0.002082935068756342
320.0,0.0004272220248822123
352.0,0.0012886098120361567
384.0,0.0013754531973972917
416.0,0.00016260205302387476
448.0,-0.004831238649785519
480.0,-0.007111501879990101
512.0,-0.00608342420309782
576.0,-0.0014593485975638032
640.0,0.0017007703427225351
704.0,-0.004657800309360027
768.0,-0.0022318148985505104
832.0,-0.003888661740347743
896.0,-0.006601945962756872
960.0,-0.0065237688831985
1024.0,-0.0017812185687944293
1152.0,-0.002254866063594818
1280.0,-0.00512712774798274
1408.0,-0.0019731582142412663
1536.0,0.00027349809533916414
1664.0,0.0003900676383636892
1792.0,0.0036675953306257725
1920.0,-0.004324633628129959
2048.0,0.0031516598537564278
2304.0,0.0028207774739712477
2560.0,0.003549820277839899
2816.0,-0.0024374572094529867
3072.0,-0.009435051120817661
3328.0,0.00022917483875062317
3584.0,0.004100182559341192
3840.0,-0.0013455030275508761
4096.0,-0.001848262851126492
4608.0,-0.0003438253188505769
5120.0,7.4955510172003414e-06
5632.0,-0.00340523780323565
6144.0,0.004973006434738636
6656.0,-0.00457934383302927
7168.0,0.0006947927759028971
7680.0,0.0007888659019954503
8192.0,0.000982188736088574
end
