version,3.0
numOfCh,1
type,point
parent_name,34766_1dot0-0dot1
ch_type,1_1
kcount,1
numberNandB,1
brightnessNandB,1
carpet pos,0
pc,0
Time (ms),CH1 Auto-Correlation
1.0,0.11963193118572235
2.0,0.11209952086210251
3.0,0.10562537610530853
4.0,0.10010077804327011
5.0,0.09530038386583328
6.0,0.09105534851551056
7.0,0.08727557957172394
8.0,0.08406952768564224
9.0,0.08102118223905563
10.0,0.07801734656095505
11.0,0.07512752711772919
12.0,0.0727245956659317
13.0,0.0704948902130127
14.0,0.06871682405471802
15.0,0.06676644086837769
16.0,0.0649757832288742
18.0,0.061583053320646286
20.0,0.05833056569099426
22.0,0.05507221817970276
24.0,0.05175992473959923
26.0,0.04905308037996292
28.0,0.04713411256670952
30.0,0.04552186280488968
32.0,0.04348501190543175
36.0,0.03927738964557648
40.0,0.03670792654156685
44.0,0.0354805625975132
48.0,0.034287575632333755
52.0,0.033044978976249695
56.0,0.031526919454336166
60.0,0.03062785044312477
64.0,0.030033448711037636
72.0,0.02881581149995327
80.0,0.027053581550717354
88.0,0.024147430434823036
96.0,0.019372157752513885
104.0,0.015331371687352657
112.0,0.012420786544680595
120.0,0.01147848553955555
128.0,0.010614132508635521
144.0,0.009867573156952858
160.0,0.010256005451083183
176.0,0.007352440617978573
192.0,0.006680285092443228
208.0,0.006058659870177507
224.0,0.00303767342120409
240.0,0.0033690996933728456
256.0,0.003591258078813553
288.0,0.011458093300461769
320.0,0.010910309851169586
352.0,0.008912061341106892
384.0,0.0080350860953331
416.0,0.006468513514846563
448.0,0.005833248607814312
480.0,0.004805815406143665
512.0,-1.5845955203985795e-05
576.0,0.0016607018187642097
640.0,0.002440383657813072
704.0,0.0010082368971779943
768.0,0.0007537330384366214
832.0,0.0011781881330534816
896.0,0.010080860927700996
960.0,0.003982930909842253
1024.0,2.7186062652617693e-05
1152.0,-0.004094367381185293
1280.0,-0.0006714128539897501
1408.0,0.006028114352375269
1536.0,0.0018963388865813613
1664.0,-0.0005094154621474445
1792.0,-0.0010468497639521956
1920.0,-0.005373433232307434
2048.0,-0.006026537623256445
2304.0,0.000683785357978195
2560.0,-0.008206512778997421
2816.0,-0.0025124612729996443
3072.0,0.001959283370524645
3328.0,-0.006481758784502745
3584.0,-0.0005034719943068922
3840.0,-0.005093374289572239
4096.0,-0.013870498165488243
4608.0,-0.00041463036905042827
5120.0,0.006918164901435375
5632.0,0.0046063619665801525
6144.0,0.009969543665647507
6656.0,0.00760766863822937
7168.0,-0.003459154162555933
7680.0,-0.007088381331413984
8192.0,-0.003173782955855131
end
