version,3.0
numOfCh,1
type,point
parent_name,34766_1dot0-0dot1
ch_type,1_1
kcount,1
numberNandB,1
brightnessNandB,1
carpet pos,0
pc,0
Time (ms),CH1 Auto-Correlation
1.0,0.09763059765100479
2.0,0.09080320596694946
3.0,0.0848904401063919
4.0,0.07969719171524048
5.0,0.07540981471538544
6.0,0.07142069190740585
7.0,0.06776531785726547
8.0,0.06451393663883209
9.0,0.061487626284360886
10.0,0.05876987800002098
11.0,0.05613602697849274
12.0,0.05361907556653023
13.0,0.051418840885162354
14.0,0.04920822009444237
15.0,0.04719812795519829
16.0,0.045756250619888306
18.0,0.043264370411634445
20.0,0.040982894599437714
22.0,0.039121851325035095
24.0,0.03754567354917526
26.0,0.03584505245089531
28.0,0.03421127051115036
30.0,0.03254777565598488
32.0,0.03074265830218792
36.0,0.028031717985868454
40.0,0.02538590505719185
44.0,0.023444542661309242
48.0,0.021014921367168427
52.0,0.019067542627453804
56.0,0.01827140338718891
60.0,0.017769034951925278
64.0,0.017055939882993698
72.0,0.014147543348371983
80.0,0.011559685692191124
88.0,0.010931644588708878
96.0,0.009502459317445755
104.0,0.00709735881537199
112.0,0.005185232963413
120.0,0.00486920727416873
128.0,0.005539123900234699
144.0,0.004134099930524826
160.0,0.003718813182786107
176.0,0.0005781925283372402
192.0,-0.001443855813704431
208.0,-0.002737564267590642
224.0,-0.002299757208675146
240.0,0.0007629910251125693
256.0,-5.218386650085449e-05
288.0,0.0022241349797695875
320.0,0.004762267228215933
352.0,0.003585814032703638
384.0,0.002088901586830616
416.0,0.0032858611084520817
448.0,0.0031689500901848078
480.0,0.0018791863694787025
512.0,0.003044277662411332
576.0,0.0017390814609825611
640.0,0.0004142809484619647
704.0,0.0029190070927143097
768.0,0.002408044645562768
832.0,-0.004443113226443529
896.0,0.001212054630741477
960.0,0.0016199812525883317
1024.0,-0.0022416880819946527
1152.0,-0.0036923352163285017
1280.0,-0.011363924480974674
1408.0,-0.0010551699670031667
1536.0,-0.005571905989199877
1664.0,-0.006686306092888117
1792.0,-0.006730882450938225
1920.0,-0.0021492026280611753
2048.0,0.0009469657670706511
2304.0,0.00023717666044831276
2560.0,0.000682228128425777
2816.0,0.003090234473347664
3072.0,0.0033599890302866697
3328.0,0.00023971722112037241
3584.0,-0.002810861449688673
3840.0,0.0006992756971158087
4096.0,-0.0033790268935263157
4608.0,-0.0004612351185642183
5120.0,0.0035188565962016582
5632.0,0.003313528373837471
6144.0,-0.0019255885854363441
6656.0,-0.006581573747098446
7168.0,-0.004735446069389582
7680.0,-0.001034744898788631
8192.0,0.0021598385646939278
end
