version,3.0
numOfCh,1
type,point
parent_name,34766_1dot0-0dot1
ch_type,1_1
kcount,1
numberNandB,1
brightnessNandB,1
carpet pos,0
pc,0
Time (ms),CH1 Auto-Correlation
1.0,0.08799044787883759
2.0,0.08137202262878418
3.0,0.07565569132566452
4.0,0.07076212018728256
5.0,0.06666389107704163
6.0,0.06277832388877869
7.0,0.05926813557744026
8.0,0.05622195079922676
9.0,0.05338280275464058
10.0,0.05074590444564819
11.0,0.048512134701013565
12.0,0.0462234690785408
13.0,0.04426823556423187
14.0,0.042670268565416336
15.0,0.04125533998012543
16.0,0.03995706886053085
18.0,0.03786887973546982
20.0,0.035987187176942825
22.0,0.03427092730998993
24.0,0.032450657337903976
26.0,0.03086882270872593
28.0,0.02913219854235649
30.0,0.027088938280940056
32.0,0.02560725435614586
36.0,0.023037035018205643
40.0,0.021372444927692413
44.0,0.019879862666130066
48.0,0.018323687836527824
52.0,0.017051121219992638
56.0,0.016513019800186157
60.0,0.016041437163949013
64.0,0.015803709626197815
72.0,0.015816953033208847
80.0,0.015057665295898914
88.0,0.012759651988744736
96.0,0.010134061798453331
104.0,0.007158984430134296
112.0,0.005385628901422024
120.0,0.004599723499268293
128.0,0.004495428409427404
144.0,0.002348068868741393
160.0,0.0021573391277343035
176.0,0.0004156504001002759
192.0,0.0014270112151280046
208.0,0.0025398486759513617
224.0,0.0003561871708370745
240.0,0.000528755655977875
256.0,0.0014962473651394248
288.0,4.590893877320923e-05
320.0,-0.0024063733872026205
352.0,-0.006932138931006193
384.0,-0.0022333681117743254
416.0,0.00182656804099679
448.0,0.0028891167603433132
480.0,0.0037922607734799385
512.0,0.004237158223986626
576.0,0.005193311255425215
640.0,0.004401532933115959
704.0,0.006405218504369259
768.0,0.0005155020044185221
832.0,0.001413040328770876
896.0,0.0017083267448469996
960.0,0.0014416121412068605
1024.0,-0.002484213327988982
1152.0,0.003996731247752905
1280.0,0.000494173145852983
1408.0,-0.0017937805969268084
1536.0,-0.00406090822070837
1664.0,1.5725303455838002e-05
1792.0,-0.0005650738021358848
1920.0,0.002094386611133814
2048.0,0.0008354783640243113
2304.0,-0.0001233760267496109
2560.0,0.00016814788978081197
2816.0,-0.002403349382802844
3072.0,-0.0015604726504534483
3328.0,-0.004287542775273323
3584.0,-0.003420426743105054
3840.0,-0.002817705739289522
4096.0,0.0006895036203786731
4608.0,-0.001830177498050034
5120.0,0.0015512279933318496
5632.0,-0.0012746438151225448
6144.0,-0.0019472683779895306
6656.0,-0.003355502849444747
7168.0,0.0004167942388448864
7680.0,-0.002285640686750412
8192.0,-0.0022755071986466646
end
