version,3.0
numOfCh,1
type,point
parent_name,34766_1dot0-0dot1
ch_type,1_1
kcount,1
numberNandB,1
brightnessNandB,1
carpet pos,0
pc,0
Time (ms),CH1 Auto-Correlation
1.0,0.09385109692811966
2.0,0.08660302311182022
3.0,0.08037374913692474
4.0,0.07473860681056976
5.0,0.07001179456710815
6.0,0.06597429513931274
7.0,0.06241922453045845
8.0,0.05916357785463333
9.0,0.056379180401563644
10.0,0.053713444620370865
11.0,0.05137266963720322
12.0,0.04920689016580582
13.0,0.047135911881923676
14.0,0.04518280550837517
15.0,0.04383101686835289
16.0,0.04233197867870331
18.0,0.03977601230144501
20.0,0.037548668682575226
22.0,0.035598840564489365
24.0,0.03402654454112053
26.0,0.03339455649256706
28.0,0.03256668522953987
30.0,0.03132857382297516
32.0,0.029857687652111053
36.0,0.025987066328525543
40.0,0.023373784497380257
44.0,0.020822148770093918
48.0,0.019036807119846344
52.0,0.018536139279603958
56.0,0.018277879804372787
60.0,0.017791399732232094
64.0,0.016248587518930435
72.0,0.012665473856031895
80.0,0.010548652149736881
88.0,0.009538998827338219
96.0,0.008463932201266289
104.0,0.007394176907837391
112.0,0.006150722503662109
120.0,0.0057077971287071705
128.0,0.00455676531419158
144.0,0.003287129569798708
160.0,0.0024550706148147583
176.0,0.0013239074032753706
192.0,0.00044702854938805103
208.0,-0.0011297904420644045
224.0,-0.0014406853588297963
240.0,-0.0010721825528889894
256.0,-0.0021165560465306044
288.0,-0.004460534080862999
320.0,-0.0050368718802928925
352.0,-0.0036203342024236917
384.0,-0.0028878285083919764
416.0,-0.0026061893440783024
448.0,-0.0020692073740065098
480.0,-0.0038499925285577774
512.0,-0.003927560988813639
576.0,-0.0063594914972782135
640.0,-0.005457889288663864
704.0,-0.0023409933783113956
768.0,-0.005181314889341593
832.0,-0.005240566097199917
896.0,-0.0015390461776405573
960.0,0.00453329598531127
1024.0,0.004193984903395176
1152.0,-0.0009034425020217896
1280.0,0.0001274450187338516
1408.0,-0.001839169068261981
1536.0,-0.00039991873200051486
1664.0,0.0029265410266816616
1792.0,-0.004460807424038649
1920.0,-0.007543524727225304
2048.0,-0.004491289611905813
2304.0,0.005926084239035845
2560.0,-3.524588100844994e-05
2816.0,-0.006018210668116808
3072.0,-0.004800091963261366
3328.0,0.0017571309581398964
3584.0,0.000710421591065824
3840.0,0.0024296604096889496
4096.0,-0.0002820628578774631
4608.0,0.004763545002788305
5120.0,-0.004066231660544872
5632.0,0.00353774381801486
6144.0,-0.0037815950345247984
6656.0,0.0001468028494855389
7168.0,-0.001317437388934195
7680.0,-0.0004049973504152149
8192.0,0.0017477463698014617
end
