version,3.0
numOfCh,1
type,point
parent_name,34766_1dot0-0dot1
ch_type,1_1
kcount,1
numberNandB,1
brightnessNandB,1
carpet pos,0
pc,0
Time (ms),CH1 Auto-Correlation
1.0,0.11131992936134338
2.0,0.1037735641002655
3.0,0.09734819084405899
4.0,0.09194377064704895
5.0,0.0867374837398529
6.0,0.08186005800962448
7.0,0.07738107442855835
8.0,0.07304558902978897
9.0,0.06886576861143112
10.0,0.06504388153553009
11.0,0.061577651649713516
12.0,0.05809084326028824
13.0,0.05495215207338333
14.0,0.05235304683446884
15.0,0.04979298263788223
16.0,0.047191355377435684
18.0,0.04170088469982147
20.0,0.03805363178253174
22.0,0.03496349975466728
24.0,0.03231191635131836
26.0,0.029779227450489998
28.0,0.027776382863521576
30.0,0.02597503736615181
32.0,0.02389056794345379
36.0,0.021428633481264114
40.0,0.01847640424966812
44.0,0.016279257833957672
48.0,0.014890110120177269
52.0,0.014674768783152103
56.0,0.01474436279386282
60.0,0.015685856342315674
64.0,0.015933137387037277
72.0,0.015107128769159317
80.0,0.014804071746766567
88.0,0.01572521962225437
96.0,0.016049860045313835
104.0,0.013210050761699677
112.0,0.011402367614209652
120.0,0.0108131542801857
128.0,0.009711905382573605
144.0,0.008054387755692005
160.0,0.008939176797866821
176.0,0.00749449385330081
192.0,0.00408153748139739
208.0,0.0034431100357323885
224.0,0.0011274981079623103
240.0,0.003082934068515897
256.0,0.0021220569033175707
288.0,0.00226618186570704
320.0,0.002500389004126191
352.0,0.0015412830980494618
384.0,0.0007386141805909574
416.0,-0.0003276671632193029
448.0,0.000636104610748589
480.0,0.0035993168130517006
512.0,0.0003150432603433728
576.0,0.004388087894767523
640.0,0.0014209392247721553
704.0,-0.000694676476996392
768.0,-0.0001346868375549093
832.0,0.0020238147117197514
896.0,0.00048767251428216696
960.0,0.00458380626514554
1024.0,0.00256796320900321
1152.0,-0.002079608151689172
1280.0,-0.00368800712749362
1408.0,-0.000460977345937863
1536.0,0.004239669535309076
1664.0,0.005060213152319193
1792.0,0.0020662585739046335
1920.0,0.0021858769468963146
2048.0,0.005134392995387316
2304.0,0.0023547636810690165
2560.0,0.003998111467808485
2816.0,0.002359861508011818
3072.0,-0.0019025722285732627
3328.0,-0.002405682345852256
3584.0,-0.006799574941396713
3840.0,-0.004948659799993038
4096.0,0.0012214148882776499
4608.0,0.0008757368777878582
5120.0,-0.0038540074601769447
5632.0,-0.006215767469257116
6144.0,-0.0017282527405768633
6656.0,-0.00013297618716023862
7168.0,-0.0012245645048096776
7680.0,-0.0022780608851462603
8192.0,-0.0026895247865468264
end
