version,3.0
numOfCh,1
type,point
parent_name,34766_1dot0-0dot1
ch_type,1_1
kcount,1
numberNandB,1
brightnessNandB,1
carpet pos,0
pc,0
Time (ms),CH1 Auto-Correlation
1.0,0.09963289648294449
2.0,0.09246455878019333
3.0,0.08621290326118469
4.0,0.08072506636381149
5.0,0.075696662068367
6.0,0.07107990235090256
7.0,0.0670802891254425
8.0,0.06343474984169006
9.0,0.06007116287946701
10.0,0.05709993466734886
11.0,0.05455142259597778
12.0,0.052389368414878845
13.0,0.050512202084064484
14.0,0.048758331686258316
15.0,0.04698796570301056
16.0,0.04526950418949127
18.0,0.04252784699201584
20.0,0.04017497971653938
22.0,0.03797077760100365
24.0,0.03598199412226677
26.0,0.034349363297224045
28.0,0.03286049887537956
30.0,0.03126965090632439
32.0,0.02983708493411541
36.0,0.02768833562731743
40.0,0.02517060935497284
44.0,0.022482044994831085
48.0,0.01939890906214714
52.0,0.017237693071365356
56.0,0.01623484306037426
60.0,0.015599147416651249
64.0,0.014105403795838356
72.0,0.012066290713846684
80.0,0.01035989262163639
88.0,0.009747488424181938
96.0,0.008837763220071793
104.0,0.007465496193617582
112.0,0.006046854890882969
120.0,0.0075689139775931835
128.0,0.008535393513739109
144.0,0.005628472659736872
160.0,0.0079155582934618
176.0,0.009736166335642338
192.0,0.008828794583678246
208.0,0.007913704961538315
224.0,0.006748570594936609
240.0,0.00549610611051321
256.0,0.007884041406214237
288.0,0.005590004380792379
320.0,0.002828331431373954
352.0,0.002760844537988305
384.0,0.0014850081643089652
416.0,0.0001581493706908077
448.0,0.0013781305169686675
480.0,0.0055196164175868034
512.0,0.001897161127999425
576.0,0.002631045412272215
640.0,0.005328561645001173
704.0,0.002906011650338769
768.0,0.00593464495614171
832.0,0.006635296158492565
896.0,0.005284230690449476
960.0,0.0009749293094500899
1024.0,0.00036070565693080425
1152.0,-0.0019095177995041013
1280.0,-0.0022961972281336784
1408.0,-0.00522092217579484
1536.0,-0.0023119510151445866
1664.0,-0.001364212715998292
1792.0,-0.001963401213288307
1920.0,-0.005505711305886507
2048.0,-0.0028431497048586607
2304.0,-0.002480322727933526
2560.0,-0.00819717813283205
2816.0,-0.007263096049427986
3072.0,-0.003805536078289151
3328.0,-0.0024252331349998713
3584.0,-0.0038440704811364412
3840.0,-0.00397756090387702
4096.0,-0.002312635537236929
4608.0,0.003583230311051011
5120.0,0.007490760646760464
5632.0,0.005227586720138788
6144.0,0.0017901789397001266
6656.0,0.002355515258386731
7168.0,-0.002962126862257719
7680.0,-0.0026450706645846367
8192.0,-0.005042000208050013
end
