version,3.0
numOfCh,1
type,point
parent_name,34766_1dot0-0dot1
ch_type,1_1
kcount,1
numberNandB,1
brightnessNandB,1
carpet pos,0
pc,0
Time (ms),CH1 Auto-Correlation
1.0,0.08079729229211807
2.0,0.0740567073225975
3.0,0.06856190413236618
4.0,0.0636492371559143
5.0,0.059454336762428284
6.0,0.0556444488465786
7.0,0.05210120603442192
8.0,0.04894092306494713
9.0,0.04620981588959694
10.0,0.0438748262822628
11.0,0.04185688495635986
12.0,0.04007001593708992
13.0,0.038350507616996765
14.0,0.036730214953422546
15.0,0.03492062911391258
16.0,0.03325282409787178
18.0,0.030158130452036858
20.0,0.02755735069513321
22.0,0.02537318505346775
24.0,0.0239984430372715
26.0,0.022688739001750946
28.0,0.02175353839993477
30.0,0.020847171545028687
32.0,0.02045511268079281
36.0,0.019611820578575134
40.0,0.018443040549755096
44.0,0.016700591892004013
48.0,0.015530481934547424
52.0,0.01504476461559534
56.0,0.014759871177375317
60.0,0.014205201528966427
64.0,0.013069079257547855
72.0,0.010646548122167587
80.0,0.007283554878085852
88.0,0.00527421897277236
96.0,0.006294890772551298
104.0,0.008122315630316734
112.0,0.008168589323759079
120.0,0.006609552074223757
128.0,0.004556029103696346
144.0,0.0026365602388978004
160.0,-0.0002232158149126917
176.0,-0.0015280430670827627
192.0,-0.0012389373732730746
208.0,-0.0006948430091142654
224.0,0.00083271594485268
240.0,-0.0018430777126923203
256.0,-0.0030955439433455467
288.0,-0.004026706330478191
320.0,-0.00415268586948514
352.0,-0.0029251794330775738
384.0,-0.0021952379029244184
416.0,-0.0028233674820512533
448.0,-0.0012968668015673757
480.0,0.0018183734500780702
512.0,0.0025053047575056553
576.0,0.006547196768224239
640.0,0.006743203848600388
704.0,0.0034065418876707554
768.0,0.0033644763752818108
832.0,0.0020409703720360994
896.0,-0.0016341228038072586
960.0,-0.0003795412485487759
1024.0,-0.005793983116745949
1152.0,-0.002021496184170246
1280.0,0.0023825878743082285
1408.0,0.0006107693770900369
1536.0,-0.0037365311291068792
1664.0,-0.004415925592184067
1792.0,0.0012767317239195108
1920.0,0.0009857903933152556
2048.0,-0.0026552125345915556
2304.0,-0.0018784682033583522
2560.0,0.001468451926484704
2816.0,-0.001947161741554737
3072.0,-0.001687704585492611
3328.0,0.0015227460535243154
3584.0,-0.004373355768620968
3840.0,-8.221889584092423e-05
4096.0,-0.0012738766381517053
4608.0,0.0006316530634649098
5120.0,0.0003367567842360586
5632.0,-0.0008758838521316648
6144.0,0.00018779777747113258
6656.0,-0.00024252016737591475
7168.0,0.0027146877255290747
7680.0,0.0011648096842691302
8192.0,-0.003117278451099992
end
