version,3.0
numOfCh,1
type,point
parent_name,34766_1dot0-0dot1
ch_type,1_1
kcount,1
numberNandB,1
brightnessNandB,1
carpet pos,0
pc,0
Time (ms),CH1 Auto-Correlation
1.0,0.09869533777236938
2.0,0.09238450974225998
3.0,0.08685370534658432
4.0,0.08200496435165405
5.0,0.07757830619812012
6.0,0.07365422695875168
7.0,0.07029122859239578
8.0,0.06701626628637314
9.0,0.06421887129545212
10.0,0.061476267874240875
11.0,0.0589429996907711
12.0,0.05647445470094681
13.0,0.05414970591664314
14.0,0.0521644651889801
15.0,0.050297513604164124
16.0,0.04851179197430611
18.0,0.04532124847173691
20.0,0.04251619800925255
22.0,0.03999844193458557
24.0,0.038295894861221313
26.0,0.03665868937969208
28.0,0.034781090915203094
30.0,0.03354976698756218
32.0,0.032331351190805435
36.0,0.03008667193353176
40.0,0.0281032994389534
44.0,0.026096850633621216
48.0,0.02508494257926941
52.0,0.02467803657054901
56.0,0.02391311340034008
60.0,0.023034490644931793
64.0,0.022852400317788124
72.0,0.0222516730427742
80.0,0.021369313821196556
88.0,0.019568055868148804
96.0,0.018344828858971596
104.0,0.017789406701922417
112.0,0.017145058140158653
120.0,0.013154181651771069
128.0,0.011020942591130733
144.0,0.00908916536718607
160.0,0.009990613907575607
176.0,0.011672409251332283
192.0,0.008673830889165401
208.0,0.006366975139826536
224.0,0.004248985089361668
240.0,0.0026165542658418417
256.0,0.001294787973165512
288.0,0.005057382397353649
320.0,0.0054496400989592075
352.0,0.00725981080904603
384.0,0.008755214512348175
416.0,0.010320229455828667
448.0,0.009089754894375801
480.0,0.010400595143437386
512.0,0.010686301626265049
576.0,0.01172335259616375
640.0,0.01068196166306734
704.0,0.008806310594081879
768.0,0.010243124328553677
832.0,0.006982230581343174
896.0,0.0017277358565479517
960.0,0.00644307117909193
1024.0,0.006912538781762123
1152.0,0.0068854535929858685
1280.0,0.002453399822115898
1408.0,0.00765240890905261
1536.0,0.007018276955932379
1664.0,0.006867405958473682
1792.0,0.006302204914391041
1920.0,0.009519576095044613
2048.0,0.007233306299895048
2304.0,0.005689207464456558
2560.0,0.007045902777463198
2816.0,0.001732882228679955
3072.0,-0.0024834147188812494
3328.0,-0.0016563227400183678
3584.0,-0.0047737299464643
3840.0,-0.0006678906502202153
4096.0,-0.007106536068022251
4608.0,-0.005620625335723162
5120.0,-0.004981855861842632
5632.0,-0.007918334566056728
6144.0,-0.013789491727948189
6656.0,-0.009602544829249382
7168.0,-0.005119467619806528
7680.0,-0.007853920571506023
8192.0,-0.007921014912426472
end
