version,3.0
numOfCh,1
type,point
parent_name,34766_1dot0-0dot1
ch_type,1_1
kcount,1
numberNandB,1
brightnessNandB,1
carpet pos,0
pc,0
Time (ms),CH1 Auto-Correlation
1.0,0.09264489263296127
2.0,0.08578022569417953
3.0,0.08000466227531433
4.0,0.07510314136743546
5.0,0.07075531780719757
6.0,0.06677822023630142
7.0,0.0632295161485672
8.0,0.060013532638549805
9.0,0.05728995054960251
10.0,0.054756324738264084
11.0,0.05248895660042763
12.0,0.05046398565173149
13.0,0.048413559794425964
14.0,0.04627130553126335
15.0,0.04422624409198761
16.0,0.04232202470302582
18.0,0.03906792774796486
20.0,0.03630348667502403
22.0,0.0339370034635067
24.0,0.03152681514620781
26.0,0.02937251515686512
28.0,0.027601631358265877
30.0,0.02588687278330326
32.0,0.02469155378639698
36.0,0.023461278527975082
40.0,0.022255789488554
44.0,0.021970264613628387
48.0,0.021166730672121048
52.0,0.019054820761084557
56.0,0.01686706207692623
60.0,0.015343333594501019
64.0,0.013702656142413616
72.0,0.01118441205471754
80.0,0.00856044515967369
88.0,0.0061929491348564625
96.0,0.005012798588722944
104.0,0.005014944821596146
112.0,0.005587245337665081
120.0,0.006079816725105047
128.0,0.005487565882503986
144.0,0.0018092429963871837
160.0,-0.0006991003174334764
176.0,0.0010418005986139178
192.0,-0.00023867760319262743
208.0,-0.001048145699314773
224.0,-0.003558131866157055
240.0,-0.004274784587323666
256.0,-0.0031573744490742683
288.0,-0.002086904365569353
320.0,0.0006763758137822151
352.0,-0.0004647481255233288
384.0,-0.0011887630680575967
416.0,-0.001643296447582543
448.0,0.003213763702660799
480.0,0.005062613636255264
512.0,0.004997539333999157
576.0,0.0027667703106999397
640.0,-0.0022239559330046177
704.0,-0.004636658821254969
768.0,-0.005581886973232031
832.0,-0.0013534564059227705
896.0,-0.0011686388170346618
960.0,3.859291973640211e-05
1024.0,0.0032974036876112223
1152.0,0.00023300912289414555
1280.0,-0.005756480619311333
1408.0,-0.004337325692176819
1536.0,0.00018340085807722062
1664.0,-0.0013394319685176015
1792.0,-0.006458486896008253
1920.0,-0.0023945472203195095
2048.0,0.0020541069097816944
2304.0,-0.0022371825762093067
2560.0,-0.0005336907343007624
2816.0,0.0008716426091268659
3072.0,-0.002694947412237525
3328.0,0.0049748835153877735
3584.0,0.003261471400037408
3840.0,0.0014532236382365227
4096.0,0.0017701454926282167
4608.0,-0.00023271758982446045
5120.0,-0.002755769295617938
5632.0,-0.0033866148442029953
6144.0,-0.0006155693554319441
6656.0,0.0018186584347859025
7168.0,0.0031901635229587555
7680.0,-0.0010797411669045687
8192.0,-0.0015246679540723562
end
