version,3.0
numOfCh,1
type,point
parent_name,34766_1dot0-0dot1
ch_type,1_1
kcount,1
numberNandB,1
brightnessNandB,1
carpet pos,0
pc,0
Time (ms),CH1 Auto-Correlation
1.0,0.08702138066291809
2.0,0.08051797747612
3.0,0.07488809525966644
4.0,0.06987366825342178
5.0,0.06557238847017288
6.0,0.06196794658899307
7.0,0.05853208154439926
8.0,0.05532647669315338
9.0,0.05238772928714752
10.0,0.04957304894924164
11.0,0.04694826900959015
12.0,0.044628772884607315
13.0,0.04245439171791077
14.0,0.04041275009512901
15.0,0.03863464668393135
16.0,0.037100762128829956
18.0,0.03493271768093109
20.0,0.03273143991827965
22.0,0.03039766661822796
24.0,0.028124384582042694
26.0,0.025818323716521263
28.0,0.024111753329634666
30.0,0.022675374522805214
32.0,0.021638469770550728
36.0,0.020304150879383087
40.0,0.019551655277609825
44.0,0.018804393708705902
48.0,0.017609935253858566
52.0,0.016451798379421234
56.0,0.015260306186974049
60.0,0.014756330288946629
64.0,0.014698789454996586
72.0,0.015248483046889305
80.0,0.01693253219127655
88.0,0.01710365153849125
96.0,0.016126293689012527
104.0,0.014181089587509632
112.0,0.011928979307413101
120.0,0.010698518715798855
128.0,0.009085000492632389
144.0,0.006370150949805975
160.0,0.004158693831413984
176.0,0.0042470297776162624
192.0,0.003957938868552446
208.0,0.004286210052669048
224.0,0.008615761995315552
240.0,0.00958316121250391
256.0,0.007866027764976025
288.0,0.006244936492294073
320.0,0.008442919701337814
352.0,0.009318412281572819
384.0,0.006858925800770521
416.0,0.006004678085446358
448.0,0.002931528026238084
480.0,0.0010443709325045347
512.0,-0.0020829075947403908
576.0,0.0015963736223056912
640.0,0.0003468605864327401
704.0,-0.0016167985741049051
768.0,-0.00265400274656713
832.0,-0.0070074922405183315
896.0,-0.0042947279289364815
960.0,-0.0034341528080403805
1024.0,-0.0004886469105258584
1152.0,-0.0061626010574400425
1280.0,-0.005375303793698549
1408.0,-0.002797304652631283
1536.0,-0.0020127207972109318
1664.0,-0.0017932954942807555
1792.0,-0.002424387028440833
1920.0,-0.002943913685157895
2048.0,-0.0020583192817866802
2304.0,0.00027360845706425607
2560.0,-0.0015455336542800069
2816.0,0.0016252677887678146
3072.0,0.0007308489875867963
3328.0,-0.00116038229316473
3584.0,-0.0009622496436350048
3840.0,-0.003354027634486556
4096.0,-0.004978261888027191
4608.0,6.377884346875362e-06
5120.0,0.00675926823168993
5632.0,0.0034670610912144184
6144.0,-0.0068839848972857
6656.0,-0.00686919130384922
7168.0,0.0008639039006084204
7680.0,0.003088688710704446
8192.0,0.0045518819242715836
end
