version,3.0
numOfCh,1
type,point
parent_name,34766_1dot0-0dot1
ch_type,1_1
kcount,1
numberNandB,1
brightnessNandB,1
carpet pos,0
pc,0
Time (ms),CH1 Auto-Correlation
1.0,0.08790954947471619
2.0,0.08130568265914917
3.0,0.07582694292068481
4.0,0.07109443843364716
5.0,0.06683223694562912
6.0,0.0629730224609375
7.0,0.05945136025547981
8.0,0.05620630830526352
9.0,0.05328408256173134
10.0,0.050558898597955704
11.0,0.048067137598991394
12.0,0.04591800644993782
13.0,0.0439770445227623
14.0,0.04225987195968628
15.0,0.04064841940999031
16.0,0.039215415716171265
18.0,0.0358746275305748
20.0,0.03239526227116585
22.0,0.02933442033827305
24.0,0.026767458766698837
26.0,0.02468668669462204
28.0,0.02288069762289524
30.0,0.021327350288629532
32.0,0.01993538811802864
36.0,0.018290188163518906
40.0,0.01728622242808342
44.0,0.01644681952893734
48.0,0.016052670776844025
52.0,0.015070280060172081
56.0,0.0131370909512043
60.0,0.012020600028336048
64.0,0.011426451615989208
72.0,0.008886970579624176
80.0,0.007405735552310944
88.0,0.007213113363832235
96.0,0.005743794143199921
104.0,0.00460109394043684
112.0,0.00329035148024559
120.0,0.0020290163811296225
128.0,0.001743185450322926
144.0,-0.0001372120896121487
160.0,0.0005985923344269395
176.0,0.0005478007951751351
192.0,-0.0004200638795737177
208.0,-0.0016521316720172763
224.0,0.0010357988066971302
240.0,0.003950225189328194
256.0,0.004395871888846159
288.0,0.004466547165066004
320.0,0.0007604920538142323
352.0,-0.0012994966236874461
384.0,-0.00013258699618745595
416.0,0.0028880899772047997
448.0,0.00374058005400002
480.0,0.0033298199996352196
512.0,0.005279407370835543
576.0,0.0019174428889527917
640.0,-0.0011597173288464546
704.0,0.002255632309243083
768.0,-0.0002891858166549355
832.0,-0.0004468453989829868
896.0,-0.0011055378708988428
960.0,-0.0008531772764399648
1024.0,-0.0006141054909676313
1152.0,0.0027216000016778708
1280.0,8.254436397692189e-05
1408.0,-0.005349804647266865
1536.0,-0.0017482084222137928
1664.0,-0.00015575054567307234
1792.0,-0.0016136154299601912
1920.0,-0.0054339333437383175
2048.0,0.00483246985822916
2304.0,-0.00214058137498796
2560.0,-0.002126957755535841
2816.0,0.001283559249714017
3072.0,0.0012596306623890996
3328.0,0.0013265772722661495
3584.0,0.0036750109866261482
3840.0,0.0013405238278210163
4096.0,0.0016775806434452534
4608.0,-0.002316480502486229
5120.0,-0.004312258679419756
5632.0,-0.0018159478204324841
6144.0,0.0005481335683725774
6656.0,0.0007355792331509292
7168.0,0.0004796317662112415
7680.0,0.0010456370655447245
8192.0,-0.006192226894199848
end
