version,3.0
numOfCh,1
type,point
parent_name,34766_1dot0-0dot1
ch_type,1_1
kcount,1
numberNandB,1
brightnessNandB,1
carpet pos,0
pc,0
Time (ms),CH1 Auto-Correlation
1.0,0.08303999155759811
2.0,0.07653753459453583
3.0,0.07091347873210907
4.0,0.06622754782438278
5.0,0.06233563646674156
6.0,0.05890186131000519
7.0,0.05564280226826668
8.0,0.05258765444159508
9.0,0.04991050437092781
10.0,0.04737391695380211
11.0,0.04508218914270401
12.0,0.0426739826798439
13.0,0.04036065191030502
14.0,0.03840562701225281
15.0,0.0366540364921093
16.0,0.035234130918979645
18.0,0.032357748597860336
20.0,0.029910914599895477
22.0,0.027778835967183113
24.0,0.02596089616417885
26.0,0.024137839674949646
28.0,0.02236211858689785
30.0,0.02057819813489914
32.0,0.01923910342156887
36.0,0.01712656393647194
40.0,0.015766344964504242
44.0,0.014130888506770134
48.0,0.012028518132865429
52.0,0.011208144016563892
56.0,0.010810531675815582
60.0,0.009861900471150875
64.0,0.009158824570477009
72.0,0.0086062615737319
80.0,0.008773456327617168
88.0,0.009582828730344772
96.0,0.010559502057731152
104.0,0.011054613627493382
112.0,0.011635810136795044
120.0,0.01099103782325983
128.0,0.009745963849127293
144.0,0.008740818127989769
160.0,0.008568894118070602
176.0,0.008509515784680843
192.0,0.0071967835538089275
208.0,0.0058877659030258656
224.0,0.004861017223447561
240.0,0.0036998228169977665
256.0,0.0045935409143567085
288.0,0.00958169810473919
320.0,0.012203768827021122
352.0,0.008404091000556946
384.0,0.004883387126028538
416.0,0.005343548022210598
448.0,0.005910481791943312
480.0,0.005219862796366215
512.0,0.004894440993666649
576.0,0.0030791135504841805
640.0,0.001961671281605959
704.0,0.0011142714647576213
768.0,0.0008050513570196927
832.0,0.0039715212769806385
896.0,0.002807935932651162
960.0,-0.0002266065130243078
1024.0,0.005487225949764252
1152.0,0.0024102565366774797
1280.0,0.0007295605610124767
1408.0,0.0018455063691362739
1536.0,0.002163783647119999
1664.0,0.00044602237176150084
1792.0,0.00047831065603531897
1920.0,0.0002806225966196507
2048.0,0.0002760426141321659
2304.0,-0.0024856836535036564
2560.0,-0.003679752117022872
2816.0,-0.004822799004614353
3072.0,-0.00460547162219882
3328.0,-0.004847060889005661
3584.0,-0.003643446136265993
3840.0,-0.004173062276095152
4096.0,-0.00573712307959795
4608.0,-0.003403617301955819
5120.0,-0.002732307882979512
5632.0,0.0012993686832487583
6144.0,0.0029896157793700695
6656.0,0.004226893186569214
7168.0,0.002125961473211646
7680.0,0.0002410667948424816
8192.0,0.0002932024362962693
end
