version,3.0
numOfCh,1
type,point
parent_name,34766_1dot0-0dot1
ch_type,1_1
kcount,1
numberNandB,1
brightnessNandB,1
carpet pos,0
pc,0
Time (ms),CH1 Auto-Correlation
1.0,0.09103324264287949
2.0,0.0843438133597374
3.0,0.07877903431653976
4.0,0.07395061105489731
5.0,0.06980415433645248
6.0,0.06611911207437515
7.0,0.06285597383975983
8.0,0.059746671468019485
9.0,0.05718901380896568
10.0,0.054836615920066833
11.0,0.052768249064683914
12.0,0.05074859410524368
13.0,0.04889610782265663
14.0,0.04722725227475166
15.0,0.04540041461586952
16.0,0.043898388743400574
18.0,0.04101093113422394
20.0,0.038687773048877716
22.0,0.036613114178180695
24.0,0.03461325913667679
26.0,0.03280734643340111
28.0,0.03152069076895714
30.0,0.031005054712295532
32.0,0.03035520389676094
36.0,0.028822293505072594
40.0,0.026483366265892982
44.0,0.024923620745539665
48.0,0.02356896921992302
52.0,0.02235354110598564
56.0,0.021545104682445526
60.0,0.02030329219996929
64.0,0.018488699570298195
72.0,0.017149828374385834
80.0,0.016138968989253044
88.0,0.015300211496651173
96.0,0.013504601083695889
104.0,0.01219507772475481
112.0,0.011598348617553711
120.0,0.011998227797448635
128.0,0.0112712187692523
144.0,0.011244801804423332
160.0,0.009985004551708698
176.0,0.008037530817091465
192.0,0.004705432802438736
208.0,0.004433866124600172
224.0,0.008042756468057632
240.0,0.00935798417776823
256.0,0.010390223935246468
288.0,0.008826830424368382
320.0,0.006416134536266327
352.0,0.007063244003802538
384.0,0.007271486334502697
416.0,0.00717744929715991
448.0,0.0065107084810733795
480.0,0.007944849319756031
512.0,0.008610757999122143
576.0,0.008522151038050652
640.0,0.010271348990499973
704.0,0.006926356349140406
768.0,0.0020869835279881954
832.0,-3.328976526972838e-05
896.0,0.0016277520917356014
960.0,0.0037675483617931604
1024.0,0.0030583711341023445
1152.0,0.001614658161997795
1280.0,-0.0029532259795814753
1408.0,0.0004162836994510144
1536.0,-0.0012259597424417734
1664.0,-0.0026162376161664724
1792.0,-0.00353294238448143
1920.0,-0.007942691445350647
2048.0,-0.0046215420588850975
2304.0,-0.004286336246877909
2560.0,-0.00248460890725255
2816.0,-0.0023897902574390173
3072.0,-0.004516617860645056
3328.0,-0.0038102639373391867
3584.0,-0.003871051361784339
3840.0,-0.0017243489855900407
4096.0,0.001123203313909471
4608.0,0.0022193698678165674
5120.0,0.005244228523224592
5632.0,0.004524662625044584
6144.0,0.0015296858036890626
6656.0,-0.005241316743195057
7168.0,-0.00839606299996376
7680.0,-0.007844609208405018
8192.0,-0.002819756045937538
end
