version,3.0
numOfCh,1
type,point
parent_name,34766_1dot0-0dot1
ch_type,1_1
kcount,1
numberNandB,1
brightnessNandB,1
carpet pos,0
pc,0
Time (ms),CH1 Auto-Correlation
1.0,0.09666493535041809
2.0,0.08964941650629044
3.0,0.08374466747045517
4.0,0.0783504769206047
5.0,0.07345183193683624
6.0,0.0692552849650383
7.0,0.06546945869922638
8.0,0.062036290764808655
9.0,0.05910427123308182
10.0,0.05636465549468994
11.0,0.053694747388362885
12.0,0.05126195400953293
13.0,0.04892294853925705
14.0,0.047005798667669296
15.0,0.04518044739961624
16.0,0.04344582185149193
18.0,0.03989342972636223
20.0,0.03643369302153587
22.0,0.033551476895809174
24.0,0.031229762360453606
26.0,0.029000474140048027
28.0,0.026736635714769363
30.0,0.024611886590719223
32.0,0.02310149557888508
36.0,0.021670568734407425
40.0,0.019642729312181473
44.0,0.017780477181077003
48.0,0.0160744059830904
52.0,0.014414824545383453
56.0,0.013334304094314575
60.0,0.012039639055728912
64.0,0.010771743021905422
72.0,0.008836292661726475
80.0,0.007632691413164139
88.0,0.007913991808891296
96.0,0.007905230857431889
104.0,0.0073372297920286655
112.0,0.006530167069286108
120.0,0.0051383669488132
128.0,0.004473620560020208
144.0,0.003650252241641283
160.0,0.002838720800355077
176.0,0.0011569926282390952
192.0,0.0010772410314530134
208.0,0.0012452725786715746
224.0,0.0009411456994712353
240.0,-0.0005909596802666783
256.0,-0.001391615136526525
288.0,0.00018412164354231209
320.0,0.004965866915881634
352.0,0.005939822178333998
384.0,0.0017799471970647573
416.0,0.0028370514046400785
448.0,0.0013073462760075927
480.0,-0.0005839230143465102
512.0,-0.0009759040549397469
576.0,-0.0013778884895145893
640.0,0.001114421058446169
704.0,0.0018389412434771657
768.0,0.0020096609368920326
832.0,0.00038358999881893396
896.0,-0.0001766879577189684
960.0,0.0030902191065251827
1024.0,0.0018273645546287298
1152.0,-0.003238770877942443
1280.0,-0.0018565793288871646
1408.0,0.001288629719056189
1536.0,-0.002879937645047903
1664.0,-0.0031074804719537497
1792.0,-0.0013175051426514983
1920.0,-0.0034696159418672323
2048.0,-0.003633560612797737
2304.0,0.0015953064430505037
2560.0,0.003986317198723555
2816.0,0.001491283648647368
3072.0,-0.0017490786267444491
3328.0,-0.004046777728945017
3584.0,-0.0021502382587641478
3840.0,0.00040211519808508456
4096.0,-0.0041746883653104305
4608.0,-0.00460113724693656
5120.0,0.0013873843709006906
5632.0,-0.0014871956082060933
6144.0,-0.00047644146252423525
6656.0,-0.00040452033863402903
7168.0,0.0003357368113938719
7680.0,0.005561611615121365
8192.0,0.0032057210337370634
end
