version,3.0
numOfCh,1
type,point
parent_name,34766_1dot0-0dot1
ch_type,1_1
kcount,1
numberNandB,1
brightnessNandB,1
carpet pos,0
pc,0
Time (ms),CH1 Auto-Correlation
1.0,0.08179908990859985
2.0,0.07466685026884079
3.0,0.06851394474506378
4.0,0.06323269009590149
5.0,0.05861371010541916
6.0,0.0546904094517231
7.0,0.05132674053311348
8.0,0.04849041998386383
9.0,0.04562630131840706
10.0,0.04318729788064957
11.0,0.04082023724913597
12.0,0.03867045417428017
13.0,0.03657129779458046
14.0,0.03484683483839035
15.0,0.03330940753221512
16.0,0.03185097873210907
18.0,0.029633810743689537
20.0,0.027683502063155174
22.0,0.025770993903279305
24.0,0.023586662486195564
26.0,0.0213337279856205
28.0,0.019235923886299133
30.0,0.017242146655917168
32.0,0.015453006140887737
36.0,0.012954900041222572
40.0,0.012021406553685665
44.0,0.01146913506090641
48.0,0.010950511321425438
52.0,0.009912053123116493
56.0,0.009256645105779171
60.0,0.008789168670773506
64.0,0.008303835988044739
72.0,0.006868415512144566
80.0,0.006039181258529425
88.0,0.004101503640413284
96.0,0.002792101353406906
104.0,0.0038064206019043922
112.0,0.004897806793451309
120.0,0.004022822715342045
128.0,0.004385892767459154
144.0,0.0039327493868768215
160.0,0.005062647629529238
176.0,0.00514282425865531
192.0,0.007271601818501949
208.0,0.007356030400842428
224.0,0.009897776879370213
240.0,0.00905588548630476
256.0,0.0070737199857831
288.0,0.0046790363267064095
320.0,0.0027812656480818987
352.0,0.0026933380868285894
384.0,0.002825179137289524
416.0,0.005361583549529314
448.0,0.0032725476194173098
480.0,-1.7229560398845933e-05
512.0,0.0016468907706439495
576.0,0.004818076733499765
640.0,0.003358496120199561
704.0,0.0008793295710347593
768.0,0.0014134198427200317
832.0,0.001010135398246348
896.0,0.0017028717556968331
960.0,0.0001287325139855966
1024.0,0.0018536075949668884
1152.0,0.0010283986339345574
1280.0,0.0014808810083195567
1408.0,0.00425798911601305
1536.0,0.00269320048391819
1664.0,0.0011226695496588945
1792.0,-0.0015842815628275275
1920.0,0.0013442236231639981
2048.0,-0.0016335401451215148
2304.0,-0.0037592740263789892
2560.0,-0.0029896683990955353
2816.0,-0.0010301052825525403
3072.0,-0.001629323116503656
3328.0,-0.0035373398568481207
3584.0,-0.006667327601462603
3840.0,-0.0037259762175381184
4096.0,-0.002506330143660307
4608.0,-8.703208004590124e-05
5120.0,-0.0033839838579297066
5632.0,0.0035121357068419456
6144.0,0.005276890937238932
6656.0,0.00044485562830232084
7168.0,0.0021235928870737553
7680.0,0.0032615906093269587
8192.0,-0.002913602627813816
end
