version,3.0
numOfCh,1
type,point
parent_name,34766_1dot0-0dot1
ch_type,1_1
kcount,1
numberNandB,1
brightnessNandB,1
carpet pos,0
pc,0
Time (ms),CH1 Auto-Correlation
1.0,0.11019886285066605
2.0,0.10258162766695023
3.0,0.09598547220230103
4.0,0.0901305079460144
5.0,0.08491526544094086
6.0,0.08050388097763062
7.0,0.07640045136213303
8.0,0.07271090149879456
9.0,0.06932100653648376
10.0,0.06635469198226929
11.0,0.06357835978269577
12.0,0.06130998581647873
13.0,0.059111587703228
14.0,0.05667436495423317
15.0,0.05432046577334404
16.0,0.052538398653268814
18.0,0.04949437454342842
20.0,0.046825796365737915
22.0,0.04483616724610329
24.0,0.04312433302402496
26.0,0.0412360355257988
28.0,0.03921413794159889
30.0,0.037516988813877106
32.0,0.03633660078048706
36.0,0.034385550767183304
40.0,0.03237174451351166
44.0,0.030368397012352943
48.0,0.028856096789240837
52.0,0.027061669155955315
56.0,0.024971097707748413
60.0,0.02452789433300495
64.0,0.02397562749683857
72.0,0.021142179146409035
80.0,0.01839679852128029
88.0,0.01826116256415844
96.0,0.016033625230193138
104.0,0.014614579267799854
112.0,0.014718025922775269
120.0,0.01270416658371687
128.0,0.01059688813984394
144.0,0.010066143237054348
160.0,0.013625930063426495
176.0,0.013868729583919048
192.0,0.013406598009169102
208.0,0.013447720557451248
224.0,0.0140379061922431
240.0,0.013063381426036358
256.0,0.01152510941028595
288.0,0.01657170057296753
320.0,0.010678798891603947
352.0,0.006019738968461752
384.0,0.0011909237364307046
416.0,-0.0017795823514461517
448.0,8.641110616736114e-05
480.0,0.0012411903589963913
512.0,0.002076353644952178
576.0,0.002733421279117465
640.0,-0.000296954094665125
704.0,0.0009928821818903089
768.0,0.0053888424299657345
832.0,0.009097096510231495
896.0,0.008781013078987598
960.0,0.004164416808634996
1024.0,0.0010413187555968761
1152.0,-0.002871122444048524
1280.0,-0.0019185112323611975
1408.0,-0.007883463986217976
1536.0,-0.00615217350423336
1664.0,-0.00608964404091239
1792.0,-0.002869182964786887
1920.0,-0.013374634087085724
2048.0,-0.006752442568540573
2304.0,-0.004575480241328478
2560.0,0.001830119057558477
2816.0,0.0005535137024708092
3072.0,0.0026724510826170444
3328.0,-2.669784407771658e-05
3584.0,0.0021822242997586727
3840.0,-0.0011756669264286757
4096.0,-0.001880483701825142
4608.0,-0.008248857222497463
5120.0,-0.0049972874112427235
5632.0,-0.004860070999711752
6144.0,0.0023794828448444605
6656.0,0.003696811618283391
7168.0,-0.00022874496062286198
7680.0,0.003276003757491708
8192.0,-0.000943114806432277
end
