version,3.0
numOfCh,1
type,point
parent_name,34766_1dot0-0dot1
ch_type,1_1
kcount,1
numberNandB,1
brightnessNandB,1
carpet pos,0
pc,0
Time (ms),CH1 Auto-Correlation
1.0,0.08642812818288803
2.0,0.07972047477960587
3.0,0.07385626435279846
4.0,0.06888365745544434
5.0,0.06455589085817337
6.0,0.060760755091905594
7.0,0.05746311694383621
8.0,0.05458241328597069
9.0,0.052010297775268555
10.0,0.04964222013950348
11.0,0.0475677028298378
12.0,0.04574420675635338
13.0,0.04436242952942848
14.0,0.04295686259865761
15.0,0.041626617312431335
16.0,0.040481239557266235
18.0,0.03771891072392464
20.0,0.0354030579328537
22.0,0.03300141915678978
24.0,0.030773233622312546
26.0,0.028813211247324944
28.0,0.027789626270532608
30.0,0.027158647775650024
32.0,0.027082249522209167
36.0,0.026274966076016426
40.0,0.024543559178709984
44.0,0.022257348522543907
48.0,0.02056671492755413
52.0,0.01908530294895172
56.0,0.018459876999258995
60.0,0.017042433843016624
64.0,0.015356470830738544
72.0,0.013598119840025902
80.0,0.01255053374916315
88.0,0.009370476007461548
96.0,0.008662679232656956
104.0,0.008066738955676556
112.0,0.008388034999370575
120.0,0.008355317637324333
128.0,0.007211646530777216
144.0,0.003882350167259574
160.0,0.0044885436072945595
176.0,0.004868847783654928
192.0,0.004786721430718899
208.0,0.0042704432271420956
224.0,0.0027740069199353456
240.0,0.00304986210539937
256.0,0.0037997860927134752
288.0,0.006764241028577089
320.0,0.0066711800172924995
352.0,0.0073227062821388245
384.0,0.001993157435208559
416.0,0.0012664709938690066
448.0,0.000638904981315136
480.0,-0.000957414333242923
512.0,-0.0031053931452333927
576.0,-0.001998825231567025
640.0,0.0003081828763242811
704.0,-0.002595841186121106
768.0,0.00012154153228038922
832.0,0.003631973173469305
896.0,0.004215387161821127
960.0,0.0028100176714360714
1024.0,0.000799687288235873
1152.0,0.0018138894811272621
1280.0,-0.001136160222813487
1408.0,-0.005466086324304342
1536.0,-0.00656041270121932
1664.0,-0.005283375736325979
1792.0,-0.002139274962246418
1920.0,-0.004698058124631643
2048.0,-0.0042395456694066525
2304.0,-0.004682445432990789
2560.0,0.0028707068413496017
2816.0,3.4766606404446065e-05
3072.0,-0.0032032434828579426
3328.0,0.0006457734270952642
3584.0,0.004092729184776545
3840.0,-0.0027862051501870155
4096.0,-0.005981571041047573
4608.0,-0.0002466943406034261
5120.0,-0.0026758478488773108
5632.0,0.0024038879200816154
6144.0,3.951711187255569e-05
6656.0,-0.0018179856706410646
7168.0,7.246124732773751e-05
7680.0,-3.072098479606211e-05
8192.0,0.006671179085969925
end
