version,3.0
numOfCh,1
type,point
parent_name,34766_1dot0-0dot1
ch_type,1_1
kcount,1
numberNandB,1
brightnessNandB,1
carpet pos,0
pc,0
Time (ms),CH1 Auto-Correlation
1.0,0.24669227004051208
2.0,0.23817028105258942
3.0,0.23140177130699158
4.0,0.22555778920650482
5.0,0.21997101604938507
6.0,0.2149888128042221
7.0,0.2102920413017273
8.0,0.2057669460773468
9.0,0.2021387666463852
10.0,0.19851206243038177
11.0,0.19487644731998444
12.0,0.19099268317222595
13.0,0.18743452429771423
14.0,0.1841837763786316
15.0,0.18144908547401428
16.0,0.1779586523771286
18.0,0.17208978533744812
20.0,0.16713765263557434
22.0,0.16244924068450928
24.0,0.1570490151643753
26.0,0.15210065245628357
28.0,0.14811129868030548
30.0,0.14500842988491058
32.0,0.14244475960731506
36.0,0.13709656894207
40.0,0.1322401762008667
44.0,0.12706130743026733
48.0,0.1227744072675705
52.0,0.11833343654870987
56.0,0.11223738640546799
60.0,0.10645345598459244
64.0,0.10006842762231827
72.0,0.084609255194664
80.0,0.0726313441991806
88.0,0.06467197835445404
96.0,0.05661454424262047
104.0,0.05195914953947067
112.0,0.043643590062856674
120.0,0.03495866805315018
128.0,0.028876256197690964
144.0,0.01978394202888012
160.0,0.01859014853835106
176.0,0.014333640225231647
192.0,0.011639555916190147
208.0,0.011892877519130707
224.0,0.008407038636505604
240.0,0.00744730094447732
256.0,0.009959754534065723
288.0,0.009148813784122467
320.0,0.009444758296012878
352.0,0.014317291788756847
384.0,0.020297596231102943
416.0,0.020465051755309105
448.0,0.014844152145087719
480.0,0.009009318426251411
512.0,0.006438754498958588
576.0,0.01014905609190464
640.0,0.016315551474690437
704.0,0.006166230887174606
768.0,-0.004465214908123016
832.0,-0.007394934073090553
896.0,0.010716458782553673
960.0,0.029165765270590782
1024.0,0.02964905835688114
1152.0,-0.005316562484949827
1280.0,0.0038242319133132696
1408.0,-0.0007151989848352969
1536.0,-0.0025692631024867296
1664.0,0.01168746780604124
1792.0,0.006363130174577236
1920.0,0.00771046057343483
2048.0,0.008544317446649075
2304.0,0.006317455787211657
2560.0,0.006656372919678688
2816.0,-0.004555233754217625
3072.0,-0.0014823292149230838
3328.0,-0.003808307694271207
3584.0,0.004664129577577114
3840.0,0.005580006167292595
4096.0,-0.0022567794658243656
4608.0,-0.000984928454272449
5120.0,-0.006329544819891453
5632.0,0.0032348530367016792
6144.0,-0.006512715481221676
6656.0,-0.004994221031665802
7168.0,0.002979252254590392
7680.0,-0.003078398760408163
8192.0,-0.011505954898893833
end
