version,3.0
numOfCh,1
type,point
parent_name,34766_1dot0-0dot1
ch_type,1_1
kcount,1
numberNandB,1
brightnessNandB,1
carpet pos,0
pc,0
Time (ms),CH1 Auto-Correlation
1.0,0.09664544463157654
2.0,0.08963385969400406
3.0,0.08369996398687363
4.0,0.0786491259932518
5.0,0.07430794835090637
6.0,0.07058282196521759
7.0,0.06742499023675919
8.0,0.06441677361726761
9.0,0.06173121556639671
10.0,0.059254780411720276
11.0,0.05693813040852547
12.0,0.05449606478214264
13.0,0.05226270854473114
14.0,0.05022088810801506
15.0,0.04837273433804512
16.0,0.0466904379427433
18.0,0.04390481859445572
20.0,0.041010357439517975
22.0,0.03833218291401863
24.0,0.03596356138586998
26.0,0.03407426178455353
28.0,0.03260385990142822
30.0,0.031279560178518295
32.0,0.030278028920292854
36.0,0.029215727001428604
40.0,0.027740204706788063
44.0,0.02690465934574604
48.0,0.02574692852795124
52.0,0.02423345297574997
56.0,0.022565612569451332
60.0,0.021129310131072998
64.0,0.019846944138407707
72.0,0.016294389963150024
80.0,0.014005227014422417
88.0,0.013287810608744621
96.0,0.011335148476064205
104.0,0.010553991422057152
112.0,0.010335968807339668
120.0,0.00849443580955267
128.0,0.006952541880309582
144.0,0.007375056389719248
160.0,0.009082249365746975
176.0,0.008240627124905586
192.0,0.009048603475093842
208.0,0.010063610039651394
224.0,0.010743444785475731
240.0,0.012629919685423374
256.0,0.013566290028393269
288.0,0.011029787361621857
320.0,0.007509496062994003
352.0,0.00428469805046916
384.0,0.0026496429927647114
416.0,0.0013921790523454547
448.0,0.0029335785657167435
480.0,0.0040219249203801155
512.0,0.0017924954881891608
576.0,-0.0018756730714812875
640.0,-0.004669973161071539
704.0,-0.0038454493042081594
768.0,-0.004584397654980421
832.0,-0.005890639033168554
896.0,-0.0024653603322803974
960.0,0.0009438995621167123
1024.0,0.0003088320081587881
1152.0,0.000573191384319216
1280.0,-0.004737950395792723
1408.0,-0.002521331887692213
1536.0,-0.005182181019335985
1664.0,-0.00024142874462995678
1792.0,-0.0025093292351812124
1920.0,0.0005017663934268057
2048.0,0.001996089005842805
2304.0,0.005034161731600761
2560.0,0.0022060524206608534
2816.0,0.0025958337355405092
3072.0,-0.001666492666117847
3328.0,-0.009314779192209244
3584.0,-0.00822148285806179
3840.0,-0.002514756517484784
4096.0,0.007740047760307789
4608.0,0.0036989194341003895
5120.0,-0.0035101391840726137
5632.0,-0.0034484905190765858
6144.0,-0.005525260232388973
6656.0,0.008219165727496147
7168.0,0.0033760229125618935
7680.0,-0.011504784226417542
8192.0,-0.003345516510307789
end
