version,3.0
numOfCh,1
type,point
parent_name,484af_0dot6-0dot01
ch_type,1_1
kcount,1
numberNandB,1
brightnessNandB,1
carpet pos,0
pc,0
Time (ms),CH1 Auto-Correlation
1.0,0.022655507549643517
2.0,0.02158055081963539
3.0,0.02059129811823368
4.0,0.019693506881594658
5.0,0.018858423456549644
6.0,0.018070362508296967
7.0,0.017344173043966293
8.0,0.016694605350494385
9.0,0.016086969524621964
10.0,0.015531172044575214
11.0,0.015021431259810925
12.0,0.014568278566002846
13.0,0.014148719608783722
14.0,0.013741700910031796
15.0,0.013359293341636658
16.0,0.01295608188956976
18.0,0.012211121618747711
20.0,0.011518577113747597
22.0,0.010916585102677345
24.0,0.010361354798078537
26.0,0.009884110651910305
28.0,0.009416589513421059
30.0,0.008989313617348671
32.0,0.00861892756074667
36.0,0.00804266519844532
40.0,0.007572025991976261
44.0,0.007142549846321344
48.0,0.006774048786610365
52.0,0.00626599695533514
56.0,0.0056953998282551765
60.0,0.005069711711257696
64.0,0.0045534344390034676
72.0,0.0036933368537575006
80.0,0.0030576710123568773
88.0,0.0025446810759603977
96.0,0.002360975369811058
104.0,0.0021971322130411863
112.0,0.0019421428442001343
120.0,0.0015256449114531279
128.0,0.0012019667774438858
144.0,0.0009720069356262684
160.0,0.0007049960549920797
176.0,-0.0004276845429558307
192.0,-0.00041919038631021976
208.0,0.00010966017725877464
224.0,0.00022373486717697233
240.0,0.0001804523926693946
256.0,-5.582035009865649e-05
288.0,-0.00027808587765321136
320.0,-0.00027142028557136655
352.0,0.00023960469115991145
384.0,0.0004632180498447269
416.0,0.0004922960652038455
448.0,0.00018947733042296022
480.0,-9.315847273683175e-05
512.0,1.4965596164984163e-05
576.0,0.0012052751844748855
640.0,0.0009030239307321608
704.0,-0.00015805618022568524
768.0,0.0007608820451423526
832.0,0.0006670885486528277
896.0,0.000841913279145956
960.0,0.0013454557629302144
1024.0,0.0011452294420450926
1152.0,0.0016209569294005632
1280.0,-0.0004554245970211923
1408.0,-0.00019080271886195987
1536.0,0.0008130675414577127
1664.0,0.0005183155881240964
1792.0,-0.0010753391543403268
1920.0,-0.0010409218957647681
2048.0,0.0004636739904526621
2304.0,-0.00017641912563703954
2560.0,-5.196578422328457e-05
2816.0,-0.0019164759432896972
3072.0,-0.000985727645456791
3328.0,-0.00026285427156835794
3584.0,-0.0012939086882397532
3840.0,-0.002160509116947651
4096.0,5.470939140650444e-05
4608.0,-0.001542423153296113
5120.0,-0.00046436276170425117
5632.0,-0.0007456151070073247
6144.0,0.00011043771519325674
6656.0,0.0011662541655823588
7168.0,0.00040514772990718484
7680.0,0.0014484005514532328
8192.0,0.0011924486607313156
9216.0,0.00018466981418896466
10240.0,-5.046929800300859e-05
11264.0,-0.0007370758103206754
12288.0,-0.0010088866110891104
13312.0,-0.0003941080649383366
14336.0,0.0012887215707451105
end
