version,3.0
numOfCh,1
type,point
parent_name,484af_0dot6-0dot01
ch_type,1_1
kcount,1
numberNandB,1
brightnessNandB,1
carpet pos,0
pc,0
Time (ms),CH1 Auto-Correlation
1.0,0.02821480669081211
2.0,0.027134964242577553
3.0,0.026134615764021873
4.0,0.02524762600660324
5.0,0.024411553516983986
6.0,0.023634174838662148
7.0,0.022920330986380577
8.0,0.022284353151917458
9.0,0.0216605756431818
10.0,0.02113150805234909
11.0,0.020626375451683998
12.0,0.020145516842603683
13.0,0.019694702699780464
14.0,0.01925957202911377
15.0,0.018818143755197525
16.0,0.01838451251387596
18.0,0.017605289816856384
20.0,0.01681925356388092
22.0,0.01610582508146763
24.0,0.015425851568579674
26.0,0.014758273959159851
28.0,0.014022461138665676
30.0,0.013338243588805199
32.0,0.01271952223032713
36.0,0.011645924299955368
40.0,0.010657847858965397
44.0,0.009814801625907421
48.0,0.009174950420856476
52.0,0.00878316443413496
56.0,0.00831088237464428
60.0,0.007905002683401108
64.0,0.007699528243392706
72.0,0.007479340769350529
80.0,0.007388206664472818
88.0,0.007502098102122545
96.0,0.0077468655072152615
104.0,0.007921049371361732
112.0,0.008090605027973652
120.0,0.008367946371436119
128.0,0.00819176435470581
144.0,0.006905921269208193
160.0,0.005552488379180431
176.0,0.004363004118204117
192.0,0.003534050192683935
208.0,0.003326836507767439
224.0,0.003282581688836217
240.0,0.003517437493428588
256.0,0.0038655376993119717
288.0,0.003164647612720728
320.0,0.0007641076808795333
352.0,-0.0006029221112839878
384.0,0.001203113584779203
416.0,0.0007473269943147898
448.0,-0.0010352364042773843
480.0,-0.0014168648049235344
512.0,-0.0010935382451862097
576.0,0.0004456247261259705
640.0,0.0004182408156339079
704.0,-6.871295045129955e-05
768.0,-0.00010225345613434911
832.0,-0.0015377715462818742
896.0,-0.0016672435449436307
960.0,-0.0024853290524333715
1024.0,-0.0024670795537531376
1152.0,-0.002573584206402302
1280.0,-0.002196803456172347
1408.0,-0.002209977712482214
1536.0,-0.0027482209261506796
1664.0,-0.0041536022908985615
1792.0,-0.003761954139918089
1920.0,-0.003269901964813471
2048.0,-0.0010513709858059883
2304.0,-0.0001780786260496825
2560.0,0.0013872134732082486
2816.0,0.0029751756228506565
3072.0,0.0021609952673316
3328.0,0.003964354749768972
3584.0,0.0016973377205431461
3840.0,-0.0022492047864943743
4096.0,-0.0010049743577837944
4608.0,-0.0016870353138074279
5120.0,-0.0003283464175183326
5632.0,0.0018216586904600263
6144.0,0.002215863671153784
6656.0,-0.0004631727933883667
7168.0,-0.0015336275100708008
7680.0,0.0007888625259511173
8192.0,0.00041560258250683546
end
