version,3.0
numOfCh,1
type,point
parent_name,484af_0dot6-0dot01
ch_type,1_1
kcount,1
numberNandB,1
brightnessNandB,1
carpet pos,0
pc,0
Time (ms),CH1 Auto-Correlation
1.0,0.029170718044042587
2.0,0.028180720284581184
3.0,0.027259957045316696
4.0,0.02639063633978367
5.0,0.02559990994632244
6.0,0.024861548095941544
7.0,0.024169715121388435
8.0,0.023537764325737953
9.0,0.02294095605611801
10.0,0.02236800082027912
11.0,0.021792612969875336
12.0,0.021242933347821236
13.0,0.02072056569159031
14.0,0.02022543177008629
15.0,0.019745629280805588
16.0,0.01929067261517048
18.0,0.018498430028557777
20.0,0.017723120748996735
22.0,0.016984058544039726
24.0,0.01630939170718193
26.0,0.015676163136959076
28.0,0.015142209827899933
30.0,0.014659145846962929
32.0,0.014176983386278152
36.0,0.013303895480930805
40.0,0.012441973201930523
44.0,0.011670583859086037
48.0,0.01099170558154583
52.0,0.01036167237907648
56.0,0.00996120274066925
60.0,0.009926754049956799
64.0,0.00992219801992178
72.0,0.00947925541549921
80.0,0.008844017051160336
88.0,0.008266553282737732
96.0,0.007800600491464138
104.0,0.007127655670046806
112.0,0.006112984847277403
120.0,0.00537109887227416
128.0,0.004905687645077705
144.0,0.0047906432300806046
160.0,0.004439165815711021
176.0,0.003764993976801634
192.0,0.0034864291083067656
208.0,0.003994097467511892
224.0,0.004206780809909105
240.0,0.0036790305748581886
256.0,0.003446918912231922
288.0,0.0031029435340315104
320.0,0.002757068257778883
352.0,0.001940560876391828
384.0,0.0008149550994858146
416.0,0.0017498321831226349
448.0,0.0018973688129335642
480.0,0.0018866355530917645
512.0,0.002503018593415618
576.0,0.0026282239705324173
640.0,0.0028982344083487988
704.0,0.0023252679966390133
768.0,0.0016726540634408593
832.0,0.00038300329470075667
896.0,-0.0008863403927534819
960.0,-0.003108361503109336
1024.0,-0.0020215618424117565
1152.0,-0.002903494518250227
1280.0,-0.002009694231674075
1408.0,-0.0006470067310146987
1536.0,-0.0010364898480474949
1664.0,-0.0015614153817296028
1792.0,0.00023153130314312875
1920.0,-0.0008455294882878661
2048.0,-0.0006115788710303605
2304.0,0.00139518768992275
2560.0,-0.0008205145713873208
2816.0,-0.00460305018350482
3072.0,-0.0028877921868115664
3328.0,-0.004644624888896942
3584.0,-0.003384594339877367
3840.0,0.002254306571558118
4096.0,0.0012200977653265
end
