version,3.0
numOfCh,1
type,point
parent_name,484af_0dot6-0dot01
ch_type,1_1
kcount,1
numberNandB,1
brightnessNandB,1
carpet pos,0
pc,0
Time (ms),CH1 Auto-Correlation
1.0,0.021366871893405914
2.0,0.020248206332325935
3.0,0.01922495849430561
4.0,0.01828775554895401
5.0,0.017393281683325768
6.0,0.016575690358877182
7.0,0.015828637406229973
8.0,0.015136998146772385
9.0,0.014484457671642303
10.0,0.013892288319766521
11.0,0.013325734995305538
12.0,0.012782922945916653
13.0,0.012279963120818138
14.0,0.011827046982944012
15.0,0.011420277878642082
16.0,0.010988818481564522
18.0,0.01017839927226305
20.0,0.009471788071095943
22.0,0.008835054002702236
24.0,0.008258438669145107
26.0,0.007680857554078102
28.0,0.007180605083703995
30.0,0.006773374974727631
32.0,0.006495779380202293
36.0,0.006106679327785969
40.0,0.00560924643650651
44.0,0.005134579259902239
48.0,0.004614155739545822
52.0,0.004140973091125488
56.0,0.0037487749941647053
60.0,0.0035151359625160694
64.0,0.0033819349482655525
72.0,0.0028782507870346308
80.0,0.002196940826252103
88.0,0.0018158219754695892
96.0,0.0014833472669124603
104.0,0.0014039956731721759
112.0,0.0013592166360467672
120.0,0.0014272946864366531
128.0,0.00134389812592417
144.0,0.0013341824524104595
160.0,0.0016444806242361665
176.0,0.0017738854512572289
192.0,0.0021071122027933598
208.0,0.0018632618011906743
224.0,0.002031187526881695
240.0,0.0015078230062499642
256.0,0.0006038416759110987
288.0,0.0005758836050517857
320.0,0.0004257660184521228
352.0,0.0008672873955219984
384.0,0.0013644378632307053
416.0,0.0004044271190650761
448.0,0.0005152757512405515
480.0,0.0009606647654436529
512.0,0.0008319108164869249
576.0,-0.00040830328362062573
640.0,-0.0006577338790521026
704.0,-0.0005563344457186759
768.0,0.0005601824377663434
832.0,0.0007321388111449778
896.0,-0.0004319715080782771
960.0,-0.0001548020518384874
1024.0,0.0006015275721438229
1152.0,0.0012030944926664233
1280.0,0.0015109246596693993
1408.0,0.00025604083202779293
1536.0,0.0001785267231753096
1664.0,-0.0003832480579148978
1792.0,-5.755651363870129e-05
1920.0,-0.0007975322660058737
2048.0,-0.0001154576675617136
2304.0,-0.00041361161856912076
2560.0,-0.0009407528559677303
2816.0,-0.0005208830698393285
3072.0,-0.00010576623026281595
3328.0,0.00033222782076336443
3584.0,0.00023714904091320932
3840.0,-0.001011898391880095
4096.0,-0.0007762948516756296
4608.0,-0.00035776745062321424
5120.0,-0.00020056150970049202
5632.0,-0.00022948981495574117
6144.0,-0.0006024261238053441
6656.0,0.0012052567908540368
7168.0,-0.00011794350575655699
7680.0,-0.000450467923656106
8192.0,0.001264051184989512
end
