version,3.0
numOfCh,1
type,point
parent_name,484af_0dot6-0dot01
ch_type,1_1
kcount,1
numberNandB,1
brightnessNandB,1
carpet pos,0
pc,0
Time (ms),CH1 Auto-Correlation
1.0,0.02341737039387226
2.0,0.022258777171373367
3.0,0.021180128678679466
4.0,0.020222174003720284
5.0,0.01935356669127941
6.0,0.018577802926301956
7.0,0.017839407548308372
8.0,0.017211975529789925
9.0,0.01659357361495495
10.0,0.016018128022551537
11.0,0.015463070943951607
12.0,0.014925933443009853
13.0,0.014406860806047916
14.0,0.013945928774774075
15.0,0.013518040999770164
16.0,0.013130178675055504
18.0,0.012460723519325256
20.0,0.01188697386533022
22.0,0.01136024296283722
24.0,0.010897675529122353
26.0,0.010466660372912884
28.0,0.010113616473972797
30.0,0.009808856062591076
32.0,0.00957044679671526
36.0,0.009061182849109173
40.0,0.008402767591178417
44.0,0.007758266292512417
48.0,0.007204986177384853
52.0,0.006636972073465586
56.0,0.006303039845079184
60.0,0.006082378793507814
64.0,0.00583417434245348
72.0,0.005315790418535471
80.0,0.004910933319479227
88.0,0.004566785879433155
96.0,0.003956289030611515
104.0,0.003445788286626339
112.0,0.00341216754168272
120.0,0.003457946004346013
128.0,0.0032739914022386074
144.0,0.0026718629524111748
160.0,0.002834792947396636
176.0,0.003013425972312689
192.0,0.00315692531876266
208.0,0.0035416448954492807
224.0,0.0029091935139149427
240.0,0.002263738075271249
256.0,0.00236297445371747
288.0,0.0015959293814375997
320.0,0.001217828830704093
352.0,0.0015152102569118142
384.0,0.0012699939543381333
416.0,0.0003169892297592014
448.0,0.0008091370691545308
480.0,0.0011352038709446788
512.0,-0.00023363593209069222
576.0,-7.141219975892454e-05
640.0,0.0006576765445061028
704.0,0.0009575472795404494
768.0,0.0002522358554415405
832.0,4.576469291350804e-05
896.0,-0.0007914411253295839
960.0,-0.0011907238513231277
1024.0,-0.0007954076863825321
1152.0,-8.370061550522223e-05
1280.0,-0.00011411536979721859
1408.0,-0.0013904195511713624
1536.0,-0.00037671360769309103
1664.0,-0.0015001429710537195
1792.0,-0.001120418426580727
1920.0,-0.001522678998298943
2048.0,-0.0013662014389410615
2304.0,-1.583961784490384e-05
2560.0,0.0007748281350359321
2816.0,0.0025502596981823444
3072.0,0.002091040601953864
3328.0,0.0009422210860066116
3584.0,-0.0004181443655397743
3840.0,0.0004325605113990605
4096.0,0.0005894298083148897
4608.0,-0.00010229492909274995
5120.0,-0.00022869845270179212
5632.0,-0.0006684428080916405
6144.0,-0.0008236787398345768
6656.0,-0.0023669986985623837
7168.0,0.0003755781799554825
7680.0,0.0008842682582326233
8192.0,0.0012772723566740751
end
