version,3.0
numOfCh,1
type,point
parent_name,484af_0dot6-0dot01
ch_type,1_1
kcount,1
numberNandB,1
brightnessNandB,1
carpet pos,0
pc,0
Time (ms),CH1 Auto-Correlation
1.0,0.03723942115902901
2.0,0.036151692271232605
3.0,0.035191308706998825
4.0,0.034323856234550476
5.0,0.033512815833091736
6.0,0.0327615886926651
7.0,0.032021693885326385
8.0,0.03130292519927025
9.0,0.030662402510643005
10.0,0.030031559988856316
11.0,0.02948145940899849
12.0,0.028970832005143166
13.0,0.028486374765634537
14.0,0.028032835572957993
15.0,0.027581864967942238
16.0,0.027164073660969734
18.0,0.026357654482126236
20.0,0.025628000497817993
22.0,0.024930676445364952
24.0,0.02430533431470394
26.0,0.02377023547887802
28.0,0.023277513682842255
30.0,0.02277703769505024
32.0,0.022294696420431137
36.0,0.021455585956573486
40.0,0.020679078996181488
44.0,0.020073765888810158
48.0,0.01957884430885315
52.0,0.01906644180417061
56.0,0.01861654222011566
60.0,0.01825646124780178
64.0,0.017742183059453964
72.0,0.01641589216887951
80.0,0.015089967288076878
88.0,0.014033985324203968
96.0,0.01303864736109972
104.0,0.012417236343026161
112.0,0.011734668165445328
120.0,0.011271106079220772
128.0,0.01086354535073042
144.0,0.009848986752331257
160.0,0.008867600932717323
176.0,0.008580452762544155
192.0,0.007921603508293629
208.0,0.006959682330489159
224.0,0.006383710075169802
240.0,0.0061796545051038265
256.0,0.006268990691751242
288.0,0.005250756628811359
320.0,0.004859685432165861
352.0,0.004106564912945032
384.0,0.0032088749576359987
416.0,0.0021243984811007977
448.0,0.0017081127734854817
480.0,0.0010400140890851617
512.0,0.0005638133152388036
576.0,-0.0004930314025841653
640.0,-0.0016317570116370916
704.0,-0.002798669505864382
768.0,-0.003268621163442731
832.0,-0.0018547328654676676
896.0,-0.0026188893243670464
960.0,-0.0011815876932814717
1024.0,-0.0012908620992675424
1152.0,-0.0006173583678901196
1280.0,-0.0012375101214274764
1408.0,0.0026865897234529257
1536.0,0.006326091010123491
1664.0,0.004220396280288696
1792.0,0.002056363970041275
1920.0,-0.0002882574044633657
2048.0,6.502338510472327e-05
2304.0,-0.002747482154518366
2560.0,-0.0031470467802137136
2816.0,-0.0023902126122266054
3072.0,-0.004434367176145315
3328.0,-0.005431575700640678
3584.0,-0.005435780622065067
3840.0,-0.006089931819587946
4096.0,-0.0047709583304822445
4608.0,-0.0001873249711934477
5120.0,-0.001946960692293942
5632.0,0.0005707643576897681
6144.0,0.0044718352146446705
6656.0,0.003369733225554228
7168.0,0.005106834694743156
7680.0,0.0020805099047720432
8192.0,-0.0021506971679627895
end
