version,3.0
numOfCh,1
type,point
parent_name,484af_0dot6-0dot01
ch_type,1_1
kcount,1
numberNandB,1
brightnessNandB,1
carpet pos,0
pc,0
Time (ms),CH1 Auto-Correlation
1.0,0.03908446058630943
2.0,0.037938062101602554
3.0,0.03689911961555481
4.0,0.03595530241727829
5.0,0.03505373373627663
6.0,0.03423009440302849
7.0,0.0334363654255867
8.0,0.03272361308336258
9.0,0.032063089311122894
10.0,0.03145414590835571
11.0,0.03086664341390133
12.0,0.030337784439325333
13.0,0.029866520315408707
14.0,0.029451046139001846
15.0,0.02903071977198124
16.0,0.028641123324632645
18.0,0.02791430987417698
20.0,0.027173936367034912
22.0,0.026454247534275055
24.0,0.025769906118512154
26.0,0.025122445076704025
28.0,0.024547569453716278
30.0,0.023987889289855957
32.0,0.023442761972546577
36.0,0.02248356305062771
40.0,0.0216970331966877
44.0,0.02097935974597931
48.0,0.020257696509361267
52.0,0.019737426191568375
56.0,0.01927473396062851
60.0,0.018800782039761543
64.0,0.01843075267970562
72.0,0.017708750441670418
80.0,0.017075778916478157
88.0,0.016417570412158966
96.0,0.01591181755065918
104.0,0.015507406555116177
112.0,0.015114696696400642
120.0,0.014654762111604214
128.0,0.014117207378149033
144.0,0.013440540991723537
160.0,0.012513285502791405
176.0,0.010996140539646149
192.0,0.0090977493673563
208.0,0.00800713337957859
224.0,0.0076301125809550285
240.0,0.007879958488047123
256.0,0.008238562382757664
288.0,0.00858858972787857
320.0,0.00893660169094801
352.0,0.00855210516601801
384.0,0.009294118732213974
416.0,0.011258997023105621
448.0,0.010656715370714664
480.0,0.00944895576685667
512.0,0.010081150569021702
576.0,0.008896928280591965
640.0,0.007528601214289665
704.0,0.006360562052577734
768.0,0.004666120745241642
832.0,0.00495627336204052
896.0,0.004473518580198288
960.0,0.004708039108663797
1024.0,0.004118803888559341
1152.0,0.001833688234910369
1280.0,0.0028893216513097286
1408.0,-3.788501999224536e-05
1536.0,-0.003052431857213378
1664.0,-0.000718620081897825
1792.0,0.000836237973999232
1920.0,0.00012387851893436164
2048.0,-0.0031107307877391577
2304.0,0.0004599008825607598
2560.0,0.0013315485557541251
2816.0,0.0005270957481116056
3072.0,-0.0006392291397787631
3328.0,-0.00010468437540112063
3584.0,-0.0009150388650596142
3840.0,-0.0028424710035324097
4096.0,-0.0031066446099430323
4608.0,-0.0011024709092453122
5120.0,-0.0025393671821802855
5632.0,-0.0031777098774909973
6144.0,-0.003706360701471567
6656.0,-0.0013811229728162289
7168.0,0.0007411114638671279
7680.0,0.0032310402020812035
8192.0,-0.00045612978283315897
end
