version,3.0
numOfCh,1
type,point
parent_name,484af_0dot6-0dot01
ch_type,1_1
kcount,1
numberNandB,1
brightnessNandB,1
carpet pos,0
pc,0
Time (ms),CH1 Auto-Correlation
1.0,0.05378182977437973
2.0,0.05269918590784073
3.0,0.05166912451386452
4.0,0.050750866532325745
5.0,0.04986700043082237
6.0,0.04904266446828842
7.0,0.04828009754419327
8.0,0.047550249844789505
9.0,0.04684394970536232
10.0,0.0461440272629261
11.0,0.04548506438732147
12.0,0.04486033692955971
13.0,0.04423945024609566
14.0,0.04365447163581848
15.0,0.04309610649943352
16.0,0.04259302839636803
18.0,0.0417422391474247
20.0,0.04090424254536629
22.0,0.040102675557136536
24.0,0.03927869349718094
26.0,0.03848607838153839
28.0,0.03764808177947998
30.0,0.03683421388268471
32.0,0.036099743098020554
36.0,0.034782350063323975
40.0,0.0336727537214756
44.0,0.03261420130729675
48.0,0.03170453757047653
52.0,0.030816003680229187
56.0,0.02979189343750477
60.0,0.028814297169446945
64.0,0.027827322483062744
72.0,0.025987809523940086
80.0,0.024627404287457466
88.0,0.023468375205993652
96.0,0.02194897271692753
104.0,0.02049950323998928
112.0,0.019123893231153488
120.0,0.018284346908330917
128.0,0.017391150817275047
144.0,0.015713665634393692
160.0,0.014937440864741802
176.0,0.014231566339731216
192.0,0.01335351075977087
208.0,0.012204411439597607
224.0,0.01097794808447361
240.0,0.010357300750911236
256.0,0.009994085878133774
288.0,0.010272003710269928
320.0,0.009154093451797962
352.0,0.007794944103807211
384.0,0.0053434525616467
416.0,0.0034518823958933353
448.0,0.0027179322205483913
480.0,0.0014563255244866014
512.0,0.00023520342074334621
576.0,-0.0007813067059032619
640.0,-0.001497278455644846
704.0,-0.0031864086631685495
768.0,-0.002626535715535283
832.0,-0.003047056496143341
896.0,-0.0024974679108709097
960.0,-0.0014442680403590202
1024.0,-0.003184169763699174
1152.0,-0.0021866702008992434
1280.0,-0.0012976115103811026
1408.0,-0.0018334174528717995
1536.0,-0.005124650429934263
1664.0,-0.004195508547127247
1792.0,-0.001624184544198215
1920.0,-0.0005356271867640316
2048.0,-0.0001681560097495094
2304.0,-0.0016312474617734551
2560.0,-0.0020583232399076223
2816.0,-0.0037957467138767242
3072.0,-0.005649029277265072
3328.0,0.000181006413185969
3584.0,0.00452936626970768
3840.0,0.009660715237259865
4096.0,0.007518357131630182
4608.0,-0.00611543096601963
5120.0,-0.004538971930742264
5632.0,-0.0002917830424848944
6144.0,0.001010968815535307
6656.0,0.017339061945676804
7168.0,-0.0018122268375009298
7680.0,0.00617086561396718
8192.0,-0.03423796221613884
end
