version,3.0
numOfCh,1
type,point
parent_name,484af_0dot6-0dot01
ch_type,1_1
kcount,1
numberNandB,1
brightnessNandB,1
carpet pos,0
pc,0
Time (ms),CH1 Auto-Correlation
1.0,0.023032015189528465
2.0,0.021904516965150833
3.0,0.020832106471061707
4.0,0.01982882432639599
5.0,0.01890876516699791
6.0,0.018049459904432297
7.0,0.017285337671637535
8.0,0.0165951419621706
9.0,0.015981609001755714
10.0,0.015423712320625782
11.0,0.014883137308061123
12.0,0.014350087381899357
13.0,0.013836526311933994
14.0,0.013328869827091694
15.0,0.01287837140262127
16.0,0.012461241334676743
18.0,0.01167747750878334
20.0,0.01097725797444582
22.0,0.01028744038194418
24.0,0.00966467335820198
26.0,0.009067349135875702
28.0,0.008533846586942673
30.0,0.008135411888360977
32.0,0.007788798306137323
36.0,0.007253841031342745
40.0,0.006850335281342268
44.0,0.006412954535335302
48.0,0.006094550713896751
52.0,0.005733434576541185
56.0,0.005422491580247879
60.0,0.005070971325039864
64.0,0.004713428672403097
72.0,0.003944425843656063
80.0,0.0034734311047941446
88.0,0.002777702175080776
96.0,0.0021005410235375166
104.0,0.002158005954697728
112.0,0.0022926940582692623
120.0,0.0023907951544970274
128.0,0.002290291478857398
144.0,0.0017529018223285675
160.0,0.001994570717215538
176.0,0.002354621421545744
192.0,0.002570532262325287
208.0,0.0026332708075642586
224.0,0.0022394326515495777
240.0,0.0015652518486604095
256.0,0.0011793628800660372
288.0,0.0005885541322641075
320.0,0.0005780279170721769
352.0,0.0011831448646262288
384.0,0.0012107169022783637
416.0,0.0013114054454490542
448.0,0.0013316242257133126
480.0,0.0010227843886241317
512.0,0.0005382082308642566
576.0,0.0006269178702495992
640.0,-0.0007168355514295399
704.0,-0.000720046111382544
768.0,-0.001545612351037562
832.0,-0.002080437494441867
896.0,-0.001323114731349051
960.0,-0.0017945533618330956
1024.0,-0.0031756055541336536
1152.0,-0.0015950566157698631
1280.0,-0.0014640340814366937
1408.0,-0.0006244696560315788
1536.0,-0.0025239659007638693
1664.0,-0.000243990623857826
1792.0,0.00039977446431294084
1920.0,0.0006013482925482094
2048.0,8.849120058584958e-05
2304.0,0.0012289894511923194
2560.0,0.00042303308146074414
2816.0,-0.0010502844816073775
3072.0,-0.00017139715782832354
3328.0,-0.0007164015551097691
3584.0,-0.00021280598593875766
3840.0,-0.00042735273018479347
4096.0,-0.00017985858721658587
4608.0,0.0006788328173570335
5120.0,-6.781994306948036e-05
5632.0,-0.00013998847862239927
6144.0,4.6029417717363685e-05
6656.0,-0.0002312260476173833
7168.0,0.0008258140296675265
7680.0,0.000793675659224391
8192.0,-0.0016068939585238695
9216.0,0.000528703851159662
10240.0,-0.000680876022670418
11264.0,0.0013292123330757022
12288.0,-0.0023457997012883425
13312.0,0.0022580281365662813
14336.0,-0.0023988268803805113
end
