version,3.0
numOfCh,1
type,point
parent_name,484af_0dot6-0dot01
ch_type,1_1
kcount,1
numberNandB,1
brightnessNandB,1
carpet pos,0
pc,0
Time (ms),CH1 Auto-Correlation
1.0,0.025400986894965172
2.0,0.024244269356131554
3.0,0.023183368146419525
4.0,0.02220541052520275
5.0,0.02130022831261158
6.0,0.020472977310419083
7.0,0.01969081722199917
8.0,0.018983028829097748
9.0,0.018347926437854767
10.0,0.017784753814339638
11.0,0.017211195081472397
12.0,0.016705334186553955
13.0,0.01623648777604103
14.0,0.01580432802438736
15.0,0.015394696034491062
16.0,0.015008511953055859
18.0,0.014251353219151497
20.0,0.013499913737177849
22.0,0.0128024872392416
24.0,0.012188946828246117
26.0,0.011705281212925911
28.0,0.011342997662723064
30.0,0.010962960310280323
32.0,0.010572949424386024
36.0,0.00989655964076519
40.0,0.009332753717899323
44.0,0.008792783133685589
48.0,0.008123624138534069
52.0,0.0075330110266804695
56.0,0.007067011669278145
60.0,0.006739282514899969
64.0,0.006390087306499481
72.0,0.005884884390980005
80.0,0.005282548721879721
88.0,0.004330089315772057
96.0,0.0038839830085635185
104.0,0.0036963587626814842
112.0,0.003964257892221212
120.0,0.004491065628826618
128.0,0.004874291829764843
144.0,0.00513255363330245
160.0,0.005732372868806124
176.0,0.005214621778577566
192.0,0.004278525244444609
208.0,0.0037914030253887177
224.0,0.0034897157456725836
240.0,0.002786829834803939
256.0,0.002486669924110174
288.0,0.003121038665995002
320.0,0.0027889565099030733
352.0,0.0027754982002079487
384.0,0.0026035825721919537
416.0,0.002022618195042014
448.0,0.0018566891085356474
480.0,0.0017171556828543544
512.0,0.001402046182192862
576.0,-0.00020836926705669612
640.0,-0.001287085935473442
704.0,-0.0007201776024885476
768.0,-0.0009657902410253882
832.0,-0.002190956147387624
896.0,-0.0026615913957357407
960.0,-0.0024132472462952137
1024.0,-0.0024997852742671967
1152.0,-0.0010742838494479656
1280.0,-0.0004379953315947205
1408.0,-0.0004978028009645641
1536.0,-0.00043088803067803383
1664.0,-0.00020221105660311878
1792.0,0.0004391120746731758
1920.0,-0.00106263835914433
2048.0,-0.0033374307677149773
2304.0,-0.002616266719996929
2560.0,-0.0019691609777510166
2816.0,0.000442573829786852
3072.0,0.0014559041010215878
3328.0,0.0024083286989480257
3584.0,0.0013155288761481643
3840.0,0.0008579664281569421
4096.0,0.0008924013236537576
4608.0,-8.566610631532967e-05
5120.0,-0.0023999111726880074
5632.0,-0.0019730289932340384
6144.0,0.00039363725227303803
6656.0,0.0012023334857076406
7168.0,0.0027164374478161335
7680.0,0.0005499171675182879
8192.0,-0.0013461940689012408
end
