version,3.0
numOfCh,1
type,point
parent_name,484af_0dot6-0dot01
ch_type,1_1
kcount,1
numberNandB,1
brightnessNandB,1
carpet pos,0
pc,0
Time (ms),CH1 Auto-Correlation
1.0,0.021264689043164253
2.0,0.020184937864542007
3.0,0.019181987270712852
4.0,0.01831585168838501
5.0,0.01753191649913788
6.0,0.016755815595388412
7.0,0.016057897359132767
8.0,0.015433847904205322
9.0,0.014879755675792694
10.0,0.014360165223479271
11.0,0.013835271820425987
12.0,0.01333531178534031
13.0,0.012852181680500507
14.0,0.012418930418789387
15.0,0.012022146955132484
16.0,0.011648529209196568
18.0,0.010903746820986271
20.0,0.0102600809186697
22.0,0.009685379453003407
24.0,0.009143427945673466
26.0,0.008618423715233803
28.0,0.008154621347784996
30.0,0.007750222459435463
32.0,0.007355391047894955
36.0,0.00666825333610177
40.0,0.006057940423488617
44.0,0.005702281836420298
48.0,0.005442100577056408
52.0,0.0051024253480136395
56.0,0.0045848446898162365
60.0,0.004185780882835388
64.0,0.003936358727514744
72.0,0.0036567901261150837
80.0,0.0036178193986415863
88.0,0.003491243813186884
96.0,0.0033165907952934504
104.0,0.0027291474398225546
112.0,0.0020964080467820168
120.0,0.0017131287604570389
128.0,0.0015105720376595855
144.0,0.001313739805482328
160.0,0.0006259165820665658
176.0,-0.0003227066481485963
192.0,-0.0013180767418816686
208.0,-0.002017486374825239
224.0,-0.002316791797056794
240.0,-0.0021237004548311234
256.0,-0.002031977055594325
288.0,-0.0020839564967900515
320.0,-0.0025499281473457813
352.0,-0.0023076962679624557
384.0,-0.002063635503873229
416.0,-0.0006227453122846782
448.0,-0.0005536456592381
480.0,-0.00040680848178453743
512.0,-0.0004974706098437309
576.0,0.00014526267477776855
640.0,0.0013547003036364913
704.0,0.0010948103154078126
768.0,0.0011418391950428486
832.0,0.0005425333511084318
896.0,0.0006350649055093527
960.0,-1.4526338418363594e-05
1024.0,0.00010221745469607413
1152.0,-0.00023341465566772968
1280.0,-0.0009134788997471333
1408.0,-0.0013421912444755435
1536.0,0.0005187451606616378
1664.0,0.00028290340560488403
1792.0,-0.0006121133919805288
1920.0,0.00014648906653746963
2048.0,-0.0008967004832811654
2304.0,-0.0006403445149771869
2560.0,0.0006255270563997328
2816.0,-0.0005111393984407187
3072.0,0.00014958824613131583
3328.0,-0.00039597327122464776
3584.0,-0.0007646519225090742
3840.0,0.000156193898874335
4096.0,6.1781560361851e-05
4608.0,-0.00040473989793099463
5120.0,0.0003639541391748935
5632.0,-2.586532718851231e-05
6144.0,0.0006374784279614687
6656.0,0.0005076155066490173
7168.0,-0.00019941704522352666
7680.0,0.0002643779444042593
8192.0,-0.0002810255391523242
end
