version,3.0
numOfCh,1
type,point
parent_name,484af_0dot6-0dot01
ch_type,1_1
kcount,1
numberNandB,1
brightnessNandB,1
carpet pos,0
pc,0
Time (ms),CH1 Auto-Correlation
1.0,0.03476392850279808
2.0,0.03368794918060303
3.0,0.032712165266275406
4.0,0.03175651654601097
5.0,0.030923694372177124
6.0,0.030139045789837837
7.0,0.029413729906082153
8.0,0.028752056881785393
9.0,0.028147799894213676
10.0,0.02762051299214363
11.0,0.027118852362036705
12.0,0.02667657844722271
13.0,0.02622109465301037
14.0,0.02576647885143757
15.0,0.02535824477672577
16.0,0.02495739236474037
18.0,0.02411693148314953
20.0,0.023363618180155754
22.0,0.02277289144694805
24.0,0.022221887484192848
26.0,0.021732497960329056
28.0,0.02133863978087902
30.0,0.020916499197483063
32.0,0.02047126367688179
36.0,0.01940312422811985
40.0,0.018387898802757263
44.0,0.017453281208872795
48.0,0.016591766849160194
52.0,0.016047801822423935
56.0,0.015659179538488388
60.0,0.01510739978402853
64.0,0.014356127940118313
72.0,0.013406630605459213
80.0,0.013114148750901222
88.0,0.013385569676756859
96.0,0.013569248840212822
104.0,0.013550931587815285
112.0,0.013467613607645035
120.0,0.012613622471690178
128.0,0.01151559129357338
144.0,0.009709703736007214
160.0,0.008072460070252419
176.0,0.006969823502004147
192.0,0.006444341968744993
208.0,0.006675564218312502
224.0,0.0069367834366858006
240.0,0.007435536943376064
256.0,0.006566859781742096
288.0,0.005686777178198099
320.0,0.006628270726650953
352.0,0.006283200345933437
384.0,0.004780597519129515
416.0,0.00440881447866559
448.0,0.0032475360203534365
480.0,0.002172098495066166
512.0,0.003117550164461136
576.0,0.0040710256434977055
640.0,0.006230968050658703
704.0,0.004766686353832483
768.0,0.004697361495345831
832.0,0.002896626014262438
896.0,0.0029536897782236338
960.0,0.0030636596493422985
1024.0,0.004402917809784412
1152.0,0.004031997639685869
1280.0,0.0016453972784802318
1408.0,-0.0010507283732295036
1536.0,-0.002447667997330427
1664.0,-0.00025433787959627807
1792.0,0.0005361029179766774
1920.0,0.0017631263472139835
2048.0,0.00055859045824036
2304.0,-0.0011466214200481772
2560.0,-0.004839155822992325
2816.0,-0.009063486941158772
3072.0,-0.006777877453714609
3328.0,-0.006663728971034288
3584.0,-0.008152994327247143
3840.0,-0.009904867969453335
4096.0,-0.004793643951416016
4608.0,-0.0028520338237285614
5120.0,-0.0008838616777211428
5632.0,0.004640060942620039
6144.0,0.005697003565728664
6656.0,0.00487772049382329
7168.0,0.002691082889214158
end
