version,3.0
numOfCh,1
type,point
parent_name,484af_0dot6-0dot01
ch_type,1_1
kcount,1
numberNandB,1
brightnessNandB,1
carpet pos,0
pc,0
Time (ms),CH1 Auto-Correlation
1.0,0.02475125901401043
2.0,0.0236541535705328
3.0,0.02266528271138668
4.0,0.021739749237895012
5.0,0.020904673263430595
6.0,0.0201511699706316
7.0,0.019429592415690422
8.0,0.018751824274659157
9.0,0.01813618093729019
10.0,0.01759798265993595
11.0,0.017091792076826096
12.0,0.016627879813313484
13.0,0.016175244003534317
14.0,0.015781760215759277
15.0,0.015372274443507195
16.0,0.015005592256784439
18.0,0.014329659752547741
20.0,0.013710630126297474
22.0,0.013127226382493973
24.0,0.012624074704945087
26.0,0.01208980567753315
28.0,0.011547991074621677
30.0,0.01106275711208582
32.0,0.010631558485329151
36.0,0.009932947345077991
40.0,0.009321285411715508
44.0,0.008813495747745037
48.0,0.008286443538963795
52.0,0.007862496189773083
56.0,0.007450475823134184
60.0,0.007074671797454357
64.0,0.006755944341421127
72.0,0.006410726346075535
80.0,0.005646354518830776
88.0,0.004646118264645338
96.0,0.004066666588187218
104.0,0.0034572104923427105
112.0,0.002884215908125043
120.0,0.002523471135646105
128.0,0.0023220840375870466
144.0,0.0022211105097085238
160.0,0.0017235234845429659
176.0,0.001217916957102716
192.0,0.0018044596072286367
208.0,0.0020879877265542746
224.0,0.002216181019321084
240.0,0.0023665495682507753
256.0,0.002549085533246398
288.0,0.0022465181536972523
320.0,0.0007611046312376857
352.0,-0.00045516007230617106
384.0,-0.000940668280236423
416.0,-0.000870118907187134
448.0,-8.051923032326158e-06
480.0,0.00019948220869991928
512.0,0.0005757769686169922
576.0,-0.0010104818502441049
640.0,-0.0013529282296076417
704.0,-0.0001120089873438701
768.0,0.00033474754309281707
832.0,-0.0019137196941301227
896.0,-0.003371161874383688
960.0,-0.001953179482370615
1024.0,-0.0019236643565818667
1152.0,0.0004339544102549553
1280.0,0.0009473773534409702
1408.0,-0.00023729633539915085
1536.0,-0.000309964147163555
1664.0,-0.0007926477119326591
1792.0,0.0008021433604881167
1920.0,0.0007753320969641209
2048.0,0.0015635594027116895
2304.0,0.0001748112408677116
2560.0,-0.00046030370867811143
2816.0,-0.00147532531991601
3072.0,-0.0016809526132419705
3328.0,-0.0007424544892273843
3584.0,-0.0010219725081697106
3840.0,0.0006983766797930002
4096.0,-0.00034668826265260577
4608.0,-4.6174311137292534e-05
5120.0,-0.0004005686496384442
5632.0,0.00036638599704019725
6144.0,0.0019513060105964541
6656.0,0.00014914975326973945
7168.0,-0.00017824844690039754
7680.0,-0.00015091245586518198
8192.0,0.0001798256707843393
end
