version,3.0
numOfCh,1
type,point
parent_name,484af_0dot6-0dot01
ch_type,1_1
kcount,1
numberNandB,1
brightnessNandB,1
carpet pos,0
pc,0
Time (ms),CH1 Auto-Correlation
1.0,0.09766032546758652
2.0,0.0957566499710083
3.0,0.09390489757061005
4.0,0.09215584397315979
5.0,0.0904683992266655
6.0,0.08887790888547897
7.0,0.087351955473423
8.0,0.08578423410654068
9.0,0.0842299535870552
10.0,0.08275891840457916
11.0,0.08136707544326782
12.0,0.07998991012573242
13.0,0.07873690128326416
14.0,0.07755285501480103
15.0,0.0763421505689621
16.0,0.07530610263347626
18.0,0.0735228881239891
20.0,0.07177414745092392
22.0,0.0701504498720169
24.0,0.06865910440683365
26.0,0.06730490922927856
28.0,0.06592179089784622
30.0,0.06455997377634048
32.0,0.0631541907787323
36.0,0.05902436748147011
40.0,0.05584370717406273
44.0,0.053083404898643494
48.0,0.05040418729186058
52.0,0.047863882035017014
56.0,0.04533155634999275
60.0,0.042966753244400024
64.0,0.04090249165892601
72.0,0.03638213127851486
80.0,0.03160599619150162
88.0,0.027137193828821182
96.0,0.021838730201125145
104.0,0.0170602910220623
112.0,0.014105180278420448
120.0,0.00978895928710699
128.0,0.00497592706233263
144.0,0.003462273860350251
160.0,0.0036145809572190046
176.0,0.004173332825303078
192.0,0.0038848179392516613
208.0,0.004435832612216473
224.0,0.004063979722559452
240.0,0.00337549508549273
256.0,0.0022106515243649483
288.0,0.0008201570599339902
320.0,0.00021999358432367444
352.0,-0.0003729343879967928
384.0,0.0015332383336499333
416.0,0.0026834197342395782
448.0,0.003265881212428212
480.0,0.004804063122719526
512.0,0.0048726871609687805
576.0,0.006070065777748823
640.0,0.003490145318210125
704.0,-0.0004638590617105365
768.0,0.0037204762920737267
832.0,0.0019961122889071703
896.0,-0.0004734568065032363
960.0,0.0026484550908207893
1024.0,0.004766435362398624
1152.0,0.00042037133243866265
1280.0,0.00040854443795979023
1408.0,0.002103956649079919
1536.0,0.0025250916369259357
1664.0,0.0009666612022556365
1792.0,-0.0011424076510593295
1920.0,0.0007218263344839215
2048.0,0.0001401348563376814
2304.0,0.000977422227151692
2560.0,-0.0007158055086620152
2816.0,-0.0006318956729955971
3072.0,-0.000849799020215869
3328.0,0.0006537079461850226
3584.0,0.0005252663977444172
3840.0,-0.00028224909328855574
4096.0,-0.0007632684428244829
4608.0,-0.0027513899840414524
5120.0,-0.0020556978415697813
5632.0,-0.0004997267969883978
6144.0,-0.004182801581919193
6656.0,0.0026862304657697678
7168.0,0.0012919774744659662
7680.0,0.0037207130808383226
8192.0,-0.0036877193488180637
end
