version,3.0
numOfCh,1
type,point
parent_name,484af_0dot6-0dot01
ch_type,1_1
kcount,1
numberNandB,1
brightnessNandB,1
carpet pos,0
pc,0
Time (ms),CH1 Auto-Correlation
1.0,0.024188514798879623
2.0,0.023020345717668533
3.0,0.0220001470297575
4.0,0.02107313647866249
5.0,0.0202235896140337
6.0,0.019455023109912872
7.0,0.018740443512797356
8.0,0.018069962039589882
9.0,0.017464103177189827
10.0,0.016904057934880257
11.0,0.016370998695492744
12.0,0.015863949432969093
13.0,0.01538341399282217
14.0,0.014888204634189606
15.0,0.014446797780692577
16.0,0.014013802632689476
18.0,0.013242659159004688
20.0,0.01256922259926796
22.0,0.011970927007496357
24.0,0.011406353674829006
26.0,0.010891924612224102
28.0,0.010451783426105976
30.0,0.010078036226332188
32.0,0.00974004715681076
36.0,0.009102541022002697
40.0,0.008503851480782032
44.0,0.007884942926466465
48.0,0.0072868382558226585
52.0,0.006656375247985125
56.0,0.006089077331125736
60.0,0.005621987394988537
64.0,0.005236957687884569
72.0,0.004703383427113295
80.0,0.004427670035511255
88.0,0.003990009427070618
96.0,0.003550196997821331
104.0,0.0031607782002538443
112.0,0.0028193339239805937
120.0,0.0026968077290803194
128.0,0.002552870661020279
144.0,0.002099632751196623
160.0,0.001595075591467321
176.0,0.0017857274506241083
192.0,0.002019193721935153
208.0,0.0023528693709522486
224.0,0.0026021383237093687
240.0,0.0024963654577732086
256.0,0.0023309863172471523
288.0,0.0027103719767183065
320.0,0.0023126238957047462
352.0,0.002218456007540226
384.0,0.001963946269825101
416.0,0.002426355378702283
448.0,0.0021150282118469477
480.0,0.00145864044316113
512.0,0.0010339617729187012
576.0,-0.0002949679037556052
640.0,-0.00032085744896903634
704.0,-0.0003403649025131017
768.0,-0.0005824604886583984
832.0,0.0006817765533924103
896.0,0.000929895555600524
960.0,-7.864758663345128e-05
1024.0,-0.0007113426690921187
1152.0,-0.0013670068001374602
1280.0,-0.0014283849159255624
1408.0,-0.002131159882992506
1536.0,-0.00151149183511734
1664.0,-0.0017627370543777943
1792.0,-0.002028736285865307
1920.0,-0.0011795202735811472
2048.0,0.000579510407987982
2304.0,-0.00015688275743741542
2560.0,0.00033384980633854866
2816.0,0.0007460616761818528
3072.0,0.0009295645286329091
3328.0,0.0010097183985635638
3584.0,-0.00021358228696044534
3840.0,0.0008889271412044764
4096.0,0.0015188718680292368
4608.0,-0.00016132417658809572
5120.0,-0.0007292043301276863
5632.0,-0.001885110978037119
6144.0,-2.739708543231245e-05
6656.0,0.0006549390382133424
7168.0,0.0018448054324835539
7680.0,0.0009594553266651928
8192.0,-0.0004269586061127484
end
