version,3.0
numOfCh,1
type,point
parent_name,484af_0dot6-0dot01
ch_type,1_1
kcount,1
numberNandB,1
brightnessNandB,1
carpet pos,0
pc,0
Time (ms),CH1 Auto-Correlation
1.0,0.03222747519612312
2.0,0.031118016690015793
3.0,0.030066417530179024
4.0,0.029103973880410194
5.0,0.02823878824710846
6.0,0.02745812200009823
7.0,0.02673620916903019
8.0,0.02608606591820717
9.0,0.02545480988919735
10.0,0.024868864566087723
11.0,0.024314196780323982
12.0,0.023786015808582306
13.0,0.023275241255760193
14.0,0.022780103608965874
15.0,0.022310014814138412
16.0,0.021865088492631912
18.0,0.02110084518790245
20.0,0.020373914390802383
22.0,0.019758382812142372
24.0,0.019140539690852165
26.0,0.018495118245482445
28.0,0.017895320430397987
30.0,0.01732199639081955
32.0,0.016767390072345734
36.0,0.01566285453736782
40.0,0.01479168701916933
44.0,0.014148296788334846
48.0,0.013618780300021172
52.0,0.013073178008198738
56.0,0.012619907036423683
60.0,0.012246005237102509
64.0,0.011861052364110947
72.0,0.01157297845929861
80.0,0.011031151749193668
88.0,0.010855206288397312
96.0,0.010840321891009808
104.0,0.01035755779594183
112.0,0.00980466604232788
120.0,0.009513328783214092
128.0,0.009119958616793156
144.0,0.008620096370577812
160.0,0.00866830162703991
176.0,0.008702583611011505
192.0,0.00845827255398035
208.0,0.008743694983422756
224.0,0.008834837935864925
240.0,0.008489382453262806
256.0,0.008352263830602169
288.0,0.008188688196241856
320.0,0.007848484441637993
352.0,0.00764048146083951
384.0,0.006299904547631741
416.0,0.004409412387758493
448.0,0.0039808484725654125
480.0,0.002573976991698146
512.0,0.0031908093951642513
576.0,0.004135957919061184
640.0,0.003454939927905798
704.0,0.0028098581824451685
768.0,0.0024045954924076796
832.0,0.0025516583118587732
896.0,0.0020182011649012566
960.0,0.001132362405769527
1024.0,0.00048636397696100175
1152.0,-0.0008910428732633591
1280.0,-0.0008288035169243813
1408.0,-0.0008396058692596853
1536.0,-0.0006397044053301215
1664.0,-0.0011047397274523973
1792.0,-0.0006703417166136205
1920.0,-0.0008484064019285142
2048.0,-0.0006285086856223643
2304.0,-0.0002505895681679249
2560.0,-0.0005517500103451312
2816.0,-0.0015546586364507675
3072.0,-0.0019730953499674797
3328.0,-0.000936913478653878
3584.0,0.0012499141739681363
3840.0,0.002473230939358473
4096.0,0.004954834934324026
4608.0,0.002896182471886277
5120.0,-0.00038498445064760745
5632.0,-0.0016020723851397634
6144.0,-0.0025110982824116945
6656.0,-0.00328969769179821
7168.0,-0.005623031407594681
7680.0,-0.004288050811737776
8192.0,-0.0029825486708432436
end
