version,3.0
numOfCh,1
type,point
parent_name,484af_0dot6-0dot01
ch_type,1_1
kcount,1
numberNandB,1
brightnessNandB,1
carpet pos,0
pc,0
Time (ms),CH1 Auto-Correlation
1.0,0.2595251500606537
2.0,0.2584916651248932
3.0,0.257436066865921
4.0,0.25635451078414917
5.0,0.25524821877479553
6.0,0.25416669249534607
7.0,0.25311896204948425
8.0,0.25209179520606995
9.0,0.2510640323162079
10.0,0.2500850558280945
11.0,0.24917244911193848
12.0,0.24829120934009552
13.0,0.24739189445972443
14.0,0.24650804698467255
15.0,0.24563626945018768
16.0,0.2447538673877716
18.0,0.2430793046951294
20.0,0.2415064573287964
22.0,0.24002143740653992
24.0,0.23859843611717224
26.0,0.23726575076580048
28.0,0.23593157529830933
30.0,0.23457646369934082
32.0,0.233188197016716
36.0,0.23039808869361877
40.0,0.2275519222021103
44.0,0.22449131309986115
48.0,0.22146287560462952
52.0,0.21845608949661255
56.0,0.21547308564186096
60.0,0.2125658541917801
64.0,0.20991425216197968
72.0,0.20448458194732666
80.0,0.19953839480876923
88.0,0.1948404461145401
96.0,0.19004002213478088
104.0,0.1853857785463333
112.0,0.1808166801929474
120.0,0.17555707693099976
128.0,0.17097286880016327
144.0,0.16362306475639343
160.0,0.15536485612392426
176.0,0.14640824496746063
192.0,0.1376177966594696
208.0,0.1292828917503357
224.0,0.1206417977809906
240.0,0.11110083013772964
256.0,0.10274634510278702
288.0,0.08456578850746155
320.0,0.06659439206123352
352.0,0.0484362430870533
384.0,0.03108721785247326
416.0,0.015756232663989067
448.0,0.0033587145153433084
480.0,-0.009908665902912617
512.0,-0.019408410415053368
576.0,-0.03339891508221626
640.0,-0.04221649095416069
704.0,-0.04882578179240227
768.0,-0.059820182621479034
832.0,-0.07336561381816864
896.0,-0.07827018201351166
960.0,-0.07815148681402206
1024.0,-0.07648215442895889
1152.0,-0.05545708164572716
1280.0,-0.020792562514543533
1408.0,0.00682023772969842
1536.0,0.012144072912633419
1664.0,-0.007069844286888838
1792.0,-0.04212295636534691
1920.0,-0.07215692102909088
2048.0,-0.07151753455400467
2304.0,-0.009078972041606903
2560.0,0.11003308743238449
2816.0,0.14255398511886597
3072.0,0.08886519819498062
3328.0,-0.07576189935207367
3584.0,-0.1355307400226593
3840.0,-0.06964083015918732
4096.0,-0.07809099555015564
end
