version,3.0
numOfCh,1
type,point
parent_name,484af_0dot6-0dot01
ch_type,1_1
kcount,1
numberNandB,1
brightnessNandB,1
carpet pos,0
pc,0
Time (ms),CH1 Auto-Correlation
1.0,0.03306300938129425
2.0,0.031960561871528625
3.0,0.03094783052802086
4.0,0.030021362006664276
5.0,0.02916167862713337
6.0,0.02838118188083172
7.0,0.027697179466485977
8.0,0.02705989219248295
9.0,0.026439478620886803
10.0,0.025844527408480644
11.0,0.025269581004977226
12.0,0.024706505239009857
13.0,0.0241696760058403
14.0,0.023685697466135025
15.0,0.023236889392137527
16.0,0.022814659401774406
18.0,0.022026417776942253
20.0,0.02132967859506607
22.0,0.020659444853663445
24.0,0.02002902328968048
26.0,0.019464557990431786
28.0,0.018899613991379738
30.0,0.018376166000962257
32.0,0.017963174730539322
36.0,0.017066992819309235
40.0,0.016352413222193718
44.0,0.015760062262415886
48.0,0.015162269584834576
52.0,0.014540289528667927
56.0,0.01384509913623333
60.0,0.013135534711182117
64.0,0.012739244848489761
72.0,0.012355439364910126
80.0,0.012015988118946552
88.0,0.011665213853120804
96.0,0.01176501251757145
104.0,0.011262807995080948
112.0,0.010485660284757614
120.0,0.009576103650033474
128.0,0.009004095569252968
144.0,0.007929072715342045
160.0,0.007823091931641102
176.0,0.007912075147032738
192.0,0.008796090260148048
208.0,0.008741836063563824
224.0,0.008840566501021385
240.0,0.009235451929271221
256.0,0.008765315636992455
288.0,0.009203947149217129
320.0,0.007030364125967026
352.0,0.004259878769516945
384.0,0.003401624970138073
416.0,0.0024170828983187675
448.0,0.001920787151902914
480.0,0.0037801468279212713
512.0,0.004989168141037226
576.0,0.004505183082073927
640.0,0.0013850631657987833
704.0,0.0007583705591969192
768.0,0.002112997928634286
832.0,0.0013651186600327492
896.0,0.00040681156679056585
960.0,-0.0006736055365763605
1024.0,-0.0005415458581410348
1152.0,-0.0034362950827926397
1280.0,-0.0024833958595991135
1408.0,-0.0027640685439109802
1536.0,-0.0019965253304690123
1664.0,-0.0006178126204758883
1792.0,-0.0020733277779072523
1920.0,0.001606295700185001
2048.0,0.0005603241152130067
2304.0,-0.00217609410174191
2560.0,-0.003226152854040265
2816.0,-0.0021598287858068943
3072.0,-0.0030536388512700796
3328.0,-0.00391860818490386
3584.0,-0.00033542411983944476
3840.0,0.003456994891166687
4096.0,0.004886336158961058
4608.0,0.0028140218928456306
5120.0,-0.0022137349005788565
5632.0,-0.0017924961866810918
6144.0,-0.002859747037291527
6656.0,-0.004511946812272072
7168.0,-0.0030244954396039248
7680.0,-0.004430199973285198
8192.0,-0.0014639758737757802
end
