version,3.0
numOfCh,1
type,point
parent_name,484af_0dot6-0dot01
ch_type,1_1
kcount,1
numberNandB,1
brightnessNandB,1
carpet pos,0
pc,0
Time (ms),CH1 Auto-Correlation
1.0,0.02509627863764763
2.0,0.02395900897681713
3.0,0.022961338981986046
4.0,0.022084565833210945
5.0,0.021260613575577736
6.0,0.020526960492134094
7.0,0.01984930969774723
8.0,0.01919758878648281
9.0,0.01861518993973732
10.0,0.01805429719388485
11.0,0.017524046823382378
12.0,0.017017662525177002
13.0,0.016535937786102295
14.0,0.01605689339339733
15.0,0.015585123561322689
16.0,0.015099160373210907
18.0,0.014239225536584854
20.0,0.013447939418256283
22.0,0.012673192657530308
24.0,0.011988651007413864
26.0,0.011365680955350399
28.0,0.010825371369719505
30.0,0.01041665393859148
32.0,0.010081689804792404
36.0,0.009435201995074749
40.0,0.008842643350362778
44.0,0.008302588947117329
48.0,0.007871167734265327
52.0,0.0074443635530769825
56.0,0.007014042232185602
60.0,0.006434446666389704
64.0,0.005888502113521099
72.0,0.005061902571469545
80.0,0.004177355207502842
88.0,0.0031908920500427485
96.0,0.00214009708724916
104.0,0.0014956432860344648
112.0,0.0011256174184381962
120.0,0.000996550777927041
128.0,0.000744230521377176
144.0,0.00014445737178903073
160.0,-0.00046280521200969815
176.0,-0.00038987043080851436
192.0,-0.00011993318184977397
208.0,0.00021159245807211846
224.0,0.0008579397108405828
240.0,0.0012744744308292866
256.0,0.0013416011352092028
288.0,0.0014338195323944092
320.0,0.0016218837117776275
352.0,0.001499577541835606
384.0,0.0014481296529993415
416.0,0.001227242173627019
448.0,0.00046652331366203725
480.0,-7.393230771413073e-05
512.0,-0.0001595179783180356
576.0,0.0006269004661589861
640.0,0.0005909761530347168
704.0,0.001632861327379942
768.0,0.002995157614350319
832.0,0.0028471145778894424
896.0,0.0018506080377846956
960.0,0.0018870553467422724
1024.0,0.00035283961915411055
1152.0,0.0011321967467665672
1280.0,0.0021402102429419756
1408.0,0.0007730852230452001
1536.0,0.002443623961880803
1664.0,0.003190875519067049
1792.0,-0.001194462412968278
1920.0,-0.0008604641770943999
2048.0,0.00013845626381225884
2304.0,-0.0002737541508395225
2560.0,0.001260378398001194
2816.0,0.0005364107782952487
3072.0,-0.0007075329194776714
3328.0,-0.00016851676627993584
3584.0,-0.0006784115103073418
3840.0,0.00040333313518203795
4096.0,-8.171443914761767e-05
4608.0,-0.0005401989910751581
5120.0,-0.0006025287439115345
5632.0,-0.0018562416080385447
6144.0,-0.001445369329303503
6656.0,-0.0024328141007572412
7168.0,-0.0034845878835767508
7680.0,-0.0028139117639511824
8192.0,-0.0018486797343939543
end
