version,3.0
numOfCh,1
type,point
parent_name,484af_0dot6-0dot01
ch_type,1_1
kcount,1
numberNandB,1
brightnessNandB,1
carpet pos,0
pc,0
Time (ms),CH1 Auto-Correlation
1.0,0.03421323746442795
2.0,0.032803334295749664
3.0,0.03148946911096573
4.0,0.030271202325820923
5.0,0.0291476771235466
6.0,0.028151601552963257
7.0,0.027184421196579933
8.0,0.026304639875888824
9.0,0.02547260746359825
10.0,0.024736857041716576
11.0,0.024102656170725822
12.0,0.023463424295186996
13.0,0.02280442602932453
14.0,0.022174281999468803
15.0,0.021529216319322586
16.0,0.020853975787758827
18.0,0.01954895257949829
20.0,0.018312832340598106
22.0,0.01723964884877205
24.0,0.016165049746632576
26.0,0.01513365563005209
28.0,0.014174281619489193
30.0,0.013226744718849659
32.0,0.012405904941260815
36.0,0.010820606723427773
40.0,0.010284064337611198
44.0,0.009820349514484406
48.0,0.009284035302698612
52.0,0.00875166431069374
56.0,0.008381297811865807
60.0,0.007962727919220924
64.0,0.007297589909285307
72.0,0.006164143327623606
80.0,0.005258531775325537
88.0,0.004891634453088045
96.0,0.005039011128246784
104.0,0.00510701397433877
112.0,0.0047748819924890995
120.0,0.004772640299052
128.0,0.0046968222595751286
144.0,0.005133516620844603
160.0,0.005017697345465422
176.0,0.004838479682803154
192.0,0.004227853380143642
208.0,0.00312199629843235
224.0,0.001678620115853846
240.0,0.0013774315593764186
256.0,0.002016907325014472
288.0,0.0018681342480704188
320.0,-0.00020976143423467875
352.0,-0.0013288968475535512
384.0,-0.0011476153740659356
416.0,0.00034078623866662383
448.0,0.0010398441227152944
480.0,0.00012864326708950102
512.0,-0.0009036215487867594
576.0,0.0005225998465903103
640.0,0.0019510482670739293
704.0,0.0013946801191195846
768.0,-0.0006638449267484248
832.0,-0.00036932071088813245
896.0,-0.00018229821580462158
960.0,-0.0009489310323260725
1024.0,-0.0017981929704546928
1152.0,-0.0007603699341416359
1280.0,-0.0021341233514249325
1408.0,-0.0035769366659224033
1536.0,-0.0028436516877263784
1664.0,-0.0008866096031852067
1792.0,0.0023369190748780966
1920.0,0.0015518181025981903
2048.0,0.00029092549812048674
2304.0,-0.0013771731173619628
2560.0,-3.1902186492516194e-06
2816.0,-0.001324488315731287
3072.0,-0.0014179220888763666
3328.0,-0.002244147937744856
3584.0,0.0009234632016159594
3840.0,0.0009714286425150931
4096.0,0.0017847418785095215
4608.0,0.0016985058318823576
5120.0,0.00013864916400052607
5632.0,-0.00048686290392652154
6144.0,-0.0010350387310609221
6656.0,-0.002440118696540594
7168.0,-0.0019432344706729054
7680.0,0.0008169990032911301
8192.0,0.00042164098704233766
end
