version,3.0
numOfCh,1
type,point
parent_name,ff67b_0dot6-0dot01
ch_type,1_1
kcount,1
numberNandB,1
brightnessNandB,1
carpet pos,0
pc,0
Time (ms),CH1 Auto-Correlation
1.0,0.02633097767829895
2.0,0.025212518870830536
3.0,0.024188224226236343
4.0,0.023266108706593513
5.0,0.02240273728966713
6.0,0.021639365702867508
7.0,0.020906658843159676
8.0,0.02020363323390484
9.0,0.019567491486668587
10.0,0.018986845389008522
11.0,0.01844954304397106
12.0,0.017955487594008446
13.0,0.01746676303446293
14.0,0.017030585557222366
15.0,0.016593432053923607
16.0,0.016163671389222145
18.0,0.015334933064877987
20.0,0.014604962430894375
22.0,0.013940706849098206
24.0,0.013351050205528736
26.0,0.01279700268059969
28.0,0.012300092726945877
30.0,0.011778733693063259
32.0,0.011280431412160397
36.0,0.010452409274876118
40.0,0.00968385860323906
44.0,0.009065025486052036
48.0,0.00862212385982275
52.0,0.008355258964002132
56.0,0.008082503452897072
60.0,0.007742282934486866
64.0,0.007391938474029303
72.0,0.006676801480352879
80.0,0.0060693565756082535
88.0,0.005514609161764383
96.0,0.005042982287704945
104.0,0.004531269893050194
112.0,0.0043626935221254826
120.0,0.004404387902468443
128.0,0.0045391772873699665
144.0,0.004594172351062298
160.0,0.0040456452406942844
176.0,0.0035064322873950005
192.0,0.003319802926853299
208.0,0.00333518092520535
224.0,0.003761237021535635
240.0,0.003960408270359039
256.0,0.0033250569831579924
288.0,0.002698143944144249
320.0,0.0027756020426750183
352.0,0.002174387453123927
384.0,0.001641897950321436
416.0,0.0014493779744952917
448.0,0.00107162119820714
480.0,-0.00017253216356039047
512.0,-0.00033971056109294295
576.0,3.489308801363222e-05
640.0,0.0010018079774454236
704.0,0.0003085767093580216
768.0,-0.0009837279794737697
832.0,-0.0008625242626294494
896.0,-0.00011229993833694607
960.0,0.00014199476572684944
1024.0,-0.0004230148915667087
1152.0,-0.0007489115232601762
1280.0,0.00020648016652558
1408.0,-0.0006267028511501849
1536.0,-0.000867201539222151
1664.0,-0.00016702573338989168
1792.0,0.0006217119516804814
1920.0,0.0008488490711897612
2048.0,0.00021253773593343794
2304.0,-0.0004453799920156598
2560.0,-0.000533055339474231
2816.0,-0.0004525424155872315
3072.0,-0.0004268974007572979
3328.0,-0.0009727081633172929
3584.0,-7.95580490375869e-05
3840.0,0.0008872784092091024
4096.0,-0.0006004656315781176
4608.0,-0.0008291297126561403
5120.0,0.0008242960902862251
5632.0,9.13861149456352e-05
6144.0,-0.0011359128402546048
6656.0,-0.0025971056893467903
7168.0,0.000587690039537847
7680.0,0.0016134120523929596
8192.0,0.002682870253920555
end
