version,3.0
numOfCh,1
type,point
parent_name,ff67b_0dot6-0dot01
ch_type,1_1
kcount,1
numberNandB,1
brightnessNandB,1
carpet pos,0
pc,0
Time (ms),CH1 Auto-Correlation
1.0,0.021150844171643257
2.0,0.020049508661031723
3.0,0.019038666039705276
4.0,0.018114790320396423
5.0,0.017260661348700523
6.0,0.016486361622810364
7.0,0.015762099996209145
8.0,0.015103779733181
9.0,0.014490026980638504
10.0,0.013910048641264439
11.0,0.013379975222051144
12.0,0.012855158187448978
13.0,0.012389455921947956
14.0,0.01196137722581625
15.0,0.011515539139509201
16.0,0.011079907417297363
18.0,0.010303818620741367
20.0,0.009687168523669243
22.0,0.009219181723892689
24.0,0.008851742371916771
26.0,0.00849921815097332
28.0,0.008131715469062328
30.0,0.007759348023682833
32.0,0.007404564414173365
36.0,0.006768147461116314
40.0,0.006137378979474306
44.0,0.005526687018573284
48.0,0.005096408538520336
52.0,0.004824001807719469
56.0,0.004489906597882509
60.0,0.00424690917134285
64.0,0.003918579313904047
72.0,0.00328005850315094
80.0,0.003152396297082305
88.0,0.0030829294119030237
96.0,0.0031057563610374928
104.0,0.0030154103878885508
112.0,0.0029256418347358704
120.0,0.002434243680909276
128.0,0.0022767160553485155
144.0,0.002172189997509122
160.0,0.0013248948380351067
176.0,0.0009753683698363602
192.0,0.0011770045384764671
208.0,0.0007335217669606209
224.0,0.0006063045002520084
240.0,0.0008454209310002625
256.0,0.0006884624599479139
288.0,0.0006495960406027734
320.0,-0.00016992540622595698
352.0,-0.00047445757081732154
384.0,-0.0007010382832959294
416.0,-0.00011445856944192201
448.0,-0.00011686411016853526
480.0,0.0005395688931457698
512.0,-0.0003454700345173478
576.0,-0.0017415983602404594
640.0,-0.0008862056420184672
704.0,-0.0012796311639249325
768.0,-0.0006904816254973412
832.0,-0.0006804761360399425
896.0,-0.00045590303489007056
960.0,0.00011930474283872172
1024.0,0.0005655133863911033
1152.0,0.0008164294413290918
1280.0,0.0007756150444038212
1408.0,0.0005346265970729291
1536.0,0.0006000436842441559
1664.0,-0.0008088701870292425
1792.0,-0.0007642711279913783
1920.0,0.0005716843297705054
2048.0,0.00018959541921503842
2304.0,-0.0009285733685828745
2560.0,-0.000668365799356252
2816.0,0.000813690887298435
3072.0,0.0012257915223017335
3328.0,0.00037155920290388167
3584.0,-0.0005560030112974346
3840.0,-0.0007484296802431345
4096.0,-0.0001395542931277305
4608.0,-0.0003633823653217405
5120.0,-0.0001534985058242455
5632.0,-0.0005988472839817405
6144.0,2.434273665130604e-05
6656.0,0.00040854522376321256
7168.0,-0.0008725172374397516
7680.0,-0.0012775107752531767
8192.0,-0.001220199279487133
end
