version,3.0
numOfCh,1
type,point
parent_name,ff67b_0dot6-0dot01
ch_type,1_1
kcount,1
numberNandB,1
brightnessNandB,1
carpet pos,0
pc,0
Time (ms),CH1 Auto-Correlation
1.0,0.021563919261097908
2.0,0.020414451137185097
3.0,0.019365426152944565
4.0,0.018379228189587593
5.0,0.017441002652049065
6.0,0.01660125143826008
7.0,0.015845736488699913
8.0,0.01515724416822195
9.0,0.014499449171125889
10.0,0.013900933787226677
11.0,0.013344616629183292
12.0,0.012834900990128517
13.0,0.012395232915878296
14.0,0.011952354572713375
15.0,0.011570400558412075
16.0,0.011212453246116638
18.0,0.010628996416926384
20.0,0.010043911635875702
22.0,0.009522810578346252
24.0,0.00912227388471365
26.0,0.008625933900475502
28.0,0.008097509853541851
30.0,0.007559077348560095
32.0,0.0070551922544837
36.0,0.006096771918237209
40.0,0.005364662501960993
44.0,0.004737628158181906
48.0,0.004151438362896442
52.0,0.0037226728163659573
56.0,0.0033302369993180037
60.0,0.0028870096430182457
64.0,0.0022385139018297195
72.0,0.0014162875013425946
80.0,0.0012844649609178305
88.0,0.0011387239210307598
96.0,0.0010478635085746646
104.0,0.0008958784164860845
112.0,0.0008354405290447176
120.0,0.0006206633988767862
128.0,6.672613380942494e-05
144.0,-0.00046826290781609714
160.0,-0.0005866769934073091
176.0,-0.0002556201070547104
192.0,-0.00014568472397513688
208.0,0.0010193607304245234
224.0,0.0006324542919173837
240.0,0.0003766123845707625
256.0,0.00030956632690504193
288.0,-0.0004119689983781427
320.0,-0.0008073598146438599
352.0,-0.0007137160864658654
384.0,0.0002940980775747448
416.0,0.0012221497017890215
448.0,0.0018943650647997856
480.0,0.0003161406493745744
512.0,-0.0003880013828165829
576.0,-0.00033500950667075813
640.0,0.0005583165911957622
704.0,-0.0002491512568667531
768.0,-0.0010856612352654338
832.0,-0.00031743524596095085
896.0,0.001293826848268509
960.0,0.00029982702108100057
1024.0,-2.6159143089898862e-05
1152.0,-0.0008009924786165357
1280.0,-0.0004044577945023775
1408.0,-0.0006892043747939169
1536.0,-8.636726124677807e-05
1664.0,-0.0003288286388851702
1792.0,-0.0014591413782909513
1920.0,0.00040718563832342625
2048.0,-2.311906973773148e-05
2304.0,0.0014225185150280595
2560.0,-0.0005681252805516124
2816.0,-0.0015830975025892258
3072.0,-0.00041851692367345095
3328.0,-0.0006263821269385517
3584.0,-0.000360496633220464
3840.0,0.00011100080155301839
4096.0,9.013967792270705e-05
4608.0,-0.00035091189783997834
5120.0,-0.0021164100617170334
5632.0,0.0009225512039847672
6144.0,0.002078724093735218
6656.0,0.0021949720103293657
7168.0,-0.0023832020815461874
7680.0,0.0003319134411867708
8192.0,-0.0019109126878902316
end
