version,3.0
numOfCh,1
type,point
parent_name,ff67b_0dot6-0dot01
ch_type,1_1
kcount,1
numberNandB,1
brightnessNandB,1
carpet pos,0
pc,0
Time (ms),CH1 Auto-Correlation
1.0,0.024964377284049988
2.0,0.023858264088630676
3.0,0.022888923063874245
4.0,0.022018246352672577
5.0,0.021159648895263672
6.0,0.0203720536082983
7.0,0.019656328484416008
8.0,0.01898495852947235
9.0,0.018357109278440475
10.0,0.017769653350114822
11.0,0.017199795693159103
12.0,0.016673579812049866
13.0,0.016177020967006683
14.0,0.0157302375882864
15.0,0.015333855524659157
16.0,0.014986966736614704
18.0,0.014350080862641335
20.0,0.013713758438825607
22.0,0.013083196245133877
24.0,0.012516188435256481
26.0,0.01202020887285471
28.0,0.011580947786569595
30.0,0.0111733702942729
32.0,0.010705901309847832
36.0,0.009817415848374367
40.0,0.009126191958785057
44.0,0.008418755605816841
48.0,0.007799029815942049
52.0,0.007403152994811535
56.0,0.007132325787097216
60.0,0.00687690544873476
64.0,0.006532659288495779
72.0,0.005502158310264349
80.0,0.004744179081171751
88.0,0.00420434819534421
96.0,0.0032673077657818794
104.0,0.002772713778540492
112.0,0.002574658952653408
120.0,0.0024372937623411417
128.0,0.0024256324395537376
144.0,0.002953451359644532
160.0,0.0033224846702069044
176.0,0.0028950877021998167
192.0,0.0024336515925824642
208.0,0.002482484793290496
224.0,0.0021455271635204554
240.0,0.002064260421320796
256.0,0.00208246405236423
288.0,0.002166914753615856
320.0,0.0016500912606716156
352.0,0.0026072978507727385
384.0,0.003818956669420004
416.0,0.004007555544376373
448.0,0.002814890118315816
480.0,0.0012638075277209282
512.0,0.0011021638056263328
576.0,0.0015311158495023847
640.0,0.0012961890315636992
704.0,0.0014642791356891394
768.0,0.0009709959267638624
832.0,0.0019584137480705976
896.0,0.0013522120425477624
960.0,0.00120536086615175
1024.0,0.0016724043525755405
1152.0,8.761408389545977e-05
1280.0,0.00022006021754350513
1408.0,0.0004477769834920764
1536.0,-0.0004484732635319233
1664.0,-0.001090852776542306
1792.0,0.0005617992719635367
1920.0,-0.00021233668667264283
2048.0,-0.0009003468439914286
2304.0,-0.0022051227279007435
2560.0,-0.0018022882286459208
2816.0,-0.0012009532656520605
3072.0,-0.0008387301932089031
3328.0,-0.00047611832269467413
3584.0,-0.0010886401869356632
3840.0,-0.0013062204234302044
4096.0,-0.0012189968256279826
4608.0,-8.799503120826557e-05
5120.0,-0.0006517908186651766
5632.0,-0.00249328650534153
6144.0,-0.00157916487660259
6656.0,-0.0007219242979772389
7168.0,-0.000393119640648365
7680.0,0.0009265743428841233
8192.0,0.002712393179535866
end
