version,3.0
numOfCh,1
type,point
parent_name,ff67b_0dot6-0dot01
ch_type,1_1
kcount,1
numberNandB,1
brightnessNandB,1
carpet pos,0
pc,0
Time (ms),CH1 Auto-Correlation
1.0,0.08515935391187668
2.0,0.08337058126926422
3.0,0.08157452195882797
4.0,0.07987555861473083
5.0,0.07824014872312546
6.0,0.07665639370679855
7.0,0.07506559044122696
8.0,0.07344750314950943
9.0,0.07185287028551102
10.0,0.0703253522515297
11.0,0.06886304169893265
12.0,0.0674024149775505
13.0,0.06601334363222122
14.0,0.06471318006515503
15.0,0.06345571577548981
16.0,0.062357671558856964
18.0,0.05949203670024872
20.0,0.057605016976594925
22.0,0.05575001239776611
24.0,0.054004985839128494
26.0,0.05227590352296829
28.0,0.05054110288619995
30.0,0.04893640801310539
32.0,0.04746084660291672
36.0,0.042647816240787506
40.0,0.039826810359954834
44.0,0.036967650055885315
48.0,0.034214045852422714
52.0,0.03146568313241005
56.0,0.029005805030465126
60.0,0.026450132951140404
64.0,0.023954488337039948
72.0,0.016001833602786064
80.0,0.0110508743673563
88.0,0.004940715618431568
96.0,-0.0002553242666181177
104.0,-0.0013487801188603044
112.0,-0.001294570043683052
120.0,-0.00038915450568310916
128.0,0.00021740458032581955
144.0,0.0013629571767523885
160.0,0.0013045307714492083
176.0,0.0010678813559934497
192.0,0.0013593819458037615
208.0,0.002238928573206067
224.0,0.0035305351484566927
240.0,0.0035992562770843506
256.0,0.004024290945380926
288.0,0.003017993876710534
320.0,0.001417545136064291
352.0,-0.0009928031358867884
384.0,-0.0008789540734142065
416.0,0.00042382688843645155
448.0,0.0007807835936546326
480.0,0.0017035070341080427
512.0,0.0026496208738535643
576.0,0.00201518926769495
640.0,0.003082172479480505
704.0,-0.0007728387718088925
768.0,0.0012360293185338378
832.0,0.0015201306669041514
896.0,-7.821931649232283e-05
960.0,0.0011531761847436428
1024.0,0.0009169902768917382
1152.0,0.0016618111403658986
1280.0,0.0021121895406395197
1408.0,0.0013742324663326144
1536.0,0.0012824453879147768
1664.0,-0.0008702061604708433
1792.0,-0.0004419431206770241
1920.0,-0.00010204151476500556
2048.0,0.00048776905168779194
2304.0,0.001169754657894373
2560.0,0.0012737340293824673
2816.0,0.000867520400788635
3072.0,-6.525172648252919e-05
3328.0,0.0005974132800474763
3584.0,0.0010860522743314505
3840.0,0.0005977884866297245
4096.0,0.00030868835165165365
4608.0,-0.0005642881151288748
5120.0,7.722000009380281e-05
5632.0,-0.0004351526440586895
6144.0,0.0018438793485984206
6656.0,0.0007718437700532377
7168.0,0.00018556503346189857
7680.0,0.00010673380893422291
8192.0,-0.0015658208867534995
end
