version,3.0
numOfCh,1
type,point
parent_name,ff67b_0dot6-0dot01
ch_type,1_1
kcount,1
numberNandB,1
brightnessNandB,1
carpet pos,0
pc,0
Time (ms),CH1 Auto-Correlation
1.0,0.033022440969944
2.0,0.03188575804233551
3.0,0.030856814235448837
4.0,0.029922695830464363
5.0,0.02907586097717285
6.0,0.028298430144786835
7.0,0.027562657371163368
8.0,0.026900865137577057
9.0,0.02628442645072937
10.0,0.025729959830641747
11.0,0.025210624560713768
12.0,0.024725813418626785
13.0,0.02425312250852585
14.0,0.02377929911017418
15.0,0.023345034569501877
16.0,0.02293127216398716
18.0,0.02209298498928547
20.0,0.021278176456689835
22.0,0.0205212589353323
24.0,0.01982862874865532
26.0,0.019264662638306618
28.0,0.01873897574841976
30.0,0.018274491652846336
32.0,0.017902789637446404
36.0,0.017116716131567955
40.0,0.016467247158288956
44.0,0.015933657065033913
48.0,0.015452651306986809
52.0,0.014967800118029118
56.0,0.014377224259078503
60.0,0.013796336948871613
64.0,0.013282325118780136
72.0,0.012390724383294582
80.0,0.011605396866798401
88.0,0.01089488621801138
96.0,0.010179981589317322
104.0,0.009460831061005592
112.0,0.009398197755217552
120.0,0.009400737471878529
128.0,0.009233848191797733
144.0,0.008564121089875698
160.0,0.00744547788053751
176.0,0.006579338572919369
192.0,0.006149461027234793
208.0,0.005589287728071213
224.0,0.005778579041361809
240.0,0.006074233911931515
256.0,0.00653348071500659
288.0,0.005724532995373011
320.0,0.005081065930426121
352.0,0.0033119996078312397
384.0,0.002459961222484708
416.0,0.0018946877680718899
448.0,0.001753493444994092
480.0,0.001304572680965066
512.0,0.0007143592229112983
576.0,0.0023332766722887754
640.0,0.0011768463300541043
704.0,-0.0004128798609599471
768.0,-0.0015034697717055678
832.0,-0.0004598218365572393
896.0,0.0015000319108366966
960.0,0.0024645081721246243
1024.0,0.002610479248687625
1152.0,0.0038831140846014023
1280.0,0.00387532077729702
1408.0,0.004170507192611694
1536.0,0.003190541174262762
1664.0,0.0003619655908551067
1792.0,0.0016701221466064453
1920.0,0.002122023841366172
2048.0,0.00215222523547709
2304.0,6.010641300235875e-05
2560.0,-0.001246096333488822
2816.0,-0.000889824703335762
3072.0,-0.0008863992406986654
3328.0,0.0006928536458872259
3584.0,0.0017980914562940598
3840.0,-0.001993495039641857
4096.0,-0.004201856907457113
4608.0,-0.0014025972923263907
5120.0,-0.003022568766027689
5632.0,-0.0020831904839724302
6144.0,-0.0012233294546604156
6656.0,-0.0024559067096561193
7168.0,-0.0023644568864256144
7680.0,-0.00034536776365712285
8192.0,0.0006081335595808923
end
