version,3.0
numOfCh,1
type,point
parent_name,ff67b_0dot6-0dot01
ch_type,1_1
kcount,1
numberNandB,1
brightnessNandB,1
carpet pos,0
pc,0
Time (ms),CH1 Auto-Correlation
1.0,0.024835454300045967
2.0,0.023679528385400772
3.0,0.022660652175545692
4.0,0.021720681339502335
5.0,0.020848361775279045
6.0,0.02003317140042782
7.0,0.01927790604531765
8.0,0.018595106899738312
9.0,0.017982982099056244
10.0,0.017392292618751526
11.0,0.016832588240504265
12.0,0.01627960614860058
13.0,0.01574883423745632
14.0,0.015215466730296612
15.0,0.014719346538186073
16.0,0.014272548258304596
18.0,0.013420989736914635
20.0,0.012650766409933567
22.0,0.011986861936748028
24.0,0.011478478088974953
26.0,0.011019250378012657
28.0,0.010590304620563984
30.0,0.010132411494851112
32.0,0.009701071307063103
36.0,0.008931716904044151
40.0,0.008336476050317287
44.0,0.007838303223252296
48.0,0.007348773069679737
52.0,0.006704775616526604
56.0,0.006084452383220196
60.0,0.005653891712427139
64.0,0.005386258475482464
72.0,0.005017609801143408
80.0,0.00457899272441864
88.0,0.004035459365695715
96.0,0.003556907409802079
104.0,0.003350647632032633
112.0,0.0032683531753718853
120.0,0.0033096426632255316
128.0,0.002982744947075844
144.0,0.0023310778196901083
160.0,0.001884475932456553
176.0,0.0013075503520667553
192.0,0.0012227112893015146
208.0,0.001636018860153854
224.0,0.001934181316755712
240.0,0.001635393244214356
256.0,0.0017198392888531089
288.0,0.0018015423556789756
320.0,0.001249168417416513
352.0,0.0019131653243675828
384.0,0.001626074081286788
416.0,0.001686324249021709
448.0,0.0021723886020481586
480.0,0.0017502488335594535
512.0,0.0010903020156547427
576.0,0.0008218439179472625
640.0,0.0008694098214618862
704.0,0.0005304383812472224
768.0,0.0013033145805820823
832.0,0.0017787142423912883
896.0,0.0016626784345135093
960.0,0.0011281489860266447
1024.0,0.0003589506377466023
1152.0,0.0005326326354406774
1280.0,-0.00011612100206548348
1408.0,-0.0002405209670541808
1536.0,-0.000720856711268425
1664.0,-0.0013029586989432573
1792.0,-0.000671050394885242
1920.0,-0.0006607946124859154
2048.0,-0.0003167124232277274
2304.0,-0.0008417004719376564
2560.0,-0.0006507562939077616
2816.0,-0.0002889655588660389
3072.0,-0.0013652433408424258
3328.0,-0.0009287319844588637
3584.0,-0.0009334393544122577
3840.0,-0.00032071283203549683
4096.0,0.00027171632973477244
4608.0,0.00019496168533805758
5120.0,0.0007282014703378081
5632.0,0.0003571662527974695
6144.0,-0.00028950380510650575
6656.0,9.233704986399971e-06
7168.0,0.0007719199056737125
7680.0,0.0004141921817790717
8192.0,-0.00046885653864592314
end
