version,3.0
numOfCh,1
type,point
parent_name,ff67b_0dot6-0dot01
ch_type,1_1
kcount,1
numberNandB,1
brightnessNandB,1
carpet pos,0
pc,0
Time (ms),CH1 Auto-Correlation
1.0,0.023648884147405624
2.0,0.022588277235627174
3.0,0.021629469469189644
4.0,0.020740387961268425
5.0,0.01990358717739582
6.0,0.019115418195724487
7.0,0.01838143914937973
8.0,0.017697902396321297
9.0,0.01704133115708828
10.0,0.016428031027317047
11.0,0.015868589282035828
12.0,0.015344575047492981
13.0,0.014861094765365124
14.0,0.014396075159311295
15.0,0.013971992768347263
16.0,0.01355728693306446
18.0,0.012798911891877651
20.0,0.012110584415495396
22.0,0.011475193314254284
24.0,0.010926833376288414
26.0,0.010338115505874157
28.0,0.009833075106143951
30.0,0.009381566196680069
32.0,0.008980173617601395
36.0,0.008284344337880611
40.0,0.007780597545206547
44.0,0.007536774501204491
48.0,0.007284643594175577
52.0,0.007029001601040363
56.0,0.006673083174973726
60.0,0.006214304827153683
64.0,0.00586356595158577
72.0,0.005390257574617863
80.0,0.005027138628065586
88.0,0.004732590634375811
96.0,0.004340082406997681
104.0,0.0037067621015012264
112.0,0.003266028594225645
120.0,0.0031020622700452805
128.0,0.0028286101296544075
144.0,0.002723870100453496
160.0,0.002891775220632553
176.0,0.0032518156804144382
192.0,0.0029273114632815123
208.0,0.0031203932594507933
224.0,0.002828687196597457
240.0,0.002518634544685483
256.0,0.002202116884291172
288.0,0.001786069362424314
320.0,0.0014070358593016863
352.0,0.0017078988021239638
384.0,0.0017532849451527
416.0,0.001214918796904385
448.0,0.0009883379098027945
480.0,0.0011807538103312254
512.0,0.0014997541438788176
576.0,0.00042830724851228297
640.0,0.00018070517398882657
704.0,-5.516845703823492e-05
768.0,-0.0002541253052186221
832.0,-0.0017559268744662404
896.0,-0.0009859472047537565
960.0,-0.00039746140828356147
1024.0,0.00037440587766468525
1152.0,6.453844252973795e-05
1280.0,-0.0012260033981874585
1408.0,1.8883729353547096e-05
1536.0,-0.00026110955514013767
1664.0,-0.00030855261138640344
1792.0,-0.0013433321146294475
1920.0,-0.001423061708919704
2048.0,-0.0011490341275930405
2304.0,-0.0015933517133817077
2560.0,0.0005517157260328531
2816.0,8.006369898794219e-05
3072.0,0.0016416257712990046
3328.0,-0.0007567986031062901
3584.0,-4.5419590605888516e-05
3840.0,-0.0009535522549413145
4096.0,3.372015999048017e-05
4608.0,-0.00044248945778235793
5120.0,0.0008537941030226648
5632.0,0.0014626819174736738
6144.0,0.00018820309196598828
6656.0,-0.0004951661103405058
7168.0,-0.0004144693084526807
7680.0,-0.0017541544511914253
8192.0,-0.001982596470043063
end
