version,3.0
numOfCh,1
type,point
parent_name,ff67b_0dot6-0dot01
ch_type,1_1
kcount,1
numberNandB,1
brightnessNandB,1
carpet pos,0
pc,0
Time (ms),CH1 Auto-Correlation
1.0,0.02279326692223549
2.0,0.021680837497115135
3.0,0.020655635744333267
4.0,0.019743146374821663
5.0,0.018914861604571342
6.0,0.018169408664107323
7.0,0.017474334686994553
8.0,0.01679266057908535
9.0,0.016202842816710472
10.0,0.015658866614103317
11.0,0.015170021913945675
12.0,0.014720593579113483
13.0,0.014312776736915112
14.0,0.01392438355833292
15.0,0.013581883162260056
16.0,0.013252701610326767
18.0,0.012634486891329288
20.0,0.012061214074492455
22.0,0.011492474004626274
24.0,0.010928867384791374
26.0,0.010442950762808323
28.0,0.010022206231951714
30.0,0.009680328890681267
32.0,0.009327219799160957
36.0,0.008704271167516708
40.0,0.008112615905702114
44.0,0.007535622920840979
48.0,0.007129708305001259
52.0,0.006873442325741053
56.0,0.006655700970441103
60.0,0.00645823497325182
64.0,0.00635997299104929
72.0,0.00612474512308836
80.0,0.005801819264888763
88.0,0.005251890514045954
96.0,0.004818631336092949
104.0,0.004361673723906279
112.0,0.004274703562259674
120.0,0.004308979958295822
128.0,0.004282438661903143
144.0,0.004011363256722689
160.0,0.003307550447061658
176.0,0.0028503325302153826
192.0,0.0025605943519622087
208.0,0.002922358922660351
224.0,0.0033149116206914186
240.0,0.0028208971489220858
256.0,0.002501468872651458
288.0,0.001736461534164846
320.0,0.0014913929626345634
352.0,0.0011494881473481655
384.0,0.0008434390765614808
416.0,0.00026982821873389184
448.0,-0.00022643870033789426
480.0,0.00037695359787903726
512.0,0.0004664257576223463
576.0,0.0006925603374838829
640.0,0.000599004328250885
704.0,0.0009476125705987215
768.0,0.00020917571964673698
832.0,0.0004203853604849428
896.0,-0.0007551675080321729
960.0,-0.00025956478202715516
1024.0,7.192339398898184e-05
1152.0,0.0006944729248061776
1280.0,0.00073066825279966
1408.0,-3.1786934414412826e-05
1536.0,-0.0019415069837123156
1664.0,-0.0018233072478324175
1792.0,-0.0010002811904996634
1920.0,0.00034568837145343423
2048.0,-1.1156369509990327e-05
2304.0,-0.0012698315549641848
2560.0,-0.000705497688613832
2816.0,-0.0005902529810555279
3072.0,-1.2394564237183658e-06
3328.0,-0.00012510214583016932
3584.0,-0.0006459325086325407
3840.0,-0.0012052527163177729
4096.0,-0.000623753760010004
4608.0,-0.001980843720957637
5120.0,0.00051195512060076
5632.0,0.0011973411310464144
6144.0,0.0003519960446283221
6656.0,-0.0007320322911255062
7168.0,-0.0003652285668067634
7680.0,0.0008390479488298297
8192.0,0.0002640030870679766
9216.0,-0.0014383889501914382
10240.0,0.0008290912955999374
11264.0,0.0012998575111851096
12288.0,-0.00134648650418967
13312.0,3.200416176696308e-05
14336.0,0.0009881183505058289
end
