version,3.0
numOfCh,1
type,point
parent_name,ff67b_0dot6-0dot01
ch_type,1_1
kcount,1
numberNandB,1
brightnessNandB,1
carpet pos,0
pc,0
Time (ms),CH1 Auto-Correlation
1.0,0.09729690849781036
2.0,0.09589800983667374
3.0,0.0946216806769371
4.0,0.09344939142465591
5.0,0.0923381820321083
6.0,0.09127147495746613
7.0,0.09027859568595886
8.0,0.08935828506946564
9.0,0.0884755477309227
10.0,0.08771507441997528
11.0,0.08698996156454086
12.0,0.086293525993824
13.0,0.0856165662407875
14.0,0.08494164049625397
15.0,0.08427821844816208
16.0,0.08360473811626434
18.0,0.0822739452123642
20.0,0.08093522489070892
22.0,0.07963616400957108
24.0,0.07849720865488052
26.0,0.07751768827438354
28.0,0.07656841725111008
30.0,0.07555306702852249
32.0,0.0745861604809761
36.0,0.07156642526388168
40.0,0.0699114054441452
44.0,0.06819792836904526
48.0,0.06664526462554932
52.0,0.0652206614613533
56.0,0.06396138668060303
60.0,0.06276097893714905
64.0,0.061452481895685196
72.0,0.057431720197200775
80.0,0.05505027621984482
88.0,0.05230207368731499
96.0,0.049943823367357254
104.0,0.048081595450639725
112.0,0.046550601720809937
120.0,0.04568988457322121
128.0,0.04530436173081398
144.0,0.041894134134054184
160.0,0.03747513145208359
176.0,0.03310339152812958
192.0,0.029654892161488533
208.0,0.025784529745578766
224.0,0.02268454246222973
240.0,0.018367111682891846
256.0,0.014852295629680157
288.0,0.010012097656726837
320.0,0.008080906234681606
352.0,0.006417394615709782
384.0,0.005724179092794657
416.0,0.005894424393773079
448.0,0.006463241763412952
480.0,0.005177162121981382
512.0,0.0029057678766548634
576.0,0.0008725959341973066
640.0,-0.00023920183593872935
704.0,0.001807487104088068
768.0,0.0022809267975389957
832.0,0.0030545571353286505
896.0,0.004534230567514896
960.0,0.002799566835165024
1024.0,-0.00039487757021561265
1152.0,-0.0012357424711808562
1280.0,-0.0001517312484793365
1408.0,0.0009359039249829948
1536.0,0.0045031034387648106
1664.0,0.008165646344423294
1792.0,0.005935024470090866
1920.0,-0.0004522608360275626
2048.0,-0.0008919572574086487
2304.0,0.003503307467326522
2560.0,0.0014037390938028693
2816.0,-0.0033800473902374506
3072.0,-0.002942238235846162
3328.0,-0.0032009282149374485
3584.0,-0.0006090482929721475
3840.0,0.004650298971682787
4096.0,0.0022916318848729134
4608.0,1.4803278645558748e-05
5120.0,-0.0026588209439069033
5632.0,-0.0018633621511980891
6144.0,0.0031322732102125883
6656.0,-0.006051263771951199
7168.0,-0.017400424927473068
end
