version,3.0
numOfCh,1
type,point
parent_name,ff67b_0dot6-0dot01
ch_type,1_1
kcount,1
numberNandB,1
brightnessNandB,1
carpet pos,0
pc,0
Time (ms),CH1 Auto-Correlation
1.0,0.511171281337738
2.0,0.5100852847099304
3.0,0.5089946985244751
4.0,0.5079043507575989
5.0,0.5069535374641418
6.0,0.5061384439468384
7.0,0.5053156614303589
8.0,0.5043848156929016
9.0,0.5034123659133911
10.0,0.5025737881660461
11.0,0.5016379356384277
12.0,0.5006657242774963
13.0,0.49960094690322876
14.0,0.49851104617118835
15.0,0.4974467158317566
16.0,0.49657315015792847
18.0,0.4949719309806824
20.0,0.493424654006958
22.0,0.49171558022499084
24.0,0.490048348903656
26.0,0.48832881450653076
28.0,0.4866859018802643
30.0,0.4852372407913208
32.0,0.48373332619667053
36.0,0.48105624318122864
40.0,0.4777956008911133
44.0,0.47397175431251526
48.0,0.46985116600990295
52.0,0.46559134125709534
56.0,0.46056196093559265
60.0,0.45540550351142883
64.0,0.4497784674167633
72.0,0.4383073151111603
80.0,0.4269481301307678
88.0,0.41541486978530884
96.0,0.4042673408985138
104.0,0.39598357677459717
112.0,0.38809287548065186
120.0,0.37904277443885803
128.0,0.36968058347702026
144.0,0.3502846658229828
160.0,0.33421993255615234
176.0,0.3162904679775238
192.0,0.2919662296772003
208.0,0.265581876039505
224.0,0.23918327689170837
240.0,0.2102109044790268
256.0,0.18190467357635498
288.0,0.12910421192646027
320.0,0.08696332573890686
352.0,0.05145256593823433
384.0,0.015541152097284794
416.0,-0.014386196620762348
448.0,-0.039030417799949646
480.0,-0.05726933106780052
512.0,-0.06453496962785721
576.0,-0.06497372686862946
640.0,-0.06239553168416023
704.0,-0.06682989001274109
768.0,-0.07779080420732498
832.0,-0.08529265224933624
896.0,-0.08804533630609512
960.0,-0.08499714732170105
1024.0,-0.09522946923971176
1152.0,-0.14386650919914246
1280.0,-0.20071594417095184
1408.0,-0.2593497037887573
1536.0,-0.36293473839759827
1664.0,-0.40222400426864624
1792.0,-0.5173964500427246
end
