version,3.0
numOfCh,1
type,point
parent_name,ff67b_0dot6-0dot01
ch_type,1_1
kcount,1
numberNandB,1
brightnessNandB,1
carpet pos,0
pc,0
Time (ms),CH1 Auto-Correlation
1.0,0.09814238548278809
2.0,0.09612856805324554
3.0,0.09415290504693985
4.0,0.09225989133119583
5.0,0.09047092497348785
6.0,0.08877944946289062
7.0,0.08713513612747192
8.0,0.08555078506469727
9.0,0.08402945101261139
10.0,0.08255589753389359
11.0,0.08116640895605087
12.0,0.0797850489616394
13.0,0.07844632118940353
14.0,0.07718784362077713
15.0,0.07593624293804169
16.0,0.07466106116771698
18.0,0.07114555686712265
20.0,0.06858222186565399
22.0,0.06604500114917755
24.0,0.06357299536466599
26.0,0.06122010573744774
28.0,0.0588461235165596
30.0,0.05646449699997902
32.0,0.05406393110752106
36.0,0.04752340540289879
40.0,0.04312141612172127
44.0,0.03882191702723503
48.0,0.03468332439661026
52.0,0.030476102605462074
56.0,0.026311317458748817
60.0,0.022330267354846
64.0,0.018290316686034203
72.0,0.01783258281648159
80.0,0.01669728383421898
88.0,0.01568359136581421
96.0,0.01559659093618393
104.0,0.015777679160237312
112.0,0.015716101974248886
120.0,0.015395522117614746
128.0,0.014567884616553783
144.0,0.01382663007825613
160.0,0.01164190098643303
176.0,0.010608840733766556
192.0,0.009757496416568756
208.0,0.009850548580288887
224.0,0.009712527506053448
240.0,0.008867142722010612
256.0,0.00868129450827837
288.0,0.006852663122117519
320.0,0.005906488746404648
352.0,0.0037184194661676884
384.0,0.003314809175208211
416.0,0.0038558293599635363
448.0,0.0029149199835956097
480.0,0.0036836983636021614
512.0,0.004154282156378031
576.0,-0.0006056312122382224
640.0,0.0008191937231458724
704.0,0.0008753464790061116
768.0,0.0009875785326585174
832.0,-4.377302320790477e-05
896.0,-0.000204099589609541
960.0,0.0013941839570179582
1024.0,0.002291098004207015
1152.0,0.005865017417818308
1280.0,0.0065201991237699986
1408.0,0.006924710236489773
1536.0,0.00409136014059186
1664.0,0.002809289377182722
1792.0,-0.00061356759397313
1920.0,-0.0018759312806650996
2048.0,-0.001869548810645938
2304.0,0.0033209670800715685
2560.0,0.004401122219860554
2816.0,-0.0017456685891374946
3072.0,-0.0015745287528261542
3328.0,-0.0027123636100441217
3584.0,-0.005935508757829666
3840.0,-0.004752322565764189
4096.0,-0.005690332036465406
4608.0,-0.007570224814116955
5120.0,-0.007187409792095423
5632.0,-0.002420267090201378
6144.0,-0.005681576207280159
6656.0,-0.006679476238787174
7168.0,-0.0010294733801856637
7680.0,-0.00221873726695776
8192.0,-0.00021765957353636622
end
