version,3.0
numOfCh,1
type,point
parent_name,ff67b_0dot6-0dot01
ch_type,1_1
kcount,1
numberNandB,1
brightnessNandB,1
carpet pos,0
pc,0
Time (ms),CH1 Auto-Correlation
1.0,0.02646787278354168
2.0,0.025075547397136688
3.0,0.023830227553844452
4.0,0.022697612643241882
5.0,0.021658139303326607
6.0,0.020752092823386192
7.0,0.019893033429980278
8.0,0.019085224717855453
9.0,0.018280895426869392
10.0,0.017558816820383072
11.0,0.016931045800447464
12.0,0.016288671642541885
13.0,0.015640955418348312
14.0,0.015006344765424728
15.0,0.014381987042725086
16.0,0.013784392736852169
18.0,0.01244225911796093
20.0,0.011236484162509441
22.0,0.0105708297342062
24.0,0.009956298395991325
26.0,0.009332186542451382
28.0,0.008822810836136341
30.0,0.008406721986830235
32.0,0.008068705908954144
36.0,0.007576767820864916
40.0,0.007148765958845615
44.0,0.006760705262422562
48.0,0.006341104861348867
52.0,0.0058770631439983845
56.0,0.005483976099640131
60.0,0.005070863291621208
64.0,0.004466555546969175
72.0,0.003489894326776266
80.0,0.003123572561889887
88.0,0.003174015088006854
96.0,0.0031445566564798355
104.0,0.0029535593930631876
112.0,0.0027697249315679073
120.0,0.002954657655209303
128.0,0.003067250596359372
144.0,0.0026405188255012035
160.0,0.0021888981573283672
176.0,0.0018870587227866054
192.0,0.0014630660880357027
208.0,0.0008610375225543976
224.0,0.00048132959636859596
240.0,0.0005548272747546434
256.0,0.001118123414926231
288.0,0.000897502526640892
320.0,-0.0002548690536059439
352.0,-0.00022475147852674127
384.0,-0.00015835960221011192
416.0,0.0009150939877144992
448.0,0.0008850980084389448
480.0,-0.0002253828279208392
512.0,-0.0010636384831741452
576.0,-0.00036656748852692544
640.0,-0.00019348559726495296
704.0,-0.0003438746207393706
768.0,-0.0009221445070579648
832.0,-0.0007506100810132921
896.0,-0.0007316747214645147
960.0,-0.0009916749550029635
1024.0,-0.0006518545560538769
1152.0,-0.0002158369024982676
1280.0,-0.0020286792423576117
1408.0,-0.0022852495312690735
1536.0,-0.0023283970076590776
1664.0,-0.0015772200422361493
1792.0,0.0005912044434808195
1920.0,8.774109301157296e-05
2048.0,-0.000364184845238924
2304.0,-0.0011013034963980317
2560.0,0.0004417546442709863
2816.0,0.001542181009426713
3072.0,0.0015644744271412492
3328.0,-0.0016502955695614219
3584.0,0.00044500871445052326
3840.0,0.0006927684298716486
4096.0,0.0012246890692040324
4608.0,-8.14761224319227e-05
5120.0,-0.001822174061089754
5632.0,-0.0003940441529266536
6144.0,0.00029774210997857153
6656.0,0.0008523474098183215
7168.0,2.003434201469645e-05
7680.0,0.00044903228990733624
8192.0,-0.0006586778326891363
end
