version,3.0
numOfCh,1
type,point
parent_name,ff67b_0dot6-0dot01
ch_type,1_1
kcount,1
numberNandB,1
brightnessNandB,1
carpet pos,0
pc,0
Time (ms),CH1 Auto-Correlation
1.0,0.023282038047909737
2.0,0.02215098775923252
3.0,0.02113821730017662
4.0,0.0201836209744215
5.0,0.0192924365401268
6.0,0.018489010632038116
7.0,0.01773943565785885
8.0,0.017044005915522575
9.0,0.01638670079410076
10.0,0.01576598361134529
11.0,0.01518627442419529
12.0,0.014598985202610493
13.0,0.014030450023710728
14.0,0.013530660420656204
15.0,0.013062122277915478
16.0,0.012602857314050198
18.0,0.0117739113047719
20.0,0.010978536680340767
22.0,0.010293292813003063
24.0,0.009666068479418755
26.0,0.009078008122742176
28.0,0.008569281548261642
30.0,0.008139709010720253
32.0,0.007748483680188656
36.0,0.007151441648602486
40.0,0.006819222588092089
44.0,0.00652974983677268
48.0,0.006213930435478687
52.0,0.005796107929199934
56.0,0.005341389682143927
60.0,0.005017794668674469
64.0,0.0048750718124210835
72.0,0.004470960237085819
80.0,0.003998631611466408
88.0,0.0037266924045979977
96.0,0.003438524901866913
104.0,0.003075213870033622
112.0,0.0025780508294701576
120.0,0.00218425365164876
128.0,0.0015886991750448942
144.0,0.0015775656793266535
160.0,0.0015738429501652718
176.0,0.001771206734701991
192.0,0.0018531136447563767
208.0,0.001313900575041771
224.0,0.0007365924539044499
240.0,0.0008612319943495095
256.0,0.0010948356939479709
288.0,0.002084477338939905
320.0,0.0011996087851002812
352.0,0.0012176503660157323
384.0,0.0017499864334240556
416.0,0.0005438782391138375
448.0,0.00013242503337096423
480.0,-0.0004443273355718702
512.0,-0.0011405566474422812
576.0,-0.0007129902951419353
640.0,-0.0016368987271562219
704.0,-0.0012505138292908669
768.0,-0.0009413697989657521
832.0,-0.0012644563103094697
896.0,-0.001591282431036234
960.0,-0.00083737209206447
1024.0,-0.00045905058505013585
1152.0,-7.038372859824449e-05
1280.0,0.0010224956786260009
1408.0,-6.627435504924506e-05
1536.0,-6.160562043078244e-05
1664.0,-0.0010302599985152483
1792.0,-0.0008890821482054889
1920.0,-0.00017994439986068755
2048.0,-0.00013193479389883578
2304.0,0.00024118114379234612
2560.0,0.001255949609912932
2816.0,0.0002156356640625745
3072.0,-0.0008105767774395645
3328.0,-0.0008847088902257383
3584.0,-0.0010139710502699018
3840.0,-0.0002405172272119671
4096.0,0.001675720326602459
4608.0,-0.0006543754716403782
5120.0,-0.0007833782583475113
5632.0,0.00029163804720155895
6144.0,-0.00038434111047536135
6656.0,-0.0008811025181785226
7168.0,2.4497552658431232e-05
7680.0,-0.00022407302458304912
8192.0,0.000414896261645481
end
