version,3.0
numOfCh,1
type,point
parent_name,ff67b_0dot6-0dot01
ch_type,1_1
kcount,1
numberNandB,1
brightnessNandB,1
carpet pos,0
pc,0
Time (ms),CH1 Auto-Correlation
1.0,0.02471218816936016
2.0,0.023627066984772682
3.0,0.022616498172283173
4.0,0.021684449166059494
5.0,0.020856112241744995
6.0,0.020143408328294754
7.0,0.019492914900183678
8.0,0.018888557329773903
9.0,0.018295517191290855
10.0,0.017749257385730743
11.0,0.017254240810871124
12.0,0.01677068881690502
13.0,0.016319576650857925
14.0,0.015901977196335793
15.0,0.015518133528530598
16.0,0.015139095485210419
18.0,0.014449283480644226
20.0,0.013790003955364227
22.0,0.013223185203969479
24.0,0.012699559330940247
26.0,0.012211817316710949
28.0,0.011803771369159222
30.0,0.011469658464193344
32.0,0.011109988205134869
36.0,0.010518631897866726
40.0,0.009868213906884193
44.0,0.009250558912754059
48.0,0.008637453429400921
52.0,0.00807509757578373
56.0,0.007499111350625753
60.0,0.006985883694142103
64.0,0.006428169086575508
72.0,0.005739441141486168
80.0,0.00518045574426651
88.0,0.004821880720555782
96.0,0.004676935728639364
104.0,0.004580748733133078
112.0,0.00391506589949131
120.0,0.003159760031849146
128.0,0.002340511418879032
144.0,0.0020115291699767113
160.0,0.001512291724793613
176.0,0.0010820971801877022
192.0,0.0007645083242096007
208.0,0.000652559392619878
224.0,0.00020946234872099012
240.0,-0.0010678427061066031
256.0,-0.00133553147315979
288.0,-0.0009276946657337248
320.0,-0.0006648869602940977
352.0,0.00017796912288758904
384.0,0.0002035566867562011
416.0,-0.0003553567221388221
448.0,0.00024008058244362473
480.0,0.0009513082331977785
512.0,0.0008104222943075001
576.0,0.002432134933769703
640.0,0.0016832954715937376
704.0,0.0010119862854480743
768.0,0.00044105766573920846
832.0,-0.0018391413614153862
896.0,-0.003046025289222598
960.0,-0.0017623530002310872
1024.0,4.8422440158901736e-05
1152.0,8.673025877214968e-05
1280.0,0.0009237476624548435
1408.0,-0.0008572725928388536
1536.0,-0.0025397860445082188
1664.0,-0.002255900762975216
1792.0,-0.002134893322363496
1920.0,-0.00030612267437390983
2048.0,-0.0003080604365095496
2304.0,-0.0013514135498553514
2560.0,-0.0002745534584391862
2816.0,0.0008154226234182715
3072.0,-3.919489972759038e-05
3328.0,-0.00018101443129125983
3584.0,0.0008856148342601955
3840.0,0.0014480737736448646
4096.0,0.0012844732264056802
4608.0,0.0011184471659362316
5120.0,-0.00032397531322203577
5632.0,-0.0014759455807507038
6144.0,-0.0021984311752021313
6656.0,-0.0005315655726008117
7168.0,0.0015445280587300658
7680.0,0.001907113241031766
8192.0,0.00039480498526245356
end
