version,3.0
numOfCh,1
type,point
parent_name,ff67b_0dot6-0dot01
ch_type,1_1
kcount,1
numberNandB,1
brightnessNandB,1
carpet pos,0
pc,0
Time (ms),CH1 Auto-Correlation
1.0,0.0243842750787735
2.0,0.023272542282938957
3.0,0.0222442839294672
4.0,0.021316612139344215
5.0,0.020471053197979927
6.0,0.019709870219230652
7.0,0.019015030935406685
8.0,0.018382355570793152
9.0,0.017798319458961487
10.0,0.0172364953905344
11.0,0.016714299097657204
12.0,0.01621527224779129
13.0,0.015756968408823013
14.0,0.015375538729131222
15.0,0.0150169488042593
16.0,0.014667368493974209
18.0,0.01400861144065857
20.0,0.013360363431274891
22.0,0.01279064267873764
24.0,0.012322453781962395
26.0,0.011867346242070198
28.0,0.011418703943490982
30.0,0.011117175221443176
32.0,0.010900607332587242
36.0,0.010540077462792397
40.0,0.01029425673186779
44.0,0.00999618973582983
48.0,0.009578527882695198
52.0,0.009231586940586567
56.0,0.008738415315747261
60.0,0.00815438013523817
64.0,0.007692411076277494
72.0,0.007341634947806597
80.0,0.007017039228230715
88.0,0.006604847032576799
96.0,0.006076586898416281
104.0,0.005549946334213018
112.0,0.00471060536801815
120.0,0.004115117713809013
128.0,0.0039018667303025723
144.0,0.0036204170901328325
160.0,0.0029704829212278128
176.0,0.002430330729112029
192.0,0.0025219316594302654
208.0,0.002410353859886527
224.0,0.0019243614515289664
240.0,0.0017360752681270242
256.0,0.0013904324732720852
288.0,0.0010842395713552833
320.0,0.001273604342713952
352.0,0.0006731922039762139
384.0,-1.9628780137281865e-05
416.0,-0.0007978486828505993
448.0,-0.0009241572115570307
480.0,-0.00031020972528494895
512.0,-0.0007771708187647164
576.0,-6.442525773309171e-05
640.0,0.00045360278454609215
704.0,-0.00041700730798766017
768.0,-0.001605225377716124
832.0,-0.0020681265741586685
896.0,-0.0020079424139112234
960.0,-0.001943896641023457
1024.0,-0.0012741722166538239
1152.0,-0.0004948156420141459
1280.0,-0.0013212417252361774
1408.0,0.0013178036315366626
1536.0,0.002416193950921297
1664.0,0.0029133709613233805
1792.0,0.0026961651165038347
1920.0,0.0013181878020986915
2048.0,0.0016536192269995809
2304.0,-0.000540438573807478
2560.0,-0.00017296460282523185
2816.0,0.00012001785216853023
3072.0,-0.0004839648026973009
3328.0,-0.0019087489927187562
3584.0,9.884115570457652e-05
3840.0,-0.00019039817561861128
4096.0,-0.00014764168008696288
4608.0,-0.0007911118445917964
5120.0,-0.002609678776934743
5632.0,-0.0009945917408913374
6144.0,-0.0006302005494944751
6656.0,-0.000670401961542666
7168.0,-0.0012955819256603718
7680.0,-0.0012202545767650008
8192.0,-0.0005736495950259268
end
