version,3.0
numOfCh,1
type,point
parent_name,ff67b_0dot6-0dot01
ch_type,1_1
kcount,1
numberNandB,1
brightnessNandB,1
carpet pos,0
pc,0
Time (ms),CH1 Auto-Correlation
1.0,0.023077713325619698
2.0,0.021957896649837494
3.0,0.02094348520040512
4.0,0.020016640424728394
5.0,0.019138941541314125
6.0,0.018345238640904427
7.0,0.01761111430823803
8.0,0.016956564038991928
9.0,0.016321411356329918
10.0,0.01574571430683136
11.0,0.015171699225902557
12.0,0.01464858092367649
13.0,0.014147594571113586
14.0,0.013680193573236465
15.0,0.013212688267230988
16.0,0.012806175276637077
18.0,0.012030210345983505
20.0,0.011375488713383675
22.0,0.0107922637835145
24.0,0.010232747532427311
26.0,0.009760869666934013
28.0,0.009336860850453377
30.0,0.008973614312708378
32.0,0.008595871739089489
36.0,0.007951795123517513
40.0,0.007395935710519552
44.0,0.006764845922589302
48.0,0.006157591473311186
52.0,0.005570621695369482
56.0,0.005110163241624832
60.0,0.004740460775792599
64.0,0.00443399278447032
72.0,0.00440539326518774
80.0,0.004337847698479891
88.0,0.0038812223356217146
96.0,0.00351335178129375
104.0,0.0028618338983505964
112.0,0.0020626892801374197
120.0,0.0016068541444838047
128.0,0.001640946720726788
144.0,0.0015259745996445417
160.0,0.0011300487676635385
176.0,0.0009059426374733448
192.0,0.00014078052481636405
208.0,-0.0001702887675492093
224.0,-0.0003322979318909347
240.0,-0.0006006653420627117
256.0,-0.00031148779089562595
288.0,-0.0005659531452693045
320.0,-0.000656904187053442
352.0,-0.000674698268994689
384.0,-0.000647420936729759
416.0,-0.0008367133559659123
448.0,-0.0012948954245075583
480.0,-0.001854748115874827
512.0,-0.0007335059926845133
576.0,-0.00022752619406674057
640.0,4.893262666882947e-05
704.0,-2.4969316655187868e-05
768.0,-0.0004990070592612028
832.0,-0.0002536298707127571
896.0,0.0003353800857439637
960.0,-0.0003556765732355416
1024.0,0.0005508219473995268
1152.0,-0.000909116119146347
1280.0,-0.0022006479557603598
1408.0,-6.910884258104488e-05
1536.0,-0.00035972805926576257
1664.0,-0.0007000630721449852
1792.0,-0.00035963047412224114
1920.0,0.0008163594757206738
2048.0,0.00022345308389049023
2304.0,-0.0007238508551381528
2560.0,0.0008290234836749732
2816.0,-0.0006938934093341231
3072.0,-0.00018284098769072443
3328.0,0.00034418856375850737
3584.0,0.0012038106797263026
3840.0,0.00012238048657309264
4096.0,-0.0005439749220386147
4608.0,0.000961621233727783
5120.0,-0.0012207046383991838
5632.0,-0.0003845087776426226
6144.0,0.0003562889469321817
6656.0,-0.00010772582027129829
7168.0,0.0002080397680401802
7680.0,-0.00023271498503163457
8192.0,0.00017042036051861942
end
