version,3.0
numOfCh,1
type,point
parent_name,c1204_0dot6-0dot1
ch_type,1_1
kcount,1
numberNandB,1
brightnessNandB,1
carpet pos,0
pc,0
Time (ms),CH1 Auto-Correlation
1.0,0.02412780001759529
2.0,0.022912757471203804
3.0,0.021774237975478172
4.0,0.020749343559145927
5.0,0.019826173782348633
6.0,0.018996622413396835
7.0,0.018211346119642258
8.0,0.017484283074736595
9.0,0.016750946640968323
10.0,0.016056910157203674
11.0,0.015394935384392738
12.0,0.014790226705372334
13.0,0.014197975397109985
14.0,0.01366057526320219
15.0,0.013184146024286747
16.0,0.012736102566123009
18.0,0.011900335550308228
20.0,0.01110037975013256
22.0,0.010370354168117046
24.0,0.009767923504114151
26.0,0.00924944318830967
28.0,0.008805450983345509
30.0,0.008412299677729607
32.0,0.00803322996944189
36.0,0.007336401846259832
40.0,0.006779261399060488
44.0,0.0062080733478069305
48.0,0.005645912140607834
52.0,0.005191604141145945
56.0,0.004896223545074463
60.0,0.00460526067763567
64.0,0.004198573529720306
72.0,0.0035524771083146334
80.0,0.0034310256596654654
88.0,0.0031842123717069626
96.0,0.002727705053985119
104.0,0.002253214828670025
112.0,0.0016626442084088922
120.0,0.0009693705942481756
128.0,0.0005133197992108762
144.0,0.0002610707888379693
160.0,0.00047130350139923394
176.0,0.0005236628348939121
192.0,0.0009075369453057647
208.0,0.0012284599943086505
224.0,0.000990827102214098
240.0,0.0009540170431137085
256.0,0.0008425008854828775
288.0,0.0007076652836985886
320.0,0.00029869191348552704
352.0,-0.00011999411071883515
384.0,-0.00010720934369601309
416.0,8.761028584558517e-05
448.0,0.0008212571847252548
480.0,0.00057359563652426
512.0,4.141776298638433e-05
576.0,-0.0021295303013175726
640.0,-0.0020410583820194006
704.0,-0.0008634693222120404
768.0,-0.0010900490451604128
832.0,-0.0022207708097994328
896.0,-0.0020681677851825953
960.0,-0.0010653038043528795
1024.0,-0.0007786175701767206
1152.0,-0.0009681720403023064
1280.0,-0.0004653650685213506
1408.0,0.0001147222428699024
1536.0,-0.0004012170247733593
1664.0,-0.00011905306746484712
1792.0,-0.00011901599646080285
1920.0,0.00010534136526985094
2048.0,6.63551181787625e-05
2304.0,0.0007260286365635693
2560.0,-0.00015894198440946639
2816.0,-0.0002799301582854241
3072.0,7.002046913839877e-05
3328.0,0.00018668590928427875
3584.0,-0.0001411772973369807
3840.0,-0.000579158600885421
4096.0,0.0005611596861854196
4608.0,-7.800012099323794e-05
5120.0,-0.0002979217388201505
5632.0,0.0007185617578215897
6144.0,0.00010568823927314952
6656.0,0.0005804827087558806
7168.0,-0.0008035709615796804
7680.0,-0.0001418463361915201
8192.0,-0.0007997587672434747
end
