version,3.0
numOfCh,1
type,point
parent_name,c1204_0dot6-0dot1
ch_type,1_1
kcount,1
numberNandB,1
brightnessNandB,1
carpet pos,0
pc,0
Time (ms),CH1 Auto-Correlation
1.0,0.02216712012887001
2.0,0.02104448340833187
3.0,0.020043442025780678
4.0,0.019133245572447777
5.0,0.018262509256601334
6.0,0.017483830451965332
7.0,0.01677594520151615
8.0,0.016131892800331116
9.0,0.01551092229783535
10.0,0.014951345510780811
11.0,0.014391666278243065
12.0,0.013857264071702957
13.0,0.013415241613984108
14.0,0.012981770560145378
15.0,0.012538176029920578
16.0,0.012089559808373451
18.0,0.011303781531751156
20.0,0.01057225838303566
22.0,0.009974549524486065
24.0,0.00948688481003046
26.0,0.009070133790373802
28.0,0.008647981099784374
30.0,0.008268644101917744
32.0,0.007955546490848064
36.0,0.007390253245830536
40.0,0.0067533706314861774
44.0,0.006133949384093285
48.0,0.005614789668470621
52.0,0.0052471584640443325
56.0,0.004768773913383484
60.0,0.004302159883081913
64.0,0.004099458456039429
72.0,0.003821737365797162
80.0,0.0034325106535106897
88.0,0.0031706702429801226
96.0,0.003030040767043829
104.0,0.0028585053514689207
112.0,0.0028453106060624123
120.0,0.002788552548736334
128.0,0.002506660297513008
144.0,0.0021586010698229074
160.0,0.002084797015413642
176.0,0.0024187688250094652
192.0,0.0027616354636847973
208.0,0.0032508918084204197
224.0,0.003656151005998254
240.0,0.003588456427678466
256.0,0.002788869198411703
288.0,0.0019290003692731261
320.0,0.001549268839880824
352.0,0.0011751895071938634
384.0,0.0017799556953832507
416.0,0.0019910784903913736
448.0,0.0015150030376389623
480.0,0.0008320718770846725
512.0,0.0003036877606064081
576.0,0.00024213003052864224
640.0,0.0009237181511707604
704.0,0.0009514879784546793
768.0,-4.684176019509323e-05
832.0,0.0014168687630444765
896.0,0.0006898327264934778
960.0,-0.0006971736438572407
1024.0,-0.0009120798786170781
1152.0,-1.5751506907690782e-06
1280.0,0.00018344262207392603
1408.0,-0.0014482757542282343
1536.0,-0.0017613567179068923
1664.0,-0.0019644706044346094
1792.0,-0.0003570788830984384
1920.0,-0.0005822136299684644
2048.0,0.0003193820593878627
2304.0,0.001122838817536831
2560.0,0.0014657143037766218
2816.0,0.0010989223374053836
3072.0,-0.0002904252032749355
3328.0,-0.00042840882088057697
3584.0,-0.00024538958678022027
3840.0,-0.0016304187010973692
4096.0,-0.0016982724191620946
4608.0,-0.0012582471827045083
5120.0,0.00023039292136672884
5632.0,0.00019558558415155858
6144.0,-6.0209244111320004e-05
6656.0,-0.0016913515282794833
7168.0,-0.0028553723823279142
7680.0,-0.0010629111202433705
8192.0,-0.001049719052389264
end
