version,3.0
numOfCh,1
type,point
parent_name,c1204_0dot6-0dot1
ch_type,1_1
kcount,1
numberNandB,1
brightnessNandB,1
carpet pos,0
pc,0
Time (ms),CH1 Auto-Correlation
1.0,0.024238361045718193
2.0,0.02302665077149868
3.0,0.021914491429924965
4.0,0.020892923697829247
5.0,0.019984247162938118
6.0,0.01913694478571415
7.0,0.018346726894378662
8.0,0.017610590904951096
9.0,0.01699620485305786
10.0,0.016444556415081024
11.0,0.015941577032208443
12.0,0.015433765016496181
13.0,0.014920447953045368
14.0,0.014445913024246693
15.0,0.01404363289475441
16.0,0.013621153309941292
18.0,0.01275661215186119
20.0,0.011912573128938675
22.0,0.011249166913330555
24.0,0.010643253102898598
26.0,0.010096177458763123
28.0,0.009610481560230255
30.0,0.00917820818722248
32.0,0.008742757141590118
36.0,0.008019632659852505
40.0,0.0073592448607087135
44.0,0.006826637778431177
48.0,0.006336213555186987
52.0,0.006081010680645704
56.0,0.005960098002105951
60.0,0.005891104228794575
64.0,0.005772623233497143
72.0,0.005410871934145689
80.0,0.004688437096774578
88.0,0.0040972293354570866
96.0,0.003604261437430978
104.0,0.0030429386533796787
112.0,0.002499538939446211
120.0,0.0019937450997531414
128.0,0.0017930991016328335
144.0,0.0015726960264146328
160.0,0.0013959610369056463
176.0,0.0010736811673268676
192.0,0.0005055773071944714
208.0,0.00036814899067394435
224.0,0.000335071817971766
240.0,9.080080053536221e-05
256.0,0.00044470795546658337
288.0,0.0012150650145485997
320.0,0.0009027757914736867
352.0,0.0006332261837087572
384.0,0.0002808628778439015
416.0,0.0006815788219682872
448.0,0.001245856168679893
480.0,0.0007636118680238724
512.0,0.0005461810505948961
576.0,0.0010795594425871968
640.0,0.0010403483174741268
704.0,0.00015279649232979864
768.0,-0.000367506145266816
832.0,-0.0003058138827327639
896.0,-0.0004877429746557027
960.0,0.00016703452274668962
1024.0,0.00018102969625033438
1152.0,9.145084914052859e-05
1280.0,-0.00020549935288727283
1408.0,-5.035025242250413e-05
1536.0,-0.0006659495993517339
1664.0,0.0015753550687804818
1792.0,0.0014360996428877115
1920.0,0.0002918026875704527
2048.0,0.0005850953166373074
2304.0,-0.0003802045830525458
2560.0,-0.0012869549682363868
2816.0,-0.0009903048630803823
3072.0,-0.0014624379109591246
3328.0,-0.000700650445651263
3584.0,0.0006703049875795841
3840.0,0.00039970572106540203
4096.0,0.0009260831284336746
4608.0,-0.00031484797364100814
5120.0,0.0006535244756378233
5632.0,0.001298238872550428
6144.0,3.525210922816768e-05
6656.0,-0.00036185028147883713
7168.0,-0.00017656416457612067
7680.0,0.0011568657355383039
8192.0,-0.001745451008901
end
