version,3.0
numOfCh,1
type,point
parent_name,c1204_0dot6-0dot1
ch_type,1_1
kcount,1
numberNandB,1
brightnessNandB,1
carpet pos,0
pc,0
Time (ms),CH1 Auto-Correlation
1.0,0.021384084597229958
2.0,0.020102599635720253
3.0,0.018977437168359756
4.0,0.01799101009964943
5.0,0.017070984467864037
6.0,0.016186848282814026
7.0,0.015361655503511429
8.0,0.014599017798900604
9.0,0.01388634741306305
10.0,0.013195834122598171
11.0,0.012495084665715694
12.0,0.011870026588439941
13.0,0.01133768167346716
14.0,0.010823797434568405
15.0,0.01030215434730053
16.0,0.009834539145231247
18.0,0.00906357727944851
20.0,0.008414251729846
22.0,0.007828989066183567
24.0,0.007378134410828352
26.0,0.007037343457341194
28.0,0.006740521173924208
30.0,0.006457749288529158
32.0,0.006296820472925901
36.0,0.005822374485433102
40.0,0.00531332241371274
44.0,0.004905194044113159
48.0,0.004403727129101753
52.0,0.0038687363266944885
56.0,0.003346051322296262
60.0,0.0028264224529266357
64.0,0.0025133974850177765
72.0,0.0025846059434115887
80.0,0.0028098910115659237
88.0,0.002745835343375802
96.0,0.0021377697121351957
104.0,0.0014744012150913477
112.0,0.0013713835505768657
120.0,0.0016540316864848137
128.0,0.0022974717430770397
144.0,0.0026822825893759727
160.0,0.002637427067384124
176.0,0.002375297248363495
192.0,0.002298131352290511
208.0,0.0021163695491850376
224.0,0.001973934005945921
240.0,0.0022194015327841043
256.0,0.0016462086932733655
288.0,0.0017813340527936816
320.0,0.001322733936831355
352.0,0.0011586425825953484
384.0,0.0010432660346850753
416.0,0.0007478592451661825
448.0,0.0007699051639065146
480.0,0.0007512957090511918
512.0,0.0009074976551346481
576.0,-2.909456998168025e-05
640.0,0.0006791885825805366
704.0,0.0011506628943607211
768.0,6.052302069292637e-06
832.0,0.0009460467845201492
896.0,0.000908828224055469
960.0,0.0014412589371204376
1024.0,0.0015517488354817033
1152.0,0.0008193348767235875
1280.0,0.0009308338048867881
1408.0,0.0005000532255508006
1536.0,-9.703481191536412e-05
1664.0,-0.0004787185462191701
1792.0,6.419386409106664e-06
1920.0,0.0002320229250472039
2048.0,0.0004302058950997889
2304.0,-0.0004526440752670169
2560.0,-0.0021388905588537455
2816.0,-0.0012344098649919033
3072.0,0.0007404964417219162
3328.0,0.0006456561968661845
3584.0,-0.0011873299954459071
3840.0,-0.0018624818185344338
4096.0,0.00011844311666209251
4608.0,-0.0018926116172224283
5120.0,-0.00021036229736637324
5632.0,-0.0017859196523204446
6144.0,-0.0007462590001523495
6656.0,-0.0004123212129343301
7168.0,0.0008435076451860368
7680.0,-0.00023779127513989806
8192.0,0.0008265039068646729
end
