version,3.0
numOfCh,1
type,point
parent_name,c1204_0dot6-0dot1
ch_type,1_1
kcount,1
numberNandB,1
brightnessNandB,1
carpet pos,0
pc,0
Time (ms),CH1 Auto-Correlation
1.0,0.020121702924370766
2.0,0.0189407579600811
3.0,0.01786654442548752
4.0,0.01688186265528202
5.0,0.01594976708292961
6.0,0.015080456621944904
7.0,0.014303790405392647
8.0,0.013610012829303741
9.0,0.012968400493264198
10.0,0.012388934381306171
11.0,0.011880834586918354
12.0,0.011394145898520947
13.0,0.01092099491506815
14.0,0.010486322455108166
15.0,0.010089469142258167
16.0,0.009724356234073639
18.0,0.009108229540288448
20.0,0.008583883754909039
22.0,0.008154718205332756
24.0,0.007691031321883202
26.0,0.0072889067232608795
28.0,0.006954049225896597
30.0,0.006658392492681742
32.0,0.006461028940975666
36.0,0.006330710835754871
40.0,0.0060707805678248405
44.0,0.00568306865170598
48.0,0.005221745930612087
52.0,0.00471664872020483
56.0,0.0042692990973591805
60.0,0.003807232715189457
64.0,0.0034625749103724957
72.0,0.0028849642258137465
80.0,0.0024836550001055002
88.0,0.0021819151006639004
96.0,0.002135762944817543
104.0,0.0018273688619956374
112.0,0.0014018877409398556
120.0,0.0009841709397733212
128.0,0.0006335150683298707
144.0,0.0005860018427483737
160.0,0.00019246296142227948
176.0,-0.00026594201335683465
192.0,-0.00028325695893727243
208.0,-0.0009503555484116077
224.0,-0.0009475757833570242
240.0,-0.0006242655799724162
256.0,-0.00020465083071030676
288.0,-0.0008817717898637056
320.0,-0.000728159153368324
352.0,-0.00018019479466602206
384.0,-0.0003499758895486593
416.0,1.0740610377979465e-05
448.0,0.0007072218577377498
480.0,0.0008148883352987468
512.0,0.0008288371609523892
576.0,0.00046374223893508315
640.0,0.0002599643194116652
704.0,1.9062264982494526e-05
768.0,0.0005300479824654758
832.0,8.309764962177724e-05
896.0,-0.000629922840744257
960.0,-0.0007720247376710176
1024.0,-0.00044413257273845375
1152.0,0.00022104603704065084
1280.0,0.0006052630487829447
1408.0,0.00012938823783770204
1536.0,0.00113854487426579
1664.0,0.0017313093412667513
1792.0,0.0008242297335527837
1920.0,-0.000768829311709851
2048.0,-6.085848781367531e-06
2304.0,0.0007371915271505713
2560.0,-0.0011291441041976213
2816.0,0.0005696013104170561
3072.0,0.0007408063975162804
3328.0,0.0005301221972331405
3584.0,-0.00017375608149450272
3840.0,0.00017093823407776654
4096.0,-0.00011605435429373756
4608.0,-0.0001120938322856091
5120.0,-8.483428246108815e-05
5632.0,0.00011604486644500867
6144.0,-9.726889402372763e-05
6656.0,-0.0003633163869380951
7168.0,-0.00024840488913469017
7680.0,-0.0006173689034767449
8192.0,-0.001017439877614379
end
