version,3.0
numOfCh,1
type,point
parent_name,c1204_0dot6-0dot1
ch_type,1_1
kcount,1
numberNandB,1
brightnessNandB,1
carpet pos,0
pc,0
Time (ms),CH1 Auto-Correlation
1.0,0.021395869553089142
2.0,0.02025284431874752
3.0,0.01922209933400154
4.0,0.018305402249097824
5.0,0.017480285838246346
6.0,0.016682079061865807
7.0,0.015961410477757454
8.0,0.015319501981139183
9.0,0.0147393262013793
10.0,0.01415689941495657
11.0,0.013600736856460571
12.0,0.013110291212797165
13.0,0.012633970007300377
14.0,0.01221539918333292
15.0,0.01185053400695324
16.0,0.011476220563054085
18.0,0.01075111236423254
20.0,0.01005556434392929
22.0,0.009471388533711433
24.0,0.008943285793066025
26.0,0.008505995385348797
28.0,0.008100083097815514
30.0,0.007773666642606258
32.0,0.007481471169739962
36.0,0.007025885861366987
40.0,0.006615517660975456
44.0,0.006326101720333099
48.0,0.005897589027881622
52.0,0.005288588348776102
56.0,0.0048613883554935455
60.0,0.004398031625896692
64.0,0.003863545134663582
72.0,0.0031642531976103783
80.0,0.0028254592325538397
88.0,0.002860132372006774
96.0,0.0028000243473798037
104.0,0.002458765869960189
112.0,0.0021783781703561544
120.0,0.0018039067508652806
128.0,0.0014665232738479972
144.0,0.0009262654348276556
160.0,0.0007067729602567852
176.0,0.00029998866375535727
192.0,0.0002877310907933861
208.0,0.0007670718478038907
224.0,0.00039884925354272127
240.0,-3.722745896084234e-05
256.0,0.0004060720675624907
288.0,0.0010267792968079448
320.0,0.00040457703289575875
352.0,0.0005387684213928878
384.0,0.0009806458838284016
416.0,0.00035988492891192436
448.0,1.0649692740116734e-05
480.0,8.627848728792742e-05
512.0,-0.0001659863773966208
576.0,-0.00019901905034203082
640.0,-0.0006588989053852856
704.0,-0.000326730398228392
768.0,-0.0004275417304597795
832.0,0.000309882452711463
896.0,-4.3263164116069674e-05
960.0,-0.0003821537538897246
1024.0,0.0006286623538471758
1152.0,0.0004496118053793907
1280.0,-0.0007903201621957123
1408.0,0.00013439147733151913
1536.0,-0.00030639549368061125
1664.0,-0.0007183307898230851
1792.0,-0.0007597384392283857
1920.0,4.820780668524094e-05
2048.0,-0.0001813959243008867
2304.0,-0.0007187193841673434
2560.0,-0.0005256293225102127
2816.0,-0.00020092140766792
3072.0,-1.7317517631454393e-05
3328.0,-0.0001879692281363532
3584.0,-5.298203541315161e-05
3840.0,-0.0002479000249877572
4096.0,-0.00015959315351210535
4608.0,-0.0005773036973550916
5120.0,0.0004663452273234725
5632.0,-0.0007864799117669463
6144.0,0.00019006748334504664
6656.0,-0.0007375788991339505
7168.0,-0.000625436136033386
7680.0,-0.000888464564923197
8192.0,0.0007386798388324678
end
