version,3.0
numOfCh,1
type,point
parent_name,c1204_0dot6-0dot1
ch_type,1_1
kcount,1
numberNandB,1
brightnessNandB,1
carpet pos,0
pc,0
Time (ms),CH1 Auto-Correlation
1.0,0.02209133468568325
2.0,0.020913518965244293
3.0,0.01982625015079975
4.0,0.01884966716170311
5.0,0.017972905188798904
6.0,0.01713436469435692
7.0,0.016367902979254723
8.0,0.0156428050249815
9.0,0.014929265715181828
10.0,0.01426058541983366
11.0,0.013657373376190662
12.0,0.013088208623230457
13.0,0.012598280794918537
14.0,0.012127920053899288
15.0,0.011691848747432232
16.0,0.011323843151330948
18.0,0.010685653425753117
20.0,0.010083849541842937
22.0,0.0094754034653306
24.0,0.008959393948316574
26.0,0.008511815220117569
28.0,0.008064617402851582
30.0,0.007700785528868437
32.0,0.007391295395791531
36.0,0.006827436853200197
40.0,0.006305371876806021
44.0,0.005764354486018419
48.0,0.005296232178807259
52.0,0.0049601588398218155
56.0,0.004587130155414343
60.0,0.004174667410552502
64.0,0.003918937407433987
72.0,0.0034754304215312004
80.0,0.002999861491844058
88.0,0.0024854023940861225
96.0,0.002195181557908654
104.0,0.0015706602716818452
112.0,0.0012595646549016237
120.0,0.001184021239168942
128.0,0.001184112741611898
144.0,0.0011798471678048372
160.0,0.0007584415725432336
176.0,0.0005964190349914134
192.0,0.0004269173659849912
208.0,0.0004264919843990356
224.0,0.000264904199866578
240.0,0.00036454765358939767
256.0,0.0002373596071265638
288.0,0.00010609690070850775
320.0,-0.0006935451528988779
352.0,-0.0008098777616396546
384.0,-0.0006180967902764678
416.0,-0.000637038960121572
448.0,-0.0005174301331862807
480.0,-0.00016461429186165333
512.0,0.00044386560330167413
576.0,0.00115276500582695
640.0,0.0011313027935102582
704.0,0.0010560473892837763
768.0,0.001894851215183735
832.0,0.001125592621974647
896.0,0.0005736371385864913
960.0,0.0006408671615645289
1024.0,-0.0009895889088511467
1152.0,-0.0007261692662723362
1280.0,-1.1679297813316225e-06
1408.0,-0.00028293620562180877
1536.0,-0.00021208477846812457
1664.0,0.00016179269005078822
1792.0,-0.0006901172455400229
1920.0,-0.0011703449999913573
2048.0,2.6314173737773672e-05
2304.0,-0.0002220767200924456
2560.0,-0.0010066559771075845
2816.0,-0.0008405035478062928
3072.0,0.0008348246919922531
3328.0,-0.000531294324900955
3584.0,0.00034489386598579586
3840.0,-0.00015585095388814807
4096.0,-0.0007152760517783463
4608.0,-0.0011547391768544912
5120.0,-0.0006998643511906266
5632.0,-0.0013261438580229878
6144.0,0.0009873034432530403
6656.0,0.0009548152447678149
7168.0,0.00013632526679430157
7680.0,0.0012583286734297872
8192.0,2.1501769879250787e-05
end
