version,3.0
numOfCh,1
type,point
parent_name,c1204_0dot6-0dot1
ch_type,1_1
kcount,1
numberNandB,1
brightnessNandB,1
carpet pos,0
pc,0
Time (ms),CH1 Auto-Correlation
1.0,0.022438541054725647
2.0,0.02125387452542782
3.0,0.020178131759166718
4.0,0.019220411777496338
5.0,0.018332989886403084
6.0,0.01752651482820511
7.0,0.016800016164779663
8.0,0.01611064001917839
9.0,0.015453899279236794
10.0,0.014853433705866337
11.0,0.014274665154516697
12.0,0.013752036727964878
13.0,0.013271713629364967
14.0,0.012815183028578758
15.0,0.01237543672323227
16.0,0.011926711536943913
18.0,0.011108336970210075
20.0,0.010256714187562466
22.0,0.0094499746337533
24.0,0.008750353008508682
26.0,0.008025615476071835
28.0,0.007341280579566956
30.0,0.006823970936238766
32.0,0.006369227077811956
36.0,0.005560214631259441
40.0,0.004794447682797909
44.0,0.004231201950460672
48.0,0.003809247398748994
52.0,0.0034503675997257233
56.0,0.0031363321468234062
60.0,0.002774840220808983
64.0,0.0025051054544746876
72.0,0.002151734195649624
80.0,0.001906616729684174
88.0,0.001783026847988367
96.0,0.0019246909068897367
104.0,0.0021081813611090183
112.0,0.001909184269607067
120.0,0.0015568011440336704
128.0,0.001084407209418714
144.0,-2.3947912268340588e-05
160.0,-0.0002297640312463045
176.0,0.0003463270259089768
192.0,0.0006043179309926927
208.0,9.556407167110592e-05
224.0,-0.00018536859715823084
240.0,0.0002557157422415912
256.0,0.0005983585142530501
288.0,-0.00010965920228045434
320.0,-0.0006780686089769006
352.0,0.000219779642065987
384.0,0.0006091825780458748
416.0,-7.874323637224734e-05
448.0,0.00025242764968425035
480.0,0.0004265473398845643
512.0,0.00033141954918392
576.0,0.0005864709382876754
640.0,0.0012237605405971408
704.0,0.00023868860444054008
768.0,-0.0013603533152490854
832.0,-0.0010109691647812724
896.0,-0.00030821296968497336
960.0,-0.0001225779124069959
1024.0,0.0004024997178930789
1152.0,2.5594075850676745e-05
1280.0,0.0002622025494929403
1408.0,-0.0003680406080093235
1536.0,-0.00022408243967220187
1664.0,-0.00038977936492301524
1792.0,-1.963249633263331e-05
1920.0,-0.0005218159640207887
2048.0,-0.0019825980998575687
2304.0,-3.3973647077800706e-06
2560.0,-0.0006192025612108409
2816.0,0.0006128140958026052
3072.0,-0.0002458456438034773
3328.0,0.00014059861132409424
3584.0,0.0008318565669469535
3840.0,5.780876745120622e-05
4096.0,0.0014835549518465996
4608.0,-1.2201103345432784e-05
5120.0,6.889902579132468e-05
5632.0,6.863604357931763e-05
6144.0,0.0005122924922034144
6656.0,0.0005675628781318665
7168.0,-0.00018422883294988424
7680.0,-0.0008956326055340469
8192.0,-0.0012006998294964433
end
