version,3.0
numOfCh,1
type,point
parent_name,c1204_0dot6-0dot1
ch_type,1_1
kcount,1
numberNandB,1
brightnessNandB,1
carpet pos,0
pc,0
Time (ms),CH1 Auto-Correlation
1.0,0.023951884359121323
2.0,0.02277919463813305
3.0,0.02169230207800865
4.0,0.020737530663609505
5.0,0.019889110699295998
6.0,0.019103949889540672
7.0,0.018369343131780624
8.0,0.017741156741976738
9.0,0.017150258645415306
10.0,0.016606148332357407
11.0,0.016082338988780975
12.0,0.01561847236007452
13.0,0.015164156444370747
14.0,0.014728447422385216
15.0,0.014312363229691982
16.0,0.013910582289099693
18.0,0.01318355556577444
20.0,0.012627272866666317
22.0,0.01218828558921814
24.0,0.011784182861447334
26.0,0.011409400962293148
28.0,0.011029939167201519
30.0,0.010695723816752434
32.0,0.010416070930659771
36.0,0.009827418252825737
40.0,0.009238036349415779
44.0,0.008699982427060604
48.0,0.008272193372249603
52.0,0.007807946298271418
56.0,0.00729162385687232
60.0,0.0068437871523201466
64.0,0.006388981826603413
72.0,0.005295189097523689
80.0,0.004329009912908077
88.0,0.0035582883283495903
96.0,0.003292135428637266
104.0,0.0031057309824973345
112.0,0.0030645488295704126
120.0,0.0026554579380899668
128.0,0.0021356772631406784
144.0,0.0020415091421455145
160.0,0.0021086293272674084
176.0,0.002331929514184594
192.0,0.0016856868751347065
208.0,0.0010270565981045365
224.0,0.0013693046057596803
240.0,0.0010326012270525098
256.0,0.0007225707522593439
288.0,0.00016195507487282157
320.0,0.00015490823716390878
352.0,0.000892216747161001
384.0,0.0007932271109893918
416.0,0.0009177931933663785
448.0,0.00011748268298106268
480.0,-0.0008062840206548572
512.0,-0.0013978228671476245
576.0,-0.00039747575647197664
640.0,0.0005200927262194455
704.0,5.2222902013454586e-05
768.0,0.0010391830001026392
832.0,0.0012894278625026345
896.0,-0.00044331239769235253
960.0,-0.0009981108596548438
1024.0,-0.0009092660620808601
1152.0,0.0005869863671250641
1280.0,-0.00029479185468517244
1408.0,-0.0008331045974045992
1536.0,-0.0013415361754596233
1664.0,-0.001830149325542152
1792.0,-0.00121103145647794
1920.0,8.183581667253748e-05
2048.0,-1.129786869569216e-05
2304.0,0.00033216652809642255
2560.0,0.00021488717175088823
2816.0,-2.5827681383816525e-05
3072.0,0.0010866619413718581
3328.0,0.0006687820423394442
3584.0,0.0015019038692116737
3840.0,0.0004074310418218374
4096.0,-0.000526669027749449
4608.0,-0.0006297847139649093
5120.0,-0.0006207009428180754
5632.0,-0.0003826695028692484
6144.0,0.000944288563914597
6656.0,-0.00016951514407992363
7168.0,-0.0011599085992202163
7680.0,-0.0020331761334091425
8192.0,-0.0003344409342389554
end
