version,3.0
numOfCh,1
type,point
parent_name,c1204_0dot6-0dot1
ch_type,1_1
kcount,1
numberNandB,1
brightnessNandB,1
carpet pos,0
pc,0
Time (ms),CH1 Auto-Correlation
1.0,0.026232881471514702
2.0,0.025016607716679573
3.0,0.023930348455905914
4.0,0.022912997752428055
5.0,0.02201496809720993
6.0,0.021230654790997505
7.0,0.020484354346990585
8.0,0.019775627180933952
9.0,0.01909485273063183
10.0,0.018502498045563698
11.0,0.017959652468562126
12.0,0.017441941425204277
13.0,0.0169586893171072
14.0,0.016480591148138046
15.0,0.016025548800826073
16.0,0.015571475960314274
18.0,0.01474304310977459
20.0,0.013966551050543785
22.0,0.013234741985797882
24.0,0.01255107019096613
26.0,0.011947182938456535
28.0,0.011465226300060749
30.0,0.011015912517905235
32.0,0.0106761259958148
36.0,0.010073039680719376
40.0,0.00944430846720934
44.0,0.008823132142424583
48.0,0.008172305300831795
52.0,0.00751112587749958
56.0,0.007119426503777504
60.0,0.006791776977479458
64.0,0.006556153297424316
72.0,0.006080916617065668
80.0,0.0058030919171869755
88.0,0.0053725093603134155
96.0,0.0049715060740709305
104.0,0.004723383579403162
112.0,0.004909559618681669
120.0,0.0047458442859351635
128.0,0.00474223168566823
144.0,0.00464488472789526
160.0,0.004264112561941147
176.0,0.0039607142098248005
192.0,0.003345838747918606
208.0,0.0024766249116510153
224.0,0.0019110884750261903
240.0,0.0023432080633938313
256.0,0.002781003713607788
288.0,0.0021918590646237135
320.0,0.0014272648841142654
352.0,0.0019991761073470116
384.0,0.002063552150502801
416.0,0.0009161657653748989
448.0,0.0009834154043346643
480.0,0.001572566805407405
512.0,0.0012139752507209778
576.0,0.0008461265242658556
640.0,0.0006121180485934019
704.0,0.00123421975877136
768.0,0.0006168748950585723
832.0,-0.0014004484983161092
896.0,-0.0009992464911192656
960.0,-0.0012441488215699792
1024.0,-0.0014173019444569945
1152.0,-0.0008067308226600289
1280.0,0.0008922191336750984
1408.0,0.0015022989828139544
1536.0,0.0004728850326500833
1664.0,0.0006881118752062321
1792.0,0.0013934625312685966
1920.0,0.0010890699923038483
2048.0,0.0016072498401626945
2304.0,-0.0022690596524626017
2560.0,-0.001930959289893508
2816.0,-0.0016109852585941553
3072.0,-0.0020490095485001802
3328.0,0.0009076314745470881
3584.0,0.0013407962396740913
3840.0,-0.0014824530808255076
4096.0,0.0002777933550532907
4608.0,-0.00017809774726629257
5120.0,-0.0016407053917646408
5632.0,0.00010052141442429274
6144.0,0.002361449645832181
6656.0,0.00030142281320877373
7168.0,-0.0005395528860390186
7680.0,-0.0019215046195313334
8192.0,-0.0007003396167419851
end
