version,3.0
numOfCh,1
type,point
parent_name,c1204_0dot6-0dot1
ch_type,1_1
kcount,1
numberNandB,1
brightnessNandB,1
carpet pos,0
pc,0
Time (ms),CH1 Auto-Correlation
1.0,0.023395942524075508
2.0,0.022242801263928413
3.0,0.021204182878136635
4.0,0.020246319472789764
5.0,0.01933516375720501
6.0,0.018512316048145294
7.0,0.017758486792445183
8.0,0.017095331102609634
9.0,0.016455989331007004
10.0,0.015829766169190407
11.0,0.015195879153907299
12.0,0.014615253545343876
13.0,0.014072933234274387
14.0,0.013568190857768059
15.0,0.013129630126059055
16.0,0.012732750736176968
18.0,0.012002839706838131
20.0,0.011276394128799438
22.0,0.010547565296292305
24.0,0.009889881126582623
26.0,0.00929745938628912
28.0,0.008762238547205925
30.0,0.00830369908362627
32.0,0.007927099242806435
36.0,0.007186334580183029
40.0,0.006494071800261736
44.0,0.006020009983330965
48.0,0.005480787716805935
52.0,0.004929237999022007
56.0,0.004442787729203701
60.0,0.00399123365059495
64.0,0.0036321505904197693
72.0,0.0027931476943194866
80.0,0.002018183935433626
88.0,0.0017098906682804227
96.0,0.0016429864335805178
104.0,0.0016521541401743889
112.0,0.0015570844989269972
120.0,0.0009568614768795669
128.0,0.0002621682651806623
144.0,-0.0004314281395636499
160.0,-0.0005638066795654595
176.0,-0.00023268259246833622
192.0,-0.00017280793690588325
208.0,-0.00014060662942938507
224.0,0.00031439628219231963
240.0,0.0013543422101065516
256.0,0.001956359948962927
288.0,0.0016041849739849567
320.0,0.0006199462222866714
352.0,-0.0010694292141124606
384.0,-0.002347237430512905
416.0,-0.002288270043209195
448.0,-0.0016694498481228948
480.0,-0.00048415877972729504
512.0,0.0010760932927951217
576.0,0.0008779471390880644
640.0,0.0003500746679492295
704.0,-0.00012621500354725868
768.0,0.0017239493317902088
832.0,0.002695739734917879
896.0,0.0020419107750058174
960.0,0.00036872903001494706
1024.0,0.0003298607189208269
1152.0,0.0004577729559969157
1280.0,-0.0025667946320027113
1408.0,0.0010954102035611868
1536.0,0.00044147949665784836
1664.0,0.0009035334805957973
1792.0,-0.0006840531132183969
1920.0,-0.0007177225197665393
2048.0,-0.0010375684360042214
2304.0,-0.0013016036245971918
2560.0,-0.00016740265709813684
2816.0,-0.001382258371450007
3072.0,-0.0010944298701360822
3328.0,-0.00035682518500834703
3584.0,-0.0008471424807794392
3840.0,-0.0003802005958277732
4096.0,0.0008398931240662932
4608.0,-5.8839155826717615e-05
5120.0,0.0009725815034471452
5632.0,0.0010361670283600688
6144.0,2.8667451260844246e-05
6656.0,0.0005967165343463421
7168.0,-0.0006245214608497918
7680.0,-0.0011034993221983314
8192.0,-0.000599910388700664
end
