version,3.0
numOfCh,1
type,point
parent_name,c1204_0dot6-0dot1
ch_type,1_1
kcount,1
numberNandB,1
brightnessNandB,1
carpet pos,0
pc,0
Time (ms),CH1 Auto-Correlation
1.0,0.022059854120016098
2.0,0.02092459797859192
3.0,0.019908593967556953
4.0,0.019031038507819176
5.0,0.01822642982006073
6.0,0.017489517107605934
7.0,0.016783569008111954
8.0,0.01615406945347786
9.0,0.015593094751238823
10.0,0.015071354806423187
11.0,0.014625546522438526
12.0,0.014192994683980942
13.0,0.013743004761636257
14.0,0.013316811993718147
15.0,0.012889819219708443
16.0,0.012488410808146
18.0,0.011785761453211308
20.0,0.01113253552466631
22.0,0.010597854852676392
24.0,0.01010097749531269
26.0,0.009609128348529339
28.0,0.009075669571757317
30.0,0.008496059104800224
32.0,0.007924133911728859
36.0,0.006998281925916672
40.0,0.006351359188556671
44.0,0.005889205727726221
48.0,0.0054931724444031715
52.0,0.005081837996840477
56.0,0.004701574333012104
60.0,0.004403878003358841
64.0,0.004134096205234528
72.0,0.0036472289357334375
80.0,0.003049860941246152
88.0,0.0025650179013609886
96.0,0.0023031109012663364
104.0,0.0021980179008096457
112.0,0.0021978633012622595
120.0,0.002238236367702484
128.0,0.002235222142189741
144.0,0.002163912635296583
160.0,0.0020668974611908197
176.0,0.0018358504166826606
192.0,0.002041202737018466
208.0,0.0022181114181876183
224.0,0.0020718348678201437
240.0,0.001610571751371026
256.0,0.0006945282802917063
288.0,0.00047324004117399454
320.0,0.0010287906043231487
352.0,0.0016117821214720607
384.0,0.002036923775449395
416.0,0.001673865714110434
448.0,0.0011801260989159346
480.0,0.001376998727209866
512.0,0.0013831706019118428
576.0,0.001721482491120696
640.0,1.3203190064814407e-05
704.0,0.00014159141574054956
768.0,0.0008312052232213318
832.0,0.0006707324646413326
896.0,0.0010382161708548665
960.0,0.00103645003400743
1024.0,0.0006391687202267349
1152.0,0.0006927144131623209
1280.0,0.000182424220838584
1408.0,0.00047190411714836955
1536.0,0.0002083604922518134
1664.0,-0.0012936759740114212
1792.0,-0.0003207955742254853
1920.0,-0.00032411699066869915
2048.0,-0.0011831930605694652
2304.0,-0.0013751187361776829
2560.0,-0.0005497713573276997
2816.0,-0.0009559749742038548
3072.0,-0.0011591118527576327
3328.0,6.149918044684455e-05
3584.0,-0.0009700324153527617
3840.0,-0.0003333431086502969
4096.0,-0.0005159252323210239
4608.0,0.00017937492521014065
5120.0,-0.0009673681925050914
5632.0,-0.0014172130031511188
6144.0,-0.00023782778589520603
6656.0,-0.0002478275273460895
7168.0,-0.00023759699251968414
7680.0,0.0009925214108079672
8192.0,-0.00032992049818858504
end
