version,3.0
numOfCh,1
type,point
parent_name,c1204_0dot6-0dot1
ch_type,1_1
kcount,1
numberNandB,1
brightnessNandB,1
carpet pos,0
pc,0
Time (ms),CH1 Auto-Correlation
1.0,0.022028103470802307
2.0,0.020832598209381104
3.0,0.019757376983761787
4.0,0.018824048340320587
5.0,0.017956260591745377
6.0,0.017151404172182083
7.0,0.016429798677563667
8.0,0.01574857346713543
9.0,0.01517163123935461
10.0,0.01466098241508007
11.0,0.014204050414264202
12.0,0.013770215213298798
13.0,0.013355775736272335
14.0,0.012944101355969906
15.0,0.012568066827952862
16.0,0.012233998626470566
18.0,0.011590500362217426
20.0,0.011002308689057827
22.0,0.01044364646077156
24.0,0.009907905012369156
26.0,0.009398570284247398
28.0,0.008987448178231716
30.0,0.008604642935097218
32.0,0.008218006230890751
36.0,0.007498395629227161
40.0,0.006891622673720121
44.0,0.006504416465759277
48.0,0.006104629952460527
52.0,0.005859495606273413
56.0,0.005729087628424168
60.0,0.005607109982520342
64.0,0.00533254723995924
72.0,0.005031757056713104
80.0,0.0044492254965007305
88.0,0.003785898210480809
96.0,0.0034433689434081316
104.0,0.0031689992174506187
112.0,0.00320983468554914
120.0,0.0032545633148401976
128.0,0.003158264560624957
144.0,0.002913104835897684
160.0,0.002867271890863776
176.0,0.002903176471590996
192.0,0.0033626174554228783
208.0,0.003422725712880492
224.0,0.0032594087533652782
240.0,0.002716977847740054
256.0,0.002317578997462988
288.0,0.0013020748738199472
320.0,0.0009751598699949682
352.0,0.001409680349752307
384.0,0.0011931110639125109
416.0,0.0009509313968010247
448.0,0.0008971893694251776
480.0,0.0009444792522117496
512.0,0.0014461273094639182
576.0,0.000502023205626756
640.0,9.305542789661558e-07
704.0,0.0004963580868206918
768.0,0.0003668070712592453
832.0,-0.001389955636113882
896.0,-0.0006859346758574247
960.0,-3.324338103993796e-05
1024.0,-0.0013726330362260342
1152.0,-0.0011404950637370348
1280.0,-0.0007378663285635412
1408.0,0.00033844143035821617
1536.0,0.00032147535239346325
1664.0,-0.0009385187877342105
1792.0,-0.0015542100882157683
1920.0,0.0005004055565223098
2048.0,0.0004568896838463843
2304.0,0.0012161077465862036
2560.0,0.0005301192868500948
2816.0,0.00044585971045307815
3072.0,-0.0002004947600653395
3328.0,0.000432632805313915
3584.0,0.0004139169759582728
3840.0,0.00032958717201836407
4096.0,0.0005178337451070547
4608.0,0.0006706984713673592
5120.0,-0.002309866715222597
5632.0,-0.0017324133077636361
6144.0,0.00120095897000283
6656.0,0.0026785952504724264
7168.0,0.00019699594122357666
7680.0,-0.001706262701191008
8192.0,-0.002103166189044714
end
