version,3.0
numOfCh,1
type,point
parent_name,c1204_0dot6-0dot1
ch_type,1_1
kcount,1
numberNandB,1
brightnessNandB,1
carpet pos,0
pc,0
Time (ms),CH1 Auto-Correlation
1.0,0.02313772402703762
2.0,0.022009585052728653
3.0,0.02097986452281475
4.0,0.020039396360516548
5.0,0.019151587039232254
6.0,0.018352756276726723
7.0,0.01767853833734989
8.0,0.017037441954016685
9.0,0.01640639267861843
10.0,0.015810290351510048
11.0,0.015256492421030998
12.0,0.01476744469255209
13.0,0.014285803772509098
14.0,0.013792891055345535
15.0,0.013335181400179863
16.0,0.0128944031894207
18.0,0.012094863690435886
20.0,0.011367532424628735
22.0,0.010594154708087444
24.0,0.009792559780180454
26.0,0.009124638512730598
28.0,0.008597693406045437
30.0,0.008158840239048004
32.0,0.00776065094396472
36.0,0.006941782310605049
40.0,0.0062912930734455585
44.0,0.0058799381367862225
48.0,0.005331435240805149
52.0,0.005029249005019665
56.0,0.004828411620110273
60.0,0.004728234373033047
64.0,0.004569617565721273
72.0,0.0038615302182734013
80.0,0.003457184648141265
88.0,0.0030459624249488115
96.0,0.002435554750263691
104.0,0.0019198509398847818
112.0,0.0017631057417020202
120.0,0.0021086742635816336
128.0,0.0025211945176124573
144.0,0.002076931530609727
160.0,0.001418116851709783
176.0,0.0012735145865008235
192.0,0.0021804056596010923
208.0,0.002167190657928586
224.0,0.0019283273722976446
240.0,0.001411362667568028
256.0,0.0010595964267849922
288.0,0.0006304776179604232
320.0,0.000468992831883952
352.0,0.0005447543226182461
384.0,0.0007370878010988235
416.0,-0.000621384009718895
448.0,-0.001579470350407064
480.0,-0.002327854046598077
512.0,-0.0018410978373140097
576.0,0.00022327073384076357
640.0,0.0011484362185001373
704.0,-0.0011717621237039566
768.0,-0.002060843165963888
832.0,-0.002399962628260255
896.0,-0.001306012156419456
960.0,-0.0020576263777911663
1024.0,-0.002217226894572377
1152.0,-0.001512275543063879
1280.0,-0.0008343404624611139
1408.0,-0.0009331196779385209
1536.0,-0.00040042478940449655
1664.0,-0.0013989903964102268
1792.0,7.405935321003199e-05
1920.0,-0.0007116753840819001
2048.0,0.0002750040148384869
2304.0,0.002033756347373128
2560.0,0.0018003052100539207
2816.0,0.000415860180510208
3072.0,-0.0012177900644019246
3328.0,-0.0017497007502242923
3584.0,3.3328746212646365e-05
3840.0,0.00012433688971213996
4096.0,0.0002126711478922516
4608.0,0.00020653560932260007
5120.0,-0.0003804783336818218
5632.0,-0.001772738411091268
6144.0,0.0007320056320168078
6656.0,0.002020968357101083
7168.0,0.00014922034461051226
7680.0,-0.001731520751491189
8192.0,-0.002053371164947748
end
