version,3.0
numOfCh,1
type,point
parent_name,c1204_0dot6-0dot1
ch_type,1_1
kcount,1
numberNandB,1
brightnessNandB,1
carpet pos,0
pc,0
Time (ms),CH1 Auto-Correlation
1.0,0.024550728499889374
2.0,0.023363720625638962
3.0,0.02223532274365425
4.0,0.02121884748339653
5.0,0.02032316103577614
6.0,0.019513467326760292
7.0,0.018745409324765205
8.0,0.01805916428565979
9.0,0.01740230806171894
10.0,0.016780804842710495
11.0,0.016184687614440918
12.0,0.015637164935469627
13.0,0.015144826844334602
14.0,0.014663138426840305
15.0,0.014219185337424278
16.0,0.013815086334943771
18.0,0.013070800341665745
20.0,0.012366409413516521
22.0,0.011741947382688522
24.0,0.011280887760221958
26.0,0.010868832468986511
28.0,0.010537801310420036
30.0,0.010250321589410305
32.0,0.010010002180933952
36.0,0.009541402570903301
40.0,0.008946830406785011
44.0,0.00832019280642271
48.0,0.00782898161560297
52.0,0.00737521518021822
56.0,0.006944376975297928
60.0,0.006379192695021629
64.0,0.005942378658801317
72.0,0.0052393535152077675
80.0,0.004600662738084793
88.0,0.0041663083247840405
96.0,0.003878683550283313
104.0,0.003955696243792772
112.0,0.004000082146376371
120.0,0.0038383195642381907
128.0,0.003555632196366787
144.0,0.003145695198327303
160.0,0.0030438455287367105
176.0,0.0025939536280930042
192.0,0.002297763479873538
208.0,0.0022305280435830355
224.0,0.002922295592725277
240.0,0.0028381026349961758
256.0,0.0023504626005887985
288.0,0.000872000411618501
320.0,0.00038736072019673884
352.0,0.0009585184161551297
384.0,0.0008146276813931763
416.0,0.001121597713790834
448.0,0.0006709444569423795
480.0,0.0003650380240287632
512.0,-0.0005919550894759595
576.0,-0.0008255012216977775
640.0,0.001409139484167099
704.0,0.001839592237956822
768.0,0.0006465270998887718
832.0,-9.056933777173981e-05
896.0,-0.00021958872093819082
960.0,-0.0014574106317013502
1024.0,-0.0009250115836039186
1152.0,-0.0021428000181913376
1280.0,-0.001876864000223577
1408.0,-0.0008596795960329473
1536.0,-0.00021233578445389867
1664.0,0.001107164192944765
1792.0,0.0005681576440110803
1920.0,0.00048482869169674814
2048.0,0.0017575992969796062
2304.0,0.002227555029094219
2560.0,0.000887589470949024
2816.0,-0.0010489076375961304
3072.0,-0.00026133222854696214
3328.0,-0.0014693030389025807
3584.0,0.0002551724901422858
3840.0,0.000738117378205061
4096.0,0.0008089235634543002
4608.0,-0.0009541166364215314
5120.0,-0.0003888449864462018
5632.0,-0.001036152127198875
6144.0,-0.0007003661012277007
6656.0,-0.0016932268626987934
7168.0,-0.001477304962463677
7680.0,0.001551093184389174
8192.0,-0.0015140235191211104
end
