version,3.0
numOfCh,1
type,point
parent_name,c1204_0dot6-0dot1
ch_type,1_1
kcount,1
numberNandB,1
brightnessNandB,1
carpet pos,0
pc,0
Time (ms),CH1 Auto-Correlation
1.0,0.02479695715010166
2.0,0.023611027747392654
3.0,0.02254245989024639
4.0,0.0215864609926939
5.0,0.02071794867515564
6.0,0.01990780420601368
7.0,0.019099337980151176
8.0,0.01834118925035
9.0,0.017642762511968613
10.0,0.01702156662940979
11.0,0.016457896679639816
12.0,0.015936292707920074
13.0,0.015444629825651646
14.0,0.014958498999476433
15.0,0.014529187232255936
16.0,0.014106177724897861
18.0,0.013306637294590473
20.0,0.012594434432685375
22.0,0.011953426524996758
24.0,0.011299231089651585
26.0,0.010652282275259495
28.0,0.010025128722190857
30.0,0.00937632005661726
32.0,0.0087850047275424
36.0,0.007956534624099731
40.0,0.007314939051866531
44.0,0.006792922038584948
48.0,0.006462934892624617
52.0,0.00627033319324255
56.0,0.006189407780766487
60.0,0.006126343738287687
64.0,0.0060663470067083836
72.0,0.005640727933496237
80.0,0.005245296750217676
88.0,0.004783178213983774
96.0,0.004419286735355854
104.0,0.004250399302691221
112.0,0.004088211338967085
120.0,0.003614292945712805
128.0,0.0033152077812701464
144.0,0.0031556165777146816
160.0,0.0024601174518465996
176.0,0.002189203631132841
192.0,0.0024647272657603025
208.0,0.0025658158119767904
224.0,0.0019258197862654924
240.0,0.0020980793051421642
256.0,0.002685660496354103
288.0,0.0027432625647634268
320.0,0.002537279389798641
352.0,0.0018248858395963907
384.0,0.0009785721777006984
416.0,0.00015273303142748773
448.0,0.001245363848283887
480.0,0.001960738329216838
512.0,0.0009697218192741275
576.0,0.0008773944573476911
640.0,0.0015689481515437365
704.0,0.001188222086057067
768.0,0.0006300336681306362
832.0,0.0014094091020524502
896.0,0.0008211300009861588
960.0,-0.00026541040278971195
1024.0,4.330058800405823e-05
1152.0,3.1382383895106614e-05
1280.0,-0.000534481427166611
1408.0,-0.0014306956436485052
1536.0,-0.002080458216369152
1664.0,-0.001691265031695366
1792.0,-0.0014859498478472233
1920.0,0.0010471615241840482
2048.0,0.001101145870052278
2304.0,0.0022657790686935186
2560.0,-0.00030593719566240907
2816.0,-2.452597072988283e-06
3072.0,0.000856244470924139
3328.0,-0.0008169844513759017
3584.0,-0.0011826021363958716
3840.0,-0.003140178509056568
4096.0,-0.0006429330096580088
4608.0,0.0005860758246853948
5120.0,0.0023502407129853964
5632.0,0.00142170418985188
6144.0,-0.001986496150493622
6656.0,-0.0016668298048898578
7168.0,-0.0007652113563381135
7680.0,-0.0002498947433196008
8192.0,-0.0013483711518347263
end
