version,3.0
numOfCh,1
type,point
parent_name,484af_0dot1-1dot0
ch_type,1_1
kcount,1
numberNandB,1
brightnessNandB,1
carpet pos,0
pc,0
Time (ms),CH1 Auto-Correlation
1.0,0.04489479213953018
2.0,0.04436266049742699
3.0,0.043896302580833435
4.0,0.043473660945892334
5.0,0.04308270663022995
6.0,0.04270009696483612
7.0,0.042324647307395935
8.0,0.0419590026140213
9.0,0.04161207377910614
10.0,0.041264813393354416
11.0,0.04092513769865036
12.0,0.04056287556886673
13.0,0.0402265265583992
14.0,0.039903413504362106
15.0,0.03958779573440552
16.0,0.03927326202392578
18.0,0.03864520415663719
20.0,0.03805200010538101
22.0,0.037489619106054306
24.0,0.03699851036071777
26.0,0.03651698678731918
28.0,0.03601782023906708
30.0,0.03552631661295891
32.0,0.03509865328669548
36.0,0.034357696771621704
40.0,0.03363068401813507
44.0,0.03303850069642067
48.0,0.032537080347537994
52.0,0.03198665380477905
56.0,0.03150134161114693
60.0,0.031079214066267014
64.0,0.030731504783034325
72.0,0.02989911288022995
80.0,0.028940416872501373
88.0,0.02796582318842411
96.0,0.02713634818792343
104.0,0.026493014767766
112.0,0.025912867859005928
120.0,0.02523811347782612
128.0,0.02461002953350544
144.0,0.02383791096508503
160.0,0.022990364581346512
176.0,0.021884653717279434
192.0,0.020871629938483238
208.0,0.019664868712425232
224.0,0.018598075956106186
240.0,0.01772269234061241
256.0,0.016720259562134743
288.0,0.014727980829775333
320.0,0.013042035512626171
352.0,0.011373697780072689
384.0,0.009823047555983067
416.0,0.008340537548065186
448.0,0.007570573128759861
480.0,0.006820772308856249
512.0,0.006570977624505758
576.0,0.005845830775797367
640.0,0.003981929738074541
704.0,0.0017177751287817955
768.0,-0.000611665251199156
832.0,-0.0023479138035327196
896.0,-0.0038992727641016245
960.0,-0.005181358195841312
1024.0,-0.005989412311464548
1152.0,-0.007181667257100344
1280.0,-0.0053606037981808186
1408.0,-0.0032267142087221146
1536.0,-0.0011254118289798498
1664.0,-0.0012118617305532098
1792.0,-0.0017171568470075727
1920.0,-0.0006264143739826977
2048.0,0.001264604041352868
2304.0,0.006691574584692717
2560.0,0.005206387955695391
2816.0,0.004535506945103407
3072.0,0.004109668079763651
3328.0,-0.0046406155452132225
3584.0,-0.00939121376723051
3840.0,-0.009793046861886978
4096.0,-0.011250010691583157
4608.0,0.0003358960384503007
5120.0,0.00921159889549017
5632.0,0.005133756436407566
6144.0,-0.0017296409932896495
6656.0,-0.005806954577565193
7168.0,-0.005316923372447491
7680.0,-0.0004181070835329592
8192.0,-0.0009362868149764836
end
