version,3.0
numOfCh,1
type,point
parent_name,484af_0dot1-1dot0
ch_type,1_1
kcount,1
numberNandB,1
brightnessNandB,1
carpet pos,0
pc,0
Time (ms),CH1 Auto-Correlation
1.0,0.032094068825244904
2.0,0.03168164938688278
3.0,0.03127573803067207
4.0,0.03088281862437725
5.0,0.030503449961543083
6.0,0.030146285891532898
7.0,0.02978361025452614
8.0,0.02942439541220665
9.0,0.029067600145936012
10.0,0.028712496161460876
11.0,0.028377456590533257
12.0,0.028038548305630684
13.0,0.027701951563358307
14.0,0.02736567333340645
15.0,0.02703942358493805
16.0,0.026723479852080345
18.0,0.026092201471328735
20.0,0.025505468249320984
22.0,0.024958251044154167
24.0,0.024412084370851517
26.0,0.023876940831542015
28.0,0.023355981335043907
30.0,0.02285102754831314
32.0,0.02237429842352867
36.0,0.021447885781526566
40.0,0.020559260621666908
44.0,0.019761329516768456
48.0,0.018929850310087204
52.0,0.018082475289702415
56.0,0.01726534217596054
60.0,0.01645328477025032
64.0,0.015599430538713932
72.0,0.014100456610321999
80.0,0.012930966913700104
88.0,0.012019345536828041
96.0,0.011227008886635303
104.0,0.010453173890709877
112.0,0.009651574306190014
120.0,0.008956126868724823
128.0,0.00846931990236044
144.0,0.007533674594014883
160.0,0.006451807450503111
176.0,0.005211775656789541
192.0,0.004256917163729668
208.0,0.0035274249967187643
224.0,0.0032720090821385384
240.0,0.003171672811731696
256.0,0.0033627133816480637
288.0,0.0035936760250478983
320.0,0.003424371127039194
352.0,0.0028246387373656034
384.0,0.0030605935025960207
416.0,0.002852765377610922
448.0,0.002990434179082513
480.0,0.002715625800192356
512.0,0.002966049825772643
576.0,0.0030944333411753178
640.0,0.0015868775080889463
704.0,-0.0005081396084278822
768.0,-0.00178757484536618
832.0,-0.0002882523986045271
896.0,-0.0007343496545217931
960.0,-0.0009867489570751786
1024.0,-0.0012991710100322962
1152.0,-0.002240599598735571
1280.0,-0.004866942763328552
1408.0,-0.002043219981715083
1536.0,0.0004839458561036736
1664.0,0.0005387742421589792
1792.0,-0.0006379175465553999
1920.0,-0.0030440357513725758
2048.0,-0.0030725612305104733
2304.0,-0.0036782289389520884
2560.0,-0.0032610802445560694
2816.0,-0.0026179549749940634
3072.0,-0.0004030523123219609
3328.0,-0.0003597567556425929
3584.0,-0.001252510934136808
3840.0,0.0010196943767368793
4096.0,0.004157718271017075
4608.0,0.0018960650777444243
5120.0,-0.0002556340768933296
5632.0,-0.0005293684080243111
6144.0,-0.00411504739895463
6656.0,-0.0025174389593303204
7168.0,0.0017564089503139257
7680.0,0.00025007157819345593
8192.0,0.0008540096459910274
end
