version,3.0
numOfCh,1
type,point
parent_name,484af_0dot1-1dot0
ch_type,1_1
kcount,1
numberNandB,1
brightnessNandB,1
carpet pos,0
pc,0
Time (ms),CH1 Auto-Correlation
1.0,0.03633091598749161
2.0,0.03578770160675049
3.0,0.03529473394155502
4.0,0.03480646759271622
5.0,0.03434069827198982
6.0,0.03391232714056969
7.0,0.03348970785737038
8.0,0.03309585526585579
9.0,0.03272445127367973
10.0,0.03235078603029251
11.0,0.03198811039328575
12.0,0.03166892006993294
13.0,0.0313572958111763
14.0,0.03107897937297821
15.0,0.030800865963101387
16.0,0.03052532859146595
18.0,0.02995189093053341
20.0,0.02935602515935898
22.0,0.028768477961421013
24.0,0.028152093291282654
26.0,0.027582606300711632
28.0,0.027058430016040802
30.0,0.026586726307868958
32.0,0.026138104498386383
36.0,0.025264788419008255
40.0,0.02445446327328682
44.0,0.023621367290616035
48.0,0.022822154685854912
52.0,0.02217475138604641
56.0,0.02155439555644989
60.0,0.020924286916851997
64.0,0.020343245938420296
72.0,0.019148513674736023
80.0,0.0180406142026186
88.0,0.017020508646965027
96.0,0.016020243987441063
104.0,0.01513549406081438
112.0,0.014338144101202488
120.0,0.013491368852555752
128.0,0.012600055895745754
144.0,0.01059383898973465
160.0,0.008490834385156631
176.0,0.006475876551121473
192.0,0.004772503394633532
208.0,0.0035220759455114603
224.0,0.002534920582547784
240.0,0.0014719391474500299
256.0,0.0003274984483141452
288.0,-0.0014649209333583713
320.0,-0.002524116076529026
352.0,-0.00345228286460042
384.0,-0.003974644932895899
416.0,-0.0044846502132713795
448.0,-0.003970874939113855
480.0,-0.0031920939218252897
512.0,-0.002652592258527875
576.0,-0.0011457568034529686
640.0,0.0019979209173470736
704.0,0.005290726199746132
768.0,0.005986588075757027
832.0,0.005562756210565567
896.0,0.004177145194262266
960.0,0.003145648166537285
1024.0,0.0019938540644943714
1152.0,-0.0012421065475791693
1280.0,-0.0029848075937479734
1408.0,-0.0007513902965001762
1536.0,0.0030568616930395365
1664.0,0.0012446279870346189
1792.0,-0.0028688418678939342
1920.0,-0.004976764786988497
2048.0,-0.004251533653587103
2304.0,0.0015009603230282664
2560.0,-9.383456199429929e-05
2816.0,-0.0018263242673128843
3072.0,-0.0016971551813185215
3328.0,-0.0010495532769709826
3584.0,-0.004552151076495647
3840.0,0.004036769736558199
4096.0,-0.0024260852951556444
4608.0,-0.002447939943522215
5120.0,-0.0015944309998303652
5632.0,-0.0014808698324486613
6144.0,0.0007477085455320776
6656.0,-0.003109745681285858
7168.0,-0.0020733182318508625
7680.0,0.0028022550977766514
8192.0,0.0014537802198901772
end
