version,3.0
numOfCh,1
type,point
parent_name,484af_0dot1-1dot0
ch_type,1_1
kcount,1
numberNandB,1
brightnessNandB,1
carpet pos,0
pc,0
Time (ms),CH1 Auto-Correlation
1.0,0.042066048830747604
2.0,0.041628915816545486
3.0,0.041205909103155136
4.0,0.04080311954021454
5.0,0.04043242707848549
6.0,0.04007289558649063
7.0,0.03971731290221214
8.0,0.039358463138341904
9.0,0.03899868205189705
10.0,0.03864532709121704
11.0,0.03830656781792641
12.0,0.037976015359163284
13.0,0.03764508664608002
14.0,0.03733889013528824
15.0,0.037013884633779526
16.0,0.03669196367263794
18.0,0.036071691662073135
20.0,0.035479284822940826
22.0,0.034915536642074585
24.0,0.03439497575163841
26.0,0.033897753804922104
28.0,0.03341364115476608
30.0,0.032917749136686325
32.0,0.03243490308523178
36.0,0.0314989797770977
40.0,0.030611591413617134
44.0,0.029804343357682228
48.0,0.029004011303186417
52.0,0.028289660811424255
56.0,0.027565618976950645
60.0,0.026812843978405
64.0,0.026063071563839912
72.0,0.024686533957719803
80.0,0.02359689399600029
88.0,0.02267545647919178
96.0,0.021921508014202118
104.0,0.021315336227416992
112.0,0.020530560985207558
120.0,0.01964937523007393
128.0,0.0188896544277668
144.0,0.017776774242520332
160.0,0.017096849158406258
176.0,0.01665305905044079
192.0,0.016472136601805687
208.0,0.01628882996737957
224.0,0.015548456460237503
240.0,0.014696067199110985
256.0,0.013862858526408672
288.0,0.011975622735917568
320.0,0.01021543052047491
352.0,0.008509545587003231
384.0,0.006669094320386648
416.0,0.005351089872419834
448.0,0.005121637601405382
480.0,0.005660333205014467
512.0,0.005597038194537163
576.0,0.0028944702353328466
640.0,0.0012380697298794985
704.0,0.0013747364282608032
768.0,-0.00011111633648397401
832.0,-0.002287305658683181
896.0,-0.004615578800439835
960.0,-0.0049722762778401375
1024.0,-0.005556671414524317
1152.0,-0.005476993974298239
1280.0,-0.0037984754890203476
1408.0,-0.004281012341380119
1536.0,-0.005767135415226221
1664.0,-0.006470004096627235
1792.0,-0.00601088535040617
1920.0,-0.003881410462781787
2048.0,-0.0009561838814988732
2304.0,0.00017520487017463893
2560.0,-0.00016264099394902587
2816.0,0.0023797873873263597
3072.0,-0.0010754276299849153
3328.0,-0.00449715368449688
3584.0,-0.004172956105321646
3840.0,-0.00309011060744524
4096.0,0.002976104849949479
4608.0,-0.002580408938229084
5120.0,-0.001443532295525074
5632.0,0.0027718371711671352
6144.0,-0.002011128468438983
6656.0,-0.007547941990196705
7168.0,-0.009086638689041138
7680.0,0.0057089622132480145
8192.0,0.010292434133589268
end
