version,3.0
numOfCh,1
type,point
parent_name,484af_0dot1-1dot0
ch_type,1_1
kcount,1
numberNandB,1
brightnessNandB,1
carpet pos,0
pc,0
Time (ms),CH1 Auto-Correlation
1.0,0.04483618214726448
2.0,0.04439249634742737
3.0,0.04396964982151985
4.0,0.04355941340327263
5.0,0.04315117746591568
6.0,0.0427604541182518
7.0,0.042376808822155
8.0,0.04199516400694847
9.0,0.04163796082139015
10.0,0.04129070043563843
11.0,0.040926817804574966
12.0,0.040554504841566086
13.0,0.040190279483795166
14.0,0.039834704250097275
15.0,0.039494529366493225
16.0,0.03917144238948822
18.0,0.03849935159087181
20.0,0.037866611033678055
22.0,0.0372689887881279
24.0,0.03670260310173035
26.0,0.03615092486143112
28.0,0.03563307225704193
30.0,0.035129114985466
32.0,0.03465892747044563
36.0,0.033730648458004
40.0,0.03281484171748161
44.0,0.031981728971004486
48.0,0.031198009848594666
52.0,0.030392736196517944
56.0,0.0296363215893507
60.0,0.029023203998804092
64.0,0.028428247198462486
72.0,0.027170689776539803
80.0,0.026005128398537636
88.0,0.024898581206798553
96.0,0.02400057390332222
104.0,0.02313379757106304
112.0,0.02229294739663601
120.0,0.021548239514231682
128.0,0.02078663744032383
144.0,0.019562046974897385
160.0,0.018707890063524246
176.0,0.017902538180351257
192.0,0.01714196614921093
208.0,0.01632572151720524
224.0,0.015504803508520126
240.0,0.015356659889221191
256.0,0.015061634592711926
288.0,0.01401691883802414
320.0,0.01240873895585537
352.0,0.010270400904119015
384.0,0.009066303260624409
416.0,0.00790578406304121
448.0,0.00649537518620491
480.0,0.005494497250765562
512.0,0.005598154850304127
576.0,0.005146569572389126
640.0,0.00462978845462203
704.0,0.0039570690132677555
768.0,0.0014066383009776473
832.0,-9.731553291203454e-05
896.0,0.0005322156939655542
960.0,0.0006090283859521151
1024.0,0.0002977611729875207
1152.0,-2.4946868506958708e-05
1280.0,-0.0010597065556794405
1408.0,0.0003037229471374303
1536.0,-0.000767045421525836
1664.0,-0.0038611176423728466
1792.0,-0.0033773125614970922
1920.0,-0.003693926613777876
2048.0,-0.0011106949532404542
2304.0,-0.0031952543649822474
2560.0,-0.0023330734111368656
2816.0,-0.002816544147208333
3072.0,-0.000839653832372278
3328.0,-0.0006714818300679326
3584.0,-0.0010236601810902357
3840.0,-0.0018689815187826753
4096.0,0.005362449213862419
4608.0,0.006738831289112568
5120.0,-0.0038299858570098877
5632.0,-0.008625984191894531
6144.0,-0.003616474336013198
6656.0,-0.006571021396666765
7168.0,-0.009072058834135532
7680.0,0.0032499146182090044
8192.0,0.006608267314732075
end
