version,3.0
numOfCh,1
type,point
parent_name,484af_0dot1-1dot0
ch_type,1_1
kcount,1
numberNandB,1
brightnessNandB,1
carpet pos,0
pc,0
Time (ms),CH1 Auto-Correlation
1.0,0.042546629905700684
2.0,0.042088624089956284
3.0,0.04165445268154144
4.0,0.041248057037591934
5.0,0.040857020765542984
6.0,0.04047941416501999
7.0,0.04011639952659607
8.0,0.03977722302079201
9.0,0.039456095546483994
10.0,0.03914857283234596
11.0,0.038868553936481476
12.0,0.03858356177806854
13.0,0.03828620910644531
14.0,0.03799232468008995
15.0,0.03770603984594345
16.0,0.03741370886564255
18.0,0.036834314465522766
20.0,0.03629627823829651
22.0,0.03574903681874275
24.0,0.03524617850780487
26.0,0.034776534885168076
28.0,0.03432809188961983
30.0,0.03390810266137123
32.0,0.03347013145685196
36.0,0.032575543969869614
40.0,0.03166872262954712
44.0,0.030797312036156654
48.0,0.029975850135087967
52.0,0.029159901663661003
56.0,0.02837974764406681
60.0,0.027619007974863052
64.0,0.026915187016129494
72.0,0.025774993002414703
80.0,0.024774016812443733
88.0,0.023725543171167374
96.0,0.022637469694018364
104.0,0.021675745025277138
112.0,0.0207086019217968
120.0,0.019722897559404373
128.0,0.018701231107115746
144.0,0.017344260588288307
160.0,0.016080331057310104
176.0,0.014211079105734825
192.0,0.012482615187764168
208.0,0.011040391400456429
224.0,0.009824042208492756
240.0,0.008780122734606266
256.0,0.008077412843704224
288.0,0.007577036041766405
320.0,0.0068147755227983
352.0,0.006167941261082888
384.0,0.00645901495590806
416.0,0.007032583002001047
448.0,0.0075649963691830635
480.0,0.00752216624096036
512.0,0.007376677356660366
576.0,0.006130332592874765
640.0,0.005537637509405613
704.0,0.0037546721287071705
768.0,0.0030891732312738895
832.0,0.005319457035511732
896.0,0.00493029085919261
960.0,0.002336282515898347
1024.0,-0.0008405695552937686
1152.0,-0.004743520636111498
1280.0,-0.0024612401612102985
1408.0,-0.001059795031324029
1536.0,-0.0009957512374967337
1664.0,-0.0028174130711704493
1792.0,-0.004230578895658255
1920.0,-0.007463399786502123
2048.0,-0.0073378076776862144
2304.0,-0.003933134488761425
2560.0,-0.007463664282113314
2816.0,-0.011577770113945007
3072.0,-0.005696626380085945
3328.0,-0.005025507416576147
3584.0,0.00012488279026001692
3840.0,0.00010816381109179929
4096.0,0.0016884320648387074
4608.0,0.001913795480504632
5120.0,0.00340951862744987
5632.0,-0.0011506992159411311
6144.0,-0.00436745211482048
6656.0,-0.00012145322398282588
7168.0,-0.0026731982361525297
7680.0,0.005332911852747202
8192.0,0.002092768205329776
end
