version,3.0
numOfCh,1
type,point
parent_name,484af_0dot1-1dot0
ch_type,1_1
kcount,1
numberNandB,1
brightnessNandB,1
carpet pos,0
pc,0
Time (ms),CH1 Auto-Correlation
1.0,0.041435807943344116
2.0,0.04100147634744644
3.0,0.04058963805437088
4.0,0.04019419848918915
5.0,0.039812974631786346
6.0,0.03942757099866867
7.0,0.039078548550605774
8.0,0.03874318301677704
9.0,0.038398776203393936
10.0,0.038072001188993454
11.0,0.03774118050932884
12.0,0.03740264102816582
13.0,0.03706569969654083
14.0,0.036745116114616394
15.0,0.03641490265727043
16.0,0.036096055060625076
18.0,0.03547113761305809
20.0,0.034872863441705704
22.0,0.034298915416002274
24.0,0.033753298223018646
26.0,0.03323730453848839
28.0,0.03271836042404175
30.0,0.0322355255484581
32.0,0.03178883343935013
36.0,0.031036801636219025
40.0,0.030285228043794632
44.0,0.02946551889181137
48.0,0.028648337349295616
52.0,0.027863845229148865
56.0,0.027113627642393112
60.0,0.026406800374388695
64.0,0.025748921558260918
72.0,0.02449032850563526
80.0,0.0229926910251379
88.0,0.02169395424425602
96.0,0.020505139604210854
104.0,0.019367683678865433
112.0,0.018398409709334373
120.0,0.017501266673207283
128.0,0.01682332530617714
144.0,0.0155698386952281
160.0,0.01469852402806282
176.0,0.013839947991073132
192.0,0.013045485131442547
208.0,0.012356809340417385
224.0,0.011638305149972439
240.0,0.011108685284852982
256.0,0.010841418989002705
288.0,0.010042967274785042
320.0,0.009072201326489449
352.0,0.008249649778008461
384.0,0.008162741549313068
416.0,0.007759034167975187
448.0,0.007941797375679016
480.0,0.007298202253878117
512.0,0.006288391537964344
576.0,0.003915557637810707
640.0,0.004213601816445589
704.0,0.004381988197565079
768.0,0.003586595645174384
832.0,0.0029166960157454014
896.0,0.003155629150569439
960.0,0.0033550893422216177
1024.0,0.0021219677291810513
1152.0,0.0018310549203306437
1280.0,-0.00012281935778446496
1408.0,-0.004320209845900536
1536.0,-0.00358590018004179
1664.0,-0.0025221998803317547
1792.0,-0.0025829875376075506
1920.0,-0.0020408311393111944
2048.0,-0.001993828220292926
2304.0,-0.0016709931660443544
2560.0,0.0003447011986281723
2816.0,-0.0012634859886020422
3072.0,-0.000533909595105797
3328.0,-0.0005303453654050827
3584.0,-0.0038422723300755024
3840.0,-0.006907387170940638
4096.0,-0.005136521533131599
4608.0,-0.006616792641580105
5120.0,-0.0035216433461755514
5632.0,0.007104361895471811
6144.0,0.009743064641952515
6656.0,0.0045447517186403275
7168.0,0.0014384855749085546
7680.0,-0.0022507745306938887
8192.0,5.427851647255011e-05
end
