version,3.0
numOfCh,1
type,point
parent_name,484af_0dot1-1dot0
ch_type,1_1
kcount,1
numberNandB,1
brightnessNandB,1
carpet pos,0
pc,0
Time (ms),CH1 Auto-Correlation
1.0,0.0341695100069046
2.0,0.03365809842944145
3.0,0.03317560628056526
4.0,0.03271382302045822
5.0,0.032297808676958084
6.0,0.03189824894070625
7.0,0.031506992876529694
8.0,0.031116828322410583
9.0,0.030720802024006844
10.0,0.030322324484586716
11.0,0.029945962131023407
12.0,0.02956426702439785
13.0,0.02920747734606266
14.0,0.028852125629782677
15.0,0.02851124294102192
16.0,0.028169825673103333
18.0,0.02749605104327202
20.0,0.026871612295508385
22.0,0.026273366063833237
24.0,0.025689490139484406
26.0,0.025153284892439842
28.0,0.024644015356898308
30.0,0.024121860042214394
32.0,0.023617766797542572
36.0,0.0226588137447834
40.0,0.02172054536640644
44.0,0.0208464115858078
48.0,0.020003383979201317
52.0,0.019264552742242813
56.0,0.01861516572535038
60.0,0.018008694052696228
64.0,0.017430944368243217
72.0,0.016444450244307518
80.0,0.015650993213057518
88.0,0.014909838326275349
96.0,0.014085029251873493
104.0,0.013379696756601334
112.0,0.01269399095326662
120.0,0.01217370294034481
128.0,0.01164709310978651
144.0,0.010537135414779186
160.0,0.00984696950763464
176.0,0.009523577056825161
192.0,0.009146326221525669
208.0,0.009041592478752136
224.0,0.009101666510105133
240.0,0.009109449572861195
256.0,0.009219774976372719
288.0,0.009586755186319351
320.0,0.008758633397519588
352.0,0.007906714454293251
384.0,0.0067031728103756905
416.0,0.005289210006594658
448.0,0.005049919243901968
480.0,0.004911324474960566
512.0,0.004624022636562586
576.0,0.003661314258351922
640.0,0.002707906300202012
704.0,0.002441905438899994
768.0,0.0024622054770588875
832.0,0.001128420582972467
896.0,0.0007007318781688809
960.0,0.000101940066087991
1024.0,0.00016654179489705712
1152.0,-0.001128471689298749
1280.0,-0.00204958813264966
1408.0,-0.0019468165701255202
1536.0,-0.0007780516752973199
1664.0,-0.0013952561421319842
1792.0,-0.0017863796092569828
1920.0,-0.001364842988550663
2048.0,-0.0006810429622419178
2304.0,-0.00068953528534621
2560.0,-0.00312402262352407
2816.0,-0.003924084827303886
3072.0,-5.997669359203428e-05
3328.0,-0.002326231449842453
3584.0,-0.0037972552236169577
3840.0,-0.000536543782800436
4096.0,0.000894462747965008
4608.0,0.0013015217846259475
5120.0,0.0021538962610065937
5632.0,0.003330330131575465
6144.0,0.004622162785381079
6656.0,-0.0021033126395195723
7168.0,-0.005283686798065901
7680.0,-0.0050712283700704575
8192.0,-0.0012320451205596328
end
