version,3.0
numOfCh,1
type,point
parent_name,484af_0dot1-1dot0
ch_type,1_1
kcount,1
numberNandB,1
brightnessNandB,1
carpet pos,0
pc,0
Time (ms),CH1 Auto-Correlation
1.0,0.044728703796863556
2.0,0.044247377663850784
3.0,0.04381262883543968
4.0,0.04341646283864975
5.0,0.04302788898348808
6.0,0.04264683648943901
7.0,0.042273979634046555
8.0,0.041912902146577835
9.0,0.04156674072146416
10.0,0.041214894503355026
11.0,0.04088144749403
12.0,0.04056078568100929
13.0,0.04023909568786621
14.0,0.039926640689373016
15.0,0.03962338715791702
16.0,0.03933410719037056
18.0,0.03875907137989998
20.0,0.03817160800099373
22.0,0.03760769963264465
24.0,0.03703974559903145
26.0,0.03648842126131058
28.0,0.035949934273958206
30.0,0.035408344119787216
32.0,0.03491828218102455
36.0,0.033994801342487335
40.0,0.03305486962199211
44.0,0.032180529087781906
48.0,0.031341224908828735
52.0,0.03057899884879589
56.0,0.0298465583473444
60.0,0.02911367453634739
64.0,0.0283917598426342
72.0,0.027120858430862427
80.0,0.0258401520550251
88.0,0.02464190497994423
96.0,0.023614855483174324
104.0,0.022638864815235138
112.0,0.021828262135386467
120.0,0.020991066470742226
128.0,0.020104043185710907
144.0,0.018401412293314934
160.0,0.01670556142926216
176.0,0.015083773992955685
192.0,0.013781923800706863
208.0,0.012545125558972359
224.0,0.01175543200224638
240.0,0.011366581544280052
256.0,0.010947588831186295
288.0,0.010662033222615719
320.0,0.010923084802925587
352.0,0.01116251666098833
384.0,0.01102787908166647
416.0,0.010925956070423126
448.0,0.010962789878249168
480.0,0.011147629469633102
512.0,0.010589650832116604
576.0,0.008193561807274818
640.0,0.007447666488587856
704.0,0.0068391673266887665
768.0,0.00575972767546773
832.0,0.003993043676018715
896.0,0.0012631817953661084
960.0,0.00039585967897437513
1024.0,0.0017182293813675642
1152.0,0.0038972506299614906
1280.0,0.00833150465041399
1408.0,0.010064685717225075
1536.0,0.010535244829952717
1664.0,0.009510360658168793
1792.0,0.009894367307424545
1920.0,0.008810740895569324
2048.0,0.00924117024987936
2304.0,0.003251360496506095
2560.0,0.0031532307621091604
2816.0,0.0025979632046073675
3072.0,0.0023650319781154394
3328.0,0.004879274405539036
3584.0,0.004759929608553648
3840.0,0.004262567963451147
4096.0,-0.001066299737431109
4608.0,-0.0029309827368706465
5120.0,5.816942575620487e-05
5632.0,-0.0029234858229756355
6144.0,-0.005817482713609934
6656.0,-0.005594242829829454
7168.0,-0.009954909794032574
7680.0,-0.011884499341249466
8192.0,-0.004475496709346771
end
