version,3.0
numOfCh,1
type,point
parent_name,484af_0dot1-1dot0
ch_type,1_1
kcount,1
numberNandB,1
brightnessNandB,1
carpet pos,0
pc,0
Time (ms),CH1 Auto-Correlation
1.0,0.04464214667677879
2.0,0.04406813159584999
3.0,0.04355928674340248
4.0,0.04304657131433487
5.0,0.04258977621793747
6.0,0.04213830456137657
7.0,0.04172878712415695
8.0,0.041317734867334366
9.0,0.04091296344995499
10.0,0.040504198521375656
11.0,0.04010225459933281
12.0,0.03970908001065254
13.0,0.03931557014584541
14.0,0.03894594684243202
15.0,0.038594990968704224
16.0,0.03824961930513382
18.0,0.03754981979727745
20.0,0.036819878965616226
22.0,0.03610851615667343
24.0,0.035467084497213364
26.0,0.03484683111310005
28.0,0.034227363765239716
30.0,0.03364614397287369
32.0,0.03307121619582176
36.0,0.032034844160079956
40.0,0.031037386506795883
44.0,0.03016088716685772
48.0,0.02938765287399292
52.0,0.028671815991401672
56.0,0.027987515553832054
60.0,0.02724229171872139
64.0,0.026531172916293144
72.0,0.025287795811891556
80.0,0.024240799248218536
88.0,0.023198656737804413
96.0,0.02236662060022354
104.0,0.021500373259186745
112.0,0.02063976787030697
120.0,0.019924482330679893
128.0,0.01929277367889881
144.0,0.018289711326360703
160.0,0.017337486147880554
176.0,0.016586167737841606
192.0,0.015474101528525352
208.0,0.014161372557282448
224.0,0.01303832232952118
240.0,0.012187565676867962
256.0,0.011343787424266338
288.0,0.010045981034636497
320.0,0.009092689491808414
352.0,0.00889770220965147
384.0,0.009091194719076157
416.0,0.008179981261491776
448.0,0.006888147443532944
480.0,0.0070355418138206005
512.0,0.007364275865256786
576.0,0.006873356644064188
640.0,0.00512130931019783
704.0,0.003480177605524659
768.0,0.0011970596387982368
832.0,-0.001968921395018697
896.0,-0.004444675054401159
960.0,-0.0036490757483989
1024.0,-0.0032549812458455563
1152.0,0.00027321145171299577
1280.0,0.0005985493189655244
1408.0,-0.00016799404693301767
1536.0,-0.003026172984391451
1664.0,-0.0026485284324735403
1792.0,0.00020435478654690087
1920.0,0.0009334498317912221
2048.0,0.0003858050622511655
2304.0,-0.004365874454379082
2560.0,-0.007692310027778149
2816.0,-0.006767670623958111
3072.0,-0.004241214599460363
3328.0,-0.00227442872710526
3584.0,-0.0039533707313239574
3840.0,-0.0063032666221261024
4096.0,-0.0035378681495785713
4608.0,0.0008464596467092633
5120.0,0.0074817887507379055
5632.0,0.0004064433160237968
6144.0,-0.004601718857884407
6656.0,-0.00016216431686189026
7168.0,-0.0020625421311706305
7680.0,-0.009680495597422123
8192.0,-0.010099569335579872
end
