version,3.0
numOfCh,1
type,point
parent_name,484af_0dot1-1dot0
ch_type,1_1
kcount,1
numberNandB,1
brightnessNandB,1
carpet pos,0
pc,0
Time (ms),CH1 Auto-Correlation
1.0,0.03385995328426361
2.0,0.03340936079621315
3.0,0.032995522022247314
4.0,0.03261927515268326
5.0,0.03223279491066933
6.0,0.03185977041721344
7.0,0.03149356693029404
8.0,0.031143758445978165
9.0,0.030791783705353737
10.0,0.030447086319327354
11.0,0.030105236917734146
12.0,0.0297718346118927
13.0,0.029437173157930374
14.0,0.02912021055817604
15.0,0.02880316600203514
16.0,0.028498418629169464
18.0,0.027903331443667412
20.0,0.02736259251832962
22.0,0.026845915243029594
24.0,0.026327908039093018
26.0,0.025836024433374405
28.0,0.025349928066134453
30.0,0.024867400527000427
32.0,0.0243800301104784
36.0,0.023560818284749985
40.0,0.022823724895715714
44.0,0.022151969373226166
48.0,0.02147810161113739
52.0,0.02084113471210003
56.0,0.020208584144711494
60.0,0.01958763599395752
64.0,0.019004564732313156
72.0,0.017925886437296867
80.0,0.01688411459326744
88.0,0.015883782878518105
96.0,0.014753345400094986
104.0,0.0136134447529912
112.0,0.012451859191060066
120.0,0.011458092369139194
128.0,0.010786095634102821
144.0,0.010005827061831951
160.0,0.00924690067768097
176.0,0.008201459422707558
192.0,0.006777450907975435
208.0,0.005265915300697088
224.0,0.0045343791134655476
240.0,0.004166226368397474
256.0,0.003486690577119589
288.0,0.002249369164928794
320.0,0.0016665443545207381
352.0,0.0016418868908658624
384.0,0.0014726093504577875
416.0,0.0011557633988559246
448.0,0.0007421932532452047
480.0,0.0006051530363038182
512.0,0.0010692999931052327
576.0,0.0015383641002699733
640.0,0.00121980719268322
704.0,-0.0012749769957736135
768.0,-0.004167772829532623
832.0,-0.003993986640125513
896.0,-0.0028791697695851326
960.0,-0.0019588316790759563
1024.0,-0.0013671373017132282
1152.0,-0.0033411646727472544
1280.0,-0.002565382979810238
1408.0,-0.003090375103056431
1536.0,-0.0016813043039292097
1664.0,0.00046262762043625116
1792.0,-0.0006936319405212998
1920.0,-0.0008997808326967061
2048.0,-0.0005148639902472496
2304.0,0.0011762676294893026
2560.0,-0.001105242408812046
2816.0,0.0027911614160984755
3072.0,0.0009834158699959517
3328.0,0.000444915727712214
3584.0,0.0019355645636096597
3840.0,-0.003723578294739127
4096.0,-0.003179109888151288
4608.0,0.0015832161298021674
5120.0,0.0033662591595202684
5632.0,-0.0007059339550323784
6144.0,-0.00326718483120203
6656.0,0.0027619057800620794
7168.0,0.002304289024323225
7680.0,-0.00051580072613433
8192.0,-0.005048399791121483
end
