version,3.0
numOfCh,1
type,point
parent_name,484af_0dot1-1dot0
ch_type,1_1
kcount,1
numberNandB,1
brightnessNandB,1
carpet pos,0
pc,0
Time (ms),CH1 Auto-Correlation
1.0,0.04908888414502144
2.0,0.048534661531448364
3.0,0.04803807660937309
4.0,0.047578081488609314
5.0,0.04713810607790947
6.0,0.046715814620256424
7.0,0.04631257802248001
8.0,0.045935116708278656
9.0,0.04554681107401848
10.0,0.04514675587415695
11.0,0.044757820665836334
12.0,0.04438421502709389
13.0,0.04403338581323624
14.0,0.043680340051651
15.0,0.043359167873859406
16.0,0.04301891848444939
18.0,0.04239126667380333
20.0,0.041808418929576874
22.0,0.04120919480919838
24.0,0.040639251470565796
26.0,0.04006068408489227
28.0,0.03951714560389519
30.0,0.038992609828710556
32.0,0.038507912307977676
36.0,0.03756178170442581
40.0,0.03661246970295906
44.0,0.035720836371183395
48.0,0.0348176583647728
52.0,0.03400418534874916
56.0,0.03325726091861725
60.0,0.032459523528814316
64.0,0.0316975861787796
72.0,0.030289003625512123
80.0,0.02909865230321884
88.0,0.027797074988484383
96.0,0.026555746793746948
104.0,0.025557762011885643
112.0,0.024738334119319916
120.0,0.023961976170539856
128.0,0.023224856704473495
144.0,0.021837888285517693
160.0,0.020315557718276978
176.0,0.019195375964045525
192.0,0.018383894115686417
208.0,0.01748727634549141
224.0,0.01625504530966282
240.0,0.014875303953886032
256.0,0.013864092528820038
288.0,0.012435374781489372
320.0,0.011506243608891964
352.0,0.010356135666370392
384.0,0.009352760389447212
416.0,0.008429300040006638
448.0,0.007080452051013708
480.0,0.004830061923712492
512.0,0.0022517640609294176
576.0,-0.0013548985589295626
640.0,-0.00319388578645885
704.0,-0.004730379208922386
768.0,-0.006006232928484678
832.0,-0.0063043273985385895
896.0,-0.006132837850600481
960.0,-0.005840776953846216
1024.0,-0.005781832151114941
1152.0,-0.004737185779958963
1280.0,-0.0054471478797495365
1408.0,-0.005440745502710342
1536.0,-0.0025583745446056128
1664.0,0.00010900351480813697
1792.0,0.002788304351270199
1920.0,0.006695926655083895
2048.0,0.008022350259125233
2304.0,0.004260249435901642
2560.0,0.0008079433464445174
2816.0,-0.0022060347255319357
3072.0,-0.005812384653836489
3328.0,-0.007330384571105242
3584.0,-0.002725655911490321
3840.0,0.005500196013599634
4096.0,0.0036098130512982607
4608.0,-0.0017154040979221463
5120.0,0.0013631408801302314
5632.0,-0.004857187159359455
6144.0,-0.0038440076168626547
6656.0,0.0023965565487742424
7168.0,0.004927176982164383
7680.0,0.001312045264057815
8192.0,-0.010207461193203926
end
