version,3.0
numOfCh,1
type,point
parent_name,484af_0dot1-1dot0
ch_type,1_1
kcount,1
numberNandB,1
brightnessNandB,1
carpet pos,0
pc,0
Time (ms),CH1 Auto-Correlation
1.0,0.04312170296907425
2.0,0.04262195900082588
3.0,0.04217326268553734
4.0,0.04173101484775543
5.0,0.041288308799266815
6.0,0.04084927961230278
7.0,0.04043407365679741
8.0,0.0400419756770134
9.0,0.039641838520765305
10.0,0.03926294296979904
11.0,0.0389074832201004
12.0,0.038590241223573685
13.0,0.03825674206018448
14.0,0.03791245073080063
15.0,0.03756748512387276
16.0,0.03722689300775528
18.0,0.03660445660352707
20.0,0.03595758229494095
22.0,0.035310063511133194
24.0,0.034688279032707214
26.0,0.03409026563167572
28.0,0.03349962458014488
30.0,0.03293430060148239
32.0,0.032385848462581635
36.0,0.031316448003053665
40.0,0.030251482501626015
44.0,0.029249869287014008
48.0,0.028327587991952896
52.0,0.02740238420665264
56.0,0.02651817910373211
60.0,0.025653380900621414
64.0,0.024826977401971817
72.0,0.0232189130038023
80.0,0.021975761279463768
88.0,0.02089349366724491
96.0,0.01992437057197094
104.0,0.018960969522595406
112.0,0.0180791225284338
120.0,0.017214886844158173
128.0,0.01641041971743107
144.0,0.015300010330975056
160.0,0.014749330468475819
176.0,0.014458087272942066
192.0,0.014343793503940105
208.0,0.014032304286956787
224.0,0.013626446947455406
240.0,0.013305616565048695
256.0,0.012793878093361855
288.0,0.01145303063094616
320.0,0.010208082385361195
352.0,0.008849898353219032
384.0,0.008279656060039997
416.0,0.008000931702554226
448.0,0.007728368043899536
480.0,0.00788758136332035
512.0,0.008671444840729237
576.0,0.008606893941760063
640.0,0.007761357817798853
704.0,0.007220385130494833
768.0,0.006668891757726669
832.0,0.005335196852684021
896.0,0.005127807147800922
960.0,0.006844711489975452
1024.0,0.008022022433578968
1152.0,0.007748166099190712
1280.0,0.008505117148160934
1408.0,0.005118595901876688
1536.0,0.004585474729537964
1664.0,0.0008228789665736258
1792.0,0.0029736096039414406
1920.0,0.002186523051932454
2048.0,0.0038264745380729437
2304.0,0.00477878050878644
2560.0,0.004232501145452261
2816.0,0.0036362928804010153
3072.0,0.005552403628826141
3328.0,0.0008968208567239344
3584.0,0.0008740105549804866
3840.0,-0.0007737738196738064
4096.0,-0.001993225421756506
4608.0,-0.0029866087716072798
5120.0,-0.0028266427107155323
5632.0,-0.006509661674499512
6144.0,-0.008711724542081356
6656.0,-0.009609526954591274
7168.0,-0.0075581371784210205
7680.0,-0.005022228695452213
8192.0,-0.008339891210198402
end
