version,3.0
numOfCh,1
type,point
parent_name,484af_0dot1-1dot0
ch_type,1_1
kcount,1
numberNandB,1
brightnessNandB,1
carpet pos,0
pc,0
Time (ms),CH1 Auto-Correlation
1.0,0.03685317561030388
2.0,0.036336638033390045
3.0,0.03589634969830513
4.0,0.035480767488479614
5.0,0.03509332612156868
6.0,0.03469507768750191
7.0,0.0342944972217083
8.0,0.03392108157277107
9.0,0.03354386240243912
10.0,0.03318808600306511
11.0,0.03284920006990433
12.0,0.032521553337574005
13.0,0.03219084069132805
14.0,0.031865883618593216
15.0,0.03155503794550896
16.0,0.031230252236127853
18.0,0.030645933002233505
20.0,0.03007560782134533
22.0,0.029464993625879288
24.0,0.028851201757788658
26.0,0.028238806873559952
28.0,0.02764798514544964
30.0,0.027063366025686264
32.0,0.02648596651852131
36.0,0.025407960638403893
40.0,0.024295026436448097
44.0,0.023172399029135704
48.0,0.022077200934290886
52.0,0.02110501006245613
56.0,0.020201165229082108
60.0,0.01929936558008194
64.0,0.018425069749355316
72.0,0.017035389319062233
80.0,0.01584361121058464
88.0,0.014738734811544418
96.0,0.013858399353921413
104.0,0.013241849839687347
112.0,0.012634550221264362
120.0,0.012159314937889576
128.0,0.011824123561382294
144.0,0.011241516098380089
160.0,0.01037796214222908
176.0,0.009303630329668522
192.0,0.008147835731506348
208.0,0.00737175764515996
224.0,0.006834559608250856
240.0,0.006768887862563133
256.0,0.006911247968673706
288.0,0.006206379272043705
320.0,0.005253362003713846
352.0,0.00487943459302187
384.0,0.004904499743133783
416.0,0.0039840335957705975
448.0,0.0028197183273732662
480.0,0.0018924864707514644
512.0,0.000689437729306519
576.0,0.00011518962128320709
640.0,0.0013459218898788095
704.0,1.72395975823747e-05
768.0,0.00017195519467350096
832.0,0.0010465672239661217
896.0,0.002003152621909976
960.0,0.0030310482252389193
1024.0,0.003456286620348692
1152.0,-0.004101026803255081
1280.0,-0.004889310337603092
1408.0,-0.0021688223350793123
1536.0,-0.0029446911066770554
1664.0,-0.003494764445349574
1792.0,-0.00443649897351861
1920.0,-0.0021547384094446898
2048.0,-0.0005647915531881154
2304.0,0.0007947252597659826
2560.0,0.0022367555648088455
2816.0,-0.0003046140191145241
3072.0,-0.0007383673801086843
3328.0,-0.003188991453498602
3584.0,-0.003573570866137743
3840.0,0.002330097369849682
4096.0,0.0018945916090160608
4608.0,0.0017789022531360388
5120.0,-0.0006963872583582997
5632.0,-0.005280365236103535
6144.0,-0.005948569159954786
6656.0,-0.00033363496186211705
7168.0,0.006320570129901171
7680.0,0.003739585168659687
8192.0,0.000577811966650188
end
