version,3.0
numOfCh,1
type,point
parent_name,484af_0dot1-1dot0
ch_type,1_1
kcount,1
numberNandB,1
brightnessNandB,1
carpet pos,0
pc,0
Time (ms),CH1 Auto-Correlation
1.0,0.04266827180981636
2.0,0.04183608293533325
3.0,0.04132436215877533
4.0,0.04088124260306358
5.0,0.04045172780752182
6.0,0.04003339633345604
7.0,0.03961484879255295
8.0,0.03923018276691437
9.0,0.03889411315321922
10.0,0.0385780856013298
11.0,0.03826013207435608
12.0,0.037854354828596115
13.0,0.03748571127653122
14.0,0.03713743016123772
15.0,0.03679401054978371
16.0,0.03647942841053009
18.0,0.035919446498155594
20.0,0.03536107391119003
22.0,0.03480476513504982
24.0,0.03426570072770119
26.0,0.033735938370227814
28.0,0.03317619115114212
30.0,0.03262500837445259
32.0,0.032080136239528656
36.0,0.031032849103212357
40.0,0.029985861852765083
44.0,0.02893078327178955
48.0,0.02787679433822632
52.0,0.026865659281611443
56.0,0.026002652943134308
60.0,0.025180572643876076
64.0,0.02438807487487793
72.0,0.023137390613555908
80.0,0.021957555785775185
88.0,0.020807599648833275
96.0,0.01979074999690056
104.0,0.01874014548957348
112.0,0.017790621146559715
120.0,0.01691928319633007
128.0,0.016060225665569305
144.0,0.014684603549540043
160.0,0.013241481967270374
176.0,0.012121696956455708
192.0,0.011418446898460388
208.0,0.010545329190790653
224.0,0.009500004351139069
240.0,0.008076725527644157
256.0,0.0064871544018387794
288.0,0.004386092070490122
320.0,0.003199375467374921
352.0,0.003054525936022401
384.0,0.0025840771850198507
416.0,0.0030708694830536842
448.0,0.0035272131208330393
480.0,0.003187311813235283
512.0,0.00338556757196784
576.0,0.0030234819278120995
640.0,0.0011411604937165976
704.0,-0.0010737035190686584
768.0,-0.0016618464142084122
832.0,-0.000921765633393079
896.0,-0.0011005555279552937
960.0,-0.0019290319178253412
1024.0,0.00038470132858492434
1152.0,0.003020273521542549
1280.0,0.0016985820839181542
1408.0,0.0012692450545728207
1536.0,0.005755324382334948
1664.0,0.006910534109920263
1792.0,0.004780443850904703
1920.0,-0.0003030630177818239
2048.0,0.0004066209658049047
2304.0,-0.0035268994979560375
2560.0,-0.004193375818431377
2816.0,-0.0048019797541201115
3072.0,-0.003585237078368664
3328.0,-0.006087386980652809
3584.0,-0.0036437450908124447
3840.0,-0.003141577821224928
4096.0,-0.005014496389776468
4608.0,0.0009091109386645257
5120.0,-0.0026839429046958685
5632.0,-0.0009253424359485507
6144.0,0.006058898754417896
6656.0,0.0031908415257930756
7168.0,0.004232426639646292
7680.0,0.008057109080255032
8192.0,0.00032839830964803696
end
