version,3.0
numOfCh,1
type,point
parent_name,484af_0dot1-1dot0
ch_type,1_1
kcount,1
numberNandB,1
brightnessNandB,1
carpet pos,0
pc,0
Time (ms),CH1 Auto-Correlation
1.0,0.04831140488386154
2.0,0.047896865755319595
3.0,0.047495488077402115
4.0,0.04709787666797638
5.0,0.04671851918101311
6.0,0.04636619985103607
7.0,0.046012647449970245
8.0,0.045667946338653564
9.0,0.04534498602151871
10.0,0.04502136632800102
11.0,0.044701721519231796
12.0,0.04437097907066345
13.0,0.04404881224036217
14.0,0.04374202340841293
15.0,0.04344148188829422
16.0,0.04314502328634262
18.0,0.042552851140499115
20.0,0.04195182025432587
22.0,0.04134522005915642
24.0,0.040765080600976944
26.0,0.040193647146224976
28.0,0.039614833891391754
30.0,0.03906278684735298
32.0,0.03851299360394478
36.0,0.0374961756169796
40.0,0.03656507655978203
44.0,0.0357070229947567
48.0,0.03484649956226349
52.0,0.03401299566030502
56.0,0.03321481868624687
60.0,0.0324302613735199
64.0,0.03166176751255989
72.0,0.030179528519511223
80.0,0.028857165947556496
88.0,0.027766287326812744
96.0,0.026701325550675392
104.0,0.02578372322022915
112.0,0.024944743141531944
120.0,0.024237988516688347
128.0,0.02370596118271351
144.0,0.022948866710066795
160.0,0.022504257038235664
176.0,0.022310709580779076
192.0,0.021916886791586876
208.0,0.02128012292087078
224.0,0.020633233711123466
240.0,0.019838666543364525
256.0,0.019081048667430878
288.0,0.01753297820687294
320.0,0.015993352979421616
352.0,0.014557795599102974
384.0,0.013202336616814137
416.0,0.010906324721872807
448.0,0.008651374839246273
480.0,0.0070891124196350574
512.0,0.006091963965445757
576.0,0.003907073754817247
640.0,0.0023145948071032763
704.0,0.003254755400121212
768.0,0.004680697340518236
832.0,0.005487698595970869
896.0,0.0037599741481244564
960.0,0.0012566400691866875
1024.0,0.0018539446173235774
1152.0,0.004403586499392986
1280.0,0.002461216878145933
1408.0,0.00454643415287137
1536.0,0.004347465466707945
1664.0,0.003532517235726118
1792.0,0.0012634557206183672
1920.0,0.000269275187747553
2048.0,-0.00400245375931263
2304.0,-0.006206059828400612
2560.0,-0.008273908868432045
2816.0,-0.011541871353983879
3072.0,-0.0089331129565835
3328.0,-0.003949921112507582
3584.0,-0.0013773598475381732
3840.0,-0.005869684740900993
4096.0,-0.011967798694968224
4608.0,-0.002697187243029475
5120.0,0.0033421970438212156
5632.0,0.004053077660501003
6144.0,0.001575320027768612
6656.0,0.008167696185410023
7168.0,0.005955201108008623
7680.0,0.0004160137614235282
8192.0,0.002971314825117588
end
