version,3.0
numOfCh,1
type,point
parent_name,484af_0dot1-1dot0
ch_type,1_1
kcount,1
numberNandB,1
brightnessNandB,1
carpet pos,0
pc,0
Time (ms),CH1 Auto-Correlation
1.0,0.03259888291358948
2.0,0.0320754274725914
3.0,0.03158700093626976
4.0,0.031161215156316757
5.0,0.030749017372727394
6.0,0.030348924919962883
7.0,0.029946064576506615
8.0,0.029546359553933144
9.0,0.029175186529755592
10.0,0.028832443058490753
11.0,0.02849721536040306
12.0,0.028190195560455322
13.0,0.027864687144756317
14.0,0.027545174583792686
15.0,0.027232101187109947
16.0,0.026912853121757507
18.0,0.026353830471634865
20.0,0.025829454883933067
22.0,0.025343798100948334
24.0,0.024895809590816498
26.0,0.024444647133350372
28.0,0.02398926205933094
30.0,0.02349875122308731
32.0,0.02299770526587963
36.0,0.021987268701195717
40.0,0.02102956362068653
44.0,0.020192954689264297
48.0,0.019357239827513695
52.0,0.018583953380584717
56.0,0.017868628725409508
60.0,0.01722371205687523
64.0,0.016636282205581665
72.0,0.015509231016039848
80.0,0.014484945684671402
88.0,0.013511726632714272
96.0,0.012695221230387688
104.0,0.012032218277454376
112.0,0.01126026175916195
120.0,0.010358957573771477
128.0,0.009642299264669418
144.0,0.008194911293685436
160.0,0.0062249526381492615
176.0,0.004704216495156288
192.0,0.003905856516212225
208.0,0.0029195945244282484
224.0,0.0016541499644517899
240.0,0.0006694486364722252
256.0,0.0002577741688583046
288.0,-0.0003456916019786149
320.0,-0.0004859064647462219
352.0,-0.00015648818225599825
384.0,0.0006855405517853796
416.0,0.0009744237177073956
448.0,0.0007466820534318686
480.0,0.0014211868401616812
512.0,0.002523339819163084
576.0,0.003274518297985196
640.0,0.002430005930364132
704.0,0.002393063623458147
768.0,0.0025255046784877777
832.0,0.0018398312386125326
896.0,0.0009158490574918687
960.0,0.0005088203470222652
1024.0,0.0006187031976878643
1152.0,-0.0008281657937914133
1280.0,0.0015355997020378709
1408.0,0.0037107327952980995
1536.0,0.002700177254155278
1664.0,0.00016285089077427983
1792.0,0.0019782388117164373
1920.0,0.005319021176546812
2048.0,0.007434444967657328
2304.0,0.0031642718240618706
2560.0,0.003966011572629213
2816.0,0.001495250966399908
3072.0,-0.0004423793579917401
3328.0,0.0036207102239131927
3584.0,0.0011160119902342558
3840.0,0.0004020665946882218
4096.0,0.004801212809979916
4608.0,-0.0018265250837430358
5120.0,0.000425016536610201
5632.0,-9.918040450429544e-05
6144.0,-0.001716272789053619
6656.0,-0.004622206557542086
7168.0,-0.003767760470509529
7680.0,-0.0017006619600579143
8192.0,-0.0026851906441152096
end
