version,3.0
numOfCh,1
type,point
parent_name,484af_0dot1-1dot0
ch_type,1_1
kcount,1
numberNandB,1
brightnessNandB,1
carpet pos,0
pc,0
Time (ms),CH1 Auto-Correlation
1.0,0.04507623240351677
2.0,0.044608235359191895
3.0,0.04417112469673157
4.0,0.04376496002078056
5.0,0.043371282517910004
6.0,0.04299231246113777
7.0,0.04264410212635994
8.0,0.0422825925052166
9.0,0.04194200783967972
10.0,0.04160654544830322
11.0,0.041302602738142014
12.0,0.040973078459501266
13.0,0.040650248527526855
14.0,0.04032968729734421
15.0,0.04000971093773842
16.0,0.03970242664217949
18.0,0.03911259025335312
20.0,0.03853616863489151
22.0,0.03797643259167671
24.0,0.037449195981025696
26.0,0.036954715847969055
28.0,0.03644457831978798
30.0,0.03595761954784393
32.0,0.03549953177571297
36.0,0.034617830067873
40.0,0.03374597057700157
44.0,0.032889317721128464
48.0,0.0320296548306942
52.0,0.031178047880530357
56.0,0.03036290965974331
60.0,0.029544899240136147
64.0,0.02877693809568882
72.0,0.027453681454062462
80.0,0.026261061429977417
88.0,0.025222765281796455
96.0,0.024076534435153008
104.0,0.022958414629101753
112.0,0.021915921941399574
120.0,0.02091464027762413
128.0,0.019927943125367165
144.0,0.018072517588734627
160.0,0.016132116317749023
176.0,0.01449765358120203
192.0,0.012941021472215652
208.0,0.011727143079042435
224.0,0.010748658329248428
240.0,0.009895872324705124
256.0,0.009318549185991287
288.0,0.008268451318144798
320.0,0.007436480838805437
352.0,0.006515713408589363
384.0,0.006193188950419426
416.0,0.005939744878560305
448.0,0.005478944629430771
480.0,0.004504820331931114
512.0,0.004331596195697784
576.0,0.0030949742067605257
640.0,0.002403827151283622
704.0,0.0023062373511493206
768.0,0.0019973935559391975
832.0,0.0008976519457064569
896.0,0.00028951597050763667
960.0,0.0029336847364902496
1024.0,0.0040520490147173405
1152.0,0.004826272372156382
1280.0,0.0020389356650412083
1408.0,0.002515879226848483
1536.0,0.0029103043489158154
1664.0,-0.0008974865777418017
1792.0,-0.0016374384285882115
1920.0,-0.0002012167969951406
2048.0,-0.004881999455392361
2304.0,-0.008236751891672611
2560.0,-0.004624868743121624
2816.0,-0.0030390960164368153
3072.0,-0.00210508331656456
3328.0,-0.0034415321424603462
3584.0,-0.0025656812358647585
3840.0,-0.0056698136031627655
4096.0,-0.007336888462305069
4608.0,-0.002314056735485792
5120.0,0.0006853318773210049
5632.0,-0.007709328550845385
6144.0,0.0012552352854982018
6656.0,0.0023051800671964884
7168.0,0.0026413409505039454
7680.0,0.008617408573627472
8192.0,0.0036976789124310017
end
