version,3.0
numOfCh,1
type,point
parent_name,484af_0dot1-1dot0
ch_type,1_1
kcount,1
numberNandB,1
brightnessNandB,1
carpet pos,0
pc,0
Time (ms),CH1 Auto-Correlation
1.0,0.03686045855283737
2.0,0.03639812394976616
3.0,0.035971105098724365
4.0,0.035584110766649246
5.0,0.03520406782627106
6.0,0.03483934327960014
7.0,0.034488432109355927
8.0,0.03415020927786827
9.0,0.03380095213651657
10.0,0.0334521122276783
11.0,0.033138077706098557
12.0,0.032819099724292755
13.0,0.03250768408179283
14.0,0.03220503404736519
15.0,0.031932711601257324
16.0,0.031662650406360626
18.0,0.031090524047613144
20.0,0.03052080050110817
22.0,0.02997535653412342
24.0,0.029445134103298187
26.0,0.02890768274664879
28.0,0.028399894014000893
30.0,0.02792288362979889
32.0,0.027462586760520935
36.0,0.026617739349603653
40.0,0.025867626070976257
44.0,0.025158237665891647
48.0,0.024492207914590836
52.0,0.02384612336754799
56.0,0.023211656138300896
60.0,0.022573979571461678
64.0,0.021973298862576485
72.0,0.02070820890367031
80.0,0.019328659400343895
88.0,0.018034299835562706
96.0,0.017076386138796806
104.0,0.016352232545614243
112.0,0.015872761607170105
120.0,0.015491767786443233
128.0,0.015075795352458954
144.0,0.014262724667787552
160.0,0.01368753518909216
176.0,0.013477325439453125
192.0,0.01313002035021782
208.0,0.01252734288573265
224.0,0.011811579577624798
240.0,0.01145258266478777
256.0,0.01134189497679472
288.0,0.009847532957792282
320.0,0.007489366456866264
352.0,0.005038469098508358
384.0,0.0037720610853284597
416.0,0.003655019449070096
448.0,0.004234116058796644
480.0,0.004149270243942738
512.0,0.0037909941747784615
576.0,0.0027709584683179855
640.0,0.002832859056070447
704.0,0.003349015722051263
768.0,0.0029340460896492004
832.0,0.0024666159879416227
896.0,0.005062676500529051
960.0,0.007853695191442966
1024.0,0.009405193850398064
1152.0,0.011003497056663036
1280.0,0.009233287535607815
1408.0,0.0044923569075763226
1536.0,0.0003757973317988217
1664.0,-0.003722150344401598
1792.0,-0.004656931851059198
1920.0,-0.004185005556792021
2048.0,-0.0021622919011861086
2304.0,0.0003964935021940619
2560.0,-0.0024209697730839252
2816.0,-0.004713824018836021
3072.0,-0.0038289797957986593
3328.0,0.0011644235346466303
3584.0,0.00022264277504291385
3840.0,-0.0029368598479777575
4096.0,-0.003912607207894325
4608.0,-0.0016383109614253044
5120.0,-0.0037461710162460804
5632.0,-0.004539499990642071
6144.0,-0.0028328020125627518
6656.0,-0.0033930176869034767
7168.0,-0.004151612054556608
7680.0,-0.0022629210725426674
8192.0,-0.011922168545424938
end
