version,3.0
numOfCh,1
type,point
parent_name,484af_0dot1-1dot0
ch_type,1_1
kcount,1
numberNandB,1
brightnessNandB,1
carpet pos,0
pc,0
Time (ms),CH1 Auto-Correlation
1.0,0.03760307654738426
2.0,0.03712410107254982
3.0,0.03669371455907822
4.0,0.03629988804459572
5.0,0.035917848348617554
6.0,0.03554961085319519
7.0,0.0351615808904171
8.0,0.034782759845256805
9.0,0.03440948948264122
10.0,0.034043826162815094
11.0,0.033651698380708694
12.0,0.033293113112449646
13.0,0.03292013332247734
14.0,0.03256493806838989
15.0,0.03220781683921814
16.0,0.031883809715509415
18.0,0.031261879950761795
20.0,0.03065526857972145
22.0,0.030066078528761864
24.0,0.029520979151129723
26.0,0.02898741327226162
28.0,0.02849380485713482
30.0,0.028036311268806458
32.0,0.027600612491369247
36.0,0.0267449039965868
40.0,0.025983819738030434
44.0,0.0252901129424572
48.0,0.024635376408696175
52.0,0.024011148139834404
56.0,0.023437125608325005
60.0,0.02294204756617546
64.0,0.022370917722582817
72.0,0.021093392744660378
80.0,0.01993141509592533
88.0,0.018905945122241974
96.0,0.018200740218162537
104.0,0.017627760767936707
112.0,0.017073923721909523
120.0,0.0165017731487751
128.0,0.015934769064188004
144.0,0.014547228813171387
160.0,0.013345356099307537
176.0,0.012096341699361801
192.0,0.011156967841088772
208.0,0.01043849065899849
224.0,0.009704526513814926
240.0,0.00868302397429943
256.0,0.007915186695754528
288.0,0.006473330780863762
320.0,0.0047610001638531685
352.0,0.0027155443094670773
384.0,0.0016875816509127617
416.0,0.0012703407555818558
448.0,0.0013195602223277092
480.0,0.0014640510780736804
512.0,0.0012645137030631304
576.0,-2.3418340333591914e-06
640.0,-0.0007953616441227496
704.0,-0.0023809594567865133
768.0,-0.003929775208234787
832.0,-0.003296353155747056
896.0,-0.003046286990866065
960.0,-0.003913869149982929
1024.0,-0.004934845492243767
1152.0,-0.008045980706810951
1280.0,-0.00910156685858965
1408.0,-0.006344427354633808
1536.0,-0.0013143328251317143
1664.0,-0.000111640096292831
1792.0,-0.001603580778464675
1920.0,-0.003909425809979439
2048.0,-0.0024282515514642
2304.0,-0.0006517319707199931
2560.0,0.0010361716849729419
2816.0,-0.0011634044349193573
3072.0,0.0001248778571607545
3328.0,0.0005828366265632212
3584.0,0.002562230685725808
3840.0,0.0021567309740930796
4096.0,0.002790705068036914
4608.0,0.0008749314001761377
5120.0,-0.003664459567517042
5632.0,0.00021370941249188036
6144.0,0.007051484659314156
6656.0,-0.001981407171115279
7168.0,-0.005064837634563446
7680.0,-0.0010381039464846253
8192.0,-0.0010302858427166939
end
