version,3.0
numOfCh,1
type,point
parent_name,484af_0dot1-1dot0
ch_type,1_1
kcount,1
numberNandB,1
brightnessNandB,1
carpet pos,0
pc,0
Time (ms),CH1 Auto-Correlation
1.0,0.054296910762786865
2.0,0.05380477011203766
3.0,0.05336161330342293
4.0,0.0529368557035923
5.0,0.05253475531935692
6.0,0.05213543772697449
7.0,0.051761701703071594
8.0,0.051384299993515015
9.0,0.051014047116041183
10.0,0.05065063387155533
11.0,0.0502820685505867
12.0,0.049939386546611786
13.0,0.04959716275334358
14.0,0.04926227778196335
15.0,0.048916541039943695
16.0,0.04855964332818985
18.0,0.04787588119506836
20.0,0.047219421714544296
22.0,0.04659596458077431
24.0,0.04598548635840416
26.0,0.04539639502763748
28.0,0.044831641018390656
30.0,0.04432225227355957
32.0,0.04383331909775734
36.0,0.04286404699087143
40.0,0.041912976652383804
44.0,0.041052110493183136
48.0,0.040250152349472046
52.0,0.03950013220310211
56.0,0.03884236887097359
60.0,0.03831135109066963
64.0,0.03789256140589714
72.0,0.03708873316645622
80.0,0.03624210134148598
88.0,0.035293955355882645
96.0,0.03438768908381462
104.0,0.03364180400967598
112.0,0.03272322565317154
120.0,0.0316876620054245
128.0,0.030711201950907707
144.0,0.02905571460723877
160.0,0.027726085856556892
176.0,0.02668273076415062
192.0,0.02553759329020977
208.0,0.024542007595300674
224.0,0.023106208071112633
240.0,0.02163386158645153
256.0,0.020413678139448166
288.0,0.018802747130393982
320.0,0.01690647192299366
352.0,0.015225634910166264
384.0,0.013713471591472626
416.0,0.011889888904988766
448.0,0.010165879502892494
480.0,0.008826585486531258
512.0,0.007314284332096577
576.0,0.003967444412410259
640.0,0.0028618406504392624
704.0,0.0021306562703102827
768.0,0.002294441219419241
832.0,0.0033712582662701607
896.0,0.004518311470746994
960.0,0.005678378976881504
1024.0,0.00816097017377615
1152.0,0.010016486980021
1280.0,0.010880041867494583
1408.0,0.00891655683517456
1536.0,0.005362408235669136
1664.0,0.00355685711838305
1792.0,0.0038971039466559887
1920.0,0.00434098532423377
2048.0,0.004724058788269758
2304.0,0.0024956625420600176
2560.0,-0.004151998087763786
2816.0,-0.0066216555424034595
3072.0,-0.002961151534691453
3328.0,0.0009300285601057112
3584.0,0.0023749733809381723
3840.0,-0.0060036457143723965
4096.0,-0.006232632789760828
4608.0,-0.00015430139319505543
5120.0,-0.000593838922213763
5632.0,-0.0004687718756031245
6144.0,0.0010286675533279777
6656.0,-0.0015902179293334484
7168.0,-0.013014660216867924
7680.0,-0.014183973893523216
8192.0,-0.011196602135896683
end
