version,3.0
numOfCh,1
type,point
parent_name,484af_0dot1-1dot0
ch_type,1_1
kcount,1
numberNandB,1
brightnessNandB,1
carpet pos,0
pc,0
Time (ms),CH1 Auto-Correlation
1.0,0.04167409613728523
2.0,0.03930782899260521
3.0,0.03883906453847885
4.0,0.03837529569864273
5.0,0.0379260890185833
6.0,0.037428196519613266
7.0,0.03702407702803612
8.0,0.036628447473049164
9.0,0.03618551418185234
10.0,0.03572613000869751
11.0,0.03531426936388016
12.0,0.03492526337504387
13.0,0.03452272713184357
14.0,0.03416558355093002
15.0,0.0338052362203598
16.0,0.03344174101948738
18.0,0.032802749425172806
20.0,0.03213350474834442
22.0,0.03166867047548294
24.0,0.03108268603682518
26.0,0.030628511682152748
28.0,0.03014410100877285
30.0,0.029677946120500565
32.0,0.029264826327562332
36.0,0.028581105172634125
40.0,0.02789878286421299
44.0,0.027279580011963844
48.0,0.026690466329455376
52.0,0.026104412972927094
56.0,0.02553151547908783
60.0,0.02496674843132496
64.0,0.02434738539159298
72.0,0.023240666836500168
80.0,0.022490637376904488
88.0,0.021503984928131104
96.0,0.020498007535934448
104.0,0.01956602931022644
112.0,0.018800588324666023
120.0,0.018194787204265594
128.0,0.01761866733431816
144.0,0.017041128128767014
160.0,0.01599198579788208
176.0,0.01519715879112482
192.0,0.01466833334416151
208.0,0.013946077786386013
224.0,0.013569231145083904
240.0,0.013117684982717037
256.0,0.012186218984425068
288.0,0.01125580444931984
320.0,0.00966090802103281
352.0,0.007732045836746693
384.0,0.005838986020535231
416.0,0.005254237912595272
448.0,0.004948496352881193
480.0,0.004390304908156395
512.0,0.0038897269405424595
576.0,0.0031668441370129585
640.0,0.003940714988857508
704.0,0.004384603817015886
768.0,0.004727072548121214
832.0,0.0037198730278760195
896.0,0.0034374133683741093
960.0,0.0022004845086485147
1024.0,0.0029042901005595922
1152.0,0.005653510335832834
1280.0,0.006877192761749029
1408.0,0.009189341217279434
1536.0,0.0094528803601861
1664.0,0.009647327475249767
1792.0,0.009877441450953484
1920.0,0.00989303644746542
2048.0,0.0067489296197891235
2304.0,0.004483616445213556
2560.0,0.005290091969072819
2816.0,0.0038228449411690235
3072.0,0.0002626815694384277
3328.0,-0.003382359864190221
3584.0,-0.0031872426625341177
3840.0,0.0003710305318236351
4096.0,0.0033167570363730192
4608.0,-0.0040589505806565285
5120.0,-0.009011258371174335
5632.0,-0.004423017147928476
6144.0,-0.005336693953722715
6656.0,-0.007646982092410326
7168.0,-0.011273962445557117
7680.0,-0.00923111755400896
8192.0,-0.00538966991007328
end
