version,3.0
numOfCh,1
type,point
parent_name,484af_0dot1-1dot0
ch_type,1_1
kcount,1
numberNandB,1
brightnessNandB,1
carpet pos,0
pc,0
Time (ms),CH1 Auto-Correlation
1.0,0.03613746538758278
2.0,0.03569318726658821
3.0,0.03527192771434784
4.0,0.0348435640335083
5.0,0.03442405164241791
6.0,0.03402862697839737
7.0,0.033642128109931946
8.0,0.03325427323579788
9.0,0.032888129353523254
10.0,0.03252797946333885
11.0,0.03216971457004547
12.0,0.03182448446750641
13.0,0.031510308384895325
14.0,0.0311824269592762
15.0,0.03086327388882637
16.0,0.030557746067643166
18.0,0.02996934950351715
20.0,0.02943691797554493
22.0,0.028921768069267273
24.0,0.028424778953194618
26.0,0.02793392539024353
28.0,0.02747924253344536
30.0,0.027028487995266914
32.0,0.026583688333630562
36.0,0.02581542357802391
40.0,0.025117846205830574
44.0,0.024473711848258972
48.0,0.023889705538749695
52.0,0.02326980233192444
56.0,0.022672364488244057
60.0,0.022064315155148506
64.0,0.021506216377019882
72.0,0.020443540066480637
80.0,0.01957978494465351
88.0,0.018769940361380577
96.0,0.017876502126455307
104.0,0.01715635322034359
112.0,0.01654159277677536
120.0,0.016099397093057632
128.0,0.01582314446568489
144.0,0.014892203733325005
160.0,0.013704835437238216
176.0,0.012669011950492859
192.0,0.011932478286325932
208.0,0.011179874651134014
224.0,0.010275814682245255
240.0,0.009081958793103695
256.0,0.00786358118057251
288.0,0.0057151177898049355
320.0,0.004408791661262512
352.0,0.004032833036035299
384.0,0.004354008473455906
416.0,0.0038242661394178867
448.0,0.003195245983079076
480.0,0.002659653313457966
512.0,0.0025793742388486862
576.0,0.0030131435487419367
640.0,0.0027371852193027735
704.0,0.002439887262880802
768.0,0.0024324185214936733
832.0,0.0007156115607358515
896.0,-0.0011492174817249179
960.0,-0.00167099351529032
1024.0,-0.0021180291660130024
1152.0,0.0021414340008050203
1280.0,0.0033336945343762636
1408.0,0.00153309793677181
1536.0,0.0009890836663544178
1664.0,-0.0033166382927447557
1792.0,-0.00488464767113328
1920.0,-0.0035190193448215723
2048.0,-0.0025391371455043554
2304.0,-0.0020787566900253296
2560.0,0.002927543828263879
2816.0,0.0010848615784198046
3072.0,-0.0028318699914962053
3328.0,-0.0022602498065680265
3584.0,-0.0034143165685236454
3840.0,0.0011756099993363023
4096.0,0.0011107755126431584
4608.0,-0.001179128885269165
5120.0,0.006690486799925566
5632.0,0.008537684567272663
6144.0,-0.0012140240287408233
6656.0,-0.0010241554118692875
7168.0,-0.005044057033956051
7680.0,-0.003877259325236082
8192.0,-0.00047263113083317876
end
