version,3.0
numOfCh,1
type,point
parent_name,484af_0dot1-1dot0
ch_type,1_1
kcount,1
numberNandB,1
brightnessNandB,1
carpet pos,0
pc,0
Time (ms),CH1 Auto-Correlation
1.0,0.038034722208976746
2.0,0.03761249780654907
3.0,0.03719419240951538
4.0,0.03679024055600166
5.0,0.036403801292181015
6.0,0.03602110594511032
7.0,0.035642359405756
8.0,0.035280633717775345
9.0,0.03492806851863861
10.0,0.034567974507808685
11.0,0.03421270474791527
12.0,0.03387419506907463
13.0,0.033533062785863876
14.0,0.03319317474961281
15.0,0.03285027667880058
16.0,0.0325234979391098
18.0,0.031883031129837036
20.0,0.031274519860744476
22.0,0.030709058046340942
24.0,0.030173959210515022
26.0,0.029673950746655464
28.0,0.029205868020653725
30.0,0.028773365542292595
32.0,0.0283347275108099
36.0,0.02746177464723587
40.0,0.02666015736758709
44.0,0.025961603969335556
48.0,0.025306139141321182
52.0,0.024660060182213783
56.0,0.02397407591342926
60.0,0.023327050730586052
64.0,0.022734813392162323
72.0,0.021775290369987488
80.0,0.020796116441488266
88.0,0.019930122420191765
96.0,0.01921108365058899
104.0,0.01856962963938713
112.0,0.018001358956098557
120.0,0.017618270590901375
128.0,0.017369650304317474
144.0,0.01656215451657772
160.0,0.015424653887748718
176.0,0.014607700519263744
192.0,0.013801876455545425
208.0,0.012680359184741974
224.0,0.011447698809206486
240.0,0.010642649605870247
256.0,0.009819195605814457
288.0,0.0086741978302598
320.0,0.00822767149657011
352.0,0.007426789961755276
384.0,0.00588067714124918
416.0,0.004568992182612419
448.0,0.0037365234456956387
480.0,0.003407158423215151
512.0,0.0033872267231345177
576.0,0.00320867239497602
640.0,0.0023206479381769896
704.0,0.0023859331849962473
768.0,0.0033976819831877947
832.0,0.003707673866301775
896.0,0.0031795180402696133
960.0,0.0023676652926951647
1024.0,0.0015250295400619507
1152.0,-0.0012561781331896782
1280.0,-0.0018831680063158274
1408.0,-0.0007710286299698055
1536.0,-0.00040177081245929003
1664.0,-0.002346507040783763
1792.0,-0.0036158114671707153
1920.0,-0.004093746654689312
2048.0,-0.004611550364643335
2304.0,-0.0017938177334144711
2560.0,-0.003837586846202612
2816.0,-0.003488867310807109
3072.0,-0.0015178073663264513
3328.0,-0.004738830961287022
3584.0,-0.00584727618843317
3840.0,-0.006092178635299206
4096.0,-0.008334003388881683
4608.0,0.003376916516572237
5120.0,0.005024902988225222
5632.0,0.006450113840401173
6144.0,-0.0008604844915680587
6656.0,0.0017544389702379704
7168.0,-0.0031392795499414206
7680.0,-0.003156939521431923
8192.0,-0.0025419481098651886
end
