version,3.0
numOfCh,1
type,point
parent_name,484af_0dot1-1dot0
ch_type,1_1
kcount,1
numberNandB,1
brightnessNandB,1
carpet pos,0
pc,0
Time (ms),CH1 Auto-Correlation
1.0,0.038590800017118454
2.0,0.038001470267772675
3.0,0.037498798221349716
4.0,0.037046849727630615
5.0,0.03664188086986542
6.0,0.036242228001356125
7.0,0.03585456684231758
8.0,0.0354914553463459
9.0,0.03513288125395775
10.0,0.03477926179766655
11.0,0.034450434148311615
12.0,0.034088384360075
13.0,0.03372715786099434
14.0,0.0333913117647171
15.0,0.03305434808135033
16.0,0.032705336809158325
18.0,0.03206431493163109
20.0,0.03146917000412941
22.0,0.030892400071024895
24.0,0.03031158819794655
26.0,0.029752269387245178
28.0,0.029244380071759224
30.0,0.028750941157341003
32.0,0.02830064296722412
36.0,0.027408068999648094
40.0,0.026536421850323677
44.0,0.02576627768576145
48.0,0.025082482025027275
52.0,0.024440551176667213
56.0,0.02371242269873619
60.0,0.02299390733242035
64.0,0.022311024367809296
72.0,0.021061008796095848
80.0,0.019942158833146095
88.0,0.018967246636748314
96.0,0.018131179735064507
104.0,0.01733524352312088
112.0,0.01658017188310623
120.0,0.015947911888360977
128.0,0.0153207341209054
144.0,0.013947274535894394
160.0,0.012491034343838692
176.0,0.011427678167819977
192.0,0.01092009898275137
208.0,0.010376307182013988
224.0,0.009837623685598373
240.0,0.00941165816038847
256.0,0.008730759844183922
288.0,0.006752324290573597
320.0,0.0056677162647247314
352.0,0.004887282848358154
384.0,0.004239113535732031
416.0,0.0035874098539352417
448.0,0.003145617200061679
480.0,0.0027246850077062845
512.0,0.0018253374146297574
576.0,0.0020519120153039694
640.0,0.0040008509531617165
704.0,0.004568254109472036
768.0,0.004625758156180382
832.0,0.0032548343297094107
896.0,0.00195962842553854
960.0,-0.0011885130079463124
1024.0,-0.003067260840907693
1152.0,-0.001985920127481222
1280.0,-0.0002927088353317231
1408.0,0.0008026048308238387
1536.0,-0.0024523402098566294
1664.0,-0.0028307191096246243
1792.0,-0.004407917615026236
1920.0,-0.003925346303731203
2048.0,-0.004708181135356426
2304.0,-0.009654217399656773
2560.0,-0.005682783666998148
2816.0,-0.004277652595192194
3072.0,-0.00969174038618803
3328.0,-0.0038867678958922625
3584.0,0.003446449525654316
3840.0,0.0023562784772366285
4096.0,0.0010962857631966472
4608.0,0.003972163889557123
5120.0,0.0032894713804125786
5632.0,0.0045364596880972385
6144.0,0.003456157399341464
6656.0,-0.0041098627261817455
7168.0,-0.005651888903230429
7680.0,-0.003075673710554838
8192.0,0.0005086183664388955
end
