version,3.0
numOfCh,1
type,point
parent_name,484af_0dot1-1dot0
ch_type,1_1
kcount,1
numberNandB,1
brightnessNandB,1
carpet pos,0
pc,0
Time (ms),CH1 Auto-Correlation
1.0,0.04048417508602142
2.0,0.039048898965120316
3.0,0.03831605240702629
4.0,0.037804581224918365
5.0,0.037409912794828415
6.0,0.03689926862716675
7.0,0.03651769086718559
8.0,0.036148156970739365
9.0,0.03581919148564339
10.0,0.03550054505467415
11.0,0.035185836255550385
12.0,0.0348944365978241
13.0,0.03459949418902397
14.0,0.03430731222033501
15.0,0.03404191508889198
16.0,0.03377385064959526
18.0,0.03317517042160034
20.0,0.03262664005160332
22.0,0.032076071947813034
24.0,0.03156253322958946
26.0,0.031049150973558426
28.0,0.030535582453012466
30.0,0.030059291049838066
32.0,0.029609758406877518
36.0,0.028612472116947174
40.0,0.02768872305750847
44.0,0.026850977912545204
48.0,0.026067832484841347
52.0,0.025374403223395348
56.0,0.02470432035624981
60.0,0.02405449189245701
64.0,0.02345212548971176
72.0,0.02216733992099762
80.0,0.020810218527913094
88.0,0.019433939829468727
96.0,0.018136566504836082
104.0,0.016899390146136284
112.0,0.01593802310526371
120.0,0.015268450602889061
128.0,0.014662728644907475
144.0,0.01353534311056137
160.0,0.012425340712070465
176.0,0.011568739078938961
192.0,0.010503686033189297
208.0,0.009721288457512856
224.0,0.008866066113114357
240.0,0.007880733348429203
256.0,0.006820719689130783
288.0,0.0055961026810109615
320.0,0.005161927547305822
352.0,0.005113561637699604
384.0,0.005155172664672136
416.0,0.005698627792298794
448.0,0.005365794058889151
480.0,0.004384456668049097
512.0,0.004036189988255501
576.0,0.00310828466899693
640.0,0.001164010725915432
704.0,-0.0014334864681586623
768.0,-0.003657350782305002
832.0,-0.0048747556284070015
896.0,-0.0044257501140236855
960.0,-0.004091148264706135
1024.0,-0.00335071817971766
1152.0,-0.0007965938420966268
1280.0,-0.0013736565597355366
1408.0,-0.0022827847860753536
1536.0,-0.000596878060605377
1664.0,0.003050735918805003
1792.0,0.003958418965339661
1920.0,0.002552981721237302
2048.0,0.0013841679319739342
2304.0,0.001213521114550531
2560.0,0.00015728619473520666
2816.0,-0.002088405890390277
3072.0,-0.0036755406763404608
3328.0,-0.0026821328792721033
3584.0,-0.0018848143517971039
3840.0,-0.0008155745454132557
4096.0,-0.004185372497886419
4608.0,-0.006389934569597244
5120.0,-0.0036485004238784313
5632.0,-0.0016353686805814505
6144.0,0.0009634221205487847
6656.0,-0.0011708153178915381
7168.0,-0.003118109190836549
7680.0,0.002266857773065567
8192.0,0.0029878481291234493
end
