version,3.0
numOfCh,1
type,point
parent_name,484af_0dot1-1dot0
ch_type,1_1
kcount,1
numberNandB,1
brightnessNandB,1
carpet pos,0
pc,0
Time (ms),CH1 Auto-Correlation
1.0,0.042804211378097534
2.0,0.04235879331827164
3.0,0.04196016862988472
4.0,0.04160330817103386
5.0,0.04124363139271736
6.0,0.04088820144534111
7.0,0.04054432362318039
8.0,0.0402175672352314
9.0,0.03990110754966736
10.0,0.039584044367074966
11.0,0.03927348926663399
12.0,0.03896817937493324
13.0,0.038657933473587036
14.0,0.03836290165781975
15.0,0.038091227412223816
16.0,0.03782462701201439
18.0,0.037280742079019547
20.0,0.03675016760826111
22.0,0.03622668609023094
24.0,0.035715050995349884
26.0,0.03519256412982941
28.0,0.03470371663570404
30.0,0.03423555567860603
32.0,0.033764928579330444
36.0,0.03290316462516785
40.0,0.03206478804349899
44.0,0.031298719346523285
48.0,0.030597606673836708
52.0,0.02989029325544834
56.0,0.029176773503422737
60.0,0.028549615293741226
64.0,0.028025491163134575
72.0,0.027109773829579353
80.0,0.026200570166110992
88.0,0.025343796238303185
96.0,0.024417825043201447
104.0,0.023523081094026566
112.0,0.022652674466371536
120.0,0.021712880581617355
128.0,0.020758826285600662
144.0,0.018920162692666054
160.0,0.017486855387687683
176.0,0.015856394544243813
192.0,0.014376555569469929
208.0,0.013014479540288448
224.0,0.011844000779092312
240.0,0.010764815844595432
256.0,0.009461117908358574
288.0,0.0073252227157354355
320.0,0.0058005922473967075
352.0,0.004845472984015942
384.0,0.003806896973401308
416.0,0.0029577540699392557
448.0,0.0029475095216184855
480.0,0.0029107043519616127
512.0,0.0025884765200316906
576.0,0.0019153308821842074
640.0,0.0016581247327849269
704.0,0.0023611746728420258
768.0,0.002016198355704546
832.0,0.0006455054390244186
896.0,-0.0012314323103055358
960.0,-0.004177743103355169
1024.0,-0.005359384696930647
1152.0,-0.00464095501229167
1280.0,-0.003896947717294097
1408.0,-0.002625102875754237
1536.0,-0.004403030965477228
1664.0,-0.005619055591523647
1792.0,-0.004350927658379078
1920.0,0.000611096213106066
2048.0,0.002891221549361944
2304.0,-0.002805046970024705
2560.0,-0.004987428430467844
2816.0,-0.002846230287104845
3072.0,-0.010243318974971771
3328.0,-0.0071990005671978
3584.0,-8.243419142672792e-05
3840.0,0.001158207654953003
4096.0,0.009840437211096287
4608.0,0.011272088624536991
5120.0,-0.0015477859415113926
5632.0,-0.004345542751252651
6144.0,-0.0008642669999971986
6656.0,-0.004357402678579092
7168.0,-0.009186496026813984
7680.0,-0.0067298198118805885
8192.0,0.006455115042626858
end
