version,3.0
numOfCh,1
type,point
parent_name,484af_0dot1-1dot0
ch_type,1_1
kcount,1
numberNandB,1
brightnessNandB,1
carpet pos,0
pc,0
Time (ms),CH1 Auto-Correlation
1.0,0.04979743808507919
2.0,0.04934903606772423
3.0,0.04892418533563614
4.0,0.04853231459856033
5.0,0.048161931335926056
6.0,0.04779055714607239
7.0,0.04741260036826134
8.0,0.04705730453133583
9.0,0.046705689281225204
10.0,0.0463622584939003
11.0,0.04602738469839096
12.0,0.045695118606090546
13.0,0.04536250978708267
14.0,0.04503487050533295
15.0,0.04471566155552864
16.0,0.044400427490472794
18.0,0.043793100863695145
20.0,0.04320433735847473
22.0,0.04262533783912659
24.0,0.042054712772369385
26.0,0.04152708873152733
28.0,0.04101521149277687
30.0,0.040507085621356964
32.0,0.040004342794418335
36.0,0.03905090317130089
40.0,0.038166746497154236
44.0,0.03730018809437752
48.0,0.03647227585315704
52.0,0.035707563161849976
56.0,0.03498072549700737
60.0,0.03425309807062149
64.0,0.03360309079289436
72.0,0.0324457511305809
80.0,0.03139430657029152
88.0,0.030437488108873367
96.0,0.029424646869301796
104.0,0.028437791392207146
112.0,0.027493484318256378
120.0,0.026480387896299362
128.0,0.025498809292912483
144.0,0.023840075358748436
160.0,0.022145135328173637
176.0,0.021026069298386574
192.0,0.020227285102009773
208.0,0.019582871347665787
224.0,0.018677860498428345
240.0,0.017859550192952156
256.0,0.017309239134192467
288.0,0.017209572717547417
320.0,0.017273638397455215
352.0,0.016981400549411774
384.0,0.01611420325934887
416.0,0.015266911126673222
448.0,0.013452784158289433
480.0,0.010922539047896862
512.0,0.009091394022107124
576.0,0.005310308188199997
640.0,0.0028829448856413364
704.0,0.0012678350321948528
768.0,0.002216499764472246
832.0,0.002777497284114361
896.0,0.0017697059083729982
960.0,0.0018661379581317306
1024.0,0.0018756187055259943
1152.0,0.001461075502447784
1280.0,0.0009099874878302217
1408.0,-9.902416059048846e-05
1536.0,-0.004529171623289585
1664.0,-0.007587986066937447
1792.0,-0.006100514438003302
1920.0,-0.005419857334345579
2048.0,-0.007001512683928013
2304.0,-0.004540497902780771
2560.0,-0.0031191976740956306
2816.0,-0.006765061989426613
3072.0,-0.009832979179918766
3328.0,-0.009845806285738945
3584.0,-0.011529581621289253
3840.0,-0.007771330885589123
4096.0,-0.006658181548118591
4608.0,-0.0029993059579283
5120.0,0.004262139555066824
5632.0,0.00878378190100193
6144.0,0.0023407211992889643
6656.0,0.00384071609005332
7168.0,-0.0063981227576732635
7680.0,-0.0021490983199328184
8192.0,0.002737619448453188
end
