version,3.0
numOfCh,1
type,point
parent_name,484af_0dot1-1dot0
ch_type,1_1
kcount,1
numberNandB,1
brightnessNandB,1
carpet pos,0
pc,0
Time (ms),CH1 Auto-Correlation
1.0,0.03371766209602356
2.0,0.03331674262881279
3.0,0.03293817490339279
4.0,0.03255828469991684
5.0,0.03218519687652588
6.0,0.0318082794547081
7.0,0.03145245835185051
8.0,0.031106656417250633
9.0,0.030756931751966476
10.0,0.030403541401028633
11.0,0.03005153127014637
12.0,0.02972276881337166
13.0,0.029409106820821762
14.0,0.02909870259463787
15.0,0.028794415295124054
16.0,0.028502827510237694
18.0,0.027964631095528603
20.0,0.027441544458270073
22.0,0.02694949507713318
24.0,0.026457415893673897
26.0,0.02597428299486637
28.0,0.025502361357212067
30.0,0.025050686672329903
32.0,0.024600673466920853
36.0,0.023758327588438988
40.0,0.02299082651734352
44.0,0.02229367010295391
48.0,0.021632932126522064
52.0,0.020979534834623337
56.0,0.02033236064016819
60.0,0.019715771079063416
64.0,0.019166097044944763
72.0,0.0183394905179739
80.0,0.017512036487460136
88.0,0.016607699915766716
96.0,0.015530850738286972
104.0,0.014577073976397514
112.0,0.013859525322914124
120.0,0.013134397566318512
128.0,0.012419513426721096
144.0,0.011256002821028233
160.0,0.010489551350474358
176.0,0.009934553876519203
192.0,0.009191158227622509
208.0,0.008246873505413532
224.0,0.007322151213884354
240.0,0.006635223515331745
256.0,0.005944898817688227
288.0,0.005153099540621042
320.0,0.004948491230607033
352.0,0.004539624787867069
384.0,0.0035963754635304213
416.0,0.0026696932036429644
448.0,0.0016018188325688243
480.0,0.001129552023485303
512.0,0.0010739743011072278
576.0,0.0015168862883001566
640.0,0.0015102301258593798
704.0,0.00035535948700271547
768.0,0.0007192544871941209
832.0,0.00032281127641908824
896.0,-0.0005627215723507106
960.0,-0.000557246501557529
1024.0,-0.000860645726788789
1152.0,-0.0009219806524924934
1280.0,0.0007895413436926901
1408.0,0.0011384288081899285
1536.0,0.0033030740451067686
1664.0,0.0014555267989635468
1792.0,0.0015073156682774425
1920.0,0.0007538407808169723
2048.0,-0.0003723142435774207
2304.0,0.002202564850449562
2560.0,0.002410273300483823
2816.0,8.878934067979571e-07
3072.0,0.001719118794426322
3328.0,0.0019040167098864913
3584.0,-0.002287454903125763
3840.0,-0.0049775224179029465
4096.0,-0.005347926169633865
4608.0,-0.006277922540903091
5120.0,-0.001306717051193118
5632.0,0.002975921146571636
6144.0,-0.0053888657130301
6656.0,-0.004892321769148111
7168.0,-0.0007165048737078905
7680.0,-0.002352982060983777
8192.0,0.002880966756492853
end
