version,3.0
numOfCh,1
type,point
parent_name,484af_0dot1-1dot0
ch_type,1_1
kcount,1
numberNandB,1
brightnessNandB,1
carpet pos,0
pc,0
Time (ms),CH1 Auto-Correlation
1.0,0.04530521109700203
2.0,0.04487563669681549
3.0,0.04445993900299072
4.0,0.04405267536640167
5.0,0.04364623501896858
6.0,0.043258413672447205
7.0,0.04289008677005768
8.0,0.0425141267478466
9.0,0.04215291142463684
10.0,0.041805118322372437
11.0,0.041456155478954315
12.0,0.04110272601246834
13.0,0.04077083244919777
14.0,0.04044277220964432
15.0,0.040117278695106506
16.0,0.03979407623410225
18.0,0.039147742092609406
20.0,0.038552042096853256
22.0,0.03796254098415375
24.0,0.03738609328866005
26.0,0.03683122992515564
28.0,0.03631513565778732
30.0,0.035819102078676224
32.0,0.035338934510946274
36.0,0.03445352986454964
40.0,0.0336228683590889
44.0,0.03283941373229027
48.0,0.03204193711280823
52.0,0.031230783089995384
56.0,0.030450234189629555
60.0,0.02968621253967285
64.0,0.028966249898076057
72.0,0.027626514434814453
80.0,0.026511572301387787
88.0,0.02545916475355625
96.0,0.02447671629488468
104.0,0.023430731147527695
112.0,0.022547250613570213
120.0,0.021818989887833595
128.0,0.021177863702178
144.0,0.01997593604028225
160.0,0.018895454704761505
176.0,0.017865335568785667
192.0,0.01647407002747059
208.0,0.015147782862186432
224.0,0.01447167806327343
240.0,0.013975108042359352
256.0,0.013416873291134834
288.0,0.012849785387516022
320.0,0.011977266520261765
352.0,0.010789784602820873
384.0,0.009296664968132973
416.0,0.007537436205893755
448.0,0.007097214460372925
480.0,0.0070624202489852905
512.0,0.007526969537138939
576.0,0.007993502542376518
640.0,0.00795405637472868
704.0,0.007519004866480827
768.0,0.006753031630069017
832.0,0.005565257743000984
896.0,0.002958246972411871
960.0,0.0022856327705085278
1024.0,0.0027743119280785322
1152.0,9.864668390946463e-05
1280.0,-0.0018107723444700241
1408.0,-0.0018474386306479573
1536.0,-0.004450738895684481
1664.0,-0.007664920762181282
1792.0,-0.0074992710724473
1920.0,-0.007440862245857716
2048.0,-0.004548992961645126
2304.0,-0.0026427553966641426
2560.0,-0.004061367362737656
2816.0,-0.001568782958202064
3072.0,-0.0006826056633144617
3328.0,-0.0010364250047132373
3584.0,-0.002272088546305895
3840.0,-0.002891494194045663
4096.0,-0.0029162319842725992
4608.0,-0.0047764950431883335
5120.0,-0.0034737710375338793
5632.0,-0.0007061255746521056
6144.0,0.0017279891762882471
6656.0,0.005889237858355045
7168.0,0.003131025703623891
7680.0,-0.00490488950163126
8192.0,-0.0032089550513774157
end
