version,3.0
numOfCh,1
type,point
parent_name,34766_3dot0-0dot1
ch_type,1_1
kcount,1
numberNandB,1
brightnessNandB,1
carpet pos,0
pc,0
Time (ms),CH1 Auto-Correlation
1.0,0.016493860632181168
2.0,0.013584032654762268
3.0,0.011587319895625114
4.0,0.010095654986798763
5.0,0.008980439975857735
6.0,0.00799411442130804
7.0,0.00724502420052886
8.0,0.0067017218098044395
9.0,0.00618501752614975
10.0,0.005645164288580418
11.0,0.005124681629240513
12.0,0.004705517087131739
13.0,0.004389275796711445
14.0,0.004171567037701607
15.0,0.003969511017203331
16.0,0.0037817086558789015
18.0,0.0034749326296150684
20.0,0.0032869873102754354
22.0,0.0030405158177018166
24.0,0.002672310918569565
26.0,0.0023015106562525034
28.0,0.0021556266583502293
30.0,0.0020177962724119425
32.0,0.0018399946857243776
36.0,0.0015616535674780607
40.0,0.0014291321858763695
44.0,0.0011989859631285071
48.0,0.000832065474241972
52.0,0.000459592993138358
56.0,0.0004898525075986981
60.0,0.0006421272992156446
64.0,0.0006076157442294061
72.0,0.000646128028165549
80.0,0.00038360198959708214
88.0,7.304113387363032e-05
96.0,-7.321558950934559e-05
104.0,5.385463373386301e-05
112.0,0.00034678608062677085
120.0,0.00030565954511985183
128.0,0.00029856152832508087
144.0,-0.00011510246258694679
160.0,-0.0004771727544721216
176.0,-0.000550568918697536
192.0,-0.00041545723797753453
208.0,-0.0004030586569570005
224.0,-0.0005769396666437387
240.0,-0.0004299171851016581
256.0,-0.0002918931713793427
288.0,0.00023966467415448278
320.0,0.00020228007633704692
352.0,0.0011678627924993634
384.0,0.0005498999380506575
416.0,0.00047243034350685775
448.0,0.00010415737051516771
480.0,-2.767677642623312e-07
512.0,-7.84394214861095e-05
576.0,0.00017852899327408522
640.0,0.00018001736316364259
704.0,0.0003252205497119576
768.0,8.49140778882429e-05
832.0,-0.0001890125568024814
896.0,-3.808614792433218e-06
960.0,-0.00011581076978472993
1024.0,-0.0006234770407900214
1152.0,1.5103794794413261e-05
1280.0,-0.00020768081594724208
1408.0,9.86730883596465e-05
1536.0,0.00016169103037100285
1664.0,-0.00014126001042313874
1792.0,0.00011699672177201137
1920.0,1.9510822312440723e-05
2048.0,0.0001052577281370759
2304.0,-7.994544284883887e-05
2560.0,0.00027886417228728533
2816.0,-6.444625796575565e-06
3072.0,-0.00010164563718717545
3328.0,9.498999861534685e-05
3584.0,-0.00022246061416808516
3840.0,-0.00048015755601227283
4096.0,-9.095241694012657e-05
4608.0,-0.0003363552095834166
5120.0,0.00011485072172945365
5632.0,-0.00027884432347491384
6144.0,-0.0003857979318127036
6656.0,8.534584776498377e-05
7168.0,5.767413313151337e-05
7680.0,3.0498973501380533e-05
8192.0,0.00019320062710903585
end
