version,3.0
numOfCh,1
type,point
parent_name,34766_3dot0-0dot1
ch_type,1_1
kcount,1
numberNandB,1
brightnessNandB,1
carpet pos,0
pc,0
Time (ms),CH1 Auto-Correlation
1.0,0.0161309652030468
2.0,0.013233743607997894
3.0,0.011149724945425987
4.0,0.009697705507278442
5.0,0.00852715689688921
6.0,0.007737447507679462
7.0,0.007089152932167053
8.0,0.006444716826081276
9.0,0.005884112324565649
10.0,0.005382344126701355
11.0,0.0048479982651770115
12.0,0.004480403382331133
13.0,0.0041880221106112
14.0,0.00403759628534317
15.0,0.003738569561392069
16.0,0.0033894856460392475
18.0,0.002997669391334057
20.0,0.0025894269347190857
22.0,0.002333149081096053
24.0,0.0023024773690849543
26.0,0.0021248655393719673
28.0,0.001940653077326715
30.0,0.0018487970810383558
32.0,0.0015862028812989593
36.0,0.0013530667638406157
40.0,0.0011658878065645695
44.0,0.0007943397504277527
48.0,0.0007797594298608601
52.0,0.0009628487168811262
56.0,0.0009617622708901763
60.0,0.0009496930870227516
64.0,0.0010593606857582927
72.0,0.0012829465558752418
80.0,0.0009466856718063354
88.0,0.0005059972172603011
96.0,0.00024317602219525725
104.0,6.853675586171448e-05
112.0,-5.0766680942615494e-05
120.0,-0.00032252611708827317
128.0,-0.00039918662514537573
144.0,-0.0006502041942439973
160.0,-0.0003520340833347291
176.0,-0.0001250917703146115
192.0,-0.0006777153466828167
208.0,-0.00018205447122454643
224.0,0.00039364874828606844
240.0,0.00024402581038884819
256.0,-0.0001138358493335545
288.0,-0.00017601580475457013
320.0,-6.681764352833852e-05
352.0,0.00017935194773599505
384.0,0.0003680820809677243
416.0,0.00013330878573469818
448.0,0.0002126021427102387
480.0,-1.9269531549070962e-05
512.0,-0.0003765234723687172
576.0,0.0001241547433892265
640.0,-0.00017899514932651073
704.0,-0.0002995876129716635
768.0,-0.000339559162966907
832.0,-0.00011983868898823857
896.0,0.00023128872271627188
960.0,0.0001497760385973379
1024.0,4.569438533508219e-05
1152.0,-4.5498287363443524e-05
1280.0,-2.937017779913731e-05
1408.0,-0.0001927153061842546
1536.0,0.0008839589427225292
1664.0,-0.00012682074157055467
1792.0,-0.00024303402460645884
1920.0,4.586354407365434e-05
2048.0,0.00019065410015173256
2304.0,-0.00023034772311802953
2560.0,-1.694439743005205e-05
2816.0,-0.00025475630536675453
3072.0,0.00020945681899320334
3328.0,-6.0440834204200655e-05
3584.0,0.00026294481358490884
3840.0,-0.00018998791347257793
4096.0,-0.00022771793010178953
4608.0,-0.00010953371383948252
5120.0,0.00022163968242239207
5632.0,-0.00022438990708906204
6144.0,-0.00046291257604025304
6656.0,1.946245538420044e-05
7168.0,2.782085539365653e-05
7680.0,-0.00021938489226158708
8192.0,-1.2892387530882843e-05
end
