version,3.0
numOfCh,1
type,point
parent_name,34766_3dot0-0dot1
ch_type,1_1
kcount,1
numberNandB,1
brightnessNandB,1
carpet pos,0
pc,0
Time (ms),CH1 Auto-Correlation
1.0,0.016000160947442055
2.0,0.013226702809333801
3.0,0.011335410177707672
4.0,0.009927810169756413
5.0,0.008826269768178463
6.0,0.00795617327094078
7.0,0.007159618195146322
8.0,0.00660095876082778
9.0,0.006150807719677687
10.0,0.005705527029931545
11.0,0.0052552311681210995
12.0,0.004957048688083887
13.0,0.004720039665699005
14.0,0.004568693693727255
15.0,0.00443239975720644
16.0,0.004370777402073145
18.0,0.00414790865033865
20.0,0.003915966488420963
22.0,0.0036296832840889692
24.0,0.003368064295500517
26.0,0.003186944406479597
28.0,0.0029608216136693954
30.0,0.0026956479996442795
32.0,0.0023786069359630346
36.0,0.002155236667022109
40.0,0.001907524187117815
44.0,0.0016601515235379338
48.0,0.0013354431139305234
52.0,0.0012792465277016163
56.0,0.0013112577144056559
60.0,0.0011913663474842906
64.0,0.0008275340660475194
72.0,0.0006977529264986515
80.0,0.0008458896772935987
88.0,0.0006982784252613783
96.0,0.0006978246965445578
104.0,0.0009772113990038633
112.0,0.0005462453118525445
120.0,0.0004346910573076457
128.0,0.00044657831313088536
144.0,-3.3124848414445296e-05
160.0,-0.0001430396077921614
176.0,-6.641295476583764e-05
192.0,6.778442184440792e-05
208.0,-0.00037748622708022594
224.0,-0.0004945352557115257
240.0,-0.0001207897366839461
256.0,0.00040231822640635073
288.0,0.0005426155985333025
320.0,3.621104406192899e-05
352.0,0.0004027050454169512
384.0,-8.836527558742091e-05
416.0,-5.4843327234266326e-05
448.0,0.0007051575812511146
480.0,0.001252487301826477
512.0,0.00041165834409184754
576.0,0.0005447527510114014
640.0,0.00018741539679467678
704.0,0.00017558470426592976
768.0,0.0005951712955720723
832.0,0.00039613439003005624
896.0,0.00016399670857936144
960.0,0.00017489481251686811
1024.0,0.0001683224836597219
1152.0,0.00023734687420073897
1280.0,0.00034472832339815795
1408.0,8.309040276799351e-05
1536.0,-2.5168976208078675e-05
1664.0,0.00027025913004763424
1792.0,0.0002980353310704231
1920.0,-2.477018460922409e-05
2048.0,-0.00046363184810616076
2304.0,-0.00038551102625206113
2560.0,-0.00047048385022208095
2816.0,0.00010532305896049365
3072.0,-0.00023477103968616575
3328.0,-0.00046722282422706485
3584.0,3.3023439755197614e-05
3840.0,-0.00024284483515657485
4096.0,-4.324100154917687e-05
4608.0,9.400710041518323e-06
5120.0,8.632179378764704e-05
5632.0,8.047788287512958e-05
6144.0,0.00017976935487240553
6656.0,3.3577627618797123e-05
7168.0,-0.0001747113565215841
7680.0,-0.00026524541317485273
8192.0,-0.00014419617946259677
end
