version,3.0
numOfCh,1
type,point
parent_name,34766_3dot0-0dot1
ch_type,1_1
kcount,1
numberNandB,1
brightnessNandB,1
carpet pos,0
pc,0
Time (ms),CH1 Auto-Correlation
1.0,0.016556134447455406
2.0,0.013791662640869617
3.0,0.01179785281419754
4.0,0.010315248742699623
5.0,0.009091698564589024
6.0,0.008171813562512398
7.0,0.007375262677669525
8.0,0.006609975825995207
9.0,0.006111419294029474
10.0,0.005709396209567785
11.0,0.005381318740546703
12.0,0.005120894405990839
13.0,0.0048349048011004925
14.0,0.004424311686307192
15.0,0.004022055771201849
16.0,0.0036576648708432913
18.0,0.003396817250177264
20.0,0.003262920770794153
22.0,0.0028752486687153578
24.0,0.002567279851064086
26.0,0.0023775389418005943
28.0,0.0021736363414674997
30.0,0.0019536216277629137
32.0,0.0019114110618829727
36.0,0.0020384592935442924
40.0,0.0020758528262376785
44.0,0.0019735137466341257
48.0,0.0018047631019726396
52.0,0.001841325662098825
56.0,0.001523831277154386
60.0,0.001127098686993122
64.0,0.0009569634567014873
72.0,0.0011648968793451786
80.0,0.0014477736549451947
88.0,0.0010776000563055277
96.0,0.0008876602514646947
104.0,0.0009541469626128674
112.0,0.0010390692623332143
120.0,0.0011565455934032798
128.0,0.0008769960259087384
144.0,0.0006792322383262217
160.0,0.0008968682959675789
176.0,-6.103324267314747e-05
192.0,7.084319076966494e-05
208.0,-5.0753133109537885e-05
224.0,-0.00038539295201189816
240.0,7.024269871180877e-05
256.0,0.00022565470135305077
288.0,-0.00022623990662395954
320.0,-0.00018814504437614232
352.0,0.00023575966770295054
384.0,-0.0002765688404906541
416.0,-0.00020618144480977207
448.0,-6.395479886123212e-06
480.0,-0.00042074520024470985
512.0,-0.00035111428587697446
576.0,-0.00017617939738556743
640.0,1.981671084649861e-05
704.0,-8.300549234263599e-05
768.0,0.0003493014955893159
832.0,-0.00016069173580035567
896.0,0.0007130157900974154
960.0,0.0007915034657344222
1024.0,0.0003684670082293451
1152.0,0.0001019982373691164
1280.0,0.0002639208978507668
1408.0,0.00026307295775040984
1536.0,-0.00010272506187902763
1664.0,-8.281281043309718e-05
1792.0,0.0002850127639248967
1920.0,0.00020160536223556846
2048.0,-0.00019777235866058618
2304.0,-4.529286525212228e-05
2560.0,9.571954251441639e-07
2816.0,-0.00053672946523875
3072.0,0.0005858385702595115
3328.0,-3.726474824361503e-05
3584.0,-6.366283196257427e-05
3840.0,0.0003328979655634612
4096.0,-0.0004460192867554724
4608.0,5.6388940720353276e-05
5120.0,-6.285410199780017e-05
5632.0,0.00010836264118552208
6144.0,-0.00021198531612753868
6656.0,0.0003984695940744132
7168.0,-0.00033531710505485535
7680.0,-0.00025976356118917465
8192.0,-0.0001249240303877741
end
