version,3.0
numOfCh,1
type,point
parent_name,34766_3dot0-0dot1
ch_type,1_1
kcount,1
numberNandB,1
brightnessNandB,1
carpet pos,0
pc,0
Time (ms),CH1 Auto-Correlation
1.0,0.016680505126714706
2.0,0.013860740698873997
3.0,0.011785226874053478
4.0,0.01026657409965992
5.0,0.00902174785733223
6.0,0.008068596944212914
7.0,0.007315788883715868
8.0,0.006683548912405968
9.0,0.006119084544479847
10.0,0.005708253476768732
11.0,0.00539421895518899
12.0,0.00511314207687974
13.0,0.004820417147129774
14.0,0.0045920987613499165
15.0,0.004316186066716909
16.0,0.004180149175226688
18.0,0.0038200486451387405
20.0,0.003372245468199253
22.0,0.0032891863957047462
24.0,0.003431771183386445
26.0,0.003520041238516569
28.0,0.0033875643275678158
30.0,0.0032488659489899874
32.0,0.0032724353950470686
36.0,0.0031428784132003784
40.0,0.0028357836417853832
44.0,0.0023814691230654716
48.0,0.0018272765446454287
52.0,0.0017583302687853575
56.0,0.0019268784672021866
60.0,0.0019609981682151556
64.0,0.0016391364624723792
72.0,0.0012393546057865024
80.0,0.0008562891162000597
88.0,0.000905640481505543
96.0,0.0008259044261649251
104.0,0.0009646603721193969
112.0,0.0007843414787203074
120.0,0.00044713495299220085
128.0,0.00031638130894862115
144.0,-0.00022770084615331143
160.0,-0.0009725148556753993
176.0,-0.00040922051994130015
192.0,-0.0004256846150383353
208.0,-0.00035880436189472675
224.0,-0.0003390875062905252
240.0,-0.0002093898510793224
256.0,-0.0007491527358070016
288.0,-0.00012498996511567384
320.0,0.00048203679034486413
352.0,0.0005793690215796232
384.0,0.00036862597335129976
416.0,7.465834642061964e-05
448.0,8.054765203269199e-05
480.0,-0.000259072839980945
512.0,0.00014609350182581693
576.0,0.0002316101745236665
640.0,-6.62308739265427e-05
704.0,0.0002474553184583783
768.0,0.0004074468743056059
832.0,0.00010032353748101741
896.0,0.0003141224733553827
960.0,-0.00034606558619998395
1024.0,-0.00022148659627418965
1152.0,0.000356895849108696
1280.0,0.0003037950082216412
1408.0,-6.146015948615968e-05
1536.0,-0.000629429065156728
1664.0,-0.0001320807496085763
1792.0,0.0003594277077354491
1920.0,-0.0003274588380008936
2048.0,-0.00019728053302969784
2304.0,-0.00031323012080974877
2560.0,-0.00011254502896917984
2816.0,7.977154382388107e-06
3072.0,-0.0005503010470420122
3328.0,-0.00012785018770955503
3584.0,-0.0004866879025939852
3840.0,-0.0002616954443510622
4096.0,-0.0004918529884889722
4608.0,4.8033423809101805e-05
5120.0,-0.00017249332449864596
5632.0,0.00011622290185187012
6144.0,0.0003016340488102287
6656.0,0.0006268841098062694
7168.0,0.00043695024214684963
7680.0,-0.00019668003369588405
8192.0,-2.2675083528156392e-05
end
