version,3.0
numOfCh,1
type,point
parent_name,34766_3dot0-0dot1
ch_type,1_1
kcount,1
numberNandB,1
brightnessNandB,1
carpet pos,0
pc,0
Time (ms),CH1 Auto-Correlation
1.0,0.0157760139554739
2.0,0.012989271432161331
3.0,0.011027109809219837
4.0,0.009560294449329376
5.0,0.008324270136654377
6.0,0.007474169135093689
7.0,0.006713376846164465
8.0,0.006064718589186668
9.0,0.005488624796271324
10.0,0.005026552826166153
11.0,0.0046189832501113415
12.0,0.004257393069565296
13.0,0.003926502075046301
14.0,0.0035226508043706417
15.0,0.003106162417680025
16.0,0.002817554632201791
18.0,0.002285740338265896
20.0,0.002081547398120165
22.0,0.00197038147598505
24.0,0.0019049757393077016
26.0,0.0018705511465668678
28.0,0.001848301850259304
30.0,0.0017504652496427298
32.0,0.0016853217966854572
36.0,0.0015776630025357008
40.0,0.0015239998465403914
44.0,0.0014268058585003018
48.0,0.001409486518241465
52.0,0.001256904797628522
56.0,0.0013170323800295591
60.0,0.0012826429447159171
64.0,0.0011421993840485811
72.0,0.0006465072510764003
80.0,-1.3761258742306381e-05
88.0,-0.0004168815794400871
96.0,-0.0005093759391456842
104.0,-0.0003395241219550371
112.0,0.00010145277337869629
120.0,0.00022667410667054355
128.0,-0.00011981138231931254
144.0,-0.00039922315045259893
160.0,-0.00023372376745101064
176.0,0.00038624645094387233
192.0,0.0005349340499378741
208.0,0.0006959480815567076
224.0,0.0007157450309023261
240.0,0.0005909656756557524
256.0,0.0007839051540941
288.0,0.00047306338092312217
320.0,-0.00044148473534733057
352.0,-0.0001837012532632798
384.0,-0.00043400953290984035
416.0,6.3905313254508656e-06
448.0,-0.00018639976042322814
480.0,0.00024717795895412564
512.0,9.70526525634341e-05
576.0,-0.0003528574015945196
640.0,5.626237179967575e-05
704.0,0.00043984863441437483
768.0,-0.00041317709838040173
832.0,-0.0006425197352655232
896.0,-0.00013611170288641006
960.0,-0.0004328674403950572
1024.0,-7.002068014116958e-05
1152.0,-2.9858947527827695e-05
1280.0,-5.140127177583054e-05
1408.0,6.610592663491843e-06
1536.0,-1.49289362525451e-05
1664.0,-0.00016097577463369817
1792.0,-2.0874518668279052e-05
1920.0,-0.00017483886040281504
2048.0,4.3425068724900484e-05
2304.0,0.00027616831357590854
2560.0,1.2023097042401787e-05
2816.0,-0.00013058277545496821
3072.0,-0.0003313242341391742
3328.0,-0.00021312336320988834
3584.0,-0.0002807964920066297
3840.0,0.00015506100316997617
4096.0,-0.00014020457456354052
4608.0,-0.00018071445811074227
5120.0,-3.8733533074264415e-06
5632.0,3.340593320899643e-05
6144.0,8.621579763712361e-05
6656.0,-0.00014513115456793457
7168.0,0.00036730660940520465
7680.0,1.1944943253183737e-05
8192.0,-1.080115634977119e-05
end
