version,3.0
numOfCh,1
type,point
parent_name,34766_3dot0-0dot1
ch_type,1_1
kcount,1
numberNandB,1
brightnessNandB,1
carpet pos,0
pc,0
Time (ms),CH1 Auto-Correlation
1.0,0.015006533823907375
2.0,0.012186161242425442
3.0,0.010243337601423264
4.0,0.008717737160623074
5.0,0.007572844624519348
6.0,0.006676618941128254
7.0,0.005983812268823385
8.0,0.005415158811956644
9.0,0.0047411308623850346
10.0,0.004175362177193165
11.0,0.0037410403601825237
12.0,0.0034752630162984133
13.0,0.0032265856862068176
14.0,0.002907074522227049
15.0,0.0026529852766543627
16.0,0.0025202869437634945
18.0,0.0022045904770493507
20.0,0.0019717246759682894
22.0,0.001865900936536491
24.0,0.0019450205145403743
26.0,0.0019153658067807555
28.0,0.0017941300757229328
30.0,0.0016538344789296389
32.0,0.0014940323308110237
36.0,0.0010092472657561302
40.0,0.0010005380026996136
44.0,0.0007761279703117907
48.0,0.000508675875607878
52.0,0.00031825090991333127
56.0,0.0002499205293133855
60.0,0.00021062305313535035
64.0,0.00037409833748824894
72.0,0.0004968045395798981
80.0,0.0002076928794849664
88.0,1.885271012724843e-05
96.0,-6.978602323215455e-05
104.0,5.545896419789642e-05
112.0,0.0005945120938122272
120.0,0.000761805335059762
128.0,0.0003972937411163002
144.0,-8.588685159338638e-05
160.0,8.397996680287179e-06
176.0,0.00028026942163705826
192.0,-0.000257608771789819
208.0,0.00018404713773634285
224.0,0.0001885865640360862
240.0,0.0005857605719938874
256.0,0.0001362380717182532
288.0,5.0989016017410904e-05
320.0,5.442120891530067e-05
352.0,-0.00019925710512325168
384.0,-4.8010668251663446e-05
416.0,0.0001848142856033519
448.0,5.165002221474424e-05
480.0,0.0002207162615377456
512.0,0.0006519864546135068
576.0,0.000433143024565652
640.0,4.923847518512048e-05
704.0,9.70550172496587e-05
768.0,-4.259574780007824e-05
832.0,-7.39792312742793e-06
896.0,-4.1312719986308366e-05
960.0,0.0002735686139203608
1024.0,-0.0003599020419642329
1152.0,-0.00024083910102490336
1280.0,0.00011187992640770972
1408.0,0.00016357579443138093
1536.0,-6.262076203711331e-05
1664.0,-0.0002768801059573889
1792.0,0.00010651921184035018
1920.0,0.00034559957566671073
2048.0,9.167975804302841e-06
2304.0,0.0001385409414069727
2560.0,-0.00011796553735621274
2816.0,0.000179673355887644
3072.0,-0.0001641774724703282
3328.0,0.000524596543982625
3584.0,0.0003396555548533797
3840.0,-6.452931756939506e-06
4096.0,0.00014423634274862707
4608.0,-0.00030836870428174734
5120.0,-0.00033476552926003933
5632.0,-6.52296730550006e-05
6144.0,1.5429172890435439e-06
6656.0,-0.00013567536370828748
7168.0,-0.00010877654131036252
7680.0,-0.00011440995876910165
8192.0,-0.0003312643966637552
end
