version,3.0
numOfCh,1
type,point
parent_name,34766_3dot0-0dot1
ch_type,1_1
kcount,1
numberNandB,1
brightnessNandB,1
carpet pos,0
pc,0
Time (ms),CH1 Auto-Correlation
1.0,0.016137558966875076
2.0,0.01346020307391882
3.0,0.0116766057908535
4.0,0.010276556015014648
5.0,0.009193595498800278
6.0,0.008304326795041561
7.0,0.007520715706050396
8.0,0.00684874365106225
9.0,0.006275505758821964
10.0,0.005947670433670282
11.0,0.005666791927069426
12.0,0.005372135434299707
13.0,0.0051292236894369125
14.0,0.004913806449621916
15.0,0.004656387493014336
16.0,0.004423200618475676
18.0,0.00406841142103076
20.0,0.003654137486591935
22.0,0.0031896380241960287
24.0,0.0028899116441607475
26.0,0.0026886560954153538
28.0,0.002531761769205332
30.0,0.002348794136196375
32.0,0.002123301848769188
36.0,0.0019975609611719847
40.0,0.0019140165532007813
44.0,0.0017437158385291696
48.0,0.001322640455327928
52.0,0.001010216656140983
56.0,0.0008929393952712417
60.0,0.0008719706092961133
64.0,0.0008586935582570732
72.0,0.0009864988969638944
80.0,0.0010499201016500592
88.0,0.0006245622644200921
96.0,0.0005339049967005849
104.0,0.0003551654808688909
112.0,6.252969615161419e-05
120.0,4.5717191824223846e-05
128.0,-0.0005762586370110512
144.0,-0.00022624904522672296
160.0,-0.00029364280635491014
176.0,-0.000609699753113091
192.0,-0.000529186159837991
208.0,-0.0008058366947807372
224.0,-0.0007043285295367241
240.0,-0.0006778474198654294
256.0,-0.0003867846680805087
288.0,-0.0003450782678555697
320.0,5.2598687034333125e-05
352.0,0.0003510738897603005
384.0,0.00010640794789651409
416.0,0.00046864862088114023
448.0,0.00039266172097995877
480.0,0.00045214020065031946
512.0,-6.0352707805577666e-05
576.0,-0.00025934851146303117
640.0,-0.0002693086862564087
704.0,6.692713941447437e-05
768.0,5.250880712992512e-05
832.0,0.00014392295270226896
896.0,0.000508806318975985
960.0,-0.0002993683738168329
1024.0,-0.0003351226623635739
1152.0,6.292832404142246e-05
1280.0,0.00024265873071271926
1408.0,-0.00022466776135843247
1536.0,-0.00012838475231546909
1664.0,-2.645925633260049e-05
1792.0,-0.0007191962213255465
1920.0,5.542012513615191e-05
2048.0,0.00047354999696835876
2304.0,0.0001389869285048917
2560.0,-0.00022706016898155212
2816.0,7.146511052269489e-05
3072.0,-0.0002151335502276197
3328.0,-3.295506030553952e-05
3584.0,-7.647454913239926e-05
3840.0,-0.0004173401976004243
4096.0,0.00024410727201029658
4608.0,6.475605187006295e-05
5120.0,-0.0002914437500294298
5632.0,-8.331927347171586e-06
6144.0,0.0002153644891222939
6656.0,-7.837658631615341e-05
7168.0,-0.00013964671234134585
7680.0,0.00013447027595248073
8192.0,-0.00023424052051268518
end
