version,3.0
numOfCh,1
type,point
parent_name,34766_3dot0-0dot1
ch_type,1_1
kcount,1
numberNandB,1
brightnessNandB,1
carpet pos,0
pc,0
Time (ms),CH1 Auto-Correlation
1.0,0.03655468672513962
2.0,0.03350179269909859
3.0,0.03115222044289112
4.0,0.029092559590935707
5.0,0.02740289270877838
6.0,0.02593260258436203
7.0,0.024563025683164597
8.0,0.02355206198990345
9.0,0.02267550118267536
10.0,0.021892817690968513
11.0,0.021189872175455093
12.0,0.02068980410695076
13.0,0.02019607089459896
14.0,0.019782261922955513
15.0,0.019260495901107788
16.0,0.01891906186938286
18.0,0.018062254413962364
20.0,0.017229652032256126
22.0,0.01660795323550701
24.0,0.016093354672193527
26.0,0.015411047264933586
28.0,0.01451555173844099
30.0,0.01377005036920309
32.0,0.013407961465418339
36.0,0.01309050153940916
40.0,0.012827156111598015
44.0,0.012696709483861923
48.0,0.012752469629049301
52.0,0.012734898366034031
56.0,0.012821785174310207
60.0,0.012922161258757114
64.0,0.012498891912400723
72.0,0.010596171021461487
80.0,0.009466126561164856
88.0,0.008270875550806522
96.0,0.007343715056777
104.0,0.00825018621981144
112.0,0.008619122207164764
120.0,0.008712247014045715
128.0,0.007715039886534214
144.0,0.004367853980511427
160.0,0.0027907986659556627
176.0,0.0027540563605725765
192.0,0.0013658287934958935
208.0,-7.41553376428783e-05
224.0,0.0002922017592936754
240.0,-0.00017758563626557589
256.0,-0.0008527871104888618
288.0,-0.0005904359859414399
320.0,0.0003566798404790461
352.0,5.876986324437894e-05
384.0,-0.0006167831597849727
416.0,-0.0007360779563896358
448.0,-0.0008472727495245636
480.0,-0.0007389902602881193
512.0,-0.0007543654646724463
576.0,-0.0011732911225408316
640.0,-0.0009101647883653641
704.0,0.0003124889626633376
768.0,0.0005128260818310082
832.0,0.0002992265799548477
896.0,0.001010302803479135
960.0,0.0005754055455327034
1024.0,0.00046043097972869873
1152.0,-0.0003390585188753903
1280.0,-0.0002476070949342102
1408.0,-0.00044597304076887667
1536.0,0.000900362036190927
1664.0,-0.0004953947500325739
1792.0,-0.00040405188337899745
1920.0,-0.0011003012768924236
2048.0,-0.0009399623377248645
2304.0,-0.00020705308998003602
2560.0,0.000566943665035069
2816.0,-5.3493567975237966e-05
3072.0,-0.0010010222904384136
3328.0,-0.0006495809066109359
3584.0,-0.0005977364489808679
3840.0,8.300332410726696e-05
4096.0,-0.00031841042800806463
4608.0,-0.00010368791845394298
5120.0,0.0005930528277531266
5632.0,0.00027941534062847495
6144.0,-0.00016192971088457853
6656.0,-0.0011879190569743514
7168.0,-0.001296783215366304
7680.0,0.0023074995260685682
8192.0,-0.00019914054428227246
end
