version,3.0
numOfCh,1
type,point
parent_name,34766_3dot0-0dot1
ch_type,1_1
kcount,1
numberNandB,1
brightnessNandB,1
carpet pos,0
pc,0
Time (ms),CH1 Auto-Correlation
1.0,0.017736921086907387
2.0,0.014914950355887413
3.0,0.012962112203240395
4.0,0.011442131362855434
5.0,0.010240182280540466
6.0,0.00930443312972784
7.0,0.00850288663059473
8.0,0.007751694414764643
9.0,0.007141910493373871
10.0,0.006565599702298641
11.0,0.006012473255395889
12.0,0.005714016035199165
13.0,0.0054874112829566
14.0,0.005087896715849638
15.0,0.004925081972032785
16.0,0.004637405276298523
18.0,0.0040794010274112225
20.0,0.003691510297358036
22.0,0.003367294790223241
24.0,0.0032020120415836573
26.0,0.0030980531591922045
28.0,0.0029479078948497772
30.0,0.002705794060602784
32.0,0.002561654895544052
36.0,0.0019459270406514406
40.0,0.0014888511504977942
44.0,0.0012838979018852115
48.0,0.0012678822968155146
52.0,0.0010515947360545397
56.0,0.001022354350425303
60.0,0.000946585729252547
64.0,0.001084797317162156
72.0,0.0012162590865045786
80.0,0.0010066581889986992
88.0,0.0008751413552090526
96.0,0.0009512596298009157
104.0,0.0012823499273508787
112.0,0.0012513583060353994
120.0,0.0009218628983944654
128.0,0.0008147720945999026
144.0,0.0006147111998870969
160.0,0.0008232641848735511
176.0,0.0009593668510206044
192.0,0.0003757653757929802
208.0,-0.00047498263302259147
224.0,6.372224015649408e-05
240.0,2.9119435566826724e-05
256.0,0.00016074877930805087
288.0,0.001087161828763783
320.0,0.0008982567815110087
352.0,0.0009871319634839892
384.0,0.000967705505900085
416.0,0.0007097466150298715
448.0,-0.00019254662038292736
480.0,-0.0001857411552919075
512.0,-0.0004371542308945209
576.0,0.000641120714135468
640.0,-6.198846676852554e-05
704.0,0.0004490542341955006
768.0,-2.4853552531567402e-05
832.0,0.0003648806014098227
896.0,0.000668652297463268
960.0,0.0005284362705424428
1024.0,-0.00020758106256835163
1152.0,-9.191848221234977e-05
1280.0,-0.0001002756689558737
1408.0,-0.00013716818648390472
1536.0,-4.290802826290019e-05
1664.0,0.00015769827587064356
1792.0,0.00026183974114246666
1920.0,0.0004013140860479325
2048.0,0.0008810061262920499
2304.0,0.0003131408884655684
2560.0,-2.166009107895661e-05
2816.0,0.0004071383737027645
3072.0,-0.00025160511722788215
3328.0,-0.0005044316058047116
3584.0,-0.00020292440603952855
3840.0,0.0003558273601811379
4096.0,-0.00012124129716539755
4608.0,-5.7928373280446976e-05
5120.0,-0.0005024545243941247
5632.0,-0.0006054587429389358
6144.0,-0.0009426769684068859
6656.0,9.006781328935176e-05
7168.0,-2.9893522878410295e-05
7680.0,-4.1131197576760314e-06
8192.0,-0.0007928770501166582
end
