version,3.0
numOfCh,1
type,point
parent_name,34766_3dot0-0dot1
ch_type,1_1
kcount,1
numberNandB,1
brightnessNandB,1
carpet pos,0
pc,0
Time (ms),CH1 Auto-Correlation
1.0,0.015507671050727367
2.0,0.012706656940281391
3.0,0.010667297057807446
4.0,0.009136431850492954
5.0,0.007974479347467422
6.0,0.0070279184728860855
7.0,0.006287648342549801
8.0,0.005697724875062704
9.0,0.0052538528107106686
10.0,0.004805149044841528
11.0,0.004452314227819443
12.0,0.004074700176715851
13.0,0.0037496360018849373
14.0,0.003441594075411558
15.0,0.0032245186157524586
16.0,0.0029382717330008745
18.0,0.002334738615900278
20.0,0.001973252510651946
22.0,0.0018752587493509054
24.0,0.0017826781840994954
26.0,0.0016580430092290044
28.0,0.001553377602249384
30.0,0.001474148128181696
32.0,0.0014224047772586346
36.0,0.0017061741091310978
40.0,0.001576679409481585
44.0,0.0012311477912589908
48.0,0.0013211381155997515
52.0,0.0013198029482737184
56.0,0.0011813875753432512
60.0,0.0011861911043524742
64.0,0.0008872192702256143
72.0,0.0006804181612096727
80.0,0.0004681917489506304
88.0,0.00032150110928341746
96.0,0.00036511680809780955
104.0,0.00045908597530797124
112.0,0.0005449913442134857
120.0,1.909324601001572e-05
128.0,2.177874557673931e-05
144.0,0.0006111760158091784
160.0,0.0003662121598608792
176.0,0.0003639651113189757
192.0,0.0003935999993700534
208.0,9.932352986652404e-05
224.0,9.52854024944827e-05
240.0,0.0003493364783935249
256.0,0.0006445290637202561
288.0,0.0007107856799848378
320.0,0.00013328467321116477
352.0,0.00047989917220547795
384.0,0.0002985857427120209
416.0,0.00025494099827483296
448.0,4.875847662333399e-05
480.0,0.00015712711319793016
512.0,-0.00027591371326707304
576.0,0.0003527456137817353
640.0,0.0003183992812409997
704.0,0.00038611158379353583
768.0,7.650371844647452e-05
832.0,-0.00013559676881413907
896.0,-0.00016173944459296763
960.0,-1.1333828297210857e-05
1024.0,-0.0002521910355426371
1152.0,2.1896554244449362e-05
1280.0,-0.00028713635401800275
1408.0,-0.00031306754681281745
1536.0,-0.00020673948165494949
1664.0,-0.0006810560589656234
1792.0,-0.0008032465120777488
1920.0,-0.0003239315119571984
2048.0,0.00019179579976480454
2304.0,-9.821532876230776e-05
2560.0,-0.00023636544938199222
2816.0,2.839456283254549e-05
3072.0,0.00033257590257562697
3328.0,0.00020395377941895276
3584.0,0.0001676246611168608
3840.0,-3.2383039069827646e-05
4096.0,-0.0002623898326419294
4608.0,-0.0003426547336857766
5120.0,-0.0003800050762947649
5632.0,0.0002650568203534931
6144.0,0.0006156730814836919
6656.0,0.00023446606064680964
7168.0,-8.303223876282573e-05
7680.0,-9.68628010014072e-05
8192.0,-0.00019949251145590097
end
