version,3.0
numOfCh,1
type,point
parent_name,34766_3dot0-0dot1
ch_type,1_1
kcount,1
numberNandB,1
brightnessNandB,1
carpet pos,0
pc,0
Time (ms),CH1 Auto-Correlation
1.0,0.01609356328845024
2.0,0.013241786509752274
3.0,0.011355709284543991
4.0,0.009934867732226849
5.0,0.008804318495094776
6.0,0.007899601012468338
7.0,0.007157858926802874
8.0,0.006547891069203615
9.0,0.00596235878765583
10.0,0.005502002779394388
11.0,0.0051080104894936085
12.0,0.004761483054608107
13.0,0.004506431519985199
14.0,0.004251464270055294
15.0,0.004111871588975191
16.0,0.003909799735993147
18.0,0.003481630701571703
20.0,0.0030180695466697216
22.0,0.002658932004123926
24.0,0.0022533012088388205
26.0,0.0018303513061255217
28.0,0.0015713924076408148
30.0,0.0014544508885592222
32.0,0.001394367776811123
36.0,0.0012529951054602861
40.0,0.0011906815925613046
44.0,0.0007909921696409583
48.0,0.00043234071927145123
52.0,0.00023801143106538802
56.0,1.0760326176750823e-06
60.0,-0.0002863449917640537
64.0,-0.0005095410742796957
72.0,-0.0002372512244619429
80.0,-0.00044247403275221586
88.0,-4.0742947021499276e-05
96.0,0.0002521969727240503
104.0,-9.43575105338823e-06
112.0,-0.0001938472269102931
120.0,-0.00010820081661222503
128.0,-0.0002561303845141083
144.0,4.3952546548098326e-05
160.0,-0.0002883069100789726
176.0,-0.0004528966674115509
192.0,-0.00029442241066135466
208.0,-3.832663060165942e-05
224.0,0.00037799563142471015
240.0,-6.376618694048375e-05
256.0,-0.0006522753392346203
288.0,-0.00035515494528226554
320.0,-9.498895815340802e-05
352.0,-0.000248385505983606
384.0,-8.870829333318397e-05
416.0,-0.00030710228020325303
448.0,0.0001243096630787477
480.0,0.0003618024056777358
512.0,0.00037871336098760366
576.0,0.00042559171561151743
640.0,0.000510709302034229
704.0,4.815837019123137e-05
768.0,0.00016552556189708412
832.0,4.438564428710379e-05
896.0,-0.00019731672364287078
960.0,-1.3364764527068473e-05
1024.0,-0.00018674870079848915
1152.0,-0.00015986300422810018
1280.0,0.00022669199097435921
1408.0,0.00017859009676612914
1536.0,-4.583753980114125e-05
1664.0,-9.972624684451148e-05
1792.0,-6.97694777045399e-05
1920.0,0.0002513489162083715
2048.0,0.0001273521047551185
2304.0,5.8090790844289586e-05
2560.0,-8.43611269374378e-05
2816.0,2.746942664089147e-05
3072.0,-0.00037911548861302435
3328.0,0.0002751216816250235
3584.0,-0.0002661643084138632
3840.0,0.00021560612367466092
4096.0,-8.286389493150637e-05
4608.0,-0.00015673544839955866
5120.0,-3.9024886063998565e-05
5632.0,0.00010990658483933657
6144.0,0.00012343241542112082
6656.0,-0.0003025083860848099
7168.0,-0.0002983667072840035
7680.0,-3.9134429243858904e-05
8192.0,-0.00016605261771474034
end
