version,3.0
numOfCh,1
type,point
parent_name,34766_3dot0-0dot1
ch_type,1_1
kcount,1
numberNandB,1
brightnessNandB,1
carpet pos,0
pc,0
Time (ms),CH1 Auto-Correlation
1.0,0.017541853711009026
2.0,0.014783062972128391
3.0,0.012888826429843903
4.0,0.011486371047794819
5.0,0.010241633281111717
6.0,0.009313181973993778
7.0,0.008577937260270119
8.0,0.007919853553175926
9.0,0.00746865663677454
10.0,0.007026997860521078
11.0,0.006499330047518015
12.0,0.006149933207780123
13.0,0.005893545690923929
14.0,0.005674393381923437
15.0,0.005564512684941292
16.0,0.005395548418164253
18.0,0.004981327801942825
20.0,0.004540302790701389
22.0,0.0042730821296572685
24.0,0.003966113552451134
26.0,0.0036603633780032396
28.0,0.003451157361268997
30.0,0.003112939652055502
32.0,0.002778067020699382
36.0,0.002394390758126974
40.0,0.002279618987813592
44.0,0.0019819994922727346
48.0,0.001594165456481278
52.0,0.0014561248244717717
56.0,0.0014733494026586413
60.0,0.001255031325854361
64.0,0.0011236125137656927
72.0,0.0006152877467684448
80.0,0.0003282816905993968
88.0,3.6564513720804825e-05
96.0,0.00020443664107006043
104.0,0.00034496100852265954
112.0,0.0003726768190972507
120.0,0.00030925151077099144
128.0,0.0004163598350714892
144.0,-0.00021455886599142104
160.0,-0.0003489650262054056
176.0,8.822795643936843e-05
192.0,0.00013652756751980633
208.0,-0.00027584779309108853
224.0,-0.000671364541631192
240.0,-0.0005518716061487794
256.0,4.78271467727609e-05
288.0,-0.0003398499684408307
320.0,-0.0003811104397755116
352.0,-0.00011675254063447937
384.0,1.7220179870491847e-05
416.0,-9.794758079806343e-05
448.0,0.00039485126035287976
480.0,0.0009435692336410284
512.0,0.0002674182178452611
576.0,-0.00011309695400996134
640.0,-7.089625432854518e-05
704.0,0.00026603363221511245
768.0,0.0006925092893652618
832.0,0.00036564559559337795
896.0,-0.0002850393357221037
960.0,-0.0003251141170039773
1024.0,-0.0004135849012527615
1152.0,-0.0004908380215056241
1280.0,-0.00036386563442647457
1408.0,-0.00017787565593607724
1536.0,7.811619434505701e-05
1664.0,-0.000709252548404038
1792.0,0.00010470206325408071
1920.0,8.344443631358445e-05
2048.0,0.00026599731063470244
2304.0,0.0001886624813778326
2560.0,0.00021992393885739148
2816.0,0.00045881851110607386
3072.0,0.00027840552502311766
3328.0,-4.055974932271056e-05
3584.0,-0.00012785107537638396
3840.0,-0.0003260544908698648
4096.0,-0.00033953742240555584
4608.0,-3.991934863734059e-05
5120.0,-3.0736227927263826e-05
5632.0,-2.673321432666853e-06
6144.0,-5.970611528027803e-05
6656.0,0.00016310877981595695
7168.0,-0.00014311447739601135
7680.0,-6.28662246526801e-06
8192.0,0.00016302468429785222
end
