version,3.0
numOfCh,1
type,point
parent_name,34766_3dot0-0dot1
ch_type,1_1
kcount,1
numberNandB,1
brightnessNandB,1
carpet pos,0
pc,0
Time (ms),CH1 Auto-Correlation
1.0,0.016084197908639908
2.0,0.01327881682664156
3.0,0.011305649764835835
4.0,0.009855288080871105
5.0,0.008588075637817383
6.0,0.007552236318588257
7.0,0.006689997855573893
8.0,0.006016286555677652
9.0,0.005473404657095671
10.0,0.005045032594352961
11.0,0.004807560704648495
12.0,0.004513187799602747
13.0,0.0042083472944796085
14.0,0.003912650980055332
15.0,0.003649069694802165
16.0,0.003416536608710885
18.0,0.0029009459540247917
20.0,0.002656729891896248
22.0,0.0024306669365614653
24.0,0.0021783439442515373
26.0,0.002036308404058218
28.0,0.001929095247760415
30.0,0.001733129029162228
32.0,0.0017732825363054872
36.0,0.001674545812420547
40.0,0.0012639133492484689
44.0,0.00109567167237401
48.0,0.0007754466496407986
52.0,0.0007135633495636284
56.0,0.0006467631319537759
60.0,0.0003915569104719907
64.0,0.00014117357204668224
72.0,3.339361137477681e-05
80.0,-0.0003823225852102041
88.0,-0.0005184928886592388
96.0,-0.00025095444289036095
104.0,-0.00018093307153321803
112.0,-0.00019366848573554307
120.0,-0.0002229134552180767
128.0,-0.0006247987039387226
144.0,-0.00031139986822381616
160.0,-0.00036089535569772124
176.0,-0.0006268669385462999
192.0,-0.0005388639983721077
208.0,-1.5108245861483738e-05
224.0,0.00044135062489658594
240.0,-0.00015839390107430518
256.0,-0.00030484519083984196
288.0,0.0003589835832826793
320.0,5.384979431255488e-06
352.0,-0.00019151088781654835
384.0,1.8294666006113403e-05
416.0,0.00037840608274564147
448.0,3.810322596109472e-05
480.0,0.00020007663988508284
512.0,0.000350400892784819
576.0,-1.9443548353592632e-06
640.0,0.0001230478083016351
704.0,-0.00029323602211661637
768.0,-0.00018350343452766538
832.0,0.0004970148438587785
896.0,0.00040677344077266753
960.0,0.00011002979590557516
1024.0,7.07200524630025e-05
1152.0,-5.2311443141661584e-06
1280.0,-0.00042451178887858987
1408.0,-2.0193765521980822e-05
1536.0,0.0002650278911460191
1664.0,-8.772248838795349e-05
1792.0,-0.0001678220578469336
1920.0,-0.0001515586336608976
2048.0,-0.00017893781478051096
2304.0,-0.0002195862034568563
2560.0,-0.00043954566353932023
2816.0,-0.00011217427527299151
3072.0,-0.00020467530703172088
3328.0,2.9020558940828778e-05
3584.0,0.0002620523446239531
3840.0,-1.619898648641538e-05
4096.0,-0.0001006082893582061
4608.0,2.8526552341645584e-05
5120.0,0.00021101185120642185
5632.0,0.00015196792082861066
6144.0,3.991388439317234e-05
6656.0,-0.000254213489824906
7168.0,-4.0002239984460175e-05
7680.0,-0.00014031161845196038
8192.0,-0.0001324708282481879
end
