version,3.0
numOfCh,1
type,point
parent_name,34766_3dot0-0dot1
ch_type,1_1
kcount,1
numberNandB,1
brightnessNandB,1
carpet pos,0
pc,0
Time (ms),CH1 Auto-Correlation
1.0,0.015976229682564735
2.0,0.013276978395879269
3.0,0.011424580588936806
4.0,0.009965918026864529
5.0,0.008878442458808422
6.0,0.007873383350670338
7.0,0.0071350159123539925
8.0,0.006554694846272469
9.0,0.006053343880921602
10.0,0.005599869415163994
11.0,0.005255702883005142
12.0,0.00491179246455431
13.0,0.004647211171686649
14.0,0.0044286190532147884
15.0,0.004213166423141956
16.0,0.003958409186452627
18.0,0.0034143496304750443
20.0,0.0030240854248404503
22.0,0.0024802223779261112
24.0,0.0020309772808104753
26.0,0.0019528695847839117
28.0,0.0018543845508247614
30.0,0.0018370847683399916
32.0,0.0017207141499966383
36.0,0.0013986530248075724
40.0,0.0010359995067119598
44.0,0.0007557861390523612
48.0,0.0004633718926925212
52.0,0.00046823048614896834
56.0,0.0006066998466849327
60.0,0.0004750446241814643
64.0,0.0004416578740347177
72.0,0.0002984186285175383
80.0,-2.9190643545007333e-05
88.0,5.697778397006914e-05
96.0,0.0002676593139767647
104.0,0.0006772237829864025
112.0,0.0006725523271597922
120.0,0.0005789825227111578
128.0,0.0008807855192571878
144.0,0.0006411088397726417
160.0,0.0008963908767327666
176.0,0.0003791119670495391
192.0,-7.098903006408364e-05
208.0,-0.00027844400028698146
224.0,-0.00012301013339310884
240.0,-0.00024171917175408453
256.0,0.00013275945093482733
288.0,0.0005190747324377298
320.0,9.118751768255606e-05
352.0,-0.0005323984078131616
384.0,0.0003734565107151866
416.0,0.00027103041065856814
448.0,-0.0004753760586027056
480.0,-0.00044799037277698517
512.0,-0.00027301826048642397
576.0,-0.0004124201077502221
640.0,-0.0004152437031734735
704.0,8.71699012350291e-05
768.0,-0.000779990921728313
832.0,-7.762470340821892e-05
896.0,-0.00011205959890503436
960.0,0.00030355784110724926
1024.0,-9.049983054865152e-05
1152.0,-1.0937023034784943e-05
1280.0,-5.55625265405979e-05
1408.0,-0.0004235879168845713
1536.0,-0.000416363327531144
1664.0,-0.00012980747851543128
1792.0,0.0002624928893055767
1920.0,-5.0353668484603986e-05
2048.0,0.00016907525423448533
2304.0,0.00010218509123660624
2560.0,0.0005628323997370899
2816.0,2.707427483983338e-05
3072.0,-0.00013847141235601157
3328.0,-0.0005678131128661335
3584.0,-6.066217247280292e-05
3840.0,-0.0004128952859900892
4096.0,-0.00039872873458079994
4608.0,6.55201802146621e-05
5120.0,-1.4953793652239256e-06
5632.0,-6.609909905819222e-05
6144.0,0.00010284527525072917
6656.0,0.0001606858568266034
7168.0,6.142625352367759e-05
7680.0,-7.547866698587313e-05
8192.0,-0.00013373953697737306
end
