version,3.0
numOfCh,1
type,point
parent_name,34766_3dot0-0dot1
ch_type,1_1
kcount,1
numberNandB,1
brightnessNandB,1
carpet pos,0
pc,0
Time (ms),CH1 Auto-Correlation
1.0,0.014862943440675735
2.0,0.012067193165421486
3.0,0.010084434412419796
4.0,0.008530077524483204
5.0,0.0073782033286988735
6.0,0.0063950857147574425
7.0,0.005659675691276789
8.0,0.00513256061822176
9.0,0.004612602759152651
10.0,0.004269859287887812
11.0,0.003977831453084946
12.0,0.003688627388328314
13.0,0.0034385875333100557
14.0,0.0032726863864809275
15.0,0.003131104866042733
16.0,0.002889767987653613
18.0,0.002327642636373639
20.0,0.0018324650591239333
22.0,0.001569362822920084
24.0,0.0014988246839493513
26.0,0.0015790462493896484
28.0,0.0016001153271645308
30.0,0.001720374682918191
32.0,0.0016594473272562027
36.0,0.0013066345127299428
40.0,0.0012056990526616573
44.0,0.0010903355432674289
48.0,0.0008511251653544605
52.0,0.0006889528012834489
56.0,0.0005895135691389441
60.0,0.0007127596181817353
64.0,0.000567333830986172
72.0,0.0006193925510160625
80.0,0.0009269073489122093
88.0,0.0005093993386253715
96.0,2.9456882657541428e-06
104.0,-9.26536595216021e-05
112.0,0.00028255488723516464
120.0,0.000549177813809365
128.0,0.0005154699902050197
144.0,0.0002434816851746291
160.0,5.897258597542532e-05
176.0,-4.743997487821616e-05
192.0,-0.0003859892603941262
208.0,-0.0002720761112868786
224.0,-0.0003301007382106036
240.0,6.938738079043105e-05
256.0,0.00016006320947781205
288.0,6.268377910600975e-05
320.0,-0.0005281622870825231
352.0,0.0005201032618060708
384.0,0.0005249264067970216
416.0,0.0001423617941327393
448.0,-4.484394230530597e-05
480.0,-0.0003408553602639586
512.0,-0.00035157360252924263
576.0,-4.0674047340871766e-05
640.0,2.3500890165450983e-05
704.0,0.00045850250171497464
768.0,0.0003180956991855055
832.0,-2.2936839741305448e-05
896.0,-0.00012098637671442702
960.0,-0.00024235017190221697
1024.0,-0.0003004643367603421
1152.0,-0.0002680991601664573
1280.0,0.00013679028779733926
1408.0,8.94326003617607e-05
1536.0,-0.0001639611436985433
1664.0,-0.00013221414701547474
1792.0,0.00016996607882902026
1920.0,-8.789909043116495e-05
2048.0,-0.0001145535716204904
2304.0,5.481164771481417e-05
2560.0,0.00014466836000792682
2816.0,-6.842432776466012e-05
3072.0,0.00017138270777650177
3328.0,-0.0002867392322514206
3584.0,0.0002446729049552232
3840.0,0.0001644005678826943
4096.0,-0.0003118548484053463
4608.0,-0.0003570287663023919
5120.0,6.711115565849468e-05
5632.0,0.00014423813263420016
6144.0,0.00016113823221530765
6656.0,0.00022833886032458395
7168.0,-0.0001466397225158289
7680.0,-0.00024309485161211342
8192.0,-0.0003553149290382862
end
