version,3.0
numOfCh,1
type,point
parent_name,34766_3dot0-0dot1
ch_type,1_1
kcount,1
numberNandB,1
brightnessNandB,1
carpet pos,0
pc,0
Time (ms),CH1 Auto-Correlation
1.0,0.016403254121541977
2.0,0.013614277355372906
3.0,0.011601465754210949
4.0,0.00997981894761324
5.0,0.008812942542135715
6.0,0.007847251370549202
7.0,0.007072533015161753
8.0,0.006420947145670652
9.0,0.005859954282641411
10.0,0.00534261018037796
11.0,0.004857789259403944
12.0,0.004496107343584299
13.0,0.004132792819291353
14.0,0.0038776430301368237
15.0,0.0035737697035074234
16.0,0.003353887004777789
18.0,0.0030415644869208336
20.0,0.002974734641611576
22.0,0.0028414574917405844
24.0,0.0027198391035199165
26.0,0.002557147294282913
28.0,0.002386851003393531
30.0,0.0021316625643521547
32.0,0.0018972578691318631
36.0,0.0014238293515518308
40.0,0.0011918642558157444
44.0,0.001196982804685831
48.0,0.001157804043032229
52.0,0.0009639157215133309
56.0,0.0009352575289085507
60.0,0.0009049458894878626
64.0,0.0011981748975813389
72.0,0.0005089282640255988
80.0,3.771373667404987e-05
88.0,-0.0002673017152119428
96.0,-0.00039763966924510896
104.0,-0.0005845471750944853
112.0,-0.0008951723575592041
120.0,-0.0005856904899701476
128.0,-3.79897428501863e-05
144.0,0.0003102635673712939
160.0,-0.00024494933313690126
176.0,-0.00016828681691549718
192.0,-6.126480730017647e-05
208.0,-2.8661575925070792e-05
224.0,-0.00015797409287188202
240.0,-0.0001821551995817572
256.0,7.09762389305979e-05
288.0,0.000550962402485311
320.0,-0.00010145227861357853
352.0,0.00010765249317046255
384.0,6.594464502995834e-05
416.0,-0.00018339788948651403
448.0,-0.0003955522843170911
480.0,0.0003046926576644182
512.0,0.00015162596537265927
576.0,-0.00029721276951022446
640.0,-0.00023730337852612138
704.0,-0.00038080281228758395
768.0,-6.404701707651839e-05
832.0,-0.0001657056127442047
896.0,0.000435454334365204
960.0,0.0003338973328936845
1024.0,-0.0003468321228865534
1152.0,-0.0003173307632096112
1280.0,-0.00020741963817272335
1408.0,-0.00012151115515735
1536.0,-4.0317590901395306e-05
1664.0,-0.00011734312283806503
1792.0,-5.9174984926357865e-05
1920.0,-0.00011795081081800163
2048.0,-0.00011270475806668401
2304.0,-1.6121723092510365e-05
2560.0,0.00012017333210678771
2816.0,1.4034708328836132e-05
3072.0,6.233263411559165e-05
3328.0,-0.00030899691046215594
3584.0,-0.0002782659721560776
3840.0,-0.00010704760643420741
4096.0,0.00011248025111854076
4608.0,4.88166042487137e-05
5120.0,0.00010775935515994206
5632.0,0.0001991706230910495
6144.0,-0.00021185583318583667
6656.0,7.022401405265555e-05
7168.0,0.0001506693079136312
7680.0,-0.00028877874137833714
8192.0,0.00020910352759528905
end
