version,3.0
numOfCh,1
type,point
parent_name,34766_3dot0-0dot1
ch_type,1_1
kcount,1
numberNandB,1
brightnessNandB,1
carpet pos,0
pc,0
Time (ms),CH1 Auto-Correlation
1.0,0.016363056376576424
2.0,0.012634155340492725
3.0,0.010566575452685356
4.0,0.00921750720590353
5.0,0.00796861294656992
6.0,0.006988074164837599
7.0,0.0062921373173594475
8.0,0.005730198696255684
9.0,0.00525491451844573
10.0,0.004774550907313824
11.0,0.004319439176470041
12.0,0.004080846905708313
13.0,0.003893643617630005
14.0,0.0037122757639735937
15.0,0.0035391212441027164
16.0,0.003369435667991638
18.0,0.002869029762223363
20.0,0.002636383753269911
22.0,0.0024801981635391712
24.0,0.0023309492971748114
26.0,0.002225626492872834
28.0,0.0019550572615116835
30.0,0.001868378953076899
32.0,0.0016055695014074445
36.0,0.0012919028522446752
40.0,0.0012000389397144318
44.0,0.0011225295020267367
48.0,0.0010824272176250815
52.0,0.001146293361671269
56.0,0.0009068659855984151
60.0,0.0007231950876303017
64.0,0.0005958157707937062
72.0,0.0004976592608727515
80.0,-7.85040629125433e-06
88.0,-0.00010909249976975843
96.0,0.0001234477385878563
104.0,0.00020393115119077265
112.0,0.00035777391167357564
120.0,0.00010861233022296801
128.0,5.942255666013807e-05
144.0,0.0002519498812034726
160.0,0.00044288995559327304
176.0,0.0003020924632437527
192.0,3.021335396624636e-05
208.0,-0.00024464321904815733
224.0,-0.00031660214881412685
240.0,-0.0002724765508901328
256.0,-0.0003714897611644119
288.0,-0.00014857258065603673
320.0,-5.778688137070276e-05
352.0,0.0003482238098513335
384.0,0.00028467312222346663
416.0,-0.00010630574251990765
448.0,-0.00010144499538000673
480.0,0.00023779479670338333
512.0,0.00046926969662308693
576.0,0.0003001242002937943
640.0,0.00025959176127798855
704.0,0.00023161435092333704
768.0,0.000538616965059191
832.0,0.0003822442376986146
896.0,-0.00014949264004826546
960.0,5.950971171841957e-05
1024.0,0.0003239904763177037
1152.0,0.00021045273751951754
1280.0,0.00017382694932166487
1408.0,0.0001304255420109257
1536.0,0.0001122517351177521
1664.0,0.00024346042482648045
1792.0,-2.046395593424677e-06
1920.0,-0.000406438804930076
2048.0,-0.0001912701118271798
2304.0,-8.0369551142212e-05
2560.0,-0.0001786172651918605
2816.0,-0.0001085814947145991
3072.0,-0.00043271490721963346
3328.0,5.138977212482132e-05
3584.0,-0.0001820339384721592
3840.0,-5.233888441580348e-05
4096.0,-6.90407759975642e-05
4608.0,-4.560472734738141e-05
5120.0,0.0002933820942416787
5632.0,-0.0001400289620505646
6144.0,3.089490201091394e-05
6656.0,-5.449076707009226e-05
7168.0,-0.000412146735470742
7680.0,-0.00015657301992177963
8192.0,-0.000444676581537351
end
