version,3.0
numOfCh,1
type,point
parent_name,34766_3dot0-0dot1
ch_type,1_1
kcount,1
numberNandB,1
brightnessNandB,1
carpet pos,0
pc,0
Time (ms),CH1 Auto-Correlation
1.0,0.017803464084863663
2.0,0.014937120489776134
3.0,0.012836532667279243
4.0,0.011361654847860336
5.0,0.010165225714445114
6.0,0.00927755981683731
7.0,0.00854518823325634
8.0,0.007826215587556362
9.0,0.0072022052481770515
10.0,0.006735697388648987
11.0,0.006340880412608385
12.0,0.0058855339884757996
13.0,0.005573735572397709
14.0,0.00527610257267952
15.0,0.004914239980280399
16.0,0.00469384016469121
18.0,0.00417039031162858
20.0,0.003739807289093733
22.0,0.003444505389779806
24.0,0.003080463968217373
26.0,0.002768757753074169
28.0,0.0024735580664128065
30.0,0.0024767506401985884
32.0,0.0022212201729416847
36.0,0.0018741863314062357
40.0,0.0013159543741494417
44.0,0.0008805480320006609
48.0,0.0006438303971663117
52.0,0.00047188863391056657
56.0,0.0005469870520755649
60.0,0.0006123464554548264
64.0,0.00039217615267261863
72.0,0.0005166914779692888
80.0,0.0007998730288818479
88.0,0.0007611858891323209
96.0,0.0007934197201393545
104.0,0.0005454096244648099
112.0,0.0006681609083898365
120.0,0.0005788006819784641
128.0,0.0001659923291299492
144.0,3.869262582156807e-05
160.0,0.0006166786188259721
176.0,0.0008217010763473809
192.0,0.0008328023250214756
208.0,0.0010616339277476072
224.0,0.00046903363545425236
240.0,-0.00043492019176483154
256.0,-0.0005114461528137326
288.0,0.000570070231333375
320.0,0.0006667344132438302
352.0,0.00030178119777701795
384.0,0.0011212817626073956
416.0,0.0004440442135091871
448.0,0.00016305242024827749
480.0,0.00034436260466463864
512.0,0.00042890221811831
576.0,0.0005427472642622888
640.0,0.00011670689127640799
704.0,0.000272151519311592
768.0,0.0010047948453575373
832.0,0.00012092015822418034
896.0,-3.072337494813837e-05
960.0,-5.714863073080778e-05
1024.0,0.00014569336781278253
1152.0,1.3120177754899487e-05
1280.0,0.0002818916691467166
1408.0,-1.2946281458425801e-05
1536.0,-8.566556789446622e-05
1664.0,0.00043883072794415057
1792.0,0.00027606930234469473
1920.0,-5.84730260015931e-05
2048.0,0.00024567535729147494
2304.0,-0.0002009652671404183
2560.0,-3.777535312110558e-05
2816.0,2.508849138393998e-05
3072.0,-0.00018977913714479655
3328.0,-0.00037721480475738645
3584.0,-9.67138257692568e-05
3840.0,-0.0004208608588669449
4096.0,0.00013487778778653592
4608.0,-0.00037502922350540757
5120.0,-0.00029123658896423876
5632.0,0.00012699764920398593
6144.0,-0.00037449976662173867
6656.0,-0.00030589092057198286
7168.0,6.822670547990128e-05
7680.0,9.69211250776425e-05
8192.0,0.00011201217421330512
end
