version,3.0
numOfCh,1
type,point
parent_name,34766_3dot0-0dot1
ch_type,1_1
kcount,1
numberNandB,1
brightnessNandB,1
carpet pos,0
pc,0
Time (ms),CH1 Auto-Correlation
1.0,0.016367444768548012
2.0,0.013502002693712711
3.0,0.01145195122808218
4.0,0.009982818737626076
5.0,0.008796250447630882
6.0,0.00791653711348772
7.0,0.0071156746707856655
8.0,0.0065996996127069
9.0,0.006163311190903187
10.0,0.00571475038304925
11.0,0.005254305433481932
12.0,0.00485540134832263
13.0,0.004601681604981422
14.0,0.004274348262697458
15.0,0.004015037789940834
16.0,0.003936704248189926
18.0,0.003759222337976098
20.0,0.0034598298370838165
22.0,0.0032632455695420504
24.0,0.002844946924597025
26.0,0.0025728149339556694
28.0,0.0026280831079930067
30.0,0.0025090284179896116
32.0,0.002349737100303173
36.0,0.002085003536194563
40.0,0.0019261273555457592
44.0,0.0016790020745247602
48.0,0.00146410649176687
52.0,0.001404925831593573
56.0,0.0013178177177906036
60.0,0.0014045858988538384
64.0,0.001132556120865047
72.0,0.0011560979764908552
80.0,0.0010823215125128627
88.0,0.00109197199344635
96.0,0.0009266671841032803
104.0,0.0008673560805618763
112.0,0.0007541321683675051
120.0,0.0006137717282399535
128.0,0.00039017797098495066
144.0,0.0005427419673651457
160.0,-9.827926987782121e-05
176.0,-7.594951603095978e-05
192.0,-0.000198435052880086
208.0,-0.0005761940265074372
224.0,-0.00043409684440121055
240.0,-0.00016984788817353547
256.0,-0.00031388262868858874
288.0,-3.4678781958064064e-05
320.0,-0.00018966427887789905
352.0,7.9508854469168e-06
384.0,0.00021319842198863626
416.0,-7.74577129050158e-05
448.0,-0.00013761364971287549
480.0,-0.0004383966443128884
512.0,-0.00010736207332229242
576.0,-2.9502256438718177e-05
640.0,-0.0003782682470045984
704.0,-0.0006166686653159559
768.0,-0.0006048025679774582
832.0,-0.0003523872292134911
896.0,9.890592627925798e-05
960.0,0.00012555456487461925
1024.0,0.0001429567637387663
1152.0,7.714629646216054e-06
1280.0,-0.00047573805204592645
1408.0,-0.00017334625590592623
1536.0,-1.1423893738538027e-05
1664.0,-0.00016438361490145326
1792.0,-2.093095645250287e-06
1920.0,-9.088122169487178e-05
2048.0,0.0002505076990928501
2304.0,-0.00017866422422230244
2560.0,-0.00039692019345238805
2816.0,5.3950410801917315e-05
3072.0,0.0003843623271677643
3328.0,2.776727797026979e-06
3584.0,-0.0003611597931012511
3840.0,0.0002495714579708874
4096.0,0.0002881473919842392
4608.0,-0.00012128791422583163
5120.0,9.707527351565659e-05
5632.0,-2.0757421225425787e-05
6144.0,0.00032789548276923597
6656.0,-0.00010147382272407413
7168.0,-0.00010716349788708612
7680.0,-0.00020069724996574223
8192.0,3.77719261450693e-05
end
