version,3.0
numOfCh,1
type,point
parent_name,34766_3dot0-0dot1
ch_type,1_1
kcount,1
numberNandB,1
brightnessNandB,1
carpet pos,0
pc,0
Time (ms),CH1 Auto-Correlation
1.0,0.015156859531998634
2.0,0.012371440418064594
3.0,0.010540296323597431
4.0,0.009108180180191994
5.0,0.007925407029688358
6.0,0.007073032669723034
7.0,0.006243029143661261
8.0,0.0056055570021271706
9.0,0.005087090190500021
10.0,0.0045907869935035706
11.0,0.004086699802428484
12.0,0.003617930458858609
13.0,0.0032406672835350037
14.0,0.002968361834064126
15.0,0.002749958774074912
16.0,0.0025714789517223835
18.0,0.0023352215066552162
20.0,0.0019988487474620342
22.0,0.001738593215122819
24.0,0.0015730137238278985
26.0,0.0014094661455601454
28.0,0.0012116847792640328
30.0,0.0011525151785463095
32.0,0.0010446296073496342
36.0,0.0011779783526435494
40.0,0.0012702371459454298
44.0,0.0013424616772681475
48.0,0.0011212187819182873
52.0,0.001042631920427084
56.0,0.0008634909172542393
60.0,0.0009341607801616192
64.0,0.0006732008187100291
72.0,0.00037472753319889307
80.0,0.0006440972210839391
88.0,0.0005138160777278244
96.0,0.00027830799808725715
104.0,0.0007207429734990001
112.0,0.0005409675068221986
120.0,0.0006502724136225879
128.0,0.0004323615867178887
144.0,0.00028235293575562537
160.0,0.00019432391854934394
176.0,9.976584988180548e-05
192.0,0.000399016251321882
208.0,0.0007438772590830922
224.0,0.0009062590543180704
240.0,0.0004604630230460316
256.0,0.0001301050215261057
288.0,-1.553152469568886e-05
320.0,0.00043389093480072916
352.0,0.0003653570602182299
384.0,0.0002904940629377961
416.0,0.0003796028613578528
448.0,0.00011095331137767062
480.0,-0.0003285484272055328
512.0,0.00018925542826764286
576.0,0.0003515007847454399
640.0,0.0002593796525616199
704.0,2.639814920257777e-05
768.0,-0.00018222325888928026
832.0,-0.00013825067435391247
896.0,-0.00029438434285111725
960.0,-0.0001443452201783657
1024.0,1.2336065537965624e-06
1152.0,9.777137165656313e-05
1280.0,0.00014992553042247891
1408.0,-0.00021517308778129518
1536.0,-0.00031752436188980937
1664.0,-0.00012645393144339323
1792.0,3.655729233287275e-05
1920.0,-0.000801894988398999
2048.0,-0.00013326530461199582
2304.0,-4.927363625029102e-05
2560.0,0.00010035536251962185
2816.0,-2.340553874091711e-05
3072.0,9.986259829020128e-05
3328.0,-3.842090518446639e-05
3584.0,0.000109182255982887
3840.0,7.166171417338774e-05
4096.0,0.00013516283070202917
4608.0,0.00019703092402778566
5120.0,-0.0001366834476357326
5632.0,-0.0004645364824682474
6144.0,-0.00037927390076220036
6656.0,3.744554487639107e-05
7168.0,0.00025179149815812707
7680.0,-0.0003354101500008255
8192.0,-0.00010424327774671838
end
