version,3.0
numOfCh,1
type,point
parent_name,34766_3dot0-0dot1
ch_type,1_1
kcount,1
numberNandB,1
brightnessNandB,1
carpet pos,0
pc,0
Time (ms),CH1 Auto-Correlation
1.0,0.015064761973917484
2.0,0.012237746268510818
3.0,0.01029250118881464
4.0,0.008844079449772835
5.0,0.007821688428521156
6.0,0.007053538225591183
7.0,0.0062461309134960175
8.0,0.0056802090257406235
9.0,0.00526574207469821
10.0,0.004922985099256039
11.0,0.004716943949460983
12.0,0.004414448980242014
13.0,0.004143347032368183
14.0,0.0039333621971309185
15.0,0.0038183736614882946
16.0,0.0037782560102641582
18.0,0.0035184684675186872
20.0,0.0032115094363689423
22.0,0.0030372305773198605
24.0,0.002846535760909319
26.0,0.002548729768022895
28.0,0.0021937754936516285
30.0,0.0019222183618694544
32.0,0.0017413739114999771
36.0,0.0014727723319083452
40.0,0.0013770874356850982
44.0,0.001242796890437603
48.0,0.0012659762287512422
52.0,0.0010385059285908937
56.0,0.0009432368678972125
60.0,0.0009613248403184116
64.0,0.0010718224802985787
72.0,0.001249270630069077
80.0,0.000852080644108355
88.0,0.0004332438693381846
96.0,0.00022495946905110031
104.0,8.884154522093013e-05
112.0,2.3372373107122257e-05
120.0,-0.0001439698680769652
128.0,-0.0004819864116143435
144.0,-8.356599573744461e-05
160.0,-0.00014416580961551517
176.0,-5.5399259508703835e-06
192.0,-1.9260711269453168e-05
208.0,0.0001098704306059517
224.0,-5.141595102031715e-05
240.0,-7.09549494786188e-05
256.0,0.0002988034684676677
288.0,0.00018934448598884046
320.0,0.0003905144694726914
352.0,0.0008071358897723258
384.0,-0.00025099364574998617
416.0,-3.328980164951645e-05
448.0,-0.00014999721315689385
480.0,4.60273222415708e-05
512.0,0.00026345785590820014
576.0,7.022037607384846e-05
640.0,0.0001567542931297794
704.0,9.293026232626289e-05
768.0,-5.681527909473516e-05
832.0,-8.075514051597565e-05
896.0,0.0001907602563733235
960.0,0.0005887580337002873
1024.0,0.00021324065164662898
1152.0,-0.00028385926270857453
1280.0,-0.0002921928826253861
1408.0,-0.0008437703945674002
1536.0,-1.3482115718943533e-05
1664.0,9.218785271514207e-05
1792.0,-2.12467443816422e-06
1920.0,0.0002004928537644446
2048.0,-0.00058407848700881
2304.0,-0.00017042554100044072
2560.0,-0.00030211114790290594
2816.0,0.00012556625006254762
3072.0,-0.0002126916660927236
3328.0,0.00018687170813791454
3584.0,2.345696702832356e-05
3840.0,-0.00011404751421650872
4096.0,0.00012932649406138808
4608.0,-6.516076973639429e-05
5120.0,2.632544237712864e-05
5632.0,-3.0726336262887344e-05
6144.0,0.00021872229990549386
6656.0,0.000267581723164767
7168.0,-0.00020743630011565983
7680.0,-0.0003898443828802556
8192.0,-0.0001402892667101696
end
