version,3.0
numOfCh,1
type,point
parent_name,34766_3dot0-0dot1
ch_type,1_1
kcount,1
numberNandB,1
brightnessNandB,1
carpet pos,0
pc,0
Time (ms),CH1 Auto-Correlation
1.0,0.016633156687021255
2.0,0.013840669766068459
3.0,0.011814258992671967
4.0,0.01027636881917715
5.0,0.009111296385526657
6.0,0.00812253262847662
7.0,0.007346455007791519
8.0,0.006674615666270256
9.0,0.006195201072841883
10.0,0.005791387055069208
11.0,0.005314347799867392
12.0,0.004939600825309753
13.0,0.0046342723071575165
14.0,0.004310566000640392
15.0,0.004053646698594093
16.0,0.0037265147548168898
18.0,0.003206591121852398
20.0,0.002815495477989316
22.0,0.002491647843271494
24.0,0.002379192505031824
26.0,0.002236554166302085
28.0,0.0022230115719139576
30.0,0.0022903946228325367
32.0,0.002194190863519907
36.0,0.0017081315163522959
40.0,0.001474985620006919
44.0,0.001129473326727748
48.0,0.0010155925992876291
52.0,0.0008096417877823114
56.0,0.0008360458887182176
60.0,0.00083903968334198
64.0,0.0009536809520795941
72.0,0.0008956344681791961
80.0,0.0006244909018278122
88.0,0.0005489859613589942
96.0,0.0006183245568536222
104.0,0.0005509536131285131
112.0,0.0006213844753801823
120.0,0.00045299791963770986
128.0,0.0003558276512194425
144.0,0.0009518819279037416
160.0,0.000974299618974328
176.0,0.0005046733422204852
192.0,0.0006817522807978094
208.0,0.0003288145235273987
224.0,0.000148842140333727
240.0,0.00036707581602968276
256.0,0.0005421584355644882
288.0,5.591624358203262e-05
320.0,0.00013750993821304291
352.0,-3.9609793020645157e-05
384.0,0.00012691490701399744
416.0,0.00030689852428622544
448.0,-0.0002781410876195878
480.0,0.00016891545965336263
512.0,5.673438499798067e-05
576.0,-3.608371480368078e-05
640.0,-0.000510846555698663
704.0,7.445432129316032e-05
768.0,-0.0001574074267409742
832.0,0.00017193284293171018
896.0,0.0006564324721693993
960.0,0.000311865471303463
1024.0,0.0004889958072453737
1152.0,0.00024043767189141363
1280.0,-0.0001367050426779315
1408.0,-0.0003088247904088348
1536.0,-0.0007585270213894546
1664.0,-0.00047927178093232214
1792.0,-9.953040716936812e-05
1920.0,-0.000284580048173666
2048.0,-0.00023569019685965031
2304.0,-0.00027185483486391604
2560.0,-0.00023464162950403988
2816.0,0.0001695559622021392
3072.0,-0.0005507883615791798
3328.0,-0.0003811871283687651
3584.0,-2.6296733267372474e-05
3840.0,0.0004183493438176811
4096.0,-0.0006052170065231621
4608.0,0.00013656134251505136
5120.0,0.00019748236809391528
5632.0,0.000471553357783705
6144.0,0.0003483841719571501
6656.0,0.0003285395505372435
7168.0,-0.0005011614412069321
7680.0,-0.00011006666318280622
8192.0,-0.0005092759965918958
end
