version,3.0
numOfCh,1
type,point
parent_name,34766_3dot0-0dot1
ch_type,1_1
kcount,1
numberNandB,1
brightnessNandB,1
carpet pos,0
pc,0
Time (ms),CH1 Auto-Correlation
1.0,0.021224498748779297
2.0,0.018274206668138504
3.0,0.01612055115401745
4.0,0.014448302797973156
5.0,0.013029846362769604
6.0,0.011917589232325554
7.0,0.011030423454940319
8.0,0.010266251862049103
9.0,0.009649010375142097
10.0,0.009119472466409206
11.0,0.00859906431287527
12.0,0.008087456226348877
13.0,0.007589811459183693
14.0,0.007133274804800749
15.0,0.006593678612262011
16.0,0.00608699070289731
18.0,0.0052457647398114204
20.0,0.004495555069297552
22.0,0.003964573610574007
24.0,0.003480211365967989
26.0,0.0031669631134718657
28.0,0.0028143918607383966
30.0,0.002614981262013316
32.0,0.0025369806680828333
36.0,0.002232662169262767
40.0,0.0024068874772638083
44.0,0.0023814826272428036
48.0,0.002197087975218892
52.0,0.002037686062976718
56.0,0.0018201330676674843
60.0,0.0018648693803697824
64.0,0.0019723298028111458
72.0,0.001985828159376979
80.0,0.002320084488019347
88.0,0.0027998501900583506
96.0,0.003346927696838975
104.0,0.0031889090314507484
112.0,0.0025305836461484432
120.0,0.0016406847862526774
128.0,0.0016602196265012026
144.0,0.0021293361205607653
160.0,0.0017860083607956767
176.0,0.001755137462168932
192.0,0.0013864432694390416
208.0,0.0014346630778163671
224.0,0.0011667200597003102
240.0,0.0018607133533805609
256.0,0.001994851976633072
288.0,0.001193829346448183
320.0,0.0002653024857863784
352.0,0.0009213294833898544
384.0,0.000524843402672559
416.0,0.00017872131138574332
448.0,-0.00011648399959085509
480.0,0.0006463245954364538
512.0,-0.00041363973286934197
576.0,-0.0002847254800144583
640.0,-0.000583503395318985
704.0,-8.316505409311503e-05
768.0,-7.671008643228561e-05
832.0,8.902699482860044e-05
896.0,0.00012975279241800308
960.0,0.0005790982395410538
1024.0,0.0003845457686111331
1152.0,0.0003802816790994257
1280.0,0.00025078977341763675
1408.0,-0.00030362873803824186
1536.0,0.001102830981835723
1664.0,0.00026327831437811255
1792.0,0.0003534799616318196
1920.0,0.0004946389817632735
2048.0,-0.0005416120984591544
2304.0,-0.00037949936813674867
2560.0,-0.00017209457291755825
2816.0,0.0002709916443563998
3072.0,2.238986053271219e-05
3328.0,8.433853508904576e-05
3584.0,-0.0008948628092184663
3840.0,-0.0003257565258536488
4096.0,-0.00018508665380068123
4608.0,-0.00035473628668114543
5120.0,-0.0004282265726942569
5632.0,-0.0003069015219807625
6144.0,5.102766226627864e-05
6656.0,0.0001307807833654806
7168.0,0.0002891226322390139
7680.0,0.00018968019867315888
8192.0,0.0005251123220659792
end
