version,3.0
numOfCh,1
type,point
parent_name,34766_3dot0-0dot1
ch_type,1_1
kcount,1
numberNandB,1
brightnessNandB,1
carpet pos,0
pc,0
Time (ms),CH1 Auto-Correlation
1.0,0.016917720437049866
2.0,0.014033371582627296
3.0,0.01201217994093895
4.0,0.010415270924568176
5.0,0.009248074144124985
6.0,0.008332417346537113
7.0,0.007593964692205191
8.0,0.006999827455729246
9.0,0.006450297776609659
10.0,0.006037607789039612
11.0,0.005636534187942743
12.0,0.005331686697900295
13.0,0.005027970299124718
14.0,0.00474528456106782
15.0,0.0043228729628026485
16.0,0.004062482621520758
18.0,0.0038047649431973696
20.0,0.0035143715795129538
22.0,0.0033244916703552008
24.0,0.0031520447228103876
26.0,0.0029977327212691307
28.0,0.002876067068427801
30.0,0.0026720694731920958
32.0,0.0025093364529311657
36.0,0.0019166668644174933
40.0,0.0015997389564290643
44.0,0.0016988742863759398
48.0,0.001686558360233903
52.0,0.0017606796463951468
56.0,0.0017979633994400501
60.0,0.0014072175836190581
64.0,0.0008450609748251736
72.0,0.00025673306663520634
80.0,0.0002932402421720326
88.0,0.0003903837932739407
96.0,0.00016357026470359415
104.0,0.00026187990442849696
112.0,0.0003853921080008149
120.0,0.0003456572303548455
128.0,0.00037230830639600754
144.0,0.00016239345131907612
160.0,4.7460813220823184e-05
176.0,0.0003924568882212043
192.0,0.0008486626320518553
208.0,0.0011307840468361974
224.0,0.0010170427849516273
240.0,0.0008951861527748406
256.0,0.0008014991763047874
288.0,0.00040334646473638713
320.0,7.67717938288115e-05
352.0,6.3846878219919745e-06
384.0,-6.242038944037631e-05
416.0,-0.00014597896370105445
448.0,1.087454984372016e-05
480.0,8.021233225008473e-05
512.0,-0.00027203242643736303
576.0,-1.2222546956763836e-06
640.0,0.0005593497771769762
704.0,0.0007873000577092171
768.0,0.0002963531587738544
832.0,-0.00014711554103996605
896.0,0.00014234957052394748
960.0,-0.0001316533744102344
1024.0,0.00033571672975085676
1152.0,-0.00028213809127919376
1280.0,0.0003145324590150267
1408.0,-8.802553929854184e-05
1536.0,-5.3628453315468505e-05
1664.0,-0.00022647662262897938
1792.0,-0.0004026654933113605
1920.0,-8.724352665012702e-05
2048.0,-0.0004606432921718806
2304.0,0.00013796158600598574
2560.0,0.00017955277871806175
2816.0,-0.00022748613264411688
3072.0,-0.00020325483637861907
3328.0,-0.00034661073004826903
3584.0,-0.00035530561581254005
3840.0,-0.00022291850473266095
4096.0,-0.0002911407791543752
4608.0,-0.0004462587530724704
5120.0,-2.7418756872066297e-05
5632.0,0.00031089334515854716
6144.0,7.759847358101979e-05
6656.0,-8.839519432513043e-05
7168.0,0.0005156924016773701
7680.0,0.0004318540159147233
8192.0,0.0003967390803154558
end
