version,3.0
numOfCh,1
type,point
parent_name,34766_3dot0-0dot1
ch_type,1_1
kcount,1
numberNandB,1
brightnessNandB,1
carpet pos,0
pc,0
Time (ms),CH1 Auto-Correlation
1.0,0.015110976062715054
2.0,0.012275982648134232
3.0,0.010319084860384464
4.0,0.008738398551940918
5.0,0.007516119163483381
6.0,0.0065263197757303715
7.0,0.005737550090998411
8.0,0.005216472782194614
9.0,0.004750827793031931
10.0,0.004370049107819796
11.0,0.004197618458420038
12.0,0.00400449987500906
13.0,0.003838541219010949
14.0,0.0035511048045009375
15.0,0.0033769479487091303
16.0,0.0030809706076979637
18.0,0.0027862859424203634
20.0,0.002573341131210327
22.0,0.002390184672549367
24.0,0.0021897389087826014
26.0,0.0019804323092103004
28.0,0.0017461139941588044
30.0,0.0014922675909474492
32.0,0.0013492360012605786
36.0,0.0010370515519753098
40.0,0.000805579184088856
44.0,0.000584672496188432
48.0,0.0005869592423550785
52.0,0.0006287591531872749
56.0,0.0006548170349560678
60.0,0.0003227103443350643
64.0,0.00010998738434864208
72.0,0.0004617402155417949
80.0,0.0002992741938214749
88.0,0.0002886346192099154
96.0,0.0007723580347374082
104.0,0.0009493203251622617
112.0,0.0005210894742049277
120.0,0.0004700729332398623
128.0,0.0004058325139340013
144.0,0.00023460836382582784
160.0,0.00031864646007306874
176.0,0.0004089947324246168
192.0,0.00030046692700125277
208.0,0.0005085150478407741
224.0,0.0005020929966121912
240.0,0.0005870622117072344
256.0,0.0005686820368282497
288.0,-0.00046496448339894414
320.0,-0.000211131657124497
352.0,-0.00020017808128613979
384.0,-0.00045390258310362697
416.0,-0.0005438568186946213
448.0,-0.00015156448353081942
480.0,1.6789763321867213e-05
512.0,-0.00026488472940400243
576.0,-0.00020464749832171947
640.0,3.309752719360404e-05
704.0,-6.172715802676976e-05
768.0,-3.125047078356147e-05
832.0,0.00012562786287162453
896.0,0.0003056714776903391
960.0,-0.0002730813866946846
1024.0,-0.00017256099090445787
1152.0,-0.00039233738789334893
1280.0,0.00017736114386934787
1408.0,-7.817621371941641e-05
1536.0,0.00029730453388765454
1664.0,0.00022116242325864732
1792.0,0.0003537654993124306
1920.0,0.00024324111291207373
2048.0,-6.0256828874116763e-05
2304.0,-8.277107554022223e-05
2560.0,-0.00021249204291962087
2816.0,-0.0002560943248681724
3072.0,-5.2832292567472905e-05
3328.0,1.800163408915978e-05
3584.0,1.83657139132265e-05
3840.0,-8.59454448800534e-05
4096.0,-3.4818607673514634e-05
4608.0,-0.00023058037913870066
5120.0,1.9875113139278255e-05
5632.0,2.1220273993094452e-05
6144.0,1.6944302842603065e-05
6656.0,-8.935434016166255e-05
7168.0,-0.00012069707736372948
7680.0,-6.20767823420465e-05
8192.0,4.840422116103582e-05
end
