version,3.0
numOfCh,1
type,point
parent_name,ff67b_0dot2-0dot01
ch_type,1_1
kcount,1
numberNandB,1
brightnessNandB,1
carpet pos,0
pc,0
Time (ms),CH1 Auto-Correlation
1.0,0.03733162581920624
2.0,0.036772798746824265
3.0,0.036237213760614395
4.0,0.035716306418180466
5.0,0.0351906381547451
6.0,0.034656357020139694
7.0,0.0341499038040638
8.0,0.0336591973900795
9.0,0.03318646177649498
10.0,0.0327317975461483
11.0,0.03228529542684555
12.0,0.03184540569782257
13.0,0.03141552209854126
14.0,0.031002147123217583
15.0,0.030619725584983826
16.0,0.03025030344724655
18.0,0.029512865468859673
20.0,0.028818558901548386
22.0,0.028136271983385086
24.0,0.027491815388202667
26.0,0.0268680639564991
28.0,0.026231389492750168
30.0,0.025627408176660538
32.0,0.025015203282237053
36.0,0.023923246189951897
40.0,0.02303864061832428
44.0,0.022261574864387512
48.0,0.021496795117855072
52.0,0.020763998851180077
56.0,0.02000560238957405
60.0,0.01928899437189102
64.0,0.018662117421627045
72.0,0.017745455726981163
80.0,0.01714664325118065
88.0,0.016579292714595795
96.0,0.01606043614447117
104.0,0.01555126253515482
112.0,0.01488941814750433
120.0,0.014019179157912731
128.0,0.01307763159275055
144.0,0.0117558054625988
160.0,0.010846458375453949
176.0,0.009845984168350697
192.0,0.008916659280657768
208.0,0.007585466839373112
224.0,0.006569569930434227
240.0,0.006086524110287428
256.0,0.006071216426789761
288.0,0.004154598340392113
320.0,0.002789833815768361
352.0,0.0010751687223091722
384.0,-0.0008853987092152238
416.0,-0.000947414489928633
448.0,-5.1514543883968145e-05
480.0,-0.00021353653573896736
512.0,0.0010004355572164059
576.0,0.0011387253180146217
640.0,0.0006315939826890826
704.0,0.0007351733511313796
768.0,0.0014738528989255428
832.0,0.0041654072701931
896.0,0.002567323623225093
960.0,-0.0005070085171610117
1024.0,-0.0035678015556186438
1152.0,-0.0022505212109535933
1280.0,-0.001613140688277781
1408.0,-0.0013691234635189176
1536.0,-0.0040406398475170135
1664.0,-0.0014728388050571084
1792.0,0.0019179844530299306
1920.0,0.003243946237489581
2048.0,0.003320596180856228
2304.0,-0.005283782724291086
2560.0,-0.0016039280453696847
2816.0,-0.0029604420997202396
3072.0,-0.00654356274753809
3328.0,-0.0010742007289081812
3584.0,0.00014378906053025275
3840.0,0.002258249558508396
4096.0,0.002344301203265786
4608.0,0.001355101354420185
5120.0,-0.002888741670176387
5632.0,0.0004784891498275101
6144.0,0.0021828552708029747
6656.0,-0.004377145320177078
7168.0,-0.002467450452968478
7680.0,-0.0055914330296218395
8192.0,-0.004016302991658449
end
