version,3.0
numOfCh,1
type,point
parent_name,ff67b_0dot2-0dot01
ch_type,1_1
kcount,1
numberNandB,1
brightnessNandB,1
carpet pos,0
pc,0
Time (ms),CH1 Auto-Correlation
1.0,0.02945130318403244
2.0,0.028872862458229065
3.0,0.028314802795648575
4.0,0.02778474986553192
5.0,0.027264151722192764
6.0,0.026750361546874046
7.0,0.02624460496008396
8.0,0.025758886709809303
9.0,0.025307463482022285
10.0,0.024866025894880295
11.0,0.02443648874759674
12.0,0.02401617355644703
13.0,0.023602724075317383
14.0,0.023207243531942368
15.0,0.022822508588433266
16.0,0.022457459941506386
18.0,0.021743981167674065
20.0,0.02105088159441948
22.0,0.020398473367094994
24.0,0.01978665590286255
26.0,0.019219588488340378
28.0,0.01868751458823681
30.0,0.018130559474229813
32.0,0.017587648704648018
36.0,0.01655149832367897
40.0,0.015611621551215649
44.0,0.014719890430569649
48.0,0.013907491229474545
52.0,0.013185769319534302
56.0,0.01260148175060749
60.0,0.012085098773241043
64.0,0.011515174992382526
72.0,0.010450939647853374
80.0,0.009496183134615421
88.0,0.008552161045372486
96.0,0.008005013689398766
104.0,0.007565404288470745
112.0,0.007114028558135033
120.0,0.00687878904864192
128.0,0.006910655181854963
144.0,0.0073578921146690845
160.0,0.00742690172046423
176.0,0.007442367263138294
192.0,0.007171496748924255
208.0,0.007094011176377535
224.0,0.007050456944853067
240.0,0.0070350863970816135
256.0,0.007102372124791145
288.0,0.006745567545294762
320.0,0.006019707769155502
352.0,0.005889390129595995
384.0,0.005547074601054192
416.0,0.004667048342525959
448.0,0.003368281526491046
480.0,0.002344777574762702
512.0,0.0027737801428884268
576.0,0.0026363611686974764
640.0,0.0023359486367553473
704.0,0.0018105697818100452
768.0,0.001879338058643043
832.0,0.0022138634230941534
896.0,0.0009515922283753753
960.0,-0.001296130707487464
1024.0,-0.0003799375845119357
1152.0,0.0010095055913552642
1280.0,-0.00025621888926252723
1408.0,-0.0006044148467481136
1536.0,-0.002359009115025401
1664.0,-0.0008303564973175526
1792.0,0.0009366165613755584
1920.0,0.00267439684830606
2048.0,0.003038721391931176
2304.0,0.0031295090448111296
2560.0,0.0010451801354065537
2816.0,0.00041985217831097543
3072.0,0.001755258534103632
3328.0,0.003219136968255043
3584.0,0.0032279693987220526
3840.0,0.002688417211174965
4096.0,0.003949283622205257
4608.0,0.0010906812967732549
5120.0,-0.004596276208758354
5632.0,-0.0030965502373874187
6144.0,-0.0009817163227126002
6656.0,-0.0005925188306719065
7168.0,-0.002129330998286605
7680.0,-0.0015886060427874327
8192.0,-0.0015681959921494126
9216.0,-0.004696818068623543
10240.0,-0.004407674074172974
11264.0,-0.0014460994862020016
12288.0,-0.0024140102323144674
13312.0,-0.0037397469859570265
14336.0,-0.001985805807635188
end
