version,3.0
numOfCh,1
type,point
parent_name,ff67b_0dot2-0dot01
ch_type,1_1
kcount,1
numberNandB,1
brightnessNandB,1
carpet pos,0
pc,0
Time (ms),CH1 Auto-Correlation
1.0,0.03721098601818085
2.0,0.03665824979543686
3.0,0.03614955022931099
4.0,0.035668354481458664
5.0,0.03520756959915161
6.0,0.03475421667098999
7.0,0.03430158272385597
8.0,0.03386116400361061
9.0,0.033444710075855255
10.0,0.033036164939403534
11.0,0.0326554961502552
12.0,0.0322817824780941
13.0,0.03193436563014984
14.0,0.031586457043886185
15.0,0.031242819502949715
16.0,0.030910026282072067
18.0,0.030259190127253532
20.0,0.029612252488732338
22.0,0.029021115973591805
24.0,0.02847394533455372
26.0,0.02795249968767166
28.0,0.027440639212727547
30.0,0.026910772547125816
32.0,0.026418210938572884
36.0,0.02539706975221634
40.0,0.02438954822719097
44.0,0.02340378798544407
48.0,0.022484034299850464
52.0,0.02166951261460781
56.0,0.020920773968100548
60.0,0.020285310223698616
64.0,0.019769171252846718
72.0,0.018779320642352104
80.0,0.017790529876947403
88.0,0.016739826649427414
96.0,0.01570240408182144
104.0,0.01491502858698368
112.0,0.014342217706143856
120.0,0.014039101079106331
128.0,0.013855917379260063
144.0,0.013523600064218044
160.0,0.01313619315624237
176.0,0.012951788492500782
192.0,0.012626059353351593
208.0,0.012181972153484821
224.0,0.011975539848208427
240.0,0.011597900651395321
256.0,0.01110922172665596
288.0,0.010091984644532204
320.0,0.009053228422999382
352.0,0.00866915937513113
384.0,0.007875814102590084
416.0,0.005681665148586035
448.0,0.004222113639116287
480.0,0.0029206890612840652
512.0,0.002430463209748268
576.0,0.002188898390159011
640.0,0.0032231814693659544
704.0,-0.000276154896710068
768.0,-0.002635582350194454
832.0,-0.0028395974077284336
896.0,-0.0004497393674682826
960.0,-0.001262587495148182
1024.0,-0.0017159663839265704
1152.0,0.0007688238401897252
1280.0,0.00025779183488339186
1408.0,-0.002196788787841797
1536.0,-0.0015481484588235617
1664.0,-0.0026169887278229
1792.0,-0.0022052305284887552
1920.0,-0.0008249734528362751
2048.0,0.0016200613463297486
2304.0,0.0035567055456340313
2560.0,0.0008129571215249598
2816.0,0.0005724212387576699
3072.0,-0.0006326696602627635
3328.0,-0.0004136909556109458
3584.0,-0.005985946394503117
3840.0,-0.008588850498199463
4096.0,-0.004900891333818436
4608.0,-0.003982153721153736
5120.0,-0.0055425409227609634
5632.0,-0.00014940927212592214
6144.0,-0.010080220177769661
6656.0,-0.007773535326123238
7168.0,0.002170366235077381
7680.0,0.008455074392259121
8192.0,0.005383396986871958
end
