version,3.0
numOfCh,1
type,point
parent_name,ff67b_0dot2-0dot01
ch_type,1_1
kcount,1
numberNandB,1
brightnessNandB,1
carpet pos,0
pc,0
Time (ms),CH1 Auto-Correlation
1.0,0.028486717492341995
2.0,0.027937842532992363
3.0,0.027406422421336174
4.0,0.026899797841906548
5.0,0.026415051892399788
6.0,0.025952963158488274
7.0,0.02551381103694439
8.0,0.025091905146837234
9.0,0.024679480120539665
10.0,0.024284616112709045
11.0,0.0239164587110281
12.0,0.023550745099782944
13.0,0.02319682016968727
14.0,0.022844042629003525
15.0,0.022490525618195534
16.0,0.022137077525258064
18.0,0.021441876888275146
20.0,0.02077864296734333
22.0,0.020145030692219734
24.0,0.019541004672646523
26.0,0.01894093118607998
28.0,0.018352987244725227
30.0,0.01782275177538395
32.0,0.01731804572045803
36.0,0.016546688973903656
40.0,0.01583561860024929
44.0,0.015165846794843674
48.0,0.014475686475634575
52.0,0.013804161921143532
56.0,0.013155731372535229
60.0,0.012492966838181019
64.0,0.011870094574987888
72.0,0.010472294874489307
80.0,0.009233383461833
88.0,0.008146333508193493
96.0,0.007393294479697943
104.0,0.006725929211825132
112.0,0.006101180799305439
120.0,0.005470918025821447
128.0,0.004918685648590326
144.0,0.004206859972327948
160.0,0.003525547217577696
176.0,0.0032127643935382366
192.0,0.0031962923239916563
208.0,0.003118376014754176
224.0,0.002540614688768983
240.0,0.0019463520729914308
256.0,0.001745992456562817
288.0,0.0014096505474299192
320.0,0.0014200774021446705
352.0,0.0014974052319303155
384.0,0.0010211721528321505
416.0,0.0017589459894225001
448.0,0.0028344267047941685
480.0,0.0035361729096621275
512.0,0.003679880639538169
576.0,0.002352895447984338
640.0,0.0027238440234214067
704.0,0.0028929049149155617
768.0,0.0020380138885229826
832.0,1.1814691788458731e-05
896.0,-0.0013065241510048509
960.0,-0.0012192073045298457
1024.0,-0.0014152139192447066
1152.0,-0.0009820908308029175
1280.0,-0.0012377317762002349
1408.0,-0.0009608510881662369
1536.0,-0.000289234914816916
1664.0,0.002115261973813176
1792.0,0.0009866163600236177
1920.0,0.0025978712365031242
2048.0,0.004380309022963047
2304.0,0.0017000860534608364
2560.0,0.004052039235830307
2816.0,0.00031964998925104737
3072.0,-0.0009545244975015521
3328.0,-0.0014856763882562518
3584.0,-0.0028681273106485605
3840.0,-0.000356112519511953
4096.0,0.0012431213399395347
4608.0,0.002542862668633461
5120.0,-0.0022418012376874685
5632.0,-0.004589359275996685
6144.0,-0.0015750937163829803
6656.0,0.00035440351348370314
7168.0,-0.003015317488461733
7680.0,-0.005872250534594059
8192.0,-0.004492849577218294
end
