version,3.0
numOfCh,1
type,point
parent_name,ff67b_0dot2-0dot01
ch_type,1_1
kcount,1
numberNandB,1
brightnessNandB,1
carpet pos,0
pc,0
Time (ms),CH1 Auto-Correlation
1.0,0.037124667316675186
2.0,0.036554884165525436
3.0,0.03600098937749863
4.0,0.03545667603611946
5.0,0.034917496144771576
6.0,0.034381262958049774
7.0,0.03386620432138443
8.0,0.033379245549440384
9.0,0.03290627524256706
10.0,0.03243322670459747
11.0,0.03198303282260895
12.0,0.0315464623272419
13.0,0.031126445159316063
14.0,0.030697956681251526
15.0,0.030307164415717125
16.0,0.029919078573584557
18.0,0.029154164716601372
20.0,0.028438491746783257
22.0,0.027750814333558083
24.0,0.02710040844976902
26.0,0.026485811918973923
28.0,0.02593258209526539
30.0,0.02543899230659008
32.0,0.024989595636725426
36.0,0.024127384647727013
40.0,0.023267418146133423
44.0,0.02248331904411316
48.0,0.021782226860523224
52.0,0.02114357054233551
56.0,0.020599830895662308
60.0,0.02016305923461914
64.0,0.01973520591855049
72.0,0.018756065517663956
80.0,0.017945393919944763
88.0,0.017225677147507668
96.0,0.016659261658787727
104.0,0.01636124961078167
112.0,0.01599849760532379
120.0,0.015615066513419151
128.0,0.015302877873182297
144.0,0.015254444442689419
160.0,0.015331192873418331
176.0,0.015008090995252132
192.0,0.014468999579548836
208.0,0.014068949036300182
224.0,0.013404383324086666
240.0,0.011895371600985527
256.0,0.009872034192085266
288.0,0.007310947403311729
320.0,0.005734448321163654
352.0,0.005705215968191624
384.0,0.005585831589996815
416.0,0.005776464007794857
448.0,0.005234297830611467
480.0,0.005145376082509756
512.0,0.005829995032399893
576.0,0.006725949235260487
640.0,0.00589574733749032
704.0,0.006740243639796972
768.0,0.00892747100442648
832.0,0.007689862046390772
896.0,0.006720664445310831
960.0,0.005768582224845886
1024.0,0.004659367259591818
1152.0,0.002241177251562476
1280.0,0.001211377326399088
1408.0,0.0028295640368014574
1536.0,0.005064088385552168
1664.0,0.005210454575717449
1792.0,0.002972289687022567
1920.0,0.0015402440913021564
2048.0,0.0030199738685041666
2304.0,0.0013076949398964643
2560.0,-0.0008340384811162949
2816.0,-0.0004465439124032855
3072.0,0.0008534686639904976
3328.0,0.0020729294046759605
3584.0,0.0005735877202823758
3840.0,0.001239503500983119
4096.0,0.003143351525068283
4608.0,-0.005754936020821333
5120.0,-0.008382647298276424
5632.0,-0.007290090899914503
6144.0,-0.0047792610712349415
6656.0,-0.00641609774902463
7168.0,-0.005351813975721598
7680.0,-0.00030879772384651005
8192.0,-0.0006965207867324352
end
