version,3.0
numOfCh,1
type,point
parent_name,ff67b_0dot2-0dot01
ch_type,1_1
kcount,1
numberNandB,1
brightnessNandB,1
carpet pos,0
pc,0
Time (ms),CH1 Auto-Correlation
1.0,0.047674618661403656
2.0,0.04582687094807625
3.0,0.04399304836988449
4.0,0.042282722890377045
5.0,0.040702518075704575
6.0,0.03928430750966072
7.0,0.037982575595378876
8.0,0.0367308184504509
9.0,0.03550570085644722
10.0,0.03423575684428215
11.0,0.03289329633116722
12.0,0.031419459730386734
13.0,0.0298350490629673
14.0,0.028179354965686798
15.0,0.0265241377055645
16.0,0.024859067052602768
18.0,0.02409243769943714
20.0,0.02335476130247116
22.0,0.022662704810500145
24.0,0.021966656669974327
26.0,0.021267659962177277
28.0,0.02060052379965782
30.0,0.01997549831867218
32.0,0.019411036744713783
36.0,0.018380597233772278
40.0,0.01758008636534214
44.0,0.016806982457637787
48.0,0.016110507771372795
52.0,0.015460524708032608
56.0,0.014830044470727444
60.0,0.014346250332891941
64.0,0.013828977942466736
72.0,0.013095534406602383
80.0,0.012372186407446861
88.0,0.011637705378234386
96.0,0.01068323478102684
104.0,0.009828003123402596
112.0,0.009241173975169659
120.0,0.008670983836054802
128.0,0.008443189784884453
144.0,0.007387693505734205
160.0,0.0059342533349990845
176.0,0.004076992627233267
192.0,0.002774139167740941
208.0,0.001854141941294074
224.0,0.0011795918690040708
240.0,0.0009095834684558213
256.0,0.0002891298499889672
288.0,-0.0010250852210447192
320.0,-0.001938965287990868
352.0,-0.002713807625696063
384.0,-0.0029510660097002983
416.0,-0.002424777951091528
448.0,-0.000936632975935936
480.0,0.0007682541036047041
512.0,0.0007410009275190532
576.0,-0.0010999421356245875
640.0,-0.00421901186928153
704.0,-0.005181182641535997
768.0,-0.004637719597667456
832.0,-0.002715877490118146
896.0,-0.0014796354807913303
960.0,0.0010340798180550337
1024.0,0.0028889868408441544
1152.0,0.00013215951912570745
1280.0,-0.0022436617873609066
1408.0,-0.001964421011507511
1536.0,-0.00046582071809098125
1664.0,-0.0015444463351741433
1792.0,-0.001092257327400148
1920.0,-0.0007174338679760695
2048.0,0.0015652268193662167
2304.0,-0.001197158358991146
2560.0,-0.002219733316451311
2816.0,-0.0010426578810438514
3072.0,0.003150253789499402
3328.0,0.0015018124831840396
3584.0,-0.001127378549426794
3840.0,-0.000502479902934283
4096.0,-0.004247855395078659
4608.0,0.002813198370859027
5120.0,-0.0019452618435025215
5632.0,0.00046486439532600343
6144.0,0.0014811903238296509
6656.0,0.0010409686947241426
7168.0,-0.0005544681916944683
7680.0,0.0018746539717540145
8192.0,-0.0016656495863571763
end
