version,3.0
numOfCh,1
type,point
parent_name,ff67b_0dot2-0dot01
ch_type,1_1
kcount,1
numberNandB,1
brightnessNandB,1
carpet pos,0
pc,0
Time (ms),CH1 Auto-Correlation
1.0,0.03290547803044319
2.0,0.03231096267700195
3.0,0.03172532841563225
4.0,0.031163839623332024
5.0,0.030588297173380852
6.0,0.030034678056836128
7.0,0.029490891844034195
8.0,0.028952380642294884
9.0,0.028420109301805496
10.0,0.027918634936213493
11.0,0.027443593367934227
12.0,0.026978230103850365
13.0,0.02652837336063385
14.0,0.02611340768635273
15.0,0.025699973106384277
16.0,0.025302423164248466
18.0,0.02453448623418808
20.0,0.02380441688001156
22.0,0.023076994344592094
24.0,0.02238224633038044
26.0,0.0217323899269104
28.0,0.021143555641174316
30.0,0.020608149468898773
32.0,0.020160241052508354
36.0,0.01933857426047325
40.0,0.018552253022789955
44.0,0.017803607508540154
48.0,0.017176777124404907
52.0,0.016663214191794395
56.0,0.01623743213713169
60.0,0.015790509060025215
64.0,0.015277250669896603
72.0,0.01416063029319048
80.0,0.013022493571043015
88.0,0.011903136968612671
96.0,0.01075955480337143
104.0,0.009910369291901588
112.0,0.009287755936384201
120.0,0.008798095397651196
128.0,0.008463498204946518
144.0,0.008415119722485542
160.0,0.008130716159939766
176.0,0.0076531050726771355
192.0,0.007057645358145237
208.0,0.006849056575447321
224.0,0.006689642556011677
240.0,0.006656414829194546
256.0,0.006503771524876356
288.0,0.006211266387254
320.0,0.006839482579380274
352.0,0.006870534271001816
384.0,0.006121609825640917
416.0,0.005789411719888449
448.0,0.005138779524713755
480.0,0.00430712616071105
512.0,0.001982432557269931
576.0,0.0008451719186268747
640.0,0.0014167295303195715
704.0,0.0010884433286264539
768.0,0.0007790167001076043
832.0,-0.0016039098845794797
896.0,-0.00254994910210371
960.0,-0.001618254347704351
1024.0,-0.0010192294139415026
1152.0,-0.0006215297034941614
1280.0,-0.0010145326377823949
1408.0,-0.002555358689278364
1536.0,-0.003254049690440297
1664.0,-0.00019935719319619238
1792.0,0.0003832434304058552
1920.0,-0.00018384639406576753
2048.0,0.0011397720081731677
2304.0,0.005820480640977621
2560.0,0.005111535545438528
2816.0,0.0015383792342618108
3072.0,-0.0017993886722251773
3328.0,-0.0003453278914093971
3584.0,-0.0009517353028059006
3840.0,-0.0014354520244523883
4096.0,-0.0010801294120028615
4608.0,0.0037462946493178606
5120.0,0.004069104325026274
5632.0,-0.002078789519146085
6144.0,-0.0027806744910776615
6656.0,-0.0015396063681691885
7168.0,0.0024749613367021084
7680.0,0.0004959309590049088
8192.0,-0.0031497767195105553
end
