version,3.0
numOfCh,1
type,point
parent_name,ff67b_0dot2-0dot01
ch_type,1_1
kcount,1
numberNandB,1
brightnessNandB,1
carpet pos,0
pc,0
Time (ms),CH1 Auto-Correlation
1.0,0.03147483244538307
2.0,0.03092767670750618
3.0,0.03040517494082451
4.0,0.02989332750439644
5.0,0.029414227232336998
6.0,0.02895692177116871
7.0,0.02851027436554432
8.0,0.028062812983989716
9.0,0.027638955041766167
10.0,0.02723204530775547
11.0,0.026829203590750694
12.0,0.0264578890055418
13.0,0.026103824377059937
14.0,0.025784162804484367
15.0,0.02546502836048603
16.0,0.025170421227812767
18.0,0.02457149513065815
20.0,0.023914603516459465
22.0,0.023286480456590652
24.0,0.022688550874590874
26.0,0.022109897807240486
28.0,0.021571451798081398
30.0,0.02105790749192238
32.0,0.020596100017428398
36.0,0.019702984020113945
40.0,0.018874172121286392
44.0,0.018147693946957588
48.0,0.017571881413459778
52.0,0.016992056742310524
56.0,0.016374001279473305
60.0,0.01576271653175354
64.0,0.0152220344170928
72.0,0.014406471513211727
80.0,0.013747085817158222
88.0,0.01313470583409071
96.0,0.012741913087666035
104.0,0.012326844967901707
112.0,0.011732151731848717
120.0,0.011168553493916988
128.0,0.010581903159618378
144.0,0.009418522007763386
160.0,0.008792894892394543
176.0,0.008147027343511581
192.0,0.00794112030416727
208.0,0.0073691559955477715
224.0,0.006177229806780815
240.0,0.004822302144020796
256.0,0.0036754924803972244
288.0,0.003743771929293871
320.0,0.004405505023896694
352.0,0.004600491374731064
384.0,0.004304986912757158
416.0,0.0035616939421743155
448.0,0.002815170446410775
480.0,0.0018788505112752318
512.0,0.0012164301006123424
576.0,0.0016559547511860728
640.0,0.001868621213361621
704.0,0.0024062045849859715
768.0,0.002998915035277605
832.0,0.0028615943156182766
896.0,0.003730971598997712
960.0,0.002201808150857687
1024.0,0.0005473578930832446
1152.0,-0.0017035211203619838
1280.0,-0.0011505952570587397
1408.0,-0.0018157013691961765
1536.0,-0.0018629219848662615
1664.0,-0.0018527628853917122
1792.0,-0.004255490843206644
1920.0,-0.005527979228645563
2048.0,-0.004463473800569773
2304.0,-0.0030544307082891464
2560.0,-0.0013287783367559314
2816.0,-0.0024740491062402725
3072.0,0.0011404037941247225
3328.0,-0.00019973776943515986
3584.0,-0.003033795626834035
3840.0,-0.001324346987530589
4096.0,-0.00389122380875051
4608.0,-0.0030746133998036385
5120.0,0.001191352610476315
5632.0,0.0028167979326099157
6144.0,0.0025836091954261065
6656.0,0.005797302350401878
7168.0,-0.003206496359780431
7680.0,-0.007006452418863773
8192.0,-0.008551930077373981
end
