version,3.0
numOfCh,1
type,point
parent_name,ff67b_0dot2-0dot01
ch_type,1_1
kcount,1
numberNandB,1
brightnessNandB,1
carpet pos,0
pc,0
Time (ms),CH1 Auto-Correlation
1.0,0.03508855402469635
2.0,0.03450782969594002
3.0,0.03394175320863724
4.0,0.03337462246417999
5.0,0.03282191604375839
6.0,0.03228773549199104
7.0,0.03176569938659668
8.0,0.031260598450899124
9.0,0.030797725543379784
10.0,0.030345099046826363
11.0,0.029913360252976418
12.0,0.02949884533882141
13.0,0.02910345047712326
14.0,0.02871929481625557
15.0,0.028351180255413055
16.0,0.02800092287361622
18.0,0.027346277609467506
20.0,0.026727985590696335
22.0,0.02613811381161213
24.0,0.025591392070055008
26.0,0.025043629109859467
28.0,0.02450605481863022
30.0,0.023984842002391815
32.0,0.02347971685230732
36.0,0.02254871092736721
40.0,0.021734651178121567
44.0,0.021025750786066055
48.0,0.02035088650882244
52.0,0.01974920742213726
56.0,0.019205767661333084
60.0,0.018761634826660156
64.0,0.01844889111816883
72.0,0.017777787521481514
80.0,0.017002563923597336
88.0,0.016139738261699677
96.0,0.015339519828557968
104.0,0.014681564643979073
112.0,0.014029476791620255
120.0,0.013414483517408371
128.0,0.012888874858617783
144.0,0.012175544165074825
160.0,0.011060377582907677
176.0,0.009830302558839321
192.0,0.009267634712159634
208.0,0.009006445296108723
224.0,0.008673950098454952
240.0,0.008186894468963146
256.0,0.007803423795849085
288.0,0.006921437103301287
320.0,0.005203870590776205
352.0,0.004769096150994301
384.0,0.004806206561625004
416.0,0.004318248014897108
448.0,0.0041621048003435135
480.0,0.003220187034457922
512.0,0.0023609339259564877
576.0,0.00021203179494477808
640.0,0.00020982895512133837
704.0,0.0009114255663007498
768.0,0.0009488426148891449
832.0,0.00030614627758041024
896.0,-0.0002521439455449581
960.0,-0.0025552278384566307
1024.0,-0.003948512487113476
1152.0,-0.003460889682173729
1280.0,-0.004037379752844572
1408.0,-0.005123876500874758
1536.0,-0.004620433319360018
1664.0,-0.003913505468517542
1792.0,-0.0037156990729272366
1920.0,-0.002086861990392208
2048.0,0.0014395482139661908
2304.0,0.0005684648058377206
2560.0,-0.000714327092282474
2816.0,0.0022331238724291325
3072.0,0.0023061875253915787
3328.0,0.001422579982317984
3584.0,-0.002898542443290353
3840.0,-0.00811844039708376
4096.0,-0.004303219262510538
4608.0,0.0006777463131584227
5120.0,0.0030682936776429415
5632.0,0.0005192867829464376
6144.0,-0.0018488382920622826
6656.0,-0.004070826340466738
7168.0,-0.003583792131394148
7680.0,0.001491388538852334
8192.0,0.0011829303111881018
end
