version,3.0
numOfCh,1
type,point
parent_name,ff67b_0dot2-0dot01
ch_type,1_1
kcount,1
numberNandB,1
brightnessNandB,1
carpet pos,0
pc,0
Time (ms),CH1 Auto-Correlation
1.0,0.05726132169365883
2.0,0.05548885092139244
3.0,0.053812701255083084
4.0,0.05208510160446167
5.0,0.05052794888615608
6.0,0.04893620312213898
7.0,0.04745401069521904
8.0,0.046023786067962646
9.0,0.04453609883785248
10.0,0.043161604553461075
11.0,0.04177002236247063
12.0,0.04028845205903053
13.0,0.038877736777067184
14.0,0.03740662336349487
15.0,0.03584805503487587
16.0,0.03436477854847908
18.0,0.03002871572971344
20.0,0.02831266261637211
22.0,0.027613891288638115
24.0,0.026927098631858826
26.0,0.026300501078367233
28.0,0.025694502517580986
30.0,0.02509055845439434
32.0,0.024432340636849403
36.0,0.022962993010878563
40.0,0.02187751978635788
44.0,0.020741868764162064
48.0,0.019800785928964615
52.0,0.019017891958355904
56.0,0.01812407374382019
60.0,0.017303114756941795
64.0,0.01641281507909298
72.0,0.014857389964163303
80.0,0.0138850761577487
88.0,0.013170315884053707
96.0,0.01227547600865364
104.0,0.011368801817297935
112.0,0.010543867945671082
120.0,0.010173662565648556
128.0,0.010067671537399292
144.0,0.009688620455563068
160.0,0.008447262458503246
176.0,0.007865247316658497
192.0,0.007266390603035688
208.0,0.006653687916696072
224.0,0.005781708285212517
240.0,0.005560536868870258
256.0,0.005244177300482988
288.0,0.004473164211958647
320.0,0.004344308283179998
352.0,0.004633885342627764
384.0,0.004475596826523542
416.0,0.0048197172582149506
448.0,0.004784904420375824
480.0,0.004993495997041464
512.0,0.0060716490261256695
576.0,0.005524575710296631
640.0,0.0032604739535599947
704.0,0.0036384607665240765
768.0,0.003924608696252108
832.0,0.0032121173571795225
896.0,0.002876387210562825
960.0,-6.739157106494531e-05
1024.0,-0.0013686007587239146
1152.0,0.0003499689046293497
1280.0,0.003067338839173317
1408.0,0.0019645218271762133
1536.0,0.0005470564356073737
1664.0,1.0347324860049412e-05
1792.0,-0.001012550201267004
1920.0,-0.0009858502307906747
2048.0,-0.0005380380316637456
2304.0,-0.002141498029232025
2560.0,-0.0008064499124884605
2816.0,-0.004034371580928564
3072.0,-0.004653412848711014
3328.0,0.001473753247410059
3584.0,0.00010423547064419836
3840.0,0.002911547664552927
4096.0,-0.00527588464319706
4608.0,-0.007307860534638166
5120.0,-0.007063827943056822
5632.0,-0.004326758440583944
6144.0,0.0007571559981442988
6656.0,0.0005345659446902573
7168.0,0.007144638802856207
7680.0,0.006273448001593351
8192.0,-0.0002973780792672187
end
