version,3.0
numOfCh,1
type,point
parent_name,ff67b_0dot2-0dot01
ch_type,1_1
kcount,1
numberNandB,1
brightnessNandB,1
carpet pos,0
pc,0
Time (ms),CH1 Auto-Correlation
1.0,0.03405388072133064
2.0,0.03346735239028931
3.0,0.032897911965847015
4.0,0.032361552119255066
5.0,0.031842753291130066
6.0,0.03134997561573982
7.0,0.030883735045790672
8.0,0.030412275344133377
9.0,0.029957136139273643
10.0,0.029502829536795616
11.0,0.029049428179860115
12.0,0.02861253172159195
13.0,0.028198089450597763
14.0,0.027785828337073326
15.0,0.027395999059081078
16.0,0.02702992968261242
18.0,0.026301808655261993
20.0,0.025597870349884033
22.0,0.024948855862021446
24.0,0.02433599904179573
26.0,0.023752396926283836
28.0,0.023200344294309616
30.0,0.022687461227178574
32.0,0.02219666913151741
36.0,0.02126619964838028
40.0,0.020372049883008003
44.0,0.019582370296120644
48.0,0.018860897049307823
52.0,0.018147775903344154
56.0,0.017444901168346405
60.0,0.016775598749518394
64.0,0.016126947477459908
72.0,0.014901377260684967
80.0,0.013571242801845074
88.0,0.012169293127954006
96.0,0.010875379666686058
104.0,0.009839948266744614
112.0,0.008988321758806705
120.0,0.008331138640642166
128.0,0.00775312352925539
144.0,0.006688766647130251
160.0,0.006005483213812113
176.0,0.005663851276040077
192.0,0.005043980665504932
208.0,0.004405366722494364
224.0,0.0037485493812710047
240.0,0.003123715752735734
256.0,0.00281842821277678
288.0,0.0034657272044569254
320.0,0.0038201508577913046
352.0,0.0052490984089672565
384.0,0.006405592430382967
416.0,0.005785137880593538
448.0,0.0052734059281647205
480.0,0.004885579459369183
512.0,0.0037898183800280094
576.0,0.001828485052101314
640.0,0.0009270294685848057
704.0,0.002092740498483181
768.0,0.0034367607440799475
832.0,0.00334590463899076
896.0,0.002401733072474599
960.0,-0.0003633416199591011
1024.0,0.0001353096595266834
1152.0,0.002282283501699567
1280.0,0.0033781626261770725
1408.0,0.0010845219949260354
1536.0,0.0014810939319431782
1664.0,0.00487374234944582
1792.0,0.004918626509606838
1920.0,0.004243900068104267
2048.0,0.002497877459973097
2304.0,0.002378305420279503
2560.0,0.0031708921305835247
2816.0,-0.0013631018809974194
3072.0,0.0005013907211832702
3328.0,0.0011630752123892307
3584.0,-0.0008052944904193282
3840.0,0.0009881096193566918
4096.0,0.00023425192921422422
4608.0,-0.003057935507968068
5120.0,-0.004444543272256851
5632.0,-0.0034057158045470715
6144.0,-0.002160198288038373
6656.0,-0.0021957585122436285
7168.0,-0.004795472603291273
7680.0,-0.0017099003307521343
8192.0,0.00010767876665340737
end
