version,3.0
numOfCh,1
type,point
parent_name,ff67b_0dot2-0dot01
ch_type,1_1
kcount,1
numberNandB,1
brightnessNandB,1
carpet pos,0
pc,0
Time (ms),CH1 Auto-Correlation
1.0,0.04165221005678177
2.0,0.04105563461780548
3.0,0.04048249498009682
4.0,0.039940159767866135
5.0,0.03942983224987984
6.0,0.03891902416944504
7.0,0.03843630105257034
8.0,0.03797204792499542
9.0,0.03750663995742798
10.0,0.03706463426351547
11.0,0.03662176430225372
12.0,0.036184292286634445
13.0,0.03573956713080406
14.0,0.035286642611026764
15.0,0.03485950455069542
16.0,0.03444201126694679
18.0,0.033647436648607254
20.0,0.032862819731235504
22.0,0.03210154548287392
24.0,0.03140120580792427
26.0,0.030757268890738487
28.0,0.03015628084540367
30.0,0.02955087088048458
32.0,0.02895631454885006
36.0,0.02793128788471222
40.0,0.026953168213367462
44.0,0.026017220690846443
48.0,0.025174925103783607
52.0,0.02438362129032612
56.0,0.02368040196597576
60.0,0.023005006834864616
64.0,0.022441264241933823
72.0,0.021503830328583717
80.0,0.020847545936703682
88.0,0.020292291417717934
96.0,0.01981341280043125
104.0,0.019322503358125687
112.0,0.018734781071543694
120.0,0.018207134678959846
128.0,0.017438359558582306
144.0,0.015725694596767426
160.0,0.014299595728516579
176.0,0.013597826473414898
192.0,0.013166304677724838
208.0,0.01251977402716875
224.0,0.011625902727246284
240.0,0.011019946075975895
256.0,0.010258203372359276
288.0,0.009003785438835621
320.0,0.007710663601756096
352.0,0.006539847701787949
384.0,0.005733737722039223
416.0,0.005189242772758007
448.0,0.004057133570313454
480.0,0.0026649509090930223
512.0,0.0008410465088672936
576.0,-0.002009982941672206
640.0,-0.005240289028733969
704.0,-0.005915906745940447
768.0,-0.005369572900235653
832.0,-0.005872535984963179
896.0,-0.005221385974436998
960.0,-0.006045177113264799
1024.0,-0.007201547734439373
1152.0,-0.007322757970541716
1280.0,-0.006858284119516611
1408.0,-0.005382469855248928
1536.0,-0.004907186143100262
1664.0,-0.00607657665386796
1792.0,-0.004041648935526609
1920.0,-0.0010339125292375684
2048.0,0.0009572369745001197
2304.0,0.00530918687582016
2560.0,0.006888142321258783
2816.0,0.006211068481206894
3072.0,0.002023483393713832
3328.0,-0.002154056914150715
3584.0,-0.004114160314202309
3840.0,-0.006611716467887163
4096.0,-0.006407125853002071
4608.0,0.00029697868740186095
5120.0,0.004111426882445812
5632.0,0.0022293732035905123
6144.0,-0.008185726590454578
6656.0,-0.0027664070948958397
7168.0,0.0024816871155053377
7680.0,0.001819544704630971
8192.0,-0.001015819376334548
end
