version,3.0
numOfCh,1
type,point
parent_name,ff67b_0dot2-0dot01
ch_type,1_1
kcount,1
numberNandB,1
brightnessNandB,1
carpet pos,0
pc,0
Time (ms),CH1 Auto-Correlation
1.0,0.039771683514118195
2.0,0.03918294981122017
3.0,0.038620319217443466
4.0,0.03807862475514412
5.0,0.037524010986089706
6.0,0.0369921438395977
7.0,0.03646448999643326
8.0,0.03595666214823723
9.0,0.03544594720005989
10.0,0.03494211286306381
11.0,0.03445298597216606
12.0,0.03399479016661644
13.0,0.03356756269931793
14.0,0.03315801918506622
15.0,0.032735563814640045
16.0,0.032329052686691284
18.0,0.03154155611991882
20.0,0.030770231038331985
22.0,0.030058369040489197
24.0,0.029375217854976654
26.0,0.028720973059535027
28.0,0.02812906540930271
30.0,0.027589935809373856
32.0,0.027053549885749817
36.0,0.026069119572639465
40.0,0.025097712874412537
44.0,0.02414771169424057
48.0,0.023218726739287376
52.0,0.02239287830889225
56.0,0.021725954487919807
60.0,0.021017689257860184
64.0,0.020238341763615608
72.0,0.018755454570055008
80.0,0.017571520060300827
88.0,0.01701054722070694
96.0,0.016718244180083275
104.0,0.016430728137493134
112.0,0.016007963567972183
120.0,0.015493127517402172
128.0,0.014758831821382046
144.0,0.013266237452626228
160.0,0.012470491230487823
176.0,0.011277479119598866
192.0,0.010329226031899452
208.0,0.010048894211649895
224.0,0.009738209657371044
240.0,0.009100842289626598
256.0,0.008679374121129513
288.0,0.0077413287945091724
320.0,0.006015225313603878
352.0,0.004236380569636822
384.0,0.005195516161620617
416.0,0.005834908224642277
448.0,0.005271302070468664
480.0,0.005107830744236708
512.0,0.005377436522394419
576.0,0.004659836646169424
640.0,0.0034047551453113556
704.0,0.0031385538168251514
768.0,0.003129305550828576
832.0,0.0013412338448688388
896.0,-0.00023941385734360665
960.0,-0.002227290766313672
1024.0,-0.0021631866693496704
1152.0,-0.00025823694886639714
1280.0,0.0005619525327347219
1408.0,-0.0021684414241462946
1536.0,-0.0033602037001401186
1664.0,-0.00474806921556592
1792.0,-0.004518287722021341
1920.0,-0.0036126605700701475
2048.0,-0.0025718784891068935
2304.0,-0.0009001184953376651
2560.0,-0.007573068141937256
2816.0,-0.007624758407473564
3072.0,-0.00817823689430952
3328.0,-0.005005275830626488
3584.0,-0.0033455565571784973
3840.0,-0.007368356920778751
4096.0,-0.003520309692248702
4608.0,0.003079221583902836
5120.0,0.009026682004332542
5632.0,0.007589839864522219
6144.0,0.0005319015472196043
6656.0,0.011183436959981918
7168.0,0.0075119873508811
7680.0,-0.00963712390512228
8192.0,-0.029685091227293015
end
