version,3.0
numOfCh,1
type,point
parent_name,ff67b_0dot2-0dot01
ch_type,1_1
kcount,1
numberNandB,1
brightnessNandB,1
carpet pos,0
pc,0
Time (ms),CH1 Auto-Correlation
1.0,0.03525036200881004
2.0,0.03459624946117401
3.0,0.033952392637729645
4.0,0.03331809118390083
5.0,0.03272467106580734
6.0,0.0321376696228981
7.0,0.03159128874540329
8.0,0.031048383563756943
9.0,0.030494777485728264
10.0,0.029985854402184486
11.0,0.029491379857063293
12.0,0.029001139104366302
13.0,0.028531448915600777
14.0,0.028076566755771637
15.0,0.02763175219297409
16.0,0.027208607643842697
18.0,0.02639474906027317
20.0,0.025618528947234154
22.0,0.02488793432712555
24.0,0.02412569336593151
26.0,0.023330235853791237
28.0,0.022553108632564545
30.0,0.02190498448908329
32.0,0.021297642961144447
36.0,0.020152267068624496
40.0,0.019127558916807175
44.0,0.01820082776248455
48.0,0.017316214740276337
52.0,0.016505306586623192
56.0,0.015779022127389908
60.0,0.015174114145338535
64.0,0.014592552557587624
72.0,0.013582595624029636
80.0,0.012815570458769798
88.0,0.01201728917658329
96.0,0.011426972225308418
104.0,0.010837778449058533
112.0,0.010003489442169666
120.0,0.008957253769040108
128.0,0.008118515834212303
144.0,0.0066298432648181915
160.0,0.005623115226626396
176.0,0.005246628541499376
192.0,0.005104524549096823
208.0,0.005121794529259205
224.0,0.004983973689377308
240.0,0.004874158650636673
256.0,0.004775209818035364
288.0,0.004810332786291838
320.0,0.004103012382984161
352.0,0.0036455094814300537
384.0,0.0036293426528573036
416.0,0.0030768776778131723
448.0,0.002152529777958989
480.0,0.0026979967951774597
512.0,0.0033542246092110872
576.0,0.0016640170942991972
640.0,0.0017825624672695994
704.0,0.0007678763358853757
768.0,0.00040253193583339453
832.0,-0.00015182801871560514
896.0,0.0013163656694814563
960.0,0.0020475047640502453
1024.0,0.00023146362218540162
1152.0,-0.0020873474422842264
1280.0,-0.0021729865111410618
1408.0,-0.0034724753350019455
1536.0,-0.0035468577407300472
1664.0,-0.0027553997933864594
1792.0,-0.003484619315713644
1920.0,-0.0017934871139004827
2048.0,-0.001350479549728334
2304.0,-0.0003582497884053737
2560.0,-0.0003581688506528735
2816.0,0.0001617961679585278
3072.0,-0.002179482253268361
3328.0,-0.0036428826861083508
3584.0,-0.00044759034062735736
3840.0,-0.002149986568838358
4096.0,-0.0034913774579763412
4608.0,-0.0023224710021167994
5120.0,0.0013062827056273818
5632.0,0.002407022286206484
6144.0,0.004404791630804539
6656.0,0.005353460554033518
7168.0,-0.001638908521272242
7680.0,-0.0011077576782554388
8192.0,-0.0015121492324396968
end
