version,3.0
numOfCh,1
type,point
parent_name,ff67b_0dot2-0dot01
ch_type,1_1
kcount,1
numberNandB,1
brightnessNandB,1
carpet pos,0
pc,0
Time (ms),CH1 Auto-Correlation
1.0,0.03647231683135033
2.0,0.03588787838816643
3.0,0.035334739834070206
4.0,0.03479661047458649
5.0,0.034290190786123276
6.0,0.033796798437833786
7.0,0.033317264169454575
8.0,0.03288063034415245
9.0,0.03245054557919502
10.0,0.03203141689300537
11.0,0.03160962462425232
12.0,0.031192317605018616
13.0,0.030794888734817505
14.0,0.03040938638150692
15.0,0.030031897127628326
16.0,0.029668867588043213
18.0,0.028994398191571236
20.0,0.02839154191315174
22.0,0.027837732806801796
24.0,0.027330469340085983
26.0,0.026842353865504265
28.0,0.026373544707894325
30.0,0.025937283411622047
32.0,0.025515563786029816
36.0,0.024677107110619545
40.0,0.023958483710885048
44.0,0.023284167051315308
48.0,0.022662896662950516
52.0,0.022097736597061157
56.0,0.021509038284420967
60.0,0.02095973864197731
64.0,0.02050565555691719
72.0,0.019580690190196037
80.0,0.018842097371816635
88.0,0.018186407163739204
96.0,0.017418833449482918
104.0,0.016720421612262726
112.0,0.01614597626030445
120.0,0.01553960982710123
128.0,0.01492919772863388
144.0,0.013855841010808945
160.0,0.012466884218156338
176.0,0.011442150920629501
192.0,0.010734952986240387
208.0,0.010325237177312374
224.0,0.010481813922524452
240.0,0.01032885629683733
256.0,0.00996366422623396
288.0,0.008792811073362827
320.0,0.007952943444252014
352.0,0.007074492517858744
384.0,0.00647697364911437
416.0,0.005580382887274027
448.0,0.006417688447982073
480.0,0.007705564144998789
512.0,0.00890151783823967
576.0,0.009990973398089409
640.0,0.009491312317550182
704.0,0.008196307346224785
768.0,0.006822875700891018
832.0,0.004588162526488304
896.0,0.003402524860575795
960.0,0.0031365419272333384
1024.0,0.0033736133482307196
1152.0,0.001737586804665625
1280.0,0.001967812655493617
1408.0,0.0041300710290670395
1536.0,0.005951614584773779
1664.0,0.0036551335360854864
1792.0,0.0005422160611487925
1920.0,0.0011561841238290071
2048.0,0.0027250731363892555
2304.0,0.0026315206196159124
2560.0,0.0038037279155105352
2816.0,0.003934836946427822
3072.0,0.0043587456457316875
3328.0,0.002173853572458029
3584.0,0.00285838614217937
3840.0,0.001182091305963695
4096.0,0.0016860776813700795
4608.0,-0.001305806334130466
5120.0,-0.002863513072952628
5632.0,-0.0035148554015904665
6144.0,-0.0032299747690558434
6656.0,-0.003660995978862047
7168.0,-0.006357801612466574
7680.0,-0.010776256211102009
8192.0,-0.011077425442636013
end
