version,3.0
numOfCh,1
type,point
parent_name,ff67b_0dot2-0dot01
ch_type,1_1
kcount,1
numberNandB,1
brightnessNandB,1
carpet pos,0
pc,0
Time (ms),CH1 Auto-Correlation
1.0,0.03262583911418915
2.0,0.032042089849710464
3.0,0.031485531479120255
4.0,0.030932558700442314
5.0,0.030399329960346222
6.0,0.029866933822631836
7.0,0.02937082014977932
8.0,0.028899766504764557
9.0,0.028446035459637642
10.0,0.02799057774245739
11.0,0.02753666788339615
12.0,0.027082232758402824
13.0,0.02662438154220581
14.0,0.026175200939178467
15.0,0.025726571679115295
16.0,0.025286493822932243
18.0,0.024461515247821808
20.0,0.023733338341116905
22.0,0.02305368334054947
24.0,0.022434651851654053
26.0,0.021850652992725372
28.0,0.021294692531228065
30.0,0.020765550434589386
32.0,0.020297827199101448
36.0,0.01944124698638916
40.0,0.01857326738536358
44.0,0.01767437532544136
48.0,0.016777295619249344
52.0,0.015852073207497597
56.0,0.014979795552790165
60.0,0.014133871532976627
64.0,0.013345172628760338
72.0,0.012142744846642017
80.0,0.011175164952874184
88.0,0.010211842134594917
96.0,0.009393075481057167
104.0,0.00866763386875391
112.0,0.008127661421895027
120.0,0.007554761134088039
128.0,0.007014727685600519
144.0,0.00621840450912714
160.0,0.005601567681878805
176.0,0.004902923014014959
192.0,0.004328774753957987
208.0,0.0038269234355539083
224.0,0.0034181252121925354
240.0,0.003048144280910492
256.0,0.002153858309611678
288.0,0.0002886338625103235
320.0,0.0005188919603824615
352.0,0.0008749532862566411
384.0,0.0010062006767839193
416.0,1.2796780538337771e-05
448.0,-0.0008729107794351876
480.0,-0.000504757568705827
512.0,0.00017389270942658186
576.0,0.0010578674264252186
640.0,0.0007854954455979168
704.0,-0.0014098590472713113
768.0,-0.002048841677606106
832.0,-0.0006196938338689506
896.0,-0.001397121581248939
960.0,-0.0007658821414224803
1024.0,-0.0001165086287073791
1152.0,-0.00023626604524906725
1280.0,-0.0013532588491216302
1408.0,-0.0010987903224304318
1536.0,-0.0005563104059547186
1664.0,-0.0017072451300919056
1792.0,-0.0023806060198694468
1920.0,-0.0023296496365219355
2048.0,-0.0014860400697216392
2304.0,-0.003839535638689995
2560.0,-0.003413395257666707
2816.0,-0.0006362278945744038
3072.0,0.0026575608644634485
3328.0,0.0005191112868487835
3584.0,0.0036173523403704166
3840.0,0.0013417089357972145
4096.0,0.004243842326104641
4608.0,-0.0006530216196551919
5120.0,-0.00013104005483910441
5632.0,-0.003001764416694641
6144.0,-0.000609900220297277
6656.0,-0.001109357108362019
7168.0,0.0025693681091070175
7680.0,0.0034554614685475826
8192.0,0.0022517386823892593
end
