version,3.0
numOfCh,1
type,point
parent_name,ff67b_0dot2-0dot01
ch_type,1_1
kcount,1
numberNandB,1
brightnessNandB,1
carpet pos,0
pc,0
Time (ms),CH1 Auto-Correlation
1.0,0.03154073283076286
2.0,0.030940702185034752
3.0,0.03037250228226185
4.0,0.02982465922832489
5.0,0.02930222824215889
6.0,0.028787055984139442
7.0,0.02828819863498211
8.0,0.027783501893281937
9.0,0.027304086834192276
10.0,0.026829654350876808
11.0,0.02634190395474434
12.0,0.025865750387310982
13.0,0.025389065966010094
14.0,0.024922868236899376
15.0,0.024480069056153297
16.0,0.0240364670753479
18.0,0.023179803043603897
20.0,0.02241157926619053
22.0,0.021729780361056328
24.0,0.02107665315270424
26.0,0.020455362275242805
28.0,0.019867751747369766
30.0,0.019320879131555557
32.0,0.018819954246282578
36.0,0.01776858977973461
40.0,0.01672068051993847
44.0,0.015785377472639084
48.0,0.014962508343160152
52.0,0.014240039512515068
56.0,0.013699710369110107
60.0,0.013246215879917145
64.0,0.012805416248738766
72.0,0.012028525583446026
80.0,0.011642512865364552
88.0,0.011284598149359226
96.0,0.01073514949530363
104.0,0.009960546158254147
112.0,0.00937771424651146
120.0,0.008829832077026367
128.0,0.008239664137363434
144.0,0.00784674845635891
160.0,0.007747851312160492
176.0,0.007406877353787422
192.0,0.0067490930669009686
208.0,0.004992675501853228
224.0,0.0030475191306322813
240.0,0.0018728709546849132
256.0,0.0015391689958050847
288.0,0.0022015608847141266
320.0,0.0029030456207692623
352.0,0.002251107944175601
384.0,0.0013635732466354966
416.0,0.0007240560953505337
448.0,0.0008338422048836946
480.0,-0.00042961983126588166
512.0,-0.0015734561020508409
576.0,-0.002159739378839731
640.0,-0.0030204695649445057
704.0,-0.0036661732010543346
768.0,-0.0029850194696336985
832.0,-0.001968599623069167
896.0,-0.0016977208433672786
960.0,-0.0024113028775900602
1024.0,-0.0024411804042756557
1152.0,0.0005004346021451056
1280.0,0.0045356471091508865
1408.0,0.003128949087113142
1536.0,0.0014328405959531665
1664.0,0.0004425209481269121
1792.0,-0.004019024316221476
1920.0,-0.0033266013488173485
2048.0,-0.0015418239636346698
2304.0,0.00014434353215619922
2560.0,0.0008884811541065574
2816.0,0.003563554957509041
3072.0,-0.0009626172832213342
3328.0,-0.005921459291130304
3584.0,-0.007713427767157555
3840.0,-0.006934328004717827
4096.0,0.0005106570897623897
end
