version,3.0
numOfCh,1
type,point
parent_name,ff67b_0dot2-0dot01
ch_type,1_1
kcount,1
numberNandB,1
brightnessNandB,1
carpet pos,0
pc,0
Time (ms),CH1 Auto-Correlation
1.0,0.03416210785508156
2.0,0.03359788656234741
3.0,0.03305025398731232
4.0,0.03251882642507553
5.0,0.03202032670378685
6.0,0.031551945954561234
7.0,0.0310867577791214
8.0,0.030619550496339798
9.0,0.0301568154245615
10.0,0.0297069288790226
11.0,0.029289787635207176
12.0,0.028887348249554634
13.0,0.02848418429493904
14.0,0.028078297153115273
15.0,0.02768000029027462
16.0,0.027312593534588814
18.0,0.026594093069434166
20.0,0.025928130373358727
22.0,0.02530876360833645
24.0,0.024726705625653267
26.0,0.024153167381882668
28.0,0.023607004433870316
30.0,0.023082487285137177
32.0,0.022580154240131378
36.0,0.021649939939379692
40.0,0.020806934684515
44.0,0.02014290727674961
48.0,0.01968652568757534
52.0,0.019346175715327263
56.0,0.01908491738140583
60.0,0.018838444724678993
64.0,0.018633121624588966
72.0,0.018108272925019264
80.0,0.017476050183176994
88.0,0.01659156009554863
96.0,0.015476660802960396
104.0,0.01450829952955246
112.0,0.01395910233259201
120.0,0.013564446941018105
128.0,0.013233917765319347
144.0,0.012655678205192089
160.0,0.012008622288703918
176.0,0.011530627496540546
192.0,0.011275898665189743
208.0,0.01081825327128172
224.0,0.01015361025929451
240.0,0.009643620811402798
256.0,0.009674119763076305
288.0,0.00845107901841402
320.0,0.006888494361191988
352.0,0.00530566880479455
384.0,0.0031253849156200886
416.0,0.0015314045595005155
448.0,0.0014162535080686212
480.0,0.0016756809782236814
512.0,0.0013428425882011652
576.0,0.0016536049079149961
640.0,0.0018944728653877974
704.0,0.0004979590885341167
768.0,0.0005730250268243253
832.0,0.0019785859622061253
896.0,0.0012994902208447456
960.0,0.0003728794981725514
1024.0,0.0002108709595631808
1152.0,0.002960225334390998
1280.0,0.004535199608653784
1408.0,0.0048949578776955605
1536.0,0.004132745321840048
1664.0,0.00203947676345706
1792.0,0.0023332862183451653
1920.0,0.0016298434929922223
2048.0,0.001997600542381406
2304.0,0.0034147105179727077
2560.0,0.0003814210358541459
2816.0,0.0019380153389647603
3072.0,0.001247634761966765
3328.0,-0.0016808133805170655
3584.0,3.842373553197831e-05
3840.0,-0.0027982068713754416
4096.0,-0.0020383468363434076
4608.0,-0.007755011320114136
5120.0,-0.004686743952333927
5632.0,-0.003434346988797188
6144.0,-0.004808218218386173
6656.0,-0.004220551811158657
7168.0,-0.0031584948301315308
7680.0,-0.007467712741345167
8192.0,-0.003030160441994667
end
