version,3.0
numOfCh,1
type,point
parent_name,ff67b_0dot2-0dot01
ch_type,1_1
kcount,1
numberNandB,1
brightnessNandB,1
carpet pos,0
pc,0
Time (ms),CH1 Auto-Correlation
1.0,0.05328413099050522
2.0,0.05150248482823372
3.0,0.04968971014022827
4.0,0.04795708507299423
5.0,0.04625639691948891
6.0,0.04455133527517319
7.0,0.04295855015516281
8.0,0.04132623225450516
9.0,0.03979286551475525
10.0,0.038190100342035294
11.0,0.036630429327487946
12.0,0.035074107348918915
13.0,0.03346613422036171
14.0,0.03189801052212715
15.0,0.030348943546414375
16.0,0.02998228557407856
18.0,0.02932438626885414
20.0,0.02870035544037819
22.0,0.028105689212679863
24.0,0.0274511631578207
26.0,0.02677987515926361
28.0,0.026156555861234665
30.0,0.02562328241765499
32.0,0.025102119892835617
36.0,0.02401897683739662
40.0,0.02285386249423027
44.0,0.02168046496808529
48.0,0.02061528153717518
52.0,0.019581910222768784
56.0,0.018556667491793633
60.0,0.017663123086094856
64.0,0.016737045720219612
72.0,0.01502204779535532
80.0,0.0141828041523695
88.0,0.014047813601791859
96.0,0.013476340100169182
104.0,0.01254184264689684
112.0,0.011630058288574219
120.0,0.011195733211934566
128.0,0.010880975052714348
144.0,0.010435612872242928
160.0,0.010053414851427078
176.0,0.009600327350199223
192.0,0.00888589583337307
208.0,0.008338774554431438
224.0,0.007191460579633713
240.0,0.006363012362271547
256.0,0.006536208558827639
288.0,0.0071420869790017605
320.0,0.0070548467338085175
352.0,0.007074871100485325
384.0,0.0077251289039850235
416.0,0.006680535618215799
448.0,0.005325177684426308
480.0,0.004900064785033464
512.0,0.0036409504245966673
576.0,0.0018769287271425128
640.0,-0.000278417079243809
704.0,-0.0001114824044634588
768.0,0.0014747594250366092
832.0,0.0031780030112713575
896.0,0.004611999727785587
960.0,0.00437365286052227
1024.0,0.004574253223836422
1152.0,0.004603383131325245
1280.0,0.003689298639073968
1408.0,0.002560501452535391
1536.0,0.0005441022804006934
1664.0,0.0013229136820882559
1792.0,1.5838465117212763e-07
1920.0,0.0019191107712686062
2048.0,0.0030547056812793016
2304.0,0.0005619936855509877
2560.0,0.0008987171459011734
2816.0,-0.0006820117705501616
3072.0,0.0025763753801584244
3328.0,0.005343502387404442
3584.0,0.003265936393290758
3840.0,-8.085902663879097e-05
4096.0,-0.00175209972076118
4608.0,-0.0001002635617624037
5120.0,-0.003317322349175811
5632.0,-0.0022461796179413795
6144.0,-0.0003808360197581351
6656.0,0.0012427886249497533
7168.0,-0.00483731972053647
7680.0,-0.008507783524692059
8192.0,-0.006937083788216114
end
