version,3.0
numOfCh,1
type,point
parent_name,ff67b_0dot2-0dot01
ch_type,1_1
kcount,1
numberNandB,1
brightnessNandB,1
carpet pos,0
pc,0
Time (ms),CH1 Auto-Correlation
1.0,0.025705993175506592
2.0,0.02511783316731453
3.0,0.02452692948281765
4.0,0.023964935913681984
5.0,0.023428108543157578
6.0,0.022907182574272156
7.0,0.022416848689317703
8.0,0.021955089643597603
9.0,0.02151607908308506
10.0,0.021112948656082153
11.0,0.02073504403233528
12.0,0.020365610718727112
13.0,0.020016731694340706
14.0,0.019676534458994865
15.0,0.019358742982149124
16.0,0.019050605595111847
18.0,0.018442047759890556
20.0,0.0178536344319582
22.0,0.017297737300395966
24.0,0.01675006002187729
26.0,0.016196968033909798
28.0,0.015679843723773956
30.0,0.015195908956229687
32.0,0.014741092920303345
36.0,0.0138804716989398
40.0,0.013167883269488811
44.0,0.012584362179040909
48.0,0.01204063929617405
52.0,0.011521070264279842
56.0,0.011033035814762115
60.0,0.010629585012793541
64.0,0.010267448611557484
72.0,0.009617449715733528
80.0,0.009160074405372143
88.0,0.008554033935070038
96.0,0.007886865176260471
104.0,0.0072613488882780075
112.0,0.006680076941847801
120.0,0.006277983542531729
128.0,0.005874376278370619
144.0,0.005586130544543266
160.0,0.005599386990070343
176.0,0.004998774733394384
192.0,0.0043694325722754
208.0,0.0037714275531470776
224.0,0.003071204060688615
240.0,0.0023145561572164297
256.0,0.001991681521758437
288.0,0.001809729728847742
320.0,0.0014344636583700776
352.0,0.0012145258951932192
384.0,0.0006219878559932113
416.0,0.00014687349903397262
448.0,4.269439523341134e-05
480.0,-0.0001027252001222223
512.0,0.0004826405202038586
576.0,-0.0006504167104139924
640.0,-0.0005786922411061823
704.0,-0.00036016886588186026
768.0,-0.0011953026987612247
832.0,-0.00012120439350837842
896.0,0.0002856762148439884
960.0,7.52964842831716e-05
1024.0,0.0012496067211031914
1152.0,0.0017034298507496715
1280.0,0.0019108654232695699
1408.0,0.0039954776875674725
1536.0,0.002061934908851981
1664.0,0.001012289896607399
1792.0,0.0002528132754378021
1920.0,0.00042802817188203335
2048.0,0.00012685763067565858
2304.0,0.0006734881899319589
2560.0,0.0010871218983083963
2816.0,0.0034604608081281185
3072.0,0.002409260021522641
3328.0,-0.0009533965494483709
3584.0,-0.001587478443980217
3840.0,0.00028117673355154693
4096.0,0.002503650262951851
4608.0,0.0008397357887588441
5120.0,-0.0011766726383939385
5632.0,-0.0003410739009268582
6144.0,-0.0004991217283532023
6656.0,-0.002135063521564007
7168.0,-0.00044720989535562694
7680.0,-0.004470441490411758
8192.0,-0.0012046429328620434
end
