version,3.0
numOfCh,1
type,point
parent_name,ff67b_0dot2-0dot01
ch_type,1_1
kcount,1
numberNandB,1
brightnessNandB,1
carpet pos,0
pc,0
Time (ms),CH1 Auto-Correlation
1.0,0.03417463228106499
2.0,0.0336051844060421
3.0,0.03305891156196594
4.0,0.03252989053726196
5.0,0.032000698149204254
6.0,0.03147284314036369
7.0,0.03097020834684372
8.0,0.030479667708277702
9.0,0.029995054006576538
10.0,0.029513763263821602
11.0,0.02903972566127777
12.0,0.028572915121912956
13.0,0.02811000868678093
14.0,0.027668427675962448
15.0,0.027243155986070633
16.0,0.026840737089514732
18.0,0.026053840294480324
20.0,0.025316163897514343
22.0,0.024574341252446175
24.0,0.02383304387331009
26.0,0.023082371801137924
28.0,0.022363577038049698
30.0,0.021656900644302368
32.0,0.02098407968878746
36.0,0.019804177805781364
40.0,0.01871228963136673
44.0,0.017742104828357697
48.0,0.016897043213248253
52.0,0.016116509214043617
56.0,0.01539155375212431
60.0,0.014704369939863682
64.0,0.013997003436088562
72.0,0.012678829953074455
80.0,0.011623067781329155
88.0,0.010692017152905464
96.0,0.009915076196193695
104.0,0.009280947037041187
112.0,0.008734026923775673
120.0,0.008282816037535667
128.0,0.008162878453731537
144.0,0.008061468601226807
160.0,0.007536009885370731
176.0,0.007250618189573288
192.0,0.006745240651071072
208.0,0.006086302921175957
224.0,0.0050218794494867325
240.0,0.004513489548116922
256.0,0.004360624589025974
288.0,0.004636196885257959
320.0,0.004469961393624544
352.0,0.004205872304737568
384.0,0.0035889754071831703
416.0,0.003176756901666522
448.0,0.003475160337984562
480.0,0.004473517183214426
512.0,0.004670212045311928
576.0,0.004498091991990805
640.0,0.0024018308613449335
704.0,-0.0012109277304261923
768.0,-0.0020241448655724525
832.0,-0.0019513373263180256
896.0,-0.0029315396677702665
960.0,-0.0032465967815369368
1024.0,-0.002609830815345049
1152.0,-0.0015361533733084798
1280.0,-0.005455921869724989
1408.0,-0.004693276714533567
1536.0,-0.0022590754088014364
1664.0,0.00029640746652148664
1792.0,-0.000584533205255866
1920.0,-0.0016484688967466354
2048.0,-0.0005481468397192657
2304.0,6.917190148669761e-06
2560.0,-0.00036386927240528166
2816.0,-0.0006780282710678875
3072.0,-0.0026420257054269314
3328.0,-0.0037339634727686644
3584.0,-0.002183307893574238
3840.0,-0.0025600185617804527
4096.0,0.00042276980821043253
4608.0,0.00505424989387393
5120.0,0.0032804077491164207
5632.0,-0.00034067625529132783
6144.0,-0.002352300798520446
6656.0,-0.0006390796625055373
7168.0,0.0007505410467274487
7680.0,-0.001006000442430377
8192.0,-0.0010524281533434987
end
