version,3.0
numOfCh,1
type,point
parent_name,ff67b_0dot2-0dot01
ch_type,1_1
kcount,1
numberNandB,1
brightnessNandB,1
carpet pos,0
pc,0
Time (ms),CH1 Auto-Correlation
1.0,0.030087312683463097
2.0,0.029499277472496033
3.0,0.028939958661794662
4.0,0.028389757499098778
5.0,0.02785070240497589
6.0,0.027325237169861794
7.0,0.026798535138368607
8.0,0.026291074231266975
9.0,0.025814400985836983
10.0,0.025344807654619217
11.0,0.0248773954808712
12.0,0.024403661489486694
13.0,0.023946214467287064
14.0,0.02349790930747986
15.0,0.023056430742144585
16.0,0.022609639912843704
18.0,0.021785082295536995
20.0,0.020993927493691444
22.0,0.02021857351064682
24.0,0.019482364878058434
26.0,0.018825309351086617
28.0,0.01826084405183792
30.0,0.01776297762989998
32.0,0.017262835055589676
36.0,0.01623382233083248
40.0,0.015391116961836815
44.0,0.01471012644469738
48.0,0.014087197370827198
52.0,0.013476232066750526
56.0,0.012850314378738403
60.0,0.012316165491938591
64.0,0.011895093135535717
72.0,0.011488170363008976
80.0,0.0111928042024374
88.0,0.01090031024068594
96.0,0.010490519925951958
104.0,0.010011401027441025
112.0,0.009726116433739662
120.0,0.009202606044709682
128.0,0.00868910551071167
144.0,0.007796197198331356
160.0,0.007274668663740158
176.0,0.006605354603379965
192.0,0.006070446688681841
208.0,0.0056932042352855206
224.0,0.005232963711023331
240.0,0.004910278599709272
256.0,0.004851569887250662
288.0,0.004200038034468889
320.0,0.002093834336847067
352.0,0.0014332468854263425
384.0,0.000761140079703182
416.0,0.0008043001871556044
448.0,0.0018680444918572903
480.0,0.0031693517230451107
512.0,0.0036939119454473257
576.0,0.0033492865040898323
640.0,0.0034043865744024515
704.0,0.003804971696808934
768.0,0.0033267454709857702
832.0,0.0033275685273110867
896.0,0.0020651109516620636
960.0,0.00213217013515532
1024.0,0.004560082219541073
1152.0,0.005378345027565956
1280.0,0.005505533888936043
1408.0,0.004381424281746149
1536.0,0.0031588245183229446
1664.0,0.0029153339564800262
1792.0,0.0003372011997271329
1920.0,-0.00029236715636216104
2048.0,0.0017065840074792504
2304.0,0.002551310695707798
2560.0,0.00015437023830600083
2816.0,0.0004240195848979056
3072.0,-0.0004914903547614813
3328.0,0.0008341770153492689
3584.0,0.0010686368914321065
3840.0,-0.004024192690849304
4096.0,-0.005723864771425724
4608.0,-0.005341164767742157
5120.0,-0.004276813007891178
5632.0,-0.0030350626911967993
6144.0,-0.0033060400746762753
6656.0,-0.004809317644685507
7168.0,-0.006453227251768112
7680.0,-0.00795771274715662
8192.0,-0.007373144384473562
end
