version,3.0
numOfCh,1
type,point
parent_name,ff67b_0dot2-0dot01
ch_type,1_1
kcount,1
numberNandB,1
brightnessNandB,1
carpet pos,0
pc,0
Time (ms),CH1 Auto-Correlation
1.0,0.028894783928990364
2.0,0.028350302949547768
3.0,0.027833057567477226
4.0,0.027330152690410614
5.0,0.026836659759283066
6.0,0.026350384578108788
7.0,0.02587181329727173
8.0,0.02540992945432663
9.0,0.024956567212939262
10.0,0.0245142113417387
11.0,0.0240790918469429
12.0,0.023667866364121437
13.0,0.023283658549189568
14.0,0.022906510159373283
15.0,0.02252800762653351
16.0,0.022154513746500015
18.0,0.021435175091028214
20.0,0.0207583699375391
22.0,0.020128151401877403
24.0,0.01957976259291172
26.0,0.019029797986149788
28.0,0.018483908846974373
30.0,0.01796487532556057
32.0,0.01748332940042019
36.0,0.016614632681012154
40.0,0.015864940360188484
44.0,0.015164772048592567
48.0,0.014546013437211514
52.0,0.013972870074212551
56.0,0.013429966755211353
60.0,0.012941432185471058
64.0,0.012512272223830223
72.0,0.011830832809209824
80.0,0.011179795488715172
88.0,0.010542208328843117
96.0,0.00991782546043396
104.0,0.009247727692127228
112.0,0.00860929861664772
120.0,0.008230103179812431
128.0,0.007967105135321617
144.0,0.0072049470618367195
160.0,0.006647298112511635
176.0,0.006618076469749212
192.0,0.006479635369032621
208.0,0.006579689681529999
224.0,0.006369360256940126
240.0,0.005943349562585354
256.0,0.005894203670322895
288.0,0.006368339993059635
320.0,0.005758339073508978
352.0,0.004863122943788767
384.0,0.00393436336889863
416.0,0.0039044476579874754
448.0,0.0037121365312486887
480.0,0.00372528494335711
512.0,0.003643701085820794
576.0,0.002658151090145111
640.0,0.0018790633184835315
704.0,0.0003324922581668943
768.0,-0.00033833662746474147
832.0,0.00029175737290643156
896.0,-0.0007644869037903845
960.0,-0.001090007135644555
1024.0,-0.0024270382709801197
1152.0,-0.002418798627331853
1280.0,-0.0035153820645064116
1408.0,-0.004877959378063679
1536.0,-0.0023894337937235832
1664.0,-0.0022306544706225395
1792.0,-0.0005182315944693983
1920.0,0.0004192649794276804
2048.0,0.0021404740400612354
2304.0,0.0012272110907360911
2560.0,0.0012352634221315384
2816.0,0.0006503693293780088
3072.0,-0.0006351518095470965
3328.0,-0.0013876922894269228
3584.0,-0.001833462156355381
3840.0,0.0004331252712290734
4096.0,0.0024506801273673773
4608.0,0.0016781612066552043
5120.0,-0.0021582413464784622
5632.0,-0.0035111086908727884
6144.0,-0.0031354522798210382
6656.0,-0.00037657178472727537
7168.0,-0.0007235078956000507
7680.0,-0.002650601789355278
8192.0,-0.004045790992677212
end
