version,3.0
numOfCh,1
type,point
parent_name,ff67b_0dot2-0dot01
ch_type,1_1
kcount,1
numberNandB,1
brightnessNandB,1
carpet pos,0
pc,0
Time (ms),CH1 Auto-Correlation
1.0,0.02714037522673607
2.0,0.0265576783567667
3.0,0.02601669915020466
4.0,0.02547644078731537
5.0,0.024946657940745354
6.0,0.024427643045783043
7.0,0.023934854194521904
8.0,0.023458516225218773
9.0,0.022991454228758812
10.0,0.022555846720933914
11.0,0.022137369960546494
12.0,0.0217122845351696
13.0,0.021320274099707603
14.0,0.020931800827383995
15.0,0.020556902512907982
16.0,0.020208241418004036
18.0,0.019573815166950226
20.0,0.01900794357061386
22.0,0.018475139513611794
24.0,0.01795915700495243
26.0,0.017417948693037033
28.0,0.016878288239240646
30.0,0.016355104744434357
32.0,0.015861714258790016
36.0,0.014843668788671494
40.0,0.013989984057843685
44.0,0.013170885853469372
48.0,0.012382705695927143
52.0,0.011585939675569534
56.0,0.010929606854915619
60.0,0.010348893702030182
64.0,0.00995138380676508
72.0,0.009178145788609982
80.0,0.008504824712872505
88.0,0.00797932967543602
96.0,0.007600008510053158
104.0,0.007063031662255526
112.0,0.006580795627087355
120.0,0.006197661627084017
128.0,0.005839340854436159
144.0,0.004880974534898996
160.0,0.003906662110239267
176.0,0.0028725499287247658
192.0,0.00222402554936707
208.0,0.0013233146164566278
224.0,0.00031974317971616983
240.0,-0.00013587430294137448
256.0,7.349289080593735e-05
288.0,0.000918503210414201
320.0,-6.60121368127875e-05
352.0,-0.00023336888989433646
384.0,-0.00026172830257564783
416.0,0.00025888095842674375
448.0,0.0005186705966480076
480.0,0.00041756354039534926
512.0,0.0009364592260681093
576.0,0.0016130334697663784
640.0,0.0018407342722639441
704.0,0.0009463876485824585
768.0,0.0008431687601841986
832.0,0.003043437609449029
896.0,0.003085365053266287
960.0,0.004600397311151028
1024.0,0.0020264792256057262
1152.0,0.0007916065515019
1280.0,-0.002087908098474145
1408.0,-0.0030070070642977953
1536.0,-0.0011828410206362605
1664.0,-0.00041830562986433506
1792.0,0.0008303801878355443
1920.0,0.0015532535035163164
2048.0,-7.831794209778309e-05
2304.0,-0.0015320662641897798
2560.0,-0.00044809558312408626
2816.0,-0.0016741531435400248
3072.0,-0.0027456446550786495
3328.0,-0.002194963628426194
3584.0,-0.0032533169724047184
3840.0,-0.005140936467796564
4096.0,-0.0009660396608524024
4608.0,-0.001526994863525033
5120.0,0.002231137128546834
5632.0,0.0015864548040553927
6144.0,-0.0017332622082903981
6656.0,0.0038321479223668575
7168.0,-0.0029785349033772945
end
