version,3.0
numOfCh,1
type,point
parent_name,ff67b_0dot2-0dot01
ch_type,1_1
kcount,1
numberNandB,1
brightnessNandB,1
carpet pos,0
pc,0
Time (ms),CH1 Auto-Correlation
1.0,0.0336255207657814
2.0,0.03310122713446617
3.0,0.03259170055389404
4.0,0.0320805087685585
5.0,0.03159147500991821
6.0,0.03111598640680313
7.0,0.030656693503260612
8.0,0.03021291084587574
9.0,0.02977224439382553
10.0,0.029344193637371063
11.0,0.028957780450582504
12.0,0.028588376939296722
13.0,0.02823859639465809
14.0,0.027903899550437927
15.0,0.027587858960032463
16.0,0.027285143733024597
18.0,0.02673407644033432
20.0,0.026202842593193054
22.0,0.025694238021969795
24.0,0.025231163948774338
26.0,0.024764487519860268
28.0,0.024287506937980652
30.0,0.023813435807824135
32.0,0.023359710350632668
36.0,0.022486893460154533
40.0,0.021692754700779915
44.0,0.020920703187584877
48.0,0.020169103518128395
52.0,0.01947798579931259
56.0,0.018802141770720482
60.0,0.018161660060286522
64.0,0.01749534346163273
72.0,0.01628199592232704
80.0,0.015454363077878952
88.0,0.014588156715035439
96.0,0.013791884295642376
104.0,0.013173399493098259
112.0,0.012590158730745316
120.0,0.011743987910449505
128.0,0.010836505331099033
144.0,0.009921700693666935
160.0,0.009140129201114178
176.0,0.008519931696355343
192.0,0.007890627719461918
208.0,0.007352196145802736
224.0,0.006844479590654373
240.0,0.006045685149729252
256.0,0.005983057431876659
288.0,0.0059383949264883995
320.0,0.005349398590624332
352.0,0.0052230944857001305
384.0,0.004863686393946409
416.0,0.004127499647438526
448.0,0.0032542049884796143
480.0,0.00259748799726367
512.0,0.002299616578966379
576.0,0.0014629040379077196
640.0,0.0006822138675488532
704.0,-5.6259148550452664e-05
768.0,-0.0005362186930142343
832.0,-0.0012607236858457327
896.0,-0.0019298000261187553
960.0,-0.00021740760712418705
1024.0,0.00026791737764142454
1152.0,-0.002519860863685608
1280.0,-0.0020949540194123983
1408.0,-0.0022668452002108097
1536.0,0.0005405386909842491
1664.0,0.002414384391158819
1792.0,0.005499520804733038
1920.0,0.0037806248292326927
2048.0,0.0015811941120773554
2304.0,0.0005216614226810634
2560.0,-0.0021372961346060038
2816.0,-0.0042037093080580235
3072.0,-0.006441307254135609
3328.0,-0.0009522219770587981
3584.0,0.00016962341032922268
3840.0,0.00047619626275263727
4096.0,0.00012990934192202985
4608.0,-0.0008885346469469368
5120.0,-0.003313130931928754
5632.0,-0.005924341268837452
6144.0,-0.004767409525811672
6656.0,-0.0006677183555439115
7168.0,-0.0037024631164968014
7680.0,-0.00017145060701295733
8192.0,0.0007611417095176876
end
