version,3.0
numOfCh,1
type,point
parent_name,ff67b_0dot2-0dot01
ch_type,1_1
kcount,1
numberNandB,1
brightnessNandB,1
carpet pos,0
pc,0
Time (ms),CH1 Auto-Correlation
1.0,0.02830638736486435
2.0,0.027761682868003845
3.0,0.027253322303295135
4.0,0.026772012934088707
5.0,0.026313552632927895
6.0,0.025882666930556297
7.0,0.02548358403146267
8.0,0.025089608505368233
9.0,0.024710658937692642
10.0,0.024327758699655533
11.0,0.02396531216800213
12.0,0.023627977818250656
13.0,0.02330218255519867
14.0,0.022989461198449135
15.0,0.02268870547413826
16.0,0.022394077852368355
18.0,0.02184257283806801
20.0,0.021338259801268578
22.0,0.020869703963398933
24.0,0.020442349836230278
26.0,0.020024657249450684
28.0,0.019594814628362656
30.0,0.019182145595550537
32.0,0.01877305842936039
36.0,0.018019990995526314
40.0,0.017305422574281693
44.0,0.016594426706433296
48.0,0.01578947901725769
52.0,0.014911181293427944
56.0,0.01402426976710558
60.0,0.013251778669655323
64.0,0.012559155933558941
72.0,0.011305258609354496
80.0,0.010217668488621712
88.0,0.009390043094754219
96.0,0.008675226010382175
104.0,0.008025980554521084
112.0,0.007656690198928118
120.0,0.007449301425367594
128.0,0.0073860143311321735
144.0,0.007093558553606272
160.0,0.006582038011401892
176.0,0.005983302835375071
192.0,0.0053385356441140175
208.0,0.004559028893709183
224.0,0.0041495575569570065
240.0,0.003844254184514284
256.0,0.003402585629373789
288.0,0.002347849542275071
320.0,0.00167342578060925
352.0,0.0011838091304525733
384.0,0.0009413603693246841
416.0,0.0009215463069267571
448.0,0.0008321042987518013
480.0,0.0016877285670489073
512.0,0.001841832767240703
576.0,-0.00033477117540314794
640.0,-0.0012075946433469653
704.0,0.00020529540779534727
768.0,-0.0010114660253748298
832.0,-0.0023957970552146435
896.0,-0.0031904589850455523
960.0,-0.0028261931147426367
1024.0,-0.003498407080769539
1152.0,-0.004420259967446327
1280.0,-0.002967019099742174
1408.0,0.0006296060746535659
1536.0,0.0023951593320816755
1664.0,0.0019223311683163047
1792.0,8.604757022112608e-05
1920.0,-0.0007185280555859208
2048.0,0.0007943374221213162
2304.0,0.0005483190179802477
2560.0,-0.0017598599661141634
2816.0,-0.0014624749310314655
3072.0,0.0009030571673065424
3328.0,0.002331168157979846
3584.0,0.0011253149714320898
3840.0,0.0026886442210525274
4096.0,-4.301126682548784e-05
4608.0,-0.0049635847099125385
5120.0,-0.001115251798182726
5632.0,0.004486791789531708
6144.0,0.0020155515521764755
6656.0,-0.004704839549958706
7168.0,0.0007053864537738264
7680.0,-0.00028576544718816876
8192.0,-0.005322499666363001
end
