version,3.0
numOfCh,1
type,point
parent_name,ff67b_0dot2-0dot01
ch_type,1_1
kcount,1
numberNandB,1
brightnessNandB,1
carpet pos,0
pc,0
Time (ms),CH1 Auto-Correlation
1.0,0.034906160086393356
2.0,0.03434588015079498
3.0,0.03379571810364723
4.0,0.0332508459687233
5.0,0.03272280469536781
6.0,0.03222024813294411
7.0,0.03173210099339485
8.0,0.0312480665743351
9.0,0.030765261501073837
10.0,0.030289040878415108
11.0,0.02982480823993683
12.0,0.029370415955781937
13.0,0.02891862392425537
14.0,0.02848612517118454
15.0,0.02806917577981949
16.0,0.027674738317728043
18.0,0.02691434882581234
20.0,0.026184502989053726
22.0,0.025477861985564232
24.0,0.02477835863828659
26.0,0.0241245049983263
28.0,0.02350558154284954
30.0,0.02291473001241684
32.0,0.02231103740632534
36.0,0.02122768573462963
40.0,0.020233023911714554
44.0,0.019282720983028412
48.0,0.01839403808116913
52.0,0.017546730116009712
56.0,0.016723740845918655
60.0,0.015973029658198357
64.0,0.015314407646656036
72.0,0.014371060766279697
80.0,0.013679063878953457
88.0,0.0128550473600626
96.0,0.01215323619544506
104.0,0.01143908966332674
112.0,0.010536218993365765
120.0,0.009764290414750576
128.0,0.009178251959383488
144.0,0.008586050942540169
160.0,0.007961183786392212
176.0,0.007887239567935467
192.0,0.007610798347741365
208.0,0.006922386586666107
224.0,0.006484310142695904
240.0,0.006137498654425144
256.0,0.005600787233561277
288.0,0.005199490115046501
320.0,0.004334078170359135
352.0,0.0026306454092264175
384.0,0.0011437147622928023
416.0,0.0007939553470350802
448.0,0.0001229827175848186
480.0,-0.0007437370950356126
512.0,-0.0010377703001722693
576.0,-0.0016223404090851545
640.0,-0.00027315187617205083
704.0,-0.0010353649267926812
768.0,-0.0037582479417324066
832.0,-0.004742355551570654
896.0,-0.0037224716506898403
960.0,-0.00310706440359354
1024.0,-0.0038883571978658438
1152.0,-0.0051425183191895485
1280.0,-0.003654858795925975
1408.0,-0.0022221351973712444
1536.0,-0.001256955903954804
1664.0,-0.0012404369190335274
1792.0,0.00037303808494471014
1920.0,0.002590995281934738
2048.0,0.003219346748664975
2304.0,0.0014756242744624615
2560.0,-1.0899975677602924e-05
2816.0,-0.0018883143784478307
3072.0,-0.003170172218233347
3328.0,-0.003492698073387146
3584.0,-0.0011496237711980939
3840.0,-0.001359777757897973
4096.0,-0.0045904312282800674
4608.0,0.0018922170856967568
5120.0,0.0003420845605432987
5632.0,-0.003146152477711439
6144.0,0.0022771575022488832
6656.0,0.004826033022254705
7168.0,-0.0017613404197618365
7680.0,-0.001281285542063415
8192.0,0.0024732686579227448
end
