version,3.0
numOfCh,1
type,point
parent_name,ff67b_0dot2-0dot01
ch_type,1_1
kcount,1
numberNandB,1
brightnessNandB,1
carpet pos,0
pc,0
Time (ms),CH1 Auto-Correlation
1.0,0.03937932476401329
2.0,0.038848504424095154
3.0,0.03835160657763481
4.0,0.03785637393593788
5.0,0.037379272282123566
6.0,0.03690801560878754
7.0,0.036458007991313934
8.0,0.036020420491695404
9.0,0.03559836000204086
10.0,0.03517908975481987
11.0,0.03477039560675621
12.0,0.0343598909676075
13.0,0.033970002084970474
14.0,0.03361254185438156
15.0,0.03327110409736633
16.0,0.032928772270679474
18.0,0.03229315206408501
20.0,0.031691957265138626
22.0,0.031119942665100098
24.0,0.030572324991226196
26.0,0.030045434832572937
28.0,0.029543034732341766
30.0,0.029063882306218147
32.0,0.028611328452825546
36.0,0.02786100283265114
40.0,0.02717738039791584
44.0,0.026518607512116432
48.0,0.025876130908727646
52.0,0.025315629318356514
56.0,0.024769222363829613
60.0,0.024233905598521233
64.0,0.02374979294836521
72.0,0.022652799263596535
80.0,0.021354394033551216
88.0,0.020251493901014328
96.0,0.019523071125149727
104.0,0.018987512215971947
112.0,0.018541676923632622
120.0,0.018199438229203224
128.0,0.01798635721206665
144.0,0.017821459099650383
160.0,0.017709743231534958
176.0,0.017395513132214546
192.0,0.017196359112858772
208.0,0.01658111996948719
224.0,0.01576169766485691
240.0,0.014592264778912067
256.0,0.013592170551419258
288.0,0.011635404080152512
320.0,0.010037594474852085
352.0,0.009354238398373127
384.0,0.008289385586977005
416.0,0.007700277492403984
448.0,0.00740743288770318
480.0,0.006768335122615099
512.0,0.00615096278488636
576.0,0.006153014022856951
640.0,0.005484515801072121
704.0,0.0043983785435557365
768.0,0.0034763196017593145
832.0,0.004263993352651596
896.0,0.003381244372576475
960.0,0.002384583465754986
1024.0,0.00265187188051641
1152.0,0.0024793653283268213
1280.0,0.002477235160768032
1408.0,0.0011482484405860305
1536.0,-0.002212945371866226
1664.0,-0.004724228288978338
1792.0,-0.004286013077944517
1920.0,-0.004583863541483879
2048.0,-0.004186184145510197
2304.0,-0.007258208002895117
2560.0,-0.007637464441359043
2816.0,-0.005550456698983908
3072.0,0.00020266558567527682
3328.0,0.003941680770367384
3584.0,0.0023853261955082417
3840.0,0.003693751757964492
4096.0,0.005483151413500309
4608.0,0.006690823007375002
5120.0,-0.00044402547064237297
5632.0,-0.0036287433467805386
6144.0,-0.005633151158690453
6656.0,-0.00449681980535388
7168.0,-0.0062329648062586784
7680.0,-0.0028728751931339502
8192.0,-0.01099367905408144
end
