version,3.0
numOfCh,1
type,point
parent_name,ff67b_0dot2-0dot01
ch_type,1_1
kcount,1
numberNandB,1
brightnessNandB,1
carpet pos,0
pc,0
Time (ms),CH1 Auto-Correlation
1.0,0.035338930785655975
2.0,0.03476783633232117
3.0,0.03421689197421074
4.0,0.03368929773569107
5.0,0.033186640590429306
6.0,0.0326853021979332
7.0,0.03219371661543846
8.0,0.031723521649837494
9.0,0.0312708280980587
10.0,0.030817590653896332
11.0,0.030382785946130753
12.0,0.029965821653604507
13.0,0.029565852135419846
14.0,0.02918137051165104
15.0,0.028820188716053963
16.0,0.028484312817454338
18.0,0.027844833210110664
20.0,0.027262816205620766
22.0,0.026706524193286896
24.0,0.02613908238708973
26.0,0.025541255250573158
28.0,0.024935608729720116
30.0,0.02436470054090023
32.0,0.023810533806681633
36.0,0.022746460512280464
40.0,0.021746553480625153
44.0,0.020807763561606407
48.0,0.019968099892139435
52.0,0.019212810322642326
56.0,0.018440738320350647
60.0,0.017670854926109314
64.0,0.016964521259069443
72.0,0.015569512732326984
80.0,0.01437127310782671
88.0,0.013221039436757565
96.0,0.012135380879044533
104.0,0.011107049882411957
112.0,0.010250518098473549
120.0,0.009617160074412823
128.0,0.00943483505398035
144.0,0.009172409772872925
160.0,0.008749104104936123
176.0,0.00830021407455206
192.0,0.008034653961658478
208.0,0.0072978283278644085
224.0,0.006459294352680445
240.0,0.005983429029583931
256.0,0.00573976244777441
288.0,0.005547832231968641
320.0,0.005082063376903534
352.0,0.004542159847915173
384.0,0.003983187954872847
416.0,0.003903480712324381
448.0,0.004509638994932175
480.0,0.00478693563491106
512.0,0.004149767104536295
576.0,0.001850872184149921
640.0,-0.0002753511071205139
704.0,7.807034853613004e-05
768.0,0.0008411210728809237
832.0,0.002120990538969636
896.0,0.0019398886943235993
960.0,0.001305005862377584
1024.0,0.0007650026818737388
1152.0,-0.0006833243533037603
1280.0,0.0009605730301700532
1408.0,0.0033985485788434744
1536.0,0.0015747901052236557
1664.0,-0.0002345688990317285
1792.0,-0.0021971308160573244
1920.0,-0.002394534181803465
2048.0,-0.0028731352649629116
2304.0,-5.01768990943674e-05
2560.0,-0.0013808412477374077
2816.0,0.0027005081064999104
3072.0,0.00314925005659461
3328.0,0.0035631346981972456
3584.0,0.00417577289044857
3840.0,0.0032398290932178497
4096.0,0.0018701282097026706
4608.0,0.00309162400662899
5120.0,-0.0007797105354256928
5632.0,-0.0012814798392355442
6144.0,0.0009429731289856136
6656.0,0.0006582352798432112
7168.0,-0.004087769892066717
7680.0,-0.0028671876061707735
8192.0,-0.003176250262185931
end
