version,3.0
numOfCh,1
type,point
parent_name,fe81d_3dot0-0dot01
ch_type,1_1
kcount,1
numberNandB,1
brightnessNandB,1
carpet pos,0
pc,0
Time (ms),CH1 Auto-Correlation
1.0,0.02753159962594509
2.0,0.022695228457450867
3.0,0.01929122768342495
4.0,0.016756940633058548
5.0,0.015032706782221794
6.0,0.013613070361316204
7.0,0.012367957271635532
8.0,0.01135537214577198
9.0,0.010523423552513123
10.0,0.009797463193535805
11.0,0.009311992675065994
12.0,0.008810626342892647
13.0,0.008179627358913422
14.0,0.007681937422603369
15.0,0.007408273871988058
16.0,0.006949014961719513
18.0,0.006269306410104036
20.0,0.005732779391109943
22.0,0.005622387398034334
24.0,0.005374136846512556
26.0,0.005072736646980047
28.0,0.004453918896615505
30.0,0.003991054370999336
32.0,0.003824982326477766
36.0,0.0033982351887971163
40.0,0.003155985614284873
44.0,0.0024940860457718372
48.0,0.0021428195759654045
52.0,0.0018164697103202343
56.0,0.0018171989358961582
60.0,0.0014920077519491315
64.0,0.0011981400894001126
72.0,0.000795988948084414
80.0,0.00031009558006189764
88.0,0.000689328764565289
96.0,0.000895970209967345
104.0,0.0005744817317463458
112.0,0.00024836568627506495
120.0,0.0002518139954190701
128.0,0.00013080651115160435
144.0,0.0006891577504575253
160.0,0.00018616211309563369
176.0,0.00021823006682097912
192.0,0.0005956809036433697
208.0,0.0007506421534344554
224.0,0.0004172359767835587
240.0,0.001014338806271553
256.0,0.00048505482845939696
288.0,0.000581249943934381
320.0,0.0005694147548638284
352.0,0.000382974132662639
384.0,0.0008258462767116725
416.0,-0.00022171386808622628
448.0,-0.0013252495555207133
480.0,-0.0006670730072073638
512.0,-4.15042359236395e-06
576.0,-0.0008256059372797608
640.0,5.482235792442225e-06
704.0,-6.822476734669181e-06
768.0,-0.00029063428519293666
832.0,-0.00046714802738279104
896.0,-0.0001273836096515879
960.0,-0.0008273992571048439
1024.0,0.0004477931943256408
1152.0,-0.0008986238390207291
1280.0,5.134895218361635e-06
1408.0,5.664234049618244e-05
1536.0,-0.00038768185186199844
1664.0,0.0006759271491318941
1792.0,-0.0003833627561107278
1920.0,0.00024012562062125653
2048.0,-9.96192975435406e-05
2304.0,-0.0005462223198264837
2560.0,-0.00016256343224085867
2816.0,-0.0005334672168828547
3072.0,-0.00023900716041680425
3328.0,-0.00027728648274205625
3584.0,5.550697824219242e-05
3840.0,0.00013872359704691917
4096.0,0.0002746722020674497
4608.0,-1.0202094017586205e-05
5120.0,9.121462790062651e-05
5632.0,-5.988324119243771e-06
6144.0,-4.8285244702128693e-05
6656.0,-3.938305235351436e-05
7168.0,0.00016195187345147133
7680.0,-2.8724301955662668e-05
8192.0,0.0004699370765592903
end
