version,3.0
numOfCh,1
type,point
parent_name,fe81d_3dot0-0dot01
ch_type,1_1
kcount,1
numberNandB,1
brightnessNandB,1
carpet pos,0
pc,0
Time (ms),CH1 Auto-Correlation
1.0,0.028158128261566162
2.0,0.023378731682896614
3.0,0.020076679065823555
4.0,0.017517102882266045
5.0,0.01583935134112835
6.0,0.01424822211265564
7.0,0.012848173268139362
8.0,0.011795468628406525
9.0,0.01107928715646267
10.0,0.010386536829173565
11.0,0.009710333310067654
12.0,0.008961567655205727
13.0,0.008522219024598598
14.0,0.008016705513000488
15.0,0.00759239261969924
16.0,0.007134604267776012
18.0,0.00638230424374342
20.0,0.005781188607215881
22.0,0.005371544975787401
24.0,0.0050688209012150764
26.0,0.0048957644030451775
28.0,0.004519379697740078
30.0,0.004169309511780739
32.0,0.0041067637503147125
36.0,0.0037045064382255077
40.0,0.0032626865431666374
44.0,0.0028627561405301094
48.0,0.003054838627576828
52.0,0.00332964607514441
56.0,0.0029954048804938793
60.0,0.00292094680480659
64.0,0.0033879359252750874
72.0,0.0022697600070387125
80.0,0.0018901738803833723
88.0,0.0016676157247275114
96.0,0.0017857588827610016
104.0,0.0020732409320771694
112.0,0.002460507908836007
120.0,0.00257608899846673
128.0,0.002403785940259695
144.0,0.0022797619458287954
160.0,0.0015636158641427755
176.0,0.0020537646487355232
192.0,0.0021214568987488747
208.0,0.00246581993997097
224.0,0.0014851648593321443
240.0,0.0011723453644663095
256.0,0.0012176228919997811
288.0,0.00048664334462955594
320.0,0.0010065017268061638
352.0,0.0007639315444976091
384.0,0.0006037288112565875
416.0,-5.519483966054395e-05
448.0,-0.0007694876403547823
480.0,-0.0008572228252887726
512.0,-0.0009151744889095426
576.0,-0.0008959660772234201
640.0,-0.0011703858617693186
704.0,-0.0010050832061097026
768.0,-0.0011027619475498796
832.0,-0.0015814366051927209
896.0,-0.0007296627736650407
960.0,-0.0004000836343038827
1024.0,-0.00016755466640461236
1152.0,0.0003103802737314254
1280.0,0.0007754103862680495
1408.0,0.0010070479474961758
1536.0,0.0006862233276478946
1664.0,6.658011261606589e-05
1792.0,-0.00031880842288956046
1920.0,-0.0003904186305589974
2048.0,-0.001740419422276318
2304.0,-0.0013983070384711027
2560.0,-0.000493164814542979
2816.0,0.00011321814963594079
3072.0,4.431717752595432e-05
3328.0,-0.0002762911026366055
3584.0,-0.00012666932889260352
3840.0,0.0005403556278906763
4096.0,0.0012027120683342218
4608.0,4.001296838396229e-05
5120.0,0.00038082560058683157
5632.0,0.0001642130227992311
6144.0,-0.0018464444437995553
6656.0,0.00035000022035092115
7168.0,-0.0007951087318360806
7680.0,-0.0007474626763723791
8192.0,0.0004600052197929472
end
