version,3.0
numOfCh,1
type,point
parent_name,fe81d_3dot0-0dot01
ch_type,1_1
kcount,1
numberNandB,1
brightnessNandB,1
carpet pos,0
pc,0
Time (ms),CH1 Auto-Correlation
1.0,0.028001613914966583
2.0,0.023681987076997757
3.0,0.02077081799507141
4.0,0.018645266070961952
5.0,0.017132768407464027
6.0,0.01579972356557846
7.0,0.014524651691317558
8.0,0.01354137435555458
9.0,0.012767598032951355
10.0,0.012122871354222298
11.0,0.011657495982944965
12.0,0.011157585307955742
13.0,0.010725191794335842
14.0,0.010543505661189556
15.0,0.010196088813245296
16.0,0.009732724167406559
18.0,0.009104451164603233
20.0,0.008784022182226181
22.0,0.008802073076367378
24.0,0.008229698054492474
26.0,0.007408049888908863
28.0,0.006824607960879803
30.0,0.006717165466398001
32.0,0.0067659951746463776
36.0,0.006511869374662638
40.0,0.005989113822579384
44.0,0.0054520508274436
48.0,0.004698639735579491
52.0,0.004461158066987991
56.0,0.004559051711112261
60.0,0.004528508987277746
64.0,0.004820635076612234
72.0,0.0051450966857373714
80.0,0.004694113042205572
88.0,0.0038005472160875797
96.0,0.003168413881212473
104.0,0.003031383967027068
112.0,0.0032011817675083876
120.0,0.002982528880238533
128.0,0.002901907777413726
144.0,0.003233435796573758
160.0,0.003930449485778809
176.0,0.0030334186740219593
192.0,0.0033621571492403746
208.0,0.0032079219818115234
224.0,0.002824273193255067
240.0,0.0026640365831553936
256.0,0.0021800431422889233
288.0,0.0014551283093169332
320.0,0.0010287532350048423
352.0,0.0003790257906075567
384.0,-0.00010148955334443599
416.0,0.0006917564896866679
448.0,-4.672731665777974e-05
480.0,0.0004038583720102906
512.0,0.000649818277452141
576.0,0.00021459210256580263
640.0,0.0001936295157065615
704.0,0.0007878629839979112
768.0,0.0007218176615424454
832.0,-0.0004360307357273996
896.0,0.00016345514450222254
960.0,8.038992382353172e-05
1024.0,-0.00035190049675293267
1152.0,0.0005840709782205522
1280.0,-0.000539453758392483
1408.0,2.1703957827412523e-05
1536.0,8.643928595120087e-05
1664.0,0.001256699557416141
1792.0,0.0029587745666503906
1920.0,0.002156723290681839
2048.0,0.002059509512037039
2304.0,0.0015034836251288652
2560.0,0.00013513962039723992
2816.0,-0.0011055999202653766
3072.0,-0.002637332770973444
3328.0,-0.0010806972859427333
3584.0,0.00013850413961336017
3840.0,0.00023356967722065747
4096.0,0.0007058068295009434
4608.0,-0.0004499576461967081
5120.0,-0.0025139194913208485
5632.0,-0.00279529788531363
6144.0,0.00012863644224125892
6656.0,-0.002649896079674363
7168.0,-0.00261902017518878
7680.0,-0.0032425893004983664
8192.0,0.0004588324809446931
end
