version,3.0
numOfCh,1
type,point
parent_name,fe81d_3dot0-0dot01
ch_type,1_1
kcount,1
numberNandB,1
brightnessNandB,1
carpet pos,0
pc,0
Time (ms),CH1 Auto-Correlation
1.0,0.02652285434305668
2.0,0.02171478234231472
3.0,0.01837850920855999
4.0,0.015803780406713486
5.0,0.01369586493819952
6.0,0.012059150263667107
7.0,0.010911342687904835
8.0,0.009896616451442242
9.0,0.009144406765699387
10.0,0.00868657324463129
11.0,0.008005755953490734
12.0,0.00761899771168828
13.0,0.007206459064036608
14.0,0.006748507265001535
15.0,0.006561105139553547
16.0,0.006374943070113659
18.0,0.005674568936228752
20.0,0.005159508902579546
22.0,0.005058708135038614
24.0,0.004822990857064724
26.0,0.004517823923379183
28.0,0.0040365783497691154
30.0,0.003561953315511346
32.0,0.0034917935263365507
36.0,0.00320446421392262
40.0,0.0031896738801151514
44.0,0.0032769348472356796
48.0,0.002840338507667184
52.0,0.002346289809793234
56.0,0.0017359295161440969
60.0,0.001408756012097001
64.0,0.0012584918877109885
72.0,0.0016112305456772447
80.0,0.0014400158543139696
88.0,0.0018227496184408665
96.0,0.0020657298155128956
104.0,0.002730968641117215
112.0,0.0022684456780552864
120.0,0.0014028477016836405
128.0,0.0014834176981821656
144.0,0.0010926482500508428
160.0,0.0009746287250891328
176.0,0.0007443166105076671
192.0,0.0006796182133257389
208.0,0.0004954941687174141
224.0,0.0007474613375961781
240.0,0.0016444952925667167
256.0,0.001960682449862361
288.0,0.0010543703101575375
320.0,0.00048293452709913254
352.0,0.0005211951211094856
384.0,0.0013882867060601711
416.0,0.0014238718431442976
448.0,0.001298811286687851
480.0,0.0007041513454169035
512.0,0.001073421211913228
576.0,0.00059699104167521
640.0,0.00012262436212040484
704.0,0.0007807991933077574
768.0,0.0004429087566677481
832.0,0.001363077899441123
896.0,0.0013103282544761896
960.0,0.0003511159447953105
1024.0,0.00045162520837038755
1152.0,0.0008440990350209177
1280.0,0.0007426236988976598
1408.0,0.0006153179565444589
1536.0,0.00029488824657164514
1664.0,0.0005256382282823324
1792.0,4.5778349885949865e-05
1920.0,-0.00019061339844483882
2048.0,0.00026363859069533646
2304.0,0.00040128789260052145
2560.0,-0.00024376971123274416
2816.0,-0.0004431373963598162
3072.0,-0.0008918846142478287
3328.0,-0.0008191041997633874
3584.0,-0.0008152790833264589
3840.0,-0.0012532558757811785
4096.0,-0.0009179338230751455
4608.0,-0.0011682661715894938
5120.0,-0.0003219646750949323
5632.0,-0.0002722597564570606
6144.0,-0.00017902224499266595
6656.0,0.0004926993860863149
7168.0,-0.00025730120250955224
7680.0,0.00017377988842781633
8192.0,-0.000556144630536437
end
