version,3.0
numOfCh,1
type,point
parent_name,fe81d_3dot0-0dot01
ch_type,1_1
kcount,1
numberNandB,1
brightnessNandB,1
carpet pos,0
pc,0
Time (ms),CH1 Auto-Correlation
1.0,0.028546003624796867
2.0,0.023908769711852074
3.0,0.020582295954227448
4.0,0.01796259917318821
5.0,0.01597168855369091
6.0,0.01444348692893982
7.0,0.013108446262776852
8.0,0.01198013499379158
9.0,0.011021509766578674
10.0,0.01012407522648573
11.0,0.009347699582576752
12.0,0.008665225468575954
13.0,0.00823244173079729
14.0,0.007639903109520674
15.0,0.00726742297410965
16.0,0.007011275738477707
18.0,0.006470624823123217
20.0,0.006206440273672342
22.0,0.006032611709088087
24.0,0.005946889519691467
26.0,0.0058799022808671
28.0,0.005803662817925215
30.0,0.005419258959591389
32.0,0.004622818436473608
36.0,0.004446843639016151
40.0,0.00412655109539628
44.0,0.004156335722655058
48.0,0.0039025212172418833
52.0,0.0037287501618266106
56.0,0.0039587728679180145
60.0,0.00423949072137475
64.0,0.003867922816425562
72.0,0.003516147844493389
80.0,0.0017570884665474296
88.0,0.0019443982746452093
96.0,0.002486634999513626
104.0,0.002263096859678626
112.0,0.0016906994860619307
120.0,0.0012219265336170793
128.0,0.0009010240901261568
144.0,-8.137418262776919e-06
160.0,0.0017315176082774997
176.0,0.00234737666323781
192.0,0.001775472774170339
208.0,0.002124944468960166
224.0,0.00202762708067894
240.0,0.001026226906105876
256.0,0.0020379475317895412
288.0,0.002426846418529749
320.0,0.0023257636930793524
352.0,0.001758596277795732
384.0,0.000924563268199563
416.0,0.0014187132474035025
448.0,0.0019295432139188051
480.0,0.001983894035220146
512.0,0.0023834328167140484
576.0,0.0012121828040108085
640.0,0.001041870447807014
704.0,0.0007268971530720592
768.0,0.001012590597383678
832.0,0.0008838585345074534
896.0,0.00036628509406000376
960.0,0.00039968715282157063
1024.0,0.0003392886428628117
1152.0,0.0006548692472279072
1280.0,0.0005769110866822302
1408.0,-0.0006577929598279297
1536.0,-0.0008354280143976212
1664.0,-0.0006734314374625683
1792.0,-0.001026818179525435
1920.0,-0.0013912430731579661
2048.0,-0.001330633764155209
2304.0,-0.0010697506368160248
2560.0,-0.0007191585609689355
2816.0,-0.0002904562861658633
3072.0,-0.00023508041340392083
3328.0,-0.0002476888766977936
3584.0,-0.000671523273922503
3840.0,-0.00011988890037173405
4096.0,-0.00035836087772622705
4608.0,-0.001107294112443924
5120.0,-0.0015143045457080007
5632.0,-0.00024613787536509335
6144.0,-5.4889649618417025e-05
6656.0,0.0004979349323548377
7168.0,0.0007870763074606657
7680.0,6.885467882966623e-05
8192.0,0.00029538240050897
end
