version,3.0
numOfCh,1
type,point
parent_name,fe81d_3dot0-0dot01
ch_type,1_1
kcount,1
numberNandB,1
brightnessNandB,1
carpet pos,0
pc,0
Time (ms),CH1 Auto-Correlation
1.0,0.026683006435632706
2.0,0.022007960826158524
3.0,0.018743077293038368
4.0,0.01638816110789776
5.0,0.014527588151395321
6.0,0.012917546555399895
7.0,0.01142872404307127
8.0,0.01027106586843729
9.0,0.009331508539617062
10.0,0.008669206872582436
11.0,0.008109905757009983
12.0,0.007590094115585089
13.0,0.006999810691922903
14.0,0.006453054957091808
15.0,0.006144538521766663
16.0,0.005785233806818724
18.0,0.005054090637713671
20.0,0.004827666562050581
22.0,0.0046116020530462265
24.0,0.004175986163318157
26.0,0.0033143418841063976
28.0,0.002716592513024807
30.0,0.0024863274302333593
32.0,0.0024254710879176855
36.0,0.001960745081305504
40.0,0.0019210532773286104
44.0,0.0017928736051544547
48.0,0.0017202558228746057
52.0,0.0017155945533886552
56.0,0.001624595490284264
60.0,0.0012989294482395053
64.0,0.001278726733289659
72.0,0.0012421836145222187
80.0,0.000678228447213769
88.0,0.0003878630232065916
96.0,-0.00020701598259620368
104.0,-0.000875640194863081
112.0,-0.000722818193025887
120.0,-0.00054278748575598
128.0,-6.0172329540364444e-05
144.0,-1.4192244179866975e-06
160.0,5.7172957895090804e-05
176.0,-0.0007413841085508466
192.0,0.000298411789117381
208.0,0.0007679975242353976
224.0,0.0006198594928719103
240.0,-0.0003491936076898128
256.0,-0.0007647507009096444
288.0,-0.0012960394378751516
320.0,-0.0013937681214883924
352.0,-0.0011073423083871603
384.0,-0.0006541945622302592
416.0,-0.00017090899928007275
448.0,0.00038307401700876653
480.0,8.811464795144275e-05
512.0,-0.000359559926437214
576.0,-0.0004859195032622665
640.0,7.114803156582639e-05
704.0,-0.0006696057389490306
768.0,-0.0006307718576863408
832.0,-0.00035148748429492116
896.0,0.00024045599275268614
960.0,0.00023663441243115813
1024.0,0.00029093658667989075
1152.0,0.0003180202911607921
1280.0,0.0007369545637629926
1408.0,6.50008805678226e-05
1536.0,-0.0003424639580771327
1664.0,-0.000293830584269017
1792.0,-0.00034553109435364604
1920.0,-0.0004324916808400303
2048.0,-0.00025566245312802494
2304.0,4.70923396278522e-07
2560.0,0.00040180925861932337
2816.0,-0.00016893600695766509
3072.0,-8.556679676985368e-05
3328.0,-0.0004335159610491246
3584.0,0.0003680270165205002
3840.0,0.0002426259743515402
4096.0,-0.000889645132701844
4608.0,0.0004006829403806478
5120.0,3.054874105146155e-05
5632.0,-0.0003016864357050508
6144.0,0.0005402379902079701
6656.0,-0.0006108457455411553
7168.0,0.00010002312046708539
7680.0,0.0002046611625701189
8192.0,9.2613190645352e-06
end
