version,3.0
numOfCh,1
type,point
parent_name,fe81d_3dot0-0dot01
ch_type,1_1
kcount,1
numberNandB,1
brightnessNandB,1
carpet pos,0
pc,0
Time (ms),CH1 Auto-Correlation
1.0,0.029535654932260513
2.0,0.0247381292283535
3.0,0.02125842124223709
4.0,0.01857161708176136
5.0,0.016492145135998726
6.0,0.014660486951470375
7.0,0.013282623142004013
8.0,0.012215432710945606
9.0,0.01136135496199131
10.0,0.010679530911147594
11.0,0.010165181942284107
12.0,0.009531942196190357
13.0,0.009084533900022507
14.0,0.008548162877559662
15.0,0.008158315904438496
16.0,0.007847658358514309
18.0,0.007266852539032698
20.0,0.006631446070969105
22.0,0.006183871533721685
24.0,0.00569648202508688
26.0,0.005228777416050434
28.0,0.004800925962626934
30.0,0.0045251306146383286
32.0,0.004703904967755079
36.0,0.004562582354992628
40.0,0.0037677553482353687
44.0,0.0032819914631545544
48.0,0.003000657306984067
52.0,0.0029694270342588425
56.0,0.002780760172754526
60.0,0.0028253982309252024
64.0,0.002536996267735958
72.0,0.002610245253890753
80.0,0.0029815102461725473
88.0,0.002707018982619047
96.0,0.003050976898521185
104.0,0.001941255060955882
112.0,0.0011592315277084708
120.0,0.0009069190127775073
128.0,0.0011405909899622202
144.0,0.0014336094027385116
160.0,0.0009692016756162047
176.0,0.0005166244809515774
192.0,-0.0002281273773405701
208.0,-0.0001043147494783625
224.0,0.0005746455281041563
240.0,0.0007419715402647853
256.0,0.0007109931320883334
288.0,0.0007521221996285021
320.0,0.0007115596672520041
352.0,0.0011839440558105707
384.0,0.0006907771457917988
416.0,0.0005676751607097685
448.0,7.044136145850644e-05
480.0,-0.00030239782063290477
512.0,8.500893454765901e-05
576.0,0.0005774797755293548
640.0,-0.0002038624370470643
704.0,0.0004668726760428399
768.0,0.0005067138117738068
832.0,0.00022858903685119003
896.0,0.0007215024088509381
960.0,0.0007002512575127184
1024.0,-0.00030846483423374593
1152.0,1.5814122889423743e-05
1280.0,-0.0004307190829422325
1408.0,-0.00016209356545004994
1536.0,0.0015686096157878637
1664.0,0.0014480052050203085
1792.0,0.00037612603046000004
1920.0,0.0008997860131785274
2048.0,0.0007048834813758731
2304.0,-0.0001358846784569323
2560.0,-0.00045475276419892907
2816.0,-0.00031528095132671297
3072.0,-0.0007997733191587031
3328.0,0.0005864572594873607
3584.0,-0.0004435334412846714
3840.0,0.00028535895398817956
4096.0,-0.0014039194211363792
4608.0,-0.0007476955652236938
5120.0,-0.0005025748396292329
5632.0,-0.0009056007256731391
6144.0,-0.001073525520041585
6656.0,-0.000914542586542666
7168.0,-0.0008903685375116765
7680.0,-0.00010454637958901003
8192.0,0.0002965423627756536
end
