version,3.0
numOfCh,1
type,point
parent_name,fe81d_3dot0-0dot01
ch_type,1_1
kcount,1
numberNandB,1
brightnessNandB,1
carpet pos,0
pc,0
Time (ms),CH1 Auto-Correlation
1.0,0.033116571605205536
2.0,0.02923806570470333
3.0,0.02643396519124508
4.0,0.024242430925369263
5.0,0.02258264645934105
6.0,0.021189741790294647
7.0,0.02025711163878441
8.0,0.019379522651433945
9.0,0.0183116402477026
10.0,0.017597686499357224
11.0,0.01682894676923752
12.0,0.01609696075320244
13.0,0.015617754310369492
14.0,0.014752651564776897
15.0,0.014059098437428474
16.0,0.013382413424551487
18.0,0.012533600442111492
20.0,0.011848218739032745
22.0,0.011341446079313755
24.0,0.011020076461136341
26.0,0.011093922890722752
28.0,0.01086548250168562
30.0,0.010612336918711662
32.0,0.010470646433532238
36.0,0.010216299444437027
40.0,0.009534590877592564
44.0,0.008777736686170101
48.0,0.007899176329374313
52.0,0.006592942867428064
56.0,0.005875098053365946
60.0,0.004751158412545919
64.0,0.004831892438232899
72.0,0.005757957696914673
80.0,0.00663628987967968
88.0,0.007359046954661608
96.0,0.006248242221772671
104.0,0.004558568820357323
112.0,0.004181189462542534
120.0,0.005060817580670118
128.0,0.00539648300036788
144.0,0.004584778565913439
160.0,0.003882218385115266
176.0,0.003730993252247572
192.0,0.003790604881942272
208.0,0.004820260684937239
224.0,0.006003082729876041
240.0,0.005285065621137619
256.0,0.005342722404748201
288.0,0.005172943230718374
320.0,0.004799994640052319
352.0,0.0028056493028998375
384.0,0.003508069319650531
416.0,0.0019529697019606829
448.0,0.002098415745422244
480.0,0.0013842313783243299
512.0,0.0008321614586748183
576.0,-0.0017569647170603275
640.0,-0.00012951140524819493
704.0,0.000650548841804266
768.0,-0.00031237737857736647
832.0,-0.0011935883667320013
896.0,-0.0018373181810602546
960.0,-0.0016488006804138422
1024.0,-0.0023507033474743366
1152.0,-0.0032478971406817436
1280.0,-0.0023739608004689217
1408.0,-0.00229125889018178
1536.0,-0.0025267652235925198
1664.0,-0.002031157026067376
1792.0,-0.0037465221248567104
1920.0,-0.0008422762621194124
2048.0,-0.002210399601608515
2304.0,0.002054384909570217
2560.0,0.00310536683537066
2816.0,0.0016639172099530697
3072.0,-0.0003004063037224114
3328.0,-0.0050996942445635796
3584.0,-0.0055690654553473
3840.0,-0.00048668350791558623
4096.0,0.0007968356367200613
end
