version,3.0
numOfCh,1
type,point
parent_name,fe81d_3dot0-0dot01
ch_type,1_1
kcount,1
numberNandB,1
brightnessNandB,1
carpet pos,0
pc,0
Time (ms),CH1 Auto-Correlation
1.0,0.040205370634794235
2.0,0.03611696884036064
3.0,0.03292490914463997
4.0,0.03065056912600994
5.0,0.028981223702430725
6.0,0.027641132473945618
7.0,0.02641965262591839
8.0,0.0254427008330822
9.0,0.024686383083462715
10.0,0.023866787552833557
11.0,0.023130053654313087
12.0,0.022396840155124664
13.0,0.021848201751708984
14.0,0.02116984687745571
15.0,0.020512739196419716
16.0,0.01988946832716465
18.0,0.019006509333848953
20.0,0.018703637644648552
22.0,0.01838449202477932
24.0,0.018026448786258698
26.0,0.017139151692390442
28.0,0.016448436304926872
30.0,0.015895677730441093
32.0,0.015562353655695915
36.0,0.014950129203498363
40.0,0.01407469529658556
44.0,0.01361787412315607
48.0,0.013195718638598919
52.0,0.012639026157557964
56.0,0.012430468574166298
60.0,0.012382611632347107
64.0,0.011915016919374466
72.0,0.01071241870522499
80.0,0.010549923405051231
88.0,0.011232869699597359
96.0,0.011541884392499924
104.0,0.011055577546358109
112.0,0.011470618657767773
120.0,0.011287682689726353
128.0,0.010332471691071987
144.0,0.008388226851820946
160.0,0.008165874518454075
176.0,0.007384754251688719
192.0,0.007475118152797222
208.0,0.007678855676203966
224.0,0.007791948039084673
240.0,0.007569924928247929
256.0,0.007498863618820906
288.0,0.008028523065149784
320.0,0.006681245286017656
352.0,0.004421193152666092
384.0,0.002906749490648508
416.0,0.0019067799439653754
448.0,0.0015753332991153002
480.0,-0.0009092947002500296
512.0,-0.0019485895754769444
576.0,-0.001449122093617916
640.0,-0.0032679522410035133
704.0,-0.003181959269568324
768.0,-0.0029456568881869316
832.0,-0.00211464730091393
896.0,-0.002613960998132825
960.0,-0.0023163752630352974
1024.0,-0.0016297921538352966
1152.0,-6.612725701415911e-05
1280.0,0.0001827103114919737
1408.0,0.0005192774115130305
1536.0,0.0027370513416826725
1664.0,0.0016397451981902122
1792.0,0.0017829183489084244
1920.0,0.0006150203407742083
2048.0,-0.0019914836157113314
2304.0,-0.0023193045053631067
2560.0,-0.00357795343734324
2816.0,-0.005588328465819359
3072.0,-0.0033071378711611032
3328.0,0.0002320185158168897
3584.0,0.0020423727110028267
3840.0,0.00408669700846076
4096.0,0.004132912494242191
4608.0,-0.0015664891107007861
5120.0,0.0002335455792490393
5632.0,0.00018638480105437338
6144.0,-0.0033536420669406652
6656.0,-0.007213817443698645
7168.0,-0.0068092914298176765
end
