version,3.0
numOfCh,1
type,point
parent_name,fe81d_3dot0-0dot01
ch_type,1_1
kcount,1
numberNandB,1
brightnessNandB,1
carpet pos,0
pc,0
Time (ms),CH1 Auto-Correlation
1.0,0.027030229568481445
2.0,0.022230645641684532
3.0,0.018858332186937332
4.0,0.016283035278320312
5.0,0.014319139532744884
6.0,0.012779311276972294
7.0,0.011512890458106995
8.0,0.010455682873725891
9.0,0.009559604339301586
10.0,0.00876217894256115
11.0,0.008100271224975586
12.0,0.007476809900254011
13.0,0.006859918590635061
14.0,0.006325475871562958
15.0,0.005854176357388496
16.0,0.005523931700736284
18.0,0.004867066629230976
20.0,0.004540535621345043
22.0,0.004372157622128725
24.0,0.004055914469063282
26.0,0.003836709540337324
28.0,0.003486755071207881
30.0,0.003194569144397974
32.0,0.0030889364425092936
36.0,0.002877370221540332
40.0,0.002547734882682562
44.0,0.0022059897892177105
48.0,0.00178989814594388
52.0,0.001012378721497953
56.0,0.00035110118915326893
60.0,0.0002917892998084426
64.0,-9.455894905840978e-05
72.0,-0.00043389754137024283
80.0,-0.0005693795974366367
88.0,-0.0005360273062251508
96.0,-0.0006202131044119596
104.0,-0.00038120400859043
112.0,-0.0002572433731984347
120.0,-0.00023478431103285402
128.0,0.0005480878753587604
144.0,0.0003900838491972536
160.0,0.0003871629305649549
176.0,0.00043245803681202233
192.0,0.0005932548083364964
208.0,-0.00016740671708248556
224.0,-0.00020565952581819147
240.0,-0.0004843955102842301
256.0,-0.0007374528213404119
288.0,-0.000685113831423223
320.0,-0.0005906750448048115
352.0,-0.00015665606770198792
384.0,-0.0005000311066396534
416.0,-1.6378166037611663e-05
448.0,0.0006669929134659469
480.0,0.0011079484829679132
512.0,0.0011570433853194118
576.0,-4.014189869394613e-08
640.0,0.0007973472820594907
704.0,0.0006057308055460453
768.0,-0.0003959604655392468
832.0,2.7817048248834908e-05
896.0,-4.939617429045029e-05
960.0,-0.0007213485077954829
1024.0,0.0005947616882622242
1152.0,6.915802805451676e-05
1280.0,-0.00046770492917858064
1408.0,-0.00015681715740356594
1536.0,-0.000622306193690747
1664.0,-0.0007280281279236078
1792.0,-0.00012021607835777104
1920.0,0.0001622244599275291
2048.0,4.90094862470869e-05
2304.0,-0.0003737557271961123
2560.0,0.00016755964315962046
2816.0,0.0005996184190735221
3072.0,0.00014602790179196745
3328.0,0.00021732543245889246
3584.0,9.549428796162829e-05
3840.0,0.00040709925815463066
4096.0,-0.00047826755326241255
4608.0,-0.00026209131465293467
5120.0,-4.1534207412041724e-05
5632.0,-0.00025297258980572224
6144.0,-0.00012034137034788728
6656.0,-0.00017991838103625923
7168.0,-1.469360722694546e-05
7680.0,-3.998793545179069e-05
8192.0,0.0006254783947952092
end
