version,3.0
numOfCh,1
type,point
parent_name,fe81d_3dot0-0dot01
ch_type,1_1
kcount,1
numberNandB,1
brightnessNandB,1
carpet pos,0
pc,0
Time (ms),CH1 Auto-Correlation
1.0,0.025425659492611885
2.0,0.020586146041750908
3.0,0.01727946475148201
4.0,0.014723708853125572
5.0,0.012794874608516693
6.0,0.011373636312782764
7.0,0.0103836664929986
8.0,0.009644553065299988
9.0,0.008755902759730816
10.0,0.007919823750853539
11.0,0.007170400582253933
12.0,0.006607980467379093
13.0,0.006063035223633051
14.0,0.005647690966725349
15.0,0.00507978443056345
16.0,0.004702621139585972
18.0,0.004067592788487673
20.0,0.0037155484315007925
22.0,0.003671342274174094
24.0,0.003751372219994664
26.0,0.0033788762520998716
28.0,0.002876095939427614
30.0,0.002556439256295562
32.0,0.002248337958008051
36.0,0.0016620310489088297
40.0,0.00119553052354604
44.0,0.001345452736131847
48.0,0.0011778140906244516
52.0,0.0008730558911338449
56.0,0.0008102458086796105
60.0,0.00028793662204407156
64.0,-0.0004181881377007812
72.0,0.0003359115798957646
80.0,0.0004428470565471798
88.0,5.645858254865743e-05
96.0,-0.0002914954675361514
104.0,-0.0005642680334858596
112.0,-0.0007188022718764842
120.0,-0.00012834492372348905
128.0,0.0002452364133205265
144.0,0.0003549246466718614
160.0,-0.000355139171006158
176.0,-0.0006009204662404954
192.0,-0.0007741604931652546
208.0,-0.0007339356816373765
224.0,-0.0005378201603889465
240.0,-3.733371340786107e-05
256.0,0.000579908664803952
288.0,0.0008493546629324555
320.0,0.0008816075860522687
352.0,0.0011302190832793713
384.0,0.00031042221235111356
416.0,-0.0003589641710277647
448.0,-0.0002877326915040612
480.0,-0.0006922478205524385
512.0,-0.00038597913226112723
576.0,0.00014472145994659513
640.0,0.00024421035777777433
704.0,-0.00046239810762926936
768.0,5.450297521747416e-06
832.0,-0.0004894017474725842
896.0,1.8245944374939427e-05
960.0,0.00029225824982859194
1024.0,6.052677235857118e-06
1152.0,-0.0003561710473150015
1280.0,0.00014474552881438285
1408.0,-0.0003305441641714424
1536.0,-0.00014562284923158586
1664.0,-9.116630826611072e-05
1792.0,-0.0003787720634136349
1920.0,-0.0005350309074856341
2048.0,0.00010186673171119764
2304.0,5.719472255805158e-07
2560.0,0.00019378548313397914
2816.0,3.936297434847802e-05
3072.0,8.765884558670223e-05
3328.0,0.00015572129632346332
3584.0,-0.00010930943244602531
3840.0,2.8888873202959076e-05
4096.0,9.168945689452812e-05
4608.0,-0.00011356637696735561
5120.0,-0.000165386067237705
5632.0,-9.689742000773549e-05
6144.0,-0.00010677859972929582
6656.0,0.00024020021373871714
7168.0,-0.0002470140752848238
7680.0,-6.761121767340228e-05
8192.0,5.0511873268987983e-05
end
