version,3.0
numOfCh,1
type,point
parent_name,fe81d_3dot0-0dot01
ch_type,1_1
kcount,1
numberNandB,1
brightnessNandB,1
carpet pos,0
pc,0
Time (ms),CH1 Auto-Correlation
1.0,0.03570760041475296
2.0,0.030765080824494362
3.0,0.027118120342493057
4.0,0.02445393055677414
5.0,0.02220647595822811
6.0,0.020536618307232857
7.0,0.01921483501791954
8.0,0.018103687092661858
9.0,0.017390931025147438
10.0,0.016657300293445587
11.0,0.016133064404129982
12.0,0.015377424657344818
13.0,0.014767404645681381
14.0,0.014303730800747871
15.0,0.013779964298009872
16.0,0.013282783329486847
18.0,0.01233721524477005
20.0,0.01154356449842453
22.0,0.01094354223459959
24.0,0.010227276012301445
26.0,0.009463013149797916
28.0,0.008639129810035229
30.0,0.007532927673310041
32.0,0.006447923835366964
36.0,0.004417491145431995
40.0,0.0041443957015872
44.0,0.0034023537300527096
48.0,0.003299321513622999
52.0,0.0030119498260319233
56.0,0.0025767344050109386
60.0,0.001722675864584744
64.0,0.0009861424332484603
72.0,0.0008693851996213198
80.0,3.670359728857875e-05
88.0,-0.0003855171671602875
96.0,-0.0009485846967436373
104.0,-0.0015111502725630999
112.0,-0.0019480951596051455
120.0,-0.0020178197883069515
128.0,-0.002026051515713334
144.0,-0.0013706545578315854
160.0,-0.0010224396828562021
176.0,-0.0004227652389090508
192.0,0.0009092070977203548
208.0,0.001528506283648312
224.0,0.0018768612062558532
240.0,0.0006014949176460505
256.0,0.0007539538200944662
288.0,-0.0005824475665576756
320.0,0.0002149707288481295
352.0,-0.0007344325422309339
384.0,0.0011089984327554703
416.0,0.0006169009720906615
448.0,-0.00012475768744479865
480.0,-3.6833212107012514e-06
512.0,-0.0007379124872386456
576.0,-0.0005898589733988047
640.0,0.0012419649865478277
704.0,-0.0008237151778303087
768.0,-0.0013649348402395844
832.0,0.0008343434892594814
896.0,-0.0001731838856358081
960.0,-0.0015629183035343885
1024.0,-0.00044070096919313073
1152.0,0.0005843464750796556
1280.0,0.00031452294206246734
1408.0,-0.00012546400830615312
1536.0,-0.000652757182251662
1664.0,0.0002589983632788062
1792.0,0.00012502464232966304
1920.0,0.00048615524428896606
2048.0,-0.00022698388784192502
2304.0,1.9945407530030934e-06
2560.0,0.0001596103684278205
2816.0,-0.0009435265092179179
3072.0,0.0007216781377792358
3328.0,-0.0006802072748541832
3584.0,0.00029119692044332623
3840.0,0.0005029911990277469
4096.0,0.00015743065159767866
4608.0,-6.408595072571188e-05
5120.0,3.9916601963341236e-05
5632.0,-0.0004916741163469851
6144.0,0.0004452137800399214
6656.0,-0.00019092095317319036
7168.0,-0.000871929049026221
7680.0,-5.041139593231492e-05
8192.0,0.00015040299331303686
end
