version,3.0
numOfCh,1
type,point
parent_name,fe81d_3dot0-0dot01
ch_type,1_1
kcount,1
numberNandB,1
brightnessNandB,1
carpet pos,0
pc,0
Time (ms),CH1 Auto-Correlation
1.0,0.025232907384634018
2.0,0.02039382979273796
3.0,0.017100153490900993
4.0,0.014525644481182098
5.0,0.012769785709679127
6.0,0.011313952505588531
7.0,0.010155740194022655
8.0,0.009172549471259117
9.0,0.008250822313129902
10.0,0.007550304289907217
11.0,0.0071061099879443645
12.0,0.006818214897066355
13.0,0.006657904013991356
14.0,0.00644674664363265
15.0,0.006037800572812557
16.0,0.00562638696283102
18.0,0.00496459286659956
20.0,0.00415817741304636
22.0,0.003412487218156457
24.0,0.0031912026461213827
26.0,0.003020418109372258
28.0,0.0030375926289707422
30.0,0.0030916710384190083
32.0,0.0027099635917693377
36.0,0.002111929701641202
40.0,0.0019610521849244833
44.0,0.0018141295295208693
48.0,0.0014595765387639403
52.0,0.0011790560092777014
56.0,0.0009492245153523982
60.0,0.0007281416328623891
64.0,0.0005421777605079114
72.0,0.0004087168781552464
80.0,0.00047865023952908814
88.0,0.0006909008952789009
96.0,0.0002878792874980718
104.0,0.000930210342630744
112.0,0.0006572636775672436
120.0,0.0006863379967398942
128.0,0.0007635261281393468
144.0,0.00011754611477954313
160.0,-0.0003392448998056352
176.0,-0.0007267395267263055
192.0,-0.0015450897626578808
208.0,-0.000891727046109736
224.0,-0.0003296402283012867
240.0,-0.00016925742966122925
256.0,-8.566521137254313e-05
288.0,-5.01409886055626e-05
320.0,0.0005354650784283876
352.0,0.0002590390504337847
384.0,0.0006477886927314103
416.0,0.0004277272673789412
448.0,-4.851262929150835e-05
480.0,-0.0005437477375380695
512.0,0.0002032674237852916
576.0,-0.0008981644641608
640.0,-0.0001458924525650218
704.0,0.000424742407631129
768.0,-0.0004831623227801174
832.0,0.0001369548699585721
896.0,-0.0004970763111487031
960.0,-0.0006034704856574535
1024.0,-0.0002639524172991514
1152.0,-3.998549436801113e-05
1280.0,-0.0004930169088765979
1408.0,-0.0009275426273234189
1536.0,0.00016129401046782732
1664.0,0.00022854111739434302
1792.0,-0.0005887383595108986
1920.0,0.00033929123310372233
2048.0,-0.00022828760847914964
2304.0,0.0003643871459644288
2560.0,0.00016147321730386466
2816.0,0.00021237363398540765
3072.0,-0.0002693000715225935
3328.0,-0.0001025095334625803
3584.0,9.985503129428253e-05
3840.0,-7.615521462867036e-05
4096.0,-2.147447594325058e-05
4608.0,-0.00012559961760416627
5120.0,-0.00010944125097012147
5632.0,-0.00012405008601490408
6144.0,0.00024409852630924433
6656.0,0.00016048656834755093
7168.0,-2.7314921680954285e-05
7680.0,-0.00029404470114968717
8192.0,-0.0002593078534118831
end
