version,3.0
numOfCh,1
type,point
parent_name,fe81d_3dot0-0dot01
ch_type,1_1
kcount,1
numberNandB,1
brightnessNandB,1
carpet pos,0
pc,0
Time (ms),CH1 Auto-Correlation
1.0,0.026625746861100197
2.0,0.02174307405948639
3.0,0.018471259623765945
4.0,0.016140572726726532
5.0,0.0142788952216506
6.0,0.013060664758086205
7.0,0.011932087130844593
8.0,0.010980353690683842
9.0,0.010194912552833557
10.0,0.009608409367501736
11.0,0.009129860438406467
12.0,0.008615090511739254
13.0,0.008380570448935032
14.0,0.008023537695407867
15.0,0.007689516060054302
16.0,0.0072067417204380035
18.0,0.006332274526357651
20.0,0.005378039088100195
22.0,0.0047898972406983376
24.0,0.004240133333951235
26.0,0.0037761565763503313
28.0,0.003176547819748521
30.0,0.002822732552886009
32.0,0.0023950368631631136
36.0,0.0020735913421958685
40.0,0.002420001197606325
44.0,0.0024116490967571735
48.0,0.002310160780325532
52.0,0.0019712497014552355
56.0,0.0019940705969929695
60.0,0.001968956785276532
64.0,0.0017784832743927836
72.0,0.0011070000473409891
80.0,0.001023569842800498
88.0,0.0006679438520222902
96.0,0.0011808333219960332
104.0,0.0006491035455837846
112.0,0.0007890074630267918
120.0,0.0013068730477243662
128.0,0.0008301533525809646
144.0,0.000766764220315963
160.0,0.0005035881767980754
176.0,0.0006557476008310914
192.0,0.0012664938112720847
208.0,0.0022333425004035234
224.0,0.0012586087686941028
240.0,0.0005291627603583038
256.0,0.0002074387011816725
288.0,0.00042653878335841
320.0,-0.00017547672905493528
352.0,0.00032590629416517913
384.0,0.00047942230594344437
416.0,-0.00031039732857607305
448.0,1.4454402844421566e-05
480.0,-0.0005595380789600313
512.0,0.0004293406382203102
576.0,-0.00016893140855245292
640.0,-0.00011576895485632122
704.0,-0.0006522296462208033
768.0,-0.0011153115192428231
832.0,-0.0006661410443484783
896.0,-0.0007474498124793172
960.0,-0.001566719845868647
1024.0,-0.0006492040702141821
1152.0,-0.0005328130791895092
1280.0,-0.00013908572145737708
1408.0,-0.00010358964937040582
1536.0,-0.00039656637818552554
1664.0,0.0001421956403646618
1792.0,5.498060636455193e-05
1920.0,-0.0002706332306843251
2048.0,9.944275370799005e-05
2304.0,0.00017171874060295522
2560.0,-0.00041379613685421646
2816.0,-2.2643729607807472e-05
3072.0,-0.0005109280464239419
3328.0,0.0005447119474411011
3584.0,-4.5028922613710165e-05
3840.0,0.0007161606336012483
4096.0,-9.501011663815007e-05
4608.0,-0.00019765352772083133
5120.0,0.00021233259758446366
5632.0,0.00010579325316939503
6144.0,0.000693014357239008
6656.0,-0.00030551684903912246
7168.0,-0.0012397797545418143
7680.0,-0.000498028879519552
8192.0,0.0007313722162507474
end
