version,3.0
numOfCh,1
type,point
parent_name,fe81d_3dot0-0dot01
ch_type,1_1
kcount,1
numberNandB,1
brightnessNandB,1
carpet pos,0
pc,0
Time (ms),CH1 Auto-Correlation
1.0,0.03212471678853035
2.0,0.027550991624593735
3.0,0.02413107268512249
4.0,0.021497370675206184
5.0,0.01954640820622444
6.0,0.017882488667964935
7.0,0.01647321507334709
8.0,0.015277788043022156
9.0,0.014305190183222294
10.0,0.01337920781224966
11.0,0.012642367742955685
12.0,0.012006127275526524
13.0,0.011389479972422123
14.0,0.010959320701658726
15.0,0.010496355593204498
16.0,0.010071172378957272
18.0,0.008894375525414944
20.0,0.007986854761838913
22.0,0.007272977847605944
24.0,0.006623073946684599
26.0,0.005875582341104746
28.0,0.0054162777960300446
30.0,0.005088093224912882
32.0,0.0046381596475839615
36.0,0.003765418427065015
40.0,0.003475077450275421
44.0,0.002952587092295289
48.0,0.00290115037932992
52.0,0.0033589487429708242
56.0,0.003584820544347167
60.0,0.003234156873077154
64.0,0.0027230223640799522
72.0,0.0023388094268739223
80.0,0.001794497948139906
88.0,0.0017238460713997483
96.0,0.001630024635232985
104.0,0.001196604105643928
112.0,0.000367213535355404
120.0,0.00034740561386570334
128.0,0.0005877378862351179
144.0,0.0011508932802826166
160.0,0.0007648425525985658
176.0,0.0004935766337439418
192.0,0.0015124398050829768
208.0,0.001410575699992478
224.0,0.0016754394164308906
240.0,0.0014986946480348706
256.0,0.0012272611493244767
288.0,0.000981491757556796
320.0,0.0004899831837974489
352.0,0.0003400020650587976
384.0,8.001775131560862e-05
416.0,0.0004373392730485648
448.0,-0.0005174127873033285
480.0,-0.00016963784582912922
512.0,0.0021037114784121513
576.0,0.0013492514844983816
640.0,0.0012857432011514902
704.0,0.0009485011687502265
768.0,0.00041398286703042686
832.0,-0.00028254848439246416
896.0,-0.0009716982604004443
960.0,-0.0009404267184436321
1024.0,-0.0007562587852589786
1152.0,0.00011876119970111176
1280.0,0.0006610070122405887
1408.0,0.0007453522412106395
1536.0,-0.0008314588922075927
1664.0,-0.0011929442407563329
1792.0,0.0007602099212817848
1920.0,0.0004588756419252604
2048.0,0.0002831942983902991
2304.0,-0.00013774176477454603
2560.0,0.00015573228301946074
2816.0,0.0006481516174972057
3072.0,0.0005018698866479099
3328.0,0.0005714761791750789
3584.0,-0.0003649074351415038
3840.0,7.565490523120388e-05
4096.0,-0.00040637480560690165
4608.0,-0.0005256350850686431
5120.0,-0.001896064030006528
5632.0,-0.001153719611465931
6144.0,-0.00101807143073529
6656.0,0.00018795098003465682
7168.0,0.0016175743658095598
7680.0,-0.0007909001433290541
8192.0,-0.003208647482097149
end
