version,3.0
numOfCh,1
type,point
parent_name,fe81d_3dot0-0dot01
ch_type,1_1
kcount,1
numberNandB,1
brightnessNandB,1
carpet pos,0
pc,0
Time (ms),CH1 Auto-Correlation
1.0,0.028133714571595192
2.0,0.023271095007658005
3.0,0.019888244569301605
4.0,0.017352228984236717
5.0,0.015524339862167835
6.0,0.014086387120187283
7.0,0.012850873172283173
8.0,0.011836358346045017
9.0,0.011001144535839558
10.0,0.010332116857171059
11.0,0.009583214297890663
12.0,0.00901578925549984
13.0,0.008505318313837051
14.0,0.00811516959220171
15.0,0.007654411252588034
16.0,0.0070754364132881165
18.0,0.0062362379394471645
20.0,0.005450219847261906
22.0,0.005179611966013908
24.0,0.004950742702931166
26.0,0.004521182272583246
28.0,0.004277089145034552
30.0,0.00409075990319252
32.0,0.0038398695178329945
36.0,0.0032863481901586056
40.0,0.0028150652069598436
44.0,0.002727830782532692
48.0,0.002469112165272236
52.0,0.002287897514179349
56.0,0.0020362224895507097
60.0,0.0019084557425230742
64.0,0.0015329006128013134
72.0,0.0014529871987178922
80.0,0.0009277252247557044
88.0,0.0003430252836551517
96.0,6.688928988296539e-05
104.0,0.0003432994126342237
112.0,0.000450537889264524
120.0,0.0009741261601448059
128.0,0.0012187554966658354
144.0,0.0009773934725672007
160.0,0.0012301895767450333
176.0,0.0013772781239822507
192.0,0.0007142620743252337
208.0,-0.00013396171561907977
224.0,0.0002669322129804641
240.0,0.00011499562970129773
256.0,-0.0003126214141957462
288.0,-0.0005285805091261864
320.0,-0.0008726576925255358
352.0,-0.00036974114482291043
384.0,0.00037684242124669254
416.0,0.00159534253180027
448.0,0.00038407734245993197
480.0,0.0001534352486487478
512.0,0.0005393701721914113
576.0,0.0005021058022975922
640.0,-0.00040978926699608564
704.0,-0.0001443904038751498
768.0,0.00039243194623850286
832.0,0.0015273850876837969
896.0,0.001259419834241271
960.0,0.00046640189248137176
1024.0,0.0005420329398475587
1152.0,0.0004060014325659722
1280.0,0.0008545436430722475
1408.0,-0.0001549483131384477
1536.0,-0.000979191972874105
1664.0,0.0001324542099609971
1792.0,0.00031075405422598124
1920.0,-9.491670789429918e-05
2048.0,0.0005395072512328625
2304.0,0.0003827549808192998
2560.0,-9.732183389132842e-05
2816.0,0.0004944744287058711
3072.0,0.0007054165471345186
3328.0,0.0005953283980488777
3584.0,0.0005411283345893025
3840.0,-4.759367129736347e-06
4096.0,0.00010034821752924472
4608.0,4.9493512051412836e-05
5120.0,-0.00037283211713656783
5632.0,-0.00031819994910620153
6144.0,-0.0002692770503927022
6656.0,-0.00012467046326491982
7168.0,-0.0005992079968564212
7680.0,1.7562382709002122e-05
8192.0,-0.00022533292940352112
end
