version,3.0
numOfCh,1
type,point
parent_name,fe81d_3dot0-0dot01
ch_type,1_1
kcount,1
numberNandB,1
brightnessNandB,1
carpet pos,0
pc,0
Time (ms),CH1 Auto-Correlation
1.0,0.025327464565634727
2.0,0.020921921357512474
3.0,0.017666127532720566
4.0,0.015165034681558609
5.0,0.013272825628519058
6.0,0.011696255765855312
7.0,0.010330643504858017
8.0,0.009253138676285744
9.0,0.008532819338142872
10.0,0.007628260646015406
11.0,0.0069970982149243355
12.0,0.006350240670144558
13.0,0.005758807063102722
14.0,0.005396164488047361
15.0,0.005250662099570036
16.0,0.00486795324832201
18.0,0.0042729065753519535
20.0,0.003677601460367441
22.0,0.0028797255363315344
24.0,0.002534406492486596
26.0,0.0023949709720909595
28.0,0.0023196449037641287
30.0,0.002088005654513836
32.0,0.0020314285065978765
36.0,0.0018639980116859078
40.0,0.0014789523556828499
44.0,0.0012431651121005416
48.0,0.001367516233585775
52.0,0.0015357010997831821
56.0,0.0018271396402269602
60.0,0.0010682037100195885
64.0,0.0006493706023320556
72.0,0.0006117455195635557
80.0,9.152627899311483e-05
88.0,-0.0002179775619879365
96.0,-0.0008827626588754356
104.0,-0.0007028248510323465
112.0,-0.0007242951542139053
120.0,-7.576216012239456e-05
128.0,-0.0005501248524524271
144.0,0.0002888515591621399
160.0,0.0007293717935681343
176.0,0.0007510891300626099
192.0,0.0010597569635137916
208.0,0.00040906120557338
224.0,0.00079870386980474
240.0,4.3412495870143175e-05
256.0,0.0003840241115540266
288.0,0.0006009525386616588
320.0,-2.0870058506261557e-05
352.0,0.0006299136439338326
384.0,-0.0004092090530321002
416.0,-0.0004761951568070799
448.0,-0.00022133637685328722
480.0,0.00015458166308235377
512.0,0.0009417518740519881
576.0,0.00048638758016750216
640.0,0.00045291907736100256
704.0,0.0011122863506898284
768.0,0.0004802387556992471
832.0,-0.00017244459013454616
896.0,9.989737009163946e-05
960.0,5.757695544161834e-05
1024.0,-4.1676245018607005e-05
1152.0,0.0001519935467513278
1280.0,0.0007216073572635651
1408.0,-0.0006746195140294731
1536.0,-0.0001791345130186528
1664.0,-0.0006678137579001486
1792.0,0.0008563940064050257
1920.0,0.000802078633569181
2048.0,0.00029163865838199854
2304.0,-0.0005841108504682779
2560.0,-0.0002919750695582479
2816.0,-0.0006980733596719801
3072.0,-0.00026402113144285977
3328.0,-0.0006499143200926483
3584.0,-0.0005250820540823042
3840.0,-0.0006669135182164609
4096.0,-0.0009459254797548056
4608.0,-0.0005135905230417848
5120.0,0.0003273793845437467
5632.0,5.828862867929274e-07
6144.0,0.0005726810195483267
6656.0,0.00026401266222819686
7168.0,0.0006383332656696439
7680.0,-0.00022167891438584775
8192.0,0.00010075349564431235
end
