version,3.0
numOfCh,1
type,point
parent_name,fe81d_3dot0-0dot01
ch_type,1_1
kcount,1
numberNandB,1
brightnessNandB,1
carpet pos,0
pc,0
Time (ms),CH1 Auto-Correlation
1.0,0.02891630120575428
2.0,0.024311257526278496
3.0,0.02098831534385681
4.0,0.018589137122035027
5.0,0.016790350899100304
6.0,0.015455955639481544
7.0,0.013989241793751717
8.0,0.012950246222317219
9.0,0.011990981176495552
10.0,0.011384029872715473
11.0,0.010807503014802933
12.0,0.0103089464828372
13.0,0.009862317703664303
14.0,0.009305055253207684
15.0,0.008710302412509918
16.0,0.008269541896879673
18.0,0.007852647453546524
20.0,0.007294907700270414
22.0,0.006853980012238026
24.0,0.006494619883596897
26.0,0.006452205125242472
28.0,0.006152822636067867
30.0,0.0059609562158584595
32.0,0.005898845847696066
36.0,0.005762848071753979
40.0,0.005525933112949133
44.0,0.005124450661242008
48.0,0.004662388935685158
52.0,0.004277445375919342
56.0,0.00437792157754302
60.0,0.003877565497532487
64.0,0.003149922238662839
72.0,0.0030034135561436415
80.0,0.003040621057152748
88.0,0.0030300032813102007
96.0,0.002227215329185128
104.0,0.0013098038034513593
112.0,0.0013528340496122837
120.0,0.0018133430276066065
128.0,0.0018328381702303886
144.0,0.0013887295499444008
160.0,0.0006209078710526228
176.0,0.0013851565308868885
192.0,0.0020389026030898094
208.0,0.0012208183761686087
224.0,0.00094933295622468
240.0,0.0015462004812434316
256.0,0.0012707082787528634
288.0,0.0005671107792295516
320.0,-0.00039788862341083586
352.0,-0.0006627861293964088
384.0,9.543565101921558e-05
416.0,0.000994018162600696
448.0,0.0005980745772831142
480.0,0.001167537528090179
512.0,0.00013775982370134443
576.0,5.119456545799039e-05
640.0,0.0002474804350640625
704.0,0.0002449916792102158
768.0,-0.0003533156414050609
832.0,-0.002440639538690448
896.0,-0.0021341315004974604
960.0,-0.0012009042548015714
1024.0,-0.0013257111422717571
1152.0,0.0003566005325410515
1280.0,-0.0001377631997456774
1408.0,-0.00026376836467534304
1536.0,-0.0007344268960878253
1664.0,0.00020931386097799987
1792.0,0.0008564231102354825
1920.0,0.0005253528943285346
2048.0,1.0009030120272655e-05
2304.0,0.0007106419070623815
2560.0,-4.5944732846692204e-05
2816.0,-0.00011675513815134764
3072.0,-0.001595690380781889
3328.0,-0.0010470598936080933
3584.0,-0.00014952043420635164
3840.0,0.001753387856297195
4096.0,0.002266197232529521
4608.0,-0.0004993622424080968
5120.0,-0.0014913910999894142
5632.0,-0.000966897583566606
6144.0,-0.0006660596700385213
6656.0,0.0002621897147037089
7168.0,-0.002214709296822548
7680.0,0.0009681668598204851
8192.0,0.0025731243658810854
end
