version,3.0
numOfCh,1
type,point
parent_name,fe81d_3dot0-0dot01
ch_type,1_1
kcount,1
numberNandB,1
brightnessNandB,1
carpet pos,0
pc,0
Time (ms),CH1 Auto-Correlation
1.0,0.03427478298544884
2.0,0.030352452769875526
3.0,0.02751014567911625
4.0,0.025534939020872116
5.0,0.02369708940386772
6.0,0.022115575149655342
7.0,0.0210381131619215
8.0,0.019988013431429863
9.0,0.019279494881629944
10.0,0.018747592344880104
11.0,0.018085861578583717
12.0,0.01763201132416725
13.0,0.017308373004198074
14.0,0.016915032640099525
15.0,0.01668158359825611
16.0,0.016607088968157768
18.0,0.01596944034099579
20.0,0.015240607783198357
22.0,0.015085184015333652
24.0,0.015121635980904102
26.0,0.014454803429543972
28.0,0.014037876389920712
30.0,0.01341297384351492
32.0,0.01256230752915144
36.0,0.01142511423677206
40.0,0.01055076066404581
44.0,0.009428279474377632
48.0,0.008841167204082012
52.0,0.009158918634057045
56.0,0.00906895287334919
60.0,0.008648314513266087
64.0,0.00774756446480751
72.0,0.006983298342674971
80.0,0.007155395112931728
88.0,0.007163273170590401
96.0,0.00589029910042882
104.0,0.004851813428103924
112.0,0.004412506707012653
120.0,0.003792698262259364
128.0,0.0029885165859013796
144.0,0.00339974882081151
160.0,0.0025203130207955837
176.0,0.003714122576639056
192.0,0.004036314319819212
208.0,0.004607532173395157
224.0,0.00460713729262352
240.0,0.005955120082944632
256.0,0.00572172412648797
288.0,0.003078040201216936
320.0,0.0017929060850292444
352.0,-0.00040418843855150044
384.0,-0.001571123255416751
416.0,-0.0034025926142930984
448.0,-0.0040099164471030235
480.0,-0.0031678341329097748
512.0,-0.0013102402444928885
576.0,0.00044710267684422433
640.0,-0.0010186253348365426
704.0,-0.0027080581057816744
768.0,-0.0033936561085283756
832.0,-0.002274082973599434
896.0,-0.003283644327893853
960.0,-0.003647148609161377
1024.0,-0.0016833950066938996
1152.0,0.0009700704831629992
1280.0,-0.0021956458222121
1408.0,-0.005318684037774801
1536.0,-0.0050125522539019585
1664.0,-0.006164820399135351
1792.0,0.0005121565191075206
1920.0,-0.0038742516189813614
2048.0,-0.0034013071563094854
end
