version,3.0
numOfCh,1
type,point
parent_name,fe81d_3dot0-0dot01
ch_type,1_1
kcount,1
numberNandB,1
brightnessNandB,1
carpet pos,0
pc,0
Time (ms),CH1 Auto-Correlation
1.0,0.027793658897280693
2.0,0.02308906801044941
3.0,0.019718902185559273
4.0,0.01724238507449627
5.0,0.015269877389073372
6.0,0.01371388603001833
7.0,0.01236646343022585
8.0,0.011390178464353085
9.0,0.010424060747027397
10.0,0.00960173737257719
11.0,0.008928708732128143
12.0,0.008370080962777138
13.0,0.007884739898145199
14.0,0.00738175306469202
15.0,0.006884900387376547
16.0,0.006228359881788492
18.0,0.005200573708862066
20.0,0.004363795276731253
22.0,0.004025698639452457
24.0,0.0037733791396021843
26.0,0.003797175595536828
28.0,0.0036632060073316097
30.0,0.003358473302796483
32.0,0.003145340597257018
36.0,0.002544811926782131
40.0,0.0021692265290766954
44.0,0.0019171478925272822
48.0,0.0018402904970571399
52.0,0.0011494759237393737
56.0,0.0007434181170538068
60.0,0.0012146946974098682
64.0,0.0013660038821399212
72.0,0.001657714368775487
80.0,0.0014670611126348376
88.0,0.0011220220476388931
96.0,0.001005498575977981
104.0,0.0013582839164882898
112.0,0.0014139629201963544
120.0,0.0011485930299386382
128.0,0.0008343753288500011
144.0,0.0014481001999229193
160.0,-0.00022857385920360684
176.0,-2.5632000415498624e-06
192.0,0.0009282534592784941
208.0,0.001201396225951612
224.0,0.00030982206226326525
240.0,0.0005765074165537953
256.0,8.618520951131359e-06
288.0,-9.42777405725792e-05
320.0,0.001302971038967371
352.0,0.00048259826144203544
384.0,0.0008094299701042473
416.0,0.0005576351541094482
448.0,0.0003139968612231314
480.0,-0.00019855707068927586
512.0,0.00024672053405083716
576.0,-0.0004399241297505796
640.0,-0.00011870005255332217
704.0,0.00088167266221717
768.0,-0.0002780199283733964
832.0,0.0008353388402611017
896.0,0.0011163778835907578
960.0,-0.00021622682106681168
1024.0,7.241152343340218e-05
1152.0,-0.00034432884422130883
1280.0,0.00028522274806164205
1408.0,0.00012540844909381121
1536.0,-0.0005388623685576022
1664.0,-0.0004553439503069967
1792.0,-0.0004968595458194613
1920.0,-0.0007278708508238196
2048.0,0.00033156797871924937
2304.0,-0.0005188242648728192
2560.0,-0.0003312953340355307
2816.0,-0.0004695974930655211
3072.0,-0.0006399059202522039
3328.0,-6.668033893220127e-05
3584.0,-0.0011260589817538857
3840.0,-0.0006008878699503839
4096.0,2.946632776001934e-05
4608.0,-0.0004616953956428915
5120.0,0.0005593866226263344
5632.0,0.0005059003597125411
6144.0,0.0005675760330632329
6656.0,0.00035148364258930087
7168.0,-0.0004943759995512664
7680.0,0.00047019944759085774
8192.0,-5.007595245842822e-05
end
