version,3.0
numOfCh,1
type,point
parent_name,fe81d_3dot0-0dot01
ch_type,1_1
kcount,1
numberNandB,1
brightnessNandB,1
carpet pos,0
pc,0
Time (ms),CH1 Auto-Correlation
1.0,0.034599337726831436
2.0,0.03027007356286049
3.0,0.0271760243922472
4.0,0.02468424290418625
5.0,0.022920701652765274
6.0,0.02136863023042679
7.0,0.020108671858906746
8.0,0.019012421369552612
9.0,0.018084736540913582
10.0,0.017362656071782112
11.0,0.016748672351241112
12.0,0.016208235174417496
13.0,0.015791812911629677
14.0,0.015379688702523708
15.0,0.014828590676188469
16.0,0.014628463424742222
18.0,0.01452647615224123
20.0,0.013969537802040577
22.0,0.013483988121151924
24.0,0.013173412531614304
26.0,0.012890193611383438
28.0,0.012555397115647793
30.0,0.012385399080812931
32.0,0.012300677597522736
36.0,0.011182229034602642
40.0,0.010662061162292957
44.0,0.01041514053940773
48.0,0.00987827219069004
52.0,0.008920220658183098
56.0,0.008159269578754902
60.0,0.007716283667832613
64.0,0.007589159533381462
72.0,0.007267575711011887
80.0,0.0068802256137132645
88.0,0.006197509355843067
96.0,0.005534410942345858
104.0,0.005636422894895077
112.0,0.006303606554865837
120.0,0.0066070216707885265
128.0,0.007714917417615652
144.0,0.0074568395502865314
160.0,0.007118849083781242
176.0,0.004929195158183575
192.0,0.003786770161241293
208.0,0.003511447226628661
224.0,0.0017256124410778284
240.0,0.0017873583128675818
256.0,0.0024771878961473703
288.0,0.0024980080779641867
320.0,0.0015534887788817286
352.0,0.002141534350812435
384.0,0.0011908187298104167
416.0,0.0018189087277278304
448.0,0.001844666083343327
480.0,0.0023714203853160143
512.0,0.0015929776709526777
576.0,0.0021644807420670986
640.0,0.002435568952932954
704.0,0.0016905332449823618
768.0,0.000941675272770226
832.0,-0.0010238729882985353
896.0,-0.0012810240732505918
960.0,-0.0007866589585319161
1024.0,-0.00036716487375088036
1152.0,-0.0022144601680338383
1280.0,-0.0006527396617457271
1408.0,-1.9544644601410255e-05
1536.0,-0.001770956558175385
1664.0,-0.001625901903025806
1792.0,-0.0009915921837091446
1920.0,-0.0005772863514721394
2048.0,-0.0011233185650780797
2304.0,-0.000534289691131562
2560.0,-0.002260478213429451
2816.0,-0.0008263465133495629
3072.0,-0.002499757334589958
3328.0,-0.00030973952380008996
3584.0,-0.0006085343775339425
3840.0,-0.0012086365604773164
4096.0,0.0008439631201326847
end
