version,3.0
numOfCh,1
type,point
parent_name,fe81d_3dot0-0dot01
ch_type,1_1
kcount,1
numberNandB,1
brightnessNandB,1
carpet pos,0
pc,0
Time (ms),CH1 Auto-Correlation
1.0,0.028081681579351425
2.0,0.023221934214234352
3.0,0.01984872668981552
4.0,0.01743934117257595
5.0,0.015560029074549675
6.0,0.014226027764379978
7.0,0.01286891009658575
8.0,0.011634751223027706
9.0,0.010490947403013706
10.0,0.009661335498094559
11.0,0.00908657256513834
12.0,0.008498910814523697
13.0,0.008121761493384838
14.0,0.0076693082228302956
15.0,0.007258029654622078
16.0,0.007074139546602964
18.0,0.006406196393072605
20.0,0.005764934234321117
22.0,0.005312597379088402
24.0,0.005080097820609808
26.0,0.00444802176207304
28.0,0.0041451589204370975
30.0,0.004252326674759388
32.0,0.003996693529188633
36.0,0.003471887204796076
40.0,0.0024152835831046104
44.0,0.0020659056026488543
48.0,0.0015976560534909368
52.0,0.0014841952361166477
56.0,0.0011738443281501532
60.0,0.000935682444833219
64.0,0.0009737229556776583
72.0,0.0008331138524226844
80.0,0.0005533386720344424
88.0,0.0011044578859582543
96.0,0.0007548307767137885
104.0,0.000693222158588469
112.0,0.0011629839427769184
120.0,0.0013721599243581295
128.0,0.00091320532374084
144.0,0.00026434578467160463
160.0,-0.0005158502026461065
176.0,-0.000658831384498626
192.0,-0.0001276077382499352
208.0,-0.0009404625161550939
224.0,-0.0007255356176756322
240.0,-0.00018366404401604086
256.0,0.0007711704820394516
288.0,0.00018751931202132255
320.0,-0.0008031944744288921
352.0,-0.0006652769516222179
384.0,0.00020113354548811913
416.0,0.00012454182433430105
448.0,-0.00027380092069506645
480.0,-0.000607893627602607
512.0,-0.00032460829243063927
576.0,-3.026150807272643e-05
640.0,-0.0002931739145424217
704.0,-0.0005898780655115843
768.0,0.00027528530335985124
832.0,0.0011460823006927967
896.0,-0.0004855854786001146
960.0,-0.0012692937161773443
1024.0,-0.00048712192801758647
1152.0,0.00017765650409273803
1280.0,-0.00019563651585485786
1408.0,-0.0003928373334929347
1536.0,-0.0008316620369441807
1664.0,-0.0002131918299710378
1792.0,-0.0005410939920693636
1920.0,0.0004176671791356057
2048.0,-0.00037295842776075006
2304.0,0.0005178469000384212
2560.0,7.893822839832865e-06
2816.0,0.00017237321299035102
3072.0,0.0002963156148325652
3328.0,0.00039058472611941397
3584.0,4.3957526941085234e-05
3840.0,8.962629362940788e-05
4096.0,-0.0006389201735146344
4608.0,-0.00038487708661705256
5120.0,0.0002717113238759339
5632.0,-0.00013567785208579153
6144.0,0.0005011770990677178
6656.0,0.0002580239379312843
7168.0,-0.0007890439592301846
7680.0,-0.0007244962034747005
8192.0,0.0004537224303930998
end
