version,3.0
numOfCh,1
type,point
parent_name,fe81d_0dot4-0dot1
ch_type,1_1
kcount,1
numberNandB,1
brightnessNandB,1
carpet pos,0
pc,0
Time (ms),CH1 Auto-Correlation
1.0,0.030008701607584953
2.0,0.02896270528435707
3.0,0.027973206713795662
4.0,0.027035726234316826
5.0,0.026167096570134163
6.0,0.025340735912322998
7.0,0.024535439908504486
8.0,0.02376352623105049
9.0,0.023022189736366272
10.0,0.02231367491185665
11.0,0.021686147898435593
12.0,0.02106523886322975
13.0,0.020475110039114952
14.0,0.019950734451413155
15.0,0.019432205706834793
16.0,0.018929822370409966
18.0,0.018109234049916267
20.0,0.01733865775167942
22.0,0.016675803810358047
24.0,0.016153760254383087
26.0,0.015711799263954163
28.0,0.015253123827278614
30.0,0.01481166947633028
32.0,0.014386012218892574
36.0,0.013644282706081867
40.0,0.013055075891315937
44.0,0.012486997060477734
48.0,0.011994614265859127
52.0,0.01149788685142994
56.0,0.011092702858150005
60.0,0.010708876885473728
64.0,0.01023037824779749
72.0,0.009395222179591656
80.0,0.009044311940670013
88.0,0.00860059168189764
96.0,0.008174649439752102
104.0,0.007772617507725954
112.0,0.007123192306607962
120.0,0.006439510732889175
128.0,0.005616702139377594
144.0,0.005249601323157549
160.0,0.005398182664066553
176.0,0.004672653041779995
192.0,0.00412987032905221
208.0,0.003238608594983816
224.0,0.0023450329899787903
240.0,0.0018366258591413498
256.0,0.0015943547477945685
288.0,0.0014416459016501904
320.0,0.0018866019090637565
352.0,0.0021758289076387882
384.0,0.0027445992454886436
416.0,0.0015317384386435151
448.0,0.0015292060561478138
480.0,0.002342481864616275
512.0,0.003606231650337577
576.0,0.0027993586845695972
640.0,0.0007488814298994839
704.0,0.0004499759234022349
768.0,0.0009043049649335444
832.0,0.0012621780624613166
896.0,0.0015899379504844546
960.0,0.0013495620805770159
1024.0,0.0009115177672356367
1152.0,0.002680728677660227
1280.0,0.0016294544329866767
1408.0,-0.0009866523323580623
1536.0,-0.003036447800695896
1664.0,-0.0010201911209151149
1792.0,0.00041532059549354017
1920.0,0.0005374416941776872
2048.0,0.0012777100782841444
2304.0,-0.002204944146797061
2560.0,-0.0035508833825588226
2816.0,-0.0020768074318766594
3072.0,0.0004954063915647566
3328.0,-0.0003174799494445324
3584.0,-0.0021092810202389956
3840.0,0.0015505964402109385
4096.0,0.0005646552890539169
4608.0,0.000202311304747127
5120.0,0.0021741066593676805
5632.0,0.0004171455802861601
6144.0,0.0011541163548827171
6656.0,-5.973045335849747e-05
7168.0,-0.0018077087588608265
7680.0,-0.004459487274289131
8192.0,-0.0035798209719359875
end
