version,3.0
numOfCh,1
type,point
parent_name,fe81d_0dot4-0dot1
ch_type,1_1
kcount,1
numberNandB,1
brightnessNandB,1
carpet pos,0
pc,0
Time (ms),CH1 Auto-Correlation
1.0,0.03147711604833603
2.0,0.030395613983273506
3.0,0.02937605232000351
4.0,0.0283889789134264
5.0,0.027485109865665436
6.0,0.0266139917075634
7.0,0.025795552879571915
8.0,0.02503591775894165
9.0,0.02433280274271965
10.0,0.023664886131882668
11.0,0.023018211126327515
12.0,0.022401979193091393
13.0,0.021789826452732086
14.0,0.021200450137257576
15.0,0.020648173987865448
16.0,0.02009548433125019
18.0,0.019066667184233665
20.0,0.0181328896433115
22.0,0.01733870431780815
24.0,0.01665544882416725
26.0,0.01602935418486595
28.0,0.015481434762477875
30.0,0.014995625242590904
32.0,0.014492109417915344
36.0,0.01338548120111227
40.0,0.01237007137387991
44.0,0.011703595519065857
48.0,0.011260868050158024
52.0,0.010759873315691948
56.0,0.010299130342900753
60.0,0.009907296858727932
64.0,0.009557142853736877
72.0,0.008815466426312923
80.0,0.007929832674562931
88.0,0.007016450632363558
96.0,0.006647799164056778
104.0,0.006087194196879864
112.0,0.005899001844227314
120.0,0.00576670141890645
128.0,0.005712737329304218
144.0,0.00538693368434906
160.0,0.005590936169028282
176.0,0.006301356945186853
192.0,0.00702621228992939
208.0,0.006920335348695517
224.0,0.00613648584112525
240.0,0.005506779532879591
256.0,0.005112327169626951
288.0,0.004209446255117655
320.0,0.003533992450684309
352.0,0.002347338479012251
384.0,0.001735285622999072
416.0,0.0008801824878901243
448.0,0.0007854431751184165
480.0,0.001597034279257059
512.0,0.0018225862877443433
576.0,0.0006726881838403642
640.0,6.20736027485691e-05
704.0,0.0010023993672803044
768.0,0.0003609263803809881
832.0,0.0008406619308516383
896.0,0.001096980064176023
960.0,0.001046809833496809
1024.0,0.0010499528143554926
1152.0,0.0009147003293037415
1280.0,-0.0005926098674535751
1408.0,-0.001214679447002709
1536.0,-0.0019172371830791235
1664.0,-0.00160369707737118
1792.0,-0.002564139198511839
1920.0,-0.000955844356212765
2048.0,-0.00047076758346520364
2304.0,-0.0004545292758848518
2560.0,0.0001817246520658955
2816.0,0.00016952068835962564
3072.0,0.0023337167222052813
3328.0,0.0026304982602596283
3584.0,0.002289415104314685
3840.0,-0.0009765014983713627
4096.0,-0.002257140353322029
4608.0,0.0012649443233385682
5120.0,-0.00022067483223509043
5632.0,-0.0018803150160238147
6144.0,-0.002831416903063655
6656.0,-0.0011382935335859656
7168.0,-0.00010465020750416443
7680.0,0.002574835205450654
8192.0,0.00025031439145095646
end
