version,3.0
numOfCh,1
type,point
parent_name,fe81d_0dot4-0dot1
ch_type,1_1
kcount,1
numberNandB,1
brightnessNandB,1
carpet pos,0
pc,0
Time (ms),CH1 Auto-Correlation
1.0,0.027662979438900948
2.0,0.026578349992632866
3.0,0.025569941848516464
4.0,0.024594983085989952
5.0,0.023678388446569443
6.0,0.022848371416330338
7.0,0.02209710143506527
8.0,0.021407034248113632
9.0,0.020789727568626404
10.0,0.020165180787444115
11.0,0.019548453390598297
12.0,0.018971506506204605
13.0,0.018400268629193306
14.0,0.017887255176901817
15.0,0.017395691946148872
16.0,0.016924872994422913
18.0,0.01607297733426094
20.0,0.015250868164002895
22.0,0.0144429299980402
24.0,0.013739426620304585
26.0,0.013130281120538712
28.0,0.012546899728477001
30.0,0.011965658515691757
32.0,0.011457339860498905
36.0,0.010633019730448723
40.0,0.009847509674727917
44.0,0.009025429375469685
48.0,0.008305261842906475
52.0,0.0076928287744522095
56.0,0.007136638276278973
60.0,0.006786473095417023
64.0,0.0064721135422587395
72.0,0.0059484150260686874
80.0,0.005337769165635109
88.0,0.0047682481817901134
96.0,0.004421471152454615
104.0,0.004092330113053322
112.0,0.00365631771273911
120.0,0.0032378211617469788
128.0,0.0029878979548811913
144.0,0.002519252011552453
160.0,0.0020701719913631678
176.0,0.001716658822260797
192.0,0.0018418963300064206
208.0,0.0015242333756759763
224.0,0.0014343175571411848
240.0,0.0010244130389764905
256.0,0.0004110265290364623
288.0,0.0005384979886002839
320.0,-0.00020104675786569715
352.0,-0.0017085968283936381
384.0,-0.0025076735764741898
416.0,-0.0014683561166748405
448.0,-0.0004535944608505815
480.0,-0.00028746589669026434
512.0,-0.00012083157344022766
576.0,-0.0006737025687471032
640.0,-0.0004586957802530378
704.0,0.0006966306827962399
768.0,0.0008703761268407106
832.0,0.0006825623568147421
896.0,-0.0007060605566948652
960.0,-0.0010046687675639987
1024.0,-0.0007693105144426227
1152.0,-0.0007686525350436568
1280.0,-0.0013625472784042358
1408.0,-0.001060941256582737
1536.0,-0.0016346762422472239
1664.0,0.0014471745816990733
1792.0,6.222312367754057e-05
1920.0,0.001255920622497797
2048.0,-0.0008186291670426726
2304.0,-0.0002348148263990879
2560.0,0.0007657131645828485
2816.0,0.0005248443339951336
3072.0,-0.0024015551898628473
3328.0,-0.0012490700464695692
3584.0,-0.0010131624294444919
3840.0,0.001514551811851561
4096.0,0.00330646731890738
4608.0,-0.00026357328169979155
5120.0,0.0013309483183547854
5632.0,-0.00033438726677559316
6144.0,-0.0014404909452423453
6656.0,-0.0007904713274911046
7168.0,-0.0005395712796598673
7680.0,0.0006993893184699118
8192.0,-0.003289795247837901
end
