version,3.0
numOfCh,1
type,point
parent_name,fe81d_0dot4-0dot1
ch_type,1_1
kcount,1
numberNandB,1
brightnessNandB,1
carpet pos,0
pc,0
Time (ms),CH1 Auto-Correlation
1.0,0.032929427921772
2.0,0.031812362372875214
3.0,0.030781717970967293
4.0,0.029832132160663605
5.0,0.02895193174481392
6.0,0.028165273368358612
7.0,0.0274224653840065
8.0,0.02672051265835762
9.0,0.026060685515403748
10.0,0.025443241000175476
11.0,0.024876151233911514
12.0,0.024304304271936417
13.0,0.023773277178406715
14.0,0.023249730467796326
15.0,0.022742047905921936
16.0,0.022261882200837135
18.0,0.02143523097038269
20.0,0.02074023336172104
22.0,0.02017401158809662
24.0,0.019709739834070206
26.0,0.019276881590485573
28.0,0.018799522891640663
30.0,0.01832236908376217
32.0,0.017866507172584534
36.0,0.01706567220389843
40.0,0.016211459413170815
44.0,0.015326350927352905
48.0,0.01441011019051075
52.0,0.013646679930388927
56.0,0.01294244546443224
60.0,0.012295193038880825
64.0,0.011704787611961365
72.0,0.010804200544953346
80.0,0.01030011661350727
88.0,0.009923369623720646
96.0,0.009307694621384144
104.0,0.008668851107358932
112.0,0.008151715621352196
120.0,0.008145598694682121
128.0,0.0082540987059474
144.0,0.007544888183474541
160.0,0.00697619654238224
176.0,0.007131846621632576
192.0,0.007406176067888737
208.0,0.00745480228215456
224.0,0.00708253588527441
240.0,0.006752170622348785
256.0,0.00671535637229681
288.0,0.0058255186304450035
320.0,0.004886121954768896
352.0,0.004783906042575836
384.0,0.004829002544283867
416.0,0.004319916479289532
448.0,0.00280818366445601
480.0,0.0024877493269741535
512.0,0.0017245749477297068
576.0,0.0006836093380115926
640.0,0.000335700431605801
704.0,0.00019234270439483225
768.0,0.0018191589042544365
832.0,0.003071435261517763
896.0,0.001965632662177086
960.0,0.001407074392773211
1024.0,0.0011753528378903866
1152.0,0.0027440423145890236
1280.0,0.003004268975928426
1408.0,0.002553907223045826
1536.0,0.0014223606558516622
1664.0,0.002618167782202363
1792.0,-0.0009547285735607147
1920.0,-0.0022155693732202053
2048.0,-0.000988879706710577
2304.0,-0.0020870822481811047
2560.0,-0.0040939729660749435
2816.0,-0.004852969199419022
3072.0,-0.002725590718910098
3328.0,-0.0015003207372501493
3584.0,-0.0012206893879920244
3840.0,-0.0007422301569022238
4096.0,-0.0022017250303179026
4608.0,-0.004068780690431595
5120.0,-0.0008539387490600348
5632.0,0.0010417618323117495
6144.0,-0.002043259795755148
6656.0,0.004266367759555578
7168.0,0.0038891008589416742
7680.0,0.0028035196010023355
8192.0,0.00042023498099297285
end
