version,3.0
numOfCh,1
type,point
parent_name,fe81d_0dot4-0dot1
ch_type,1_1
kcount,1
numberNandB,1
brightnessNandB,1
carpet pos,0
pc,0
Time (ms),CH1 Auto-Correlation
1.0,0.02770227938890457
2.0,0.02664833329617977
3.0,0.025686651468276978
4.0,0.024821653962135315
5.0,0.02401723898947239
6.0,0.023257147520780563
7.0,0.02256358601152897
8.0,0.021923549473285675
9.0,0.021314606070518494
10.0,0.02075321599841118
11.0,0.02016701176762581
12.0,0.019635260105133057
13.0,0.019140716642141342
14.0,0.01868142932653427
15.0,0.0182382483035326
16.0,0.01782146655023098
18.0,0.01709936186671257
20.0,0.01638820394873619
22.0,0.015710268169641495
24.0,0.01504754088819027
26.0,0.01445754710584879
28.0,0.013900261372327805
30.0,0.013414736837148666
32.0,0.01298152469098568
36.0,0.012157590128481388
40.0,0.01135992631316185
44.0,0.010557105764746666
48.0,0.009727085009217262
52.0,0.009055690839886665
56.0,0.008505687117576599
60.0,0.007966166362166405
64.0,0.007499034516513348
72.0,0.006633030250668526
80.0,0.00594076095148921
88.0,0.005499886814504862
96.0,0.005496513564139605
104.0,0.005641973577439785
112.0,0.005482336040586233
120.0,0.005092063918709755
128.0,0.004605258349329233
144.0,0.003934071399271488
160.0,0.0031525453086942434
176.0,0.0024396206717938185
192.0,0.0018602358177304268
208.0,0.0011308010434731841
224.0,0.000530584657099098
240.0,-0.00042756361654028296
256.0,-0.0003974779392592609
288.0,-0.00039831691537983716
320.0,0.0011446225689724088
352.0,0.0015704449033364654
384.0,0.001226494088768959
416.0,0.0002489920880179852
448.0,-0.0009086601785384119
480.0,-0.0009147879900410771
512.0,-0.00084442098159343
576.0,-0.0011269301176071167
640.0,-0.0011975555680692196
704.0,0.0002557789266575128
768.0,0.0008949500042945147
832.0,0.0006104815984144807
896.0,0.0007029583211988211
960.0,-0.0005131894140504301
1024.0,-0.0003281122480984777
1152.0,0.0006650280556641519
1280.0,-0.0010532507440075278
1408.0,-0.000950985646340996
1536.0,-0.0015940633602440357
1664.0,-0.0016060885973274708
1792.0,-0.00045882267295382917
1920.0,0.0009787753224372864
2048.0,-0.0011919314274564385
2304.0,-0.0005376560729928315
2560.0,-0.0018224192317575216
2816.0,-0.0016099201748147607
3072.0,-0.0004734817484859377
3328.0,0.0005747060640715063
3584.0,-0.0006570098921656609
3840.0,-1.3368285181059036e-06
4096.0,-7.259706762852147e-05
4608.0,-0.0007020113407634199
5120.0,0.002452076179906726
5632.0,0.000404880236601457
6144.0,-0.001259324955753982
6656.0,-0.0016899522161111236
7168.0,-0.00038269211654551327
7680.0,-0.0012728995643556118
8192.0,0.002827203134074807
end
