version,3.0
numOfCh,1
type,point
parent_name,fe81d_0dot4-0dot1
ch_type,1_1
kcount,1
numberNandB,1
brightnessNandB,1
carpet pos,0
pc,0
Time (ms),CH1 Auto-Correlation
1.0,0.03928975388407707
2.0,0.037619803100824356
3.0,0.03604429215192795
4.0,0.034616030752658844
5.0,0.0333087183535099
6.0,0.032298143953084946
7.0,0.03137588128447533
8.0,0.030423350632190704
9.0,0.029417147859930992
10.0,0.028528092429041862
11.0,0.0276349987834692
12.0,0.026809118688106537
13.0,0.026028715074062347
14.0,0.025361711159348488
15.0,0.024749789386987686
16.0,0.02402045764029026
18.0,0.021920619532465935
20.0,0.020717278122901917
22.0,0.019807986915111542
24.0,0.01893109269440174
26.0,0.018184227868914604
28.0,0.017526550218462944
30.0,0.016877105459570885
32.0,0.016231661662459373
36.0,0.015275560319423676
40.0,0.014555424451828003
44.0,0.014071715995669365
48.0,0.013543832115828991
52.0,0.012934956699609756
56.0,0.012341275811195374
60.0,0.011741277761757374
64.0,0.011154187843203545
72.0,0.009720816276967525
80.0,0.00897185131907463
88.0,0.008700570091605186
96.0,0.00849568098783493
104.0,0.008290530182421207
112.0,0.00799641478806734
120.0,0.007613385561853647
128.0,0.007334018126130104
144.0,0.006784248165786266
160.0,0.006243519484996796
176.0,0.005794576369225979
192.0,0.004700634628534317
208.0,0.00319631933234632
224.0,0.0020063365809619427
240.0,0.0016801203601062298
256.0,0.0017015192424878478
288.0,0.0018631858984008431
320.0,0.0016483190702274442
352.0,0.0019838367588818073
384.0,0.002082363236695528
416.0,0.0014318650355562568
448.0,0.0016415530117228627
480.0,0.0017340801423415542
512.0,0.0013787302887067199
576.0,0.0022626991849392653
640.0,0.0034864016342908144
704.0,0.002819867804646492
768.0,0.0021426810417324305
832.0,0.002660763682797551
896.0,0.0013222674606367946
960.0,0.0008710055844858289
1024.0,0.00241583539173007
1152.0,0.0003682149399537593
1280.0,0.002237736713141203
1408.0,0.0015277641359716654
1536.0,0.00040692754555493593
1664.0,0.0002572630764916539
1792.0,-0.0010023042559623718
1920.0,-0.0011779568158090115
2048.0,-0.0005612837267108262
2304.0,0.0024058078415691853
2560.0,0.0005079538095742464
2816.0,0.0002688201784621924
3072.0,-0.0009020969155244529
3328.0,-0.0013336275005713105
3584.0,-0.0032112649641931057
3840.0,-0.002574930200353265
4096.0,-0.00131630536634475
4608.0,-0.0018042256124317646
5120.0,-0.001500507234595716
5632.0,-0.00270599452778697
6144.0,-0.0023887825664132833
6656.0,-0.001762125757522881
7168.0,-0.0005119172856211662
7680.0,0.0006261243252083659
8192.0,-0.0005750483251176775
end
