version,3.0
numOfCh,1
type,point
parent_name,fe81d_0dot4-0dot1
ch_type,1_1
kcount,1
numberNandB,1
brightnessNandB,1
carpet pos,0
pc,0
Time (ms),CH1 Auto-Correlation
1.0,0.03474152088165283
2.0,0.03348708525300026
3.0,0.03230290114879608
4.0,0.03123834915459156
5.0,0.03020402044057846
6.0,0.029247283935546875
7.0,0.02836090512573719
8.0,0.02752147987484932
9.0,0.026723293587565422
10.0,0.025945385918021202
11.0,0.025204172357916832
12.0,0.02449844963848591
13.0,0.02387850731611252
14.0,0.023305131122469902
15.0,0.022761864587664604
16.0,0.022244086489081383
18.0,0.021283140406012535
20.0,0.020397204905748367
22.0,0.019534124061465263
24.0,0.018679672852158546
26.0,0.01783275417983532
28.0,0.017062809318304062
30.0,0.016374437138438225
32.0,0.015852995216846466
36.0,0.015031273476779461
40.0,0.014376574195921421
44.0,0.01379898190498352
48.0,0.013141284696757793
52.0,0.012384729459881783
56.0,0.011540237814188004
60.0,0.010846346616744995
64.0,0.010143041610717773
72.0,0.009515328332781792
80.0,0.008986038155853748
88.0,0.008232677355408669
96.0,0.007886882871389389
104.0,0.007677779532968998
112.0,0.007453683763742447
120.0,0.007205666974186897
128.0,0.006817687302827835
144.0,0.005476130172610283
160.0,0.003524604719132185
176.0,0.002451542532071471
192.0,0.002345480490475893
208.0,0.0018369641620665789
224.0,0.000779885973315686
240.0,-4.4029566197423264e-05
256.0,4.583051850204356e-05
288.0,-0.0009708749712444842
320.0,-0.0008291698177345097
352.0,-0.0017971709603443742
384.0,-0.0024322629906237125
416.0,-0.0021773562766611576
448.0,-0.0018162053311243653
480.0,-0.002351140370592475
512.0,-0.0013114290777593851
576.0,-0.001990853575989604
640.0,-0.00045711963321082294
704.0,0.0008463572594337165
768.0,0.00039495190139859915
832.0,-1.546725252410397e-05
896.0,-0.001803914550691843
960.0,-0.0018863137811422348
1024.0,-0.0038581881672143936
1152.0,-0.0024594380520284176
1280.0,-0.0007301249424926937
1408.0,-0.0008110476192086935
1536.0,-0.0011834283359348774
1664.0,-0.00024340840172953904
1792.0,0.0009802040876820683
1920.0,0.004476437345147133
2048.0,0.0018713687313720584
2304.0,-0.0004199914983473718
2560.0,-0.0007652930216863751
2816.0,-0.0013071080902591348
3072.0,-0.000329124421114102
3328.0,0.001017506467178464
3584.0,-0.00040381852886639535
3840.0,-0.0006945250788703561
4096.0,-0.00220490456558764
4608.0,-0.0012611132115125656
5120.0,0.0034819566644728184
5632.0,-0.002538383239880204
6144.0,0.00035285166813991964
6656.0,-0.00018698282656259835
7168.0,0.0031016988214105368
7680.0,-0.0023901762906461954
8192.0,-0.0006932078395038843
end
