version,3.0
numOfCh,1
type,point
parent_name,fe81d_0dot4-0dot1
ch_type,1_1
kcount,1
numberNandB,1
brightnessNandB,1
carpet pos,0
pc,0
Time (ms),CH1 Auto-Correlation
1.0,0.032015640288591385
2.0,0.03089909814298153
3.0,0.02985382452607155
4.0,0.028879927471280098
5.0,0.027990994974970818
6.0,0.027174197137355804
7.0,0.0264071524143219
8.0,0.025703497231006622
9.0,0.025032734498381615
10.0,0.02439439855515957
11.0,0.02379193902015686
12.0,0.023214923217892647
13.0,0.022670837119221687
14.0,0.022178059443831444
15.0,0.021727945655584335
16.0,0.021276431158185005
18.0,0.02044084295630455
20.0,0.019698502495884895
22.0,0.01902850531041622
24.0,0.01843288540840149
26.0,0.017907021567225456
28.0,0.017435487359762192
30.0,0.01698455400764942
32.0,0.016520589590072632
36.0,0.015781119465827942
40.0,0.015034944750368595
44.0,0.014298193156719208
48.0,0.01353321224451065
52.0,0.012795542366802692
56.0,0.012079259380698204
60.0,0.011365541256964207
64.0,0.010866565629839897
72.0,0.010390406474471092
80.0,0.009897722862660885
88.0,0.009244976565241814
96.0,0.00869247317314148
104.0,0.008104667067527771
112.0,0.0073394132778048515
120.0,0.006780574098229408
128.0,0.006465733516961336
144.0,0.006622313521802425
160.0,0.006825066637247801
176.0,0.006218373775482178
192.0,0.005619816482067108
208.0,0.004554266110062599
224.0,0.0040041361935436726
240.0,0.003773705568164587
256.0,0.0035992993507534266
288.0,0.003340777475386858
320.0,0.0022098547779023647
352.0,0.0021352190524339676
384.0,0.0017015790799632668
416.0,0.0012470949441194534
448.0,0.0005544758168980479
480.0,0.000563581008464098
512.0,0.00038126451545394957
576.0,0.0004904408124275506
640.0,-0.0006233576568774879
704.0,-0.001466782996430993
768.0,-0.0017172977095469832
832.0,-0.0005164320464245975
896.0,-0.00012742319086100906
960.0,-0.0005741533823311329
1024.0,-0.0025376041885465384
1152.0,-0.0019190708408132195
1280.0,-0.00168698956258595
1408.0,-0.0023381668142974377
1536.0,-0.0024832631461322308
1664.0,-0.0027372250333428383
1792.0,-0.00040877278661355376
1920.0,0.0005435272469185293
2048.0,-0.0005128225893713534
2304.0,0.0008539255941286683
2560.0,0.0004442509089130908
2816.0,0.00028549411217682064
3072.0,-0.000439710624050349
3328.0,-0.0008340847562067211
3584.0,0.002364058280363679
3840.0,0.0011010481975972652
4096.0,-0.001910494640469551
4608.0,0.000292029493721202
5120.0,-0.002718371106311679
5632.0,0.0016635146457701921
6144.0,0.002404499100521207
6656.0,0.0027743990067392588
7168.0,-0.0010688031325116754
7680.0,-0.003333399072289467
8192.0,-0.0002999060961883515
end
