version,3.0
numOfCh,1
type,point
parent_name,fe81d_0dot4-0dot1
ch_type,1_1
kcount,1
numberNandB,1
brightnessNandB,1
carpet pos,0
pc,0
Time (ms),CH1 Auto-Correlation
1.0,0.02888985350728035
2.0,0.0278290007263422
3.0,0.026839660480618477
4.0,0.02591763623058796
5.0,0.02504514344036579
6.0,0.024197103455662727
7.0,0.023406995460391045
8.0,0.022693082690238953
9.0,0.021999729797244072
10.0,0.021347491070628166
11.0,0.020740779116749763
12.0,0.02017798274755478
13.0,0.019630245864391327
14.0,0.019126243889331818
15.0,0.01863749884068966
16.0,0.01818089745938778
18.0,0.017342055216431618
20.0,0.01661456562578678
22.0,0.015935705974698067
24.0,0.015290744602680206
26.0,0.014663760550320148
28.0,0.014111991971731186
30.0,0.013644189573824406
32.0,0.01320093683898449
36.0,0.012598956935107708
40.0,0.01202633511275053
44.0,0.011373540386557579
48.0,0.010685116983950138
52.0,0.009834503754973412
56.0,0.008979324251413345
60.0,0.008108194917440414
64.0,0.007305752485990524
72.0,0.006034898106008768
80.0,0.00489989947527647
88.0,0.0038268782664090395
96.0,0.002913988195359707
104.0,0.002257351763546467
112.0,0.0017020503291860223
120.0,0.0012961793690919876
128.0,0.0010763953905552626
144.0,0.0011575210373848677
160.0,0.0010823955526575446
176.0,0.0013465987285599113
192.0,0.0019996557384729385
208.0,0.0018374715000391006
224.0,0.0013471420388668776
240.0,0.0011779876658692956
256.0,0.0006704734987579286
288.0,0.0006518630543723702
320.0,0.00015786036965437233
352.0,0.0008841962553560734
384.0,0.0009201884968206286
416.0,0.0005273540155030787
448.0,2.1575151549768634e-05
480.0,0.0003204218519385904
512.0,0.00040812697261571884
576.0,0.001086506643332541
640.0,0.00011917290976271033
704.0,-0.0004957918426953256
768.0,-0.00013202305126469582
832.0,3.817972537945025e-05
896.0,-0.00033214769791811705
960.0,-0.0008588952478021383
1024.0,-0.0007464202353730798
1152.0,-0.0016582647804170847
1280.0,-0.0002248329547001049
1408.0,-0.002298532985150814
1536.0,-0.002054921118542552
1664.0,-0.0016004967037588358
1792.0,-0.002312822500243783
1920.0,-0.003983685281127691
2048.0,-0.002374321687966585
2304.0,-0.0009070539381355047
2560.0,0.0014343474758788943
2816.0,0.0026566258165985346
3072.0,0.0006389651680365205
3328.0,0.0014014140469953418
3584.0,0.0017572761280462146
3840.0,0.0011098760878667235
4096.0,-0.00017883193504530936
4608.0,-0.0022407809738069773
5120.0,-0.0006608964176848531
5632.0,-0.0011575643438845873
6144.0,0.000618833873886615
6656.0,0.0021015736274421215
7168.0,-0.00040771299973130226
7680.0,-0.0006484182667918503
8192.0,-0.0024290396831929684
end
