version,3.0
numOfCh,1
type,point
parent_name,fe81d_0dot4-0dot1
ch_type,1_1
kcount,1
numberNandB,1
brightnessNandB,1
carpet pos,0
pc,0
Time (ms),CH1 Auto-Correlation
1.0,0.02496468462049961
2.0,0.023937955498695374
3.0,0.022965656593441963
4.0,0.022046957165002823
5.0,0.021188391372561455
6.0,0.020393308252096176
7.0,0.019641954451799393
8.0,0.018917705863714218
9.0,0.018224896863102913
10.0,0.01755456067621708
11.0,0.01691284589469433
12.0,0.01631295122206211
13.0,0.015760069712996483
14.0,0.015204447321593761
15.0,0.014668669551610947
16.0,0.014180993661284447
18.0,0.0133261289447546
20.0,0.012574912048876286
22.0,0.011903260834515095
24.0,0.011307958513498306
26.0,0.010790969245135784
28.0,0.010319968685507774
30.0,0.009931289590895176
32.0,0.009602893143892288
36.0,0.008809277787804604
40.0,0.008027534931898117
44.0,0.007337256334722042
48.0,0.006701492238789797
52.0,0.006110051646828651
56.0,0.005576483905315399
60.0,0.005057455040514469
64.0,0.004703159909695387
72.0,0.004354809410870075
80.0,0.0040129683911800385
88.0,0.0037409060169011354
96.0,0.0034242200199514627
104.0,0.0030608654487878084
112.0,0.00282264850102365
120.0,0.0027489885687828064
128.0,0.002469445113092661
144.0,0.001618255628272891
160.0,0.0016114995814859867
176.0,0.001413777587004006
192.0,0.0008484584395773709
208.0,0.0008973454823717475
224.0,0.001388268661685288
240.0,0.0018223094521090388
256.0,0.00202336092479527
288.0,0.001312992419116199
320.0,0.0004951977171003819
352.0,0.00039557748823426664
384.0,0.0003527269291225821
416.0,0.0003970195248257369
448.0,0.0009574690484441817
480.0,0.00013541642692871392
512.0,0.0003475510166026652
576.0,0.0004100569640286267
640.0,0.0002767039986792952
704.0,0.0003895875997841358
768.0,-0.0005559131386689842
832.0,-0.0010098536731675267
896.0,-0.0006097060395404696
960.0,0.0002066634624497965
1024.0,-3.5309247323311865e-05
1152.0,0.0005574938259087503
1280.0,0.0005041560507379472
1408.0,-0.001317803282290697
1536.0,-0.0010922601213678718
1664.0,0.00010195124195888638
1792.0,0.00025478503084741533
1920.0,-0.00024803480482660234
2048.0,-0.002246646676212549
2304.0,-0.00208558002486825
2560.0,-0.0016175052151083946
2816.0,-0.0005273964488878846
3072.0,-0.000863378110807389
3328.0,-0.0006510401144623756
3584.0,-0.00080963404616341
3840.0,-0.0002845930284820497
4096.0,-0.0002330188435735181
4608.0,-0.00037946386146359146
5120.0,0.00011214519327040762
5632.0,0.0019122030353173614
6144.0,0.00149740488268435
6656.0,0.0011958354152739048
7168.0,0.00046446319902315736
7680.0,-0.0004491447762120515
8192.0,-0.0018477133708074689
end
