version,3.0
numOfCh,1
type,point
parent_name,fe81d_0dot4-0dot1
ch_type,1_1
kcount,1
numberNandB,1
brightnessNandB,1
carpet pos,0
pc,0
Time (ms),CH1 Auto-Correlation
1.0,0.02830175682902336
2.0,0.027273815125226974
3.0,0.026274023577570915
4.0,0.02537284791469574
5.0,0.024539195001125336
6.0,0.023754222318530083
7.0,0.023038584738969803
8.0,0.022354688495397568
9.0,0.021712414920330048
10.0,0.02109014242887497
11.0,0.02051905170083046
12.0,0.01997174508869648
13.0,0.019455181434750557
14.0,0.01897617056965828
15.0,0.018511557951569557
16.0,0.01804676093161106
18.0,0.01720217615365982
20.0,0.016441108658909798
22.0,0.015706216916441917
24.0,0.015062824822962284
26.0,0.01444499846547842
28.0,0.01391905639320612
30.0,0.013418903574347496
32.0,0.012896886095404625
36.0,0.011918706819415092
40.0,0.01113442424684763
44.0,0.010420228354632854
48.0,0.009666644968092442
52.0,0.008955219760537148
56.0,0.008384140208363533
60.0,0.007914924994111061
64.0,0.007327836938202381
72.0,0.00611548637971282
80.0,0.005141091998666525
88.0,0.0046206447295844555
96.0,0.004269060678780079
104.0,0.003928843419998884
112.0,0.00364461587741971
120.0,0.003374233143404126
128.0,0.0031802577432245016
144.0,0.0025025655049830675
160.0,0.0017079386161640286
176.0,0.0013043265789747238
192.0,0.0012974257115274668
208.0,0.0010808260412886739
224.0,0.0006843099254183471
240.0,0.0003751459880732
256.0,0.0003986777737736702
288.0,0.0017325322842225432
320.0,0.0025477821473032236
352.0,0.002250202465802431
384.0,0.0023235001135617495
416.0,0.0019975618924945593
448.0,0.0009217936894856393
480.0,0.0006614160956814885
512.0,0.0010124662658199668
576.0,0.0007201902917586267
640.0,-9.681878873379901e-05
704.0,0.0012921671150252223
768.0,0.001477699726819992
832.0,0.00021800010290462524
896.0,-0.0011960798874497414
960.0,-0.002261779038235545
1024.0,-0.0020046981517225504
1152.0,0.0018822761485353112
1280.0,0.0004394764546304941
1408.0,-0.0017665401101112366
1536.0,-0.0006140272016637027
1664.0,-0.0010346068302169442
1792.0,-0.001386817079037428
1920.0,0.0002292187127750367
2048.0,0.00023435692128259689
2304.0,0.0010464921360835433
2560.0,0.00038171818596310914
2816.0,-0.0010831126710399985
3072.0,-0.0006467706989496946
3328.0,0.00022764987079426646
3584.0,0.0017843665555119514
3840.0,0.0011499290121719241
4096.0,0.0013612434267997742
4608.0,-0.0013054946903139353
5120.0,-0.0025129811838269234
5632.0,0.0007252629729919136
6144.0,0.0007887540850788355
6656.0,0.001419006148353219
7168.0,-0.0015257974155247211
7680.0,-0.0008442148100584745
8192.0,-0.0015372132183983922
end
