version,3.0
numOfCh,1
type,point
parent_name,fe81d_0dot4-0dot1
ch_type,1_1
kcount,1
numberNandB,1
brightnessNandB,1
carpet pos,0
pc,0
Time (ms),CH1 Auto-Correlation
1.0,0.033701930195093155
2.0,0.03259081766009331
3.0,0.0315362922847271
4.0,0.03057844750583172
5.0,0.029705066233873367
6.0,0.028865592554211617
7.0,0.028065407648682594
8.0,0.027327710762619972
9.0,0.026643332093954086
10.0,0.02600814588367939
11.0,0.02539956197142601
12.0,0.024814434349536896
13.0,0.024218376725912094
14.0,0.023668723180890083
15.0,0.023172881454229355
16.0,0.022681226953864098
18.0,0.021725449711084366
20.0,0.020835600793361664
22.0,0.020020248368382454
24.0,0.019257932901382446
26.0,0.01851716637611389
28.0,0.017811041325330734
30.0,0.017163235694169998
32.0,0.016595516353845596
36.0,0.015576008707284927
40.0,0.014626279473304749
44.0,0.013887275941669941
48.0,0.013218119740486145
52.0,0.012626618146896362
56.0,0.011945395730435848
60.0,0.011318384669721127
64.0,0.01063559576869011
72.0,0.009549945592880249
80.0,0.00835946761071682
88.0,0.007569585926830769
96.0,0.007292620837688446
104.0,0.007058299146592617
112.0,0.006936516612768173
120.0,0.00719488225877285
128.0,0.0073811751790344715
144.0,0.00732099823653698
160.0,0.006670748814940453
176.0,0.006684447173029184
192.0,0.007295552641153336
208.0,0.007708167191594839
224.0,0.007129100151360035
240.0,0.006678607314825058
256.0,0.006433804519474506
288.0,0.005674430634826422
320.0,0.0042223017662763596
352.0,0.0039022150449454784
384.0,0.0031109305564314127
416.0,0.0017362083308398724
448.0,0.0010103335371240973
480.0,0.0008687961380928755
512.0,4.829040335607715e-05
576.0,0.001337678637355566
640.0,-0.0005713026621378958
704.0,-0.0016447227681055665
768.0,-0.0030765137635171413
832.0,-0.0016697117825970054
896.0,-0.0021806310396641493
960.0,-0.0018239900236949325
1024.0,-0.0019372479291632771
1152.0,0.0013179228408262134
1280.0,0.001401481800712645
1408.0,0.0031342441216111183
1536.0,0.002838664222508669
1664.0,0.003271939465776086
1792.0,0.003423611866310239
1920.0,0.0004466742102522403
2048.0,0.0001519039215054363
2304.0,-0.0004917453625239432
2560.0,5.780243736808188e-05
2816.0,-0.00015866568719502538
3072.0,-0.001239537843503058
3328.0,-0.002184010809287429
3584.0,-0.0023307236842811108
3840.0,-0.001034160959534347
4096.0,-0.0009305019048042595
4608.0,-0.001107635092921555
5120.0,-0.003680379129946232
5632.0,-0.005392654798924923
6144.0,-0.0019031506963074207
6656.0,-0.001264368649572134
7168.0,-0.004268799442797899
7680.0,-0.0016552065499126911
8192.0,0.0034028158988803625
end
