version,3.0
numOfCh,1
type,point
parent_name,fe81d_0dot4-0dot1
ch_type,1_1
kcount,1
numberNandB,1
brightnessNandB,1
carpet pos,0
pc,0
Time (ms),CH1 Auto-Correlation
1.0,0.0320739708840847
2.0,0.030976345762610435
3.0,0.029981037601828575
4.0,0.029045861214399338
5.0,0.028177719563245773
6.0,0.027355900034308434
7.0,0.026594111695885658
8.0,0.025852229446172714
9.0,0.025194043293595314
10.0,0.024592235684394836
11.0,0.02406676486134529
12.0,0.02353162132203579
13.0,0.023013092577457428
14.0,0.022521672770380974
15.0,0.022048044949769974
16.0,0.02157984860241413
18.0,0.02066810615360737
20.0,0.019795823842287064
22.0,0.019026070833206177
24.0,0.01843373477458954
26.0,0.01786588318645954
28.0,0.01734665222465992
30.0,0.016899876296520233
32.0,0.016449015587568283
36.0,0.015715688467025757
40.0,0.01489595789462328
44.0,0.014023810625076294
48.0,0.013318217359483242
52.0,0.012623092159628868
56.0,0.01212293654680252
60.0,0.01170327328145504
64.0,0.011303884908556938
72.0,0.01012100838124752
80.0,0.009067312814295292
88.0,0.008463148027658463
96.0,0.008225488476455212
104.0,0.007899103686213493
112.0,0.007468367926776409
120.0,0.006919271312654018
128.0,0.006648388225585222
144.0,0.006511531304568052
160.0,0.006071866489946842
176.0,0.00561119057238102
192.0,0.004936061333864927
208.0,0.004527398385107517
224.0,0.003981683403253555
240.0,0.0035207991022616625
256.0,0.002677598036825657
288.0,0.003213422605767846
320.0,0.003871011547744274
352.0,0.003246626351028681
384.0,0.003127084346488118
416.0,0.0030029774643480778
448.0,0.0020840081851929426
480.0,0.0013204773422330618
512.0,0.0004910998977720737
576.0,-0.0017746164230629802
640.0,-0.0022762033622711897
704.0,-0.001509087160229683
768.0,-0.0007226160378195345
832.0,7.749173528281972e-05
896.0,0.0005850297166034579
960.0,-0.0007952852756716311
1024.0,-0.0009492920362390578
1152.0,-0.0012158030876889825
1280.0,-0.0020033756736665964
1408.0,-0.0008595864055678248
1536.0,-0.0009242633823305368
1664.0,-0.002401533769443631
1792.0,-0.0037972545251250267
1920.0,-0.002959807403385639
2048.0,-0.002391247544437647
2304.0,-0.001788476249203086
2560.0,-0.0010439720936119556
2816.0,0.0003275333147030324
3072.0,0.002978390548378229
3328.0,0.004835368134081364
3584.0,0.0020112989004701376
3840.0,0.0009573915158398449
4096.0,-0.0008581003057770431
4608.0,-0.003590354695916176
5120.0,-0.003827269421890378
5632.0,0.0013632987393066287
6144.0,-0.0008404028485529125
6656.0,0.0025736000388860703
7168.0,0.0013911905698478222
7680.0,-0.0014813123270869255
8192.0,-0.002419385826215148
end
