version,3.0
numOfCh,1
type,point
parent_name,fe81d_0dot4-0dot1
ch_type,1_1
kcount,1
numberNandB,1
brightnessNandB,1
carpet pos,0
pc,0
Time (ms),CH1 Auto-Correlation
1.0,0.029109584167599678
2.0,0.027982158586382866
3.0,0.02695036493241787
4.0,0.0259964931756258
5.0,0.025120340287685394
6.0,0.02430616319179535
7.0,0.023534562438726425
8.0,0.022807439789175987
9.0,0.022114498540759087
10.0,0.021434437483549118
11.0,0.020797867327928543
12.0,0.020211737602949142
13.0,0.019672894850373268
14.0,0.019183732569217682
15.0,0.018729060888290405
16.0,0.018266160041093826
18.0,0.01742219738662243
20.0,0.016589200124144554
22.0,0.015811506658792496
24.0,0.01514493953436613
26.0,0.014558589085936546
28.0,0.013951266184449196
30.0,0.013350793160498142
32.0,0.012796161696314812
36.0,0.011862212792038918
40.0,0.010992759838700294
44.0,0.010182461701333523
48.0,0.009419781155884266
52.0,0.008759970776736736
56.0,0.00828911829739809
60.0,0.00787450186908245
64.0,0.007423640228807926
72.0,0.006490546744316816
80.0,0.005444144830107689
88.0,0.004501582123339176
96.0,0.003923263866454363
104.0,0.0034808495547622442
112.0,0.0027416476514190435
120.0,0.002104806015267968
128.0,0.001758972997777164
144.0,0.0014210096560418606
160.0,0.0009407593752257526
176.0,0.0007403258350677788
192.0,0.0007702211732976139
208.0,0.0012222450459375978
224.0,0.0011742793722078204
240.0,0.0007868382963351905
256.0,0.0003385341842658818
288.0,0.0009749029413796961
320.0,0.00018624428776092827
352.0,-0.0003486634523142129
384.0,0.001093845465220511
416.0,0.0022157393395900726
448.0,0.0030723640229552984
480.0,0.002914504613727331
512.0,0.002425289014354348
576.0,0.0011453268816694617
640.0,0.002318016020581126
704.0,0.002084252890199423
768.0,0.0009522721520625055
832.0,-0.0008650490781292319
896.0,-0.0013325877953320742
960.0,-0.0012538018636405468
1024.0,-0.0015512719983235002
1152.0,-0.0012426750035956502
1280.0,-0.0007721956353634596
1408.0,0.0003323195269331336
1536.0,-0.0011501222616061568
1664.0,0.0016347125638276339
1792.0,0.0009162261267192662
1920.0,0.0012106150388717651
2048.0,-0.0008568086777813733
2304.0,0.0002510705671738833
2560.0,-0.0007400293252430856
2816.0,-0.0005126369069330394
3072.0,-0.00021213943546172231
3328.0,0.0010722223669290543
3584.0,-0.0002035917859757319
3840.0,0.0006942987674847245
4096.0,-0.0009086558129638433
4608.0,0.00010923277295660228
5120.0,-0.0005186732159927487
5632.0,-0.001367329154163599
6144.0,-0.0025567819830030203
6656.0,-0.0011845359113067389
7168.0,-5.929777034907602e-05
7680.0,0.00035569322062656283
8192.0,-0.0001514430477982387
end
