version,3.0
numOfCh,1
type,point
parent_name,fe81d_0dot4-0dot1
ch_type,1_1
kcount,1
numberNandB,1
brightnessNandB,1
carpet pos,0
pc,0
Time (ms),CH1 Auto-Correlation
1.0,0.027242595329880714
2.0,0.026161978021264076
3.0,0.025144062936306
4.0,0.024164170026779175
5.0,0.023243803530931473
6.0,0.02240150421857834
7.0,0.02163216471672058
8.0,0.020902462303638458
9.0,0.020200714468955994
10.0,0.019521288573741913
11.0,0.01887991651892662
12.0,0.018252231180667877
13.0,0.017668593674898148
14.0,0.017117619514465332
15.0,0.016597727313637733
16.0,0.016074219718575478
18.0,0.015102162025868893
20.0,0.01418221928179264
22.0,0.013358458876609802
24.0,0.012604047544300556
26.0,0.01189939770847559
28.0,0.011312576942145824
30.0,0.010770770721137524
32.0,0.01021665520966053
36.0,0.009292335249483585
40.0,0.008486933074891567
44.0,0.007748924661427736
48.0,0.007045944686979055
52.0,0.006537339184433222
56.0,0.006194495130330324
60.0,0.0059510269202291965
64.0,0.005773553159087896
72.0,0.005210039671510458
80.0,0.004565902519971132
88.0,0.003807458095252514
96.0,0.0031540056224912405
104.0,0.00263054552488029
112.0,0.0025420666206628084
120.0,0.0025868613738566637
128.0,0.0022402452304959297
144.0,0.0025248441379517317
160.0,0.003068278543651104
176.0,0.0033096414990723133
192.0,0.003521024016663432
208.0,0.0032565195579081774
224.0,0.0025771090295165777
240.0,0.0018113343976438046
256.0,0.0012799211544916034
288.0,0.00024282035883516073
320.0,0.000548634969163686
352.0,0.0006170955603010952
384.0,0.00058757170336321
416.0,-0.00014212055248208344
448.0,-0.0005062998970970511
480.0,-0.0005222682957537472
512.0,0.00025058790924958885
576.0,0.0013414870481938124
640.0,0.001170931849628687
704.0,0.0007843697094358504
768.0,0.0009822408901527524
832.0,-0.0006523887277580798
896.0,-0.0008266259683296084
960.0,-0.0012726120185106993
1024.0,-0.0023855697363615036
1152.0,-0.0014303990174084902
1280.0,-0.0014498514356091619
1408.0,-0.0015637855976819992
1536.0,-0.0015354912029579282
1664.0,-0.0031648639123886824
1792.0,-0.0011615609982982278
1920.0,-0.0024761217646300793
2048.0,-0.0013273870572447777
2304.0,0.0009207617258653045
2560.0,0.0008362056105397642
2816.0,0.0022976647596806288
3072.0,0.002109312219545245
3328.0,0.0009999275207519531
3584.0,0.0009169959230348468
3840.0,0.000497909786645323
4096.0,-0.0010772405657917261
4608.0,-0.0018417647806927562
5120.0,-0.00016156276979018003
5632.0,-0.0005297201569192111
6144.0,-5.049371611676179e-05
6656.0,0.0005395445041358471
7168.0,0.00013698941620532423
7680.0,0.00022534858726430684
8192.0,-0.0021249940618872643
end
