version,3.0
numOfCh,1
type,point
parent_name,fe81d_0dot4-0dot1
ch_type,1_1
kcount,1
numberNandB,1
brightnessNandB,1
carpet pos,0
pc,0
Time (ms),CH1 Auto-Correlation
1.0,0.03943228721618652
2.0,0.03803766518831253
3.0,0.036632996052503586
4.0,0.03531869500875473
5.0,0.0339992493391037
6.0,0.03276427462697029
7.0,0.03166527301073074
8.0,0.0305547583848238
9.0,0.02954818867146969
10.0,0.028557749465107918
11.0,0.0276630911976099
12.0,0.0267185065895319
13.0,0.02585778385400772
14.0,0.02494758740067482
15.0,0.024068139493465424
16.0,0.023196913301944733
18.0,0.0212902519851923
20.0,0.019844546914100647
22.0,0.018621409311890602
24.0,0.01781604066491127
26.0,0.017110321670770645
28.0,0.016418462619185448
30.0,0.01577024906873703
32.0,0.015221616253256798
36.0,0.014258116483688354
40.0,0.013452869839966297
44.0,0.01284954696893692
48.0,0.012348245829343796
52.0,0.011870292015373707
56.0,0.011511768214404583
60.0,0.011226878501474857
64.0,0.010836057364940643
72.0,0.010211504995822906
80.0,0.009487112984061241
88.0,0.00857252161949873
96.0,0.007792170159518719
104.0,0.006993057671934366
112.0,0.006418759468942881
120.0,0.006237887777388096
128.0,0.006464907433837652
144.0,0.006753738969564438
160.0,0.006266333162784576
176.0,0.0057420190423727036
192.0,0.004373807460069656
208.0,0.0042806267738342285
224.0,0.004024206660687923
240.0,0.0035704094916582108
256.0,0.003949692007154226
288.0,0.00401840778067708
320.0,0.002428548876196146
352.0,0.0019193569896742702
384.0,-6.0528847825480625e-05
416.0,-0.0003776038938667625
448.0,-0.001796290511265397
480.0,-0.002602521562948823
512.0,-0.0014366707764565945
576.0,-0.0016274683875963092
640.0,-0.0022380552254617214
704.0,-0.0024504531174898148
768.0,-0.0022855226416140795
832.0,-0.0017836736515164375
896.0,-0.002347380155697465
960.0,-0.003314851550385356
1024.0,-0.0039548552595078945
1152.0,-0.0032230091746896505
1280.0,-0.002394626382738352
1408.0,-8.968957263277844e-05
1536.0,0.001237145741470158
1664.0,-0.0012396550737321377
1792.0,3.3580356557649793e-06
1920.0,-0.0006832858780398965
2048.0,0.0016199889359995723
2304.0,0.0030611532274633646
2560.0,0.0012108306400477886
2816.0,-0.0015858785482123494
3072.0,-0.0011725317453965545
3328.0,-0.0003879512660205364
3584.0,-0.0004706821928266436
3840.0,0.0007600025273859501
4096.0,0.0012532691471278667
4608.0,-0.00020720396423712373
5120.0,-0.0015459235291928053
5632.0,-0.0007494180463254452
6144.0,0.0021144209895282984
6656.0,0.00136899808421731
7168.0,0.0002291107812197879
7680.0,-0.004430044908076525
8192.0,0.0004475314635783434
end
