version,3.0
numOfCh,1
type,point
parent_name,fe81d_0dot4-0dot1
ch_type,1_1
kcount,1
numberNandB,1
brightnessNandB,1
carpet pos,0
pc,0
Time (ms),CH1 Auto-Correlation
1.0,0.02724730223417282
2.0,0.026241162791848183
3.0,0.025321539491415024
4.0,0.024444228038191795
5.0,0.023634664714336395
6.0,0.022841161116957664
7.0,0.022097142413258553
8.0,0.02139350213110447
9.0,0.02076074481010437
10.0,0.020186230540275574
11.0,0.019651519134640694
12.0,0.01915694773197174
13.0,0.018686531111598015
14.0,0.018254045397043228
15.0,0.017873460426926613
16.0,0.017472779378294945
18.0,0.01671409234404564
20.0,0.016067994758486748
22.0,0.015453487634658813
24.0,0.014881801791489124
26.0,0.014384657144546509
28.0,0.013935263268649578
30.0,0.013412158004939556
32.0,0.012912433594465256
36.0,0.011986237950623035
40.0,0.010894223116338253
44.0,0.00981354620307684
48.0,0.008988638408482075
52.0,0.008319905959069729
56.0,0.007717457599937916
60.0,0.007261918392032385
64.0,0.006828675512224436
72.0,0.006066574715077877
80.0,0.005542887840420008
88.0,0.005111975129693747
96.0,0.004700596444308758
104.0,0.004329016897827387
112.0,0.0040778606198728085
120.0,0.0037530905101448298
128.0,0.003379716305062175
144.0,0.002983279060572386
160.0,0.002705262042582035
176.0,0.002249370329082012
192.0,0.0023337716702371836
208.0,0.0020760882180184126
224.0,0.0015411825152114034
240.0,0.0008095105295069516
256.0,0.00015785331197548658
288.0,0.00047299929428845644
320.0,0.0009767411975190043
352.0,0.00016295233217533678
384.0,-0.00040638260543346405
416.0,-0.00036190697574056685
448.0,-0.00047605918371118605
480.0,-0.0001330923696514219
512.0,-0.00010633889905875549
576.0,-0.0020151513163000345
640.0,-0.0031240966636687517
704.0,-0.0024467112962156534
768.0,-0.0007148137083277106
832.0,4.909834387945011e-05
896.0,0.0019629006274044514
960.0,0.002684857463464141
1024.0,0.002372830407693982
1152.0,-0.0004698503471445292
1280.0,-0.00038482798845507205
1408.0,-0.002841794630512595
1536.0,-0.0022037376184016466
1664.0,-0.002746493788436055
1792.0,0.0016729382332414389
1920.0,0.002104559214785695
2048.0,0.0033103879541158676
2304.0,0.001661486690863967
2560.0,-0.0022043914068490267
2816.0,-0.00046912842663004994
3072.0,0.00032962390105240047
3328.0,0.0002360584621783346
3584.0,-0.0025981448125094175
3840.0,0.0002852287725545466
4096.0,0.002629133639857173
4608.0,-0.0018301039235666394
5120.0,0.0012108600931242108
5632.0,-0.0036141877062618732
6144.0,0.0021229078993201256
6656.0,-0.0033837640658020973
7168.0,0.001450574491173029
7680.0,-0.00316754006780684
8192.0,0.0016159790102392435
end
