version,3.0
numOfCh,1
type,point
parent_name,fe81d_0dot4-0dot1
ch_type,1_1
kcount,1
numberNandB,1
brightnessNandB,1
carpet pos,0
pc,0
Time (ms),CH1 Auto-Correlation
1.0,0.03088456019759178
2.0,0.029837075620889664
3.0,0.02885260432958603
4.0,0.02794155851006508
5.0,0.027065500617027283
6.0,0.026289308443665504
7.0,0.025540240108966827
8.0,0.024834198877215385
9.0,0.024137644097208977
10.0,0.023438794538378716
11.0,0.022788355126976967
12.0,0.02215753309428692
13.0,0.021579813212156296
14.0,0.021040229126811028
15.0,0.020557451993227005
16.0,0.020090144127607346
18.0,0.01922260783612728
20.0,0.018347937613725662
22.0,0.01756080612540245
24.0,0.016783442348241806
26.0,0.016094475984573364
28.0,0.015489181503653526
30.0,0.014906778931617737
32.0,0.014297612942755222
36.0,0.013090611435472965
40.0,0.012057846412062645
44.0,0.011282213032245636
48.0,0.010750038549304008
52.0,0.01028494443744421
56.0,0.009756281040608883
60.0,0.009222056716680527
64.0,0.008676924742758274
72.0,0.007531522773206234
80.0,0.006174980662763119
88.0,0.004802820738404989
96.0,0.0036679930053651333
104.0,0.003197901649400592
112.0,0.002946845255792141
120.0,0.002632720395922661
128.0,0.002425910672172904
144.0,0.0017522620037198067
160.0,0.000958587508648634
176.0,0.00023896910715848207
192.0,-6.70238514430821e-05
208.0,-6.962889165151864e-05
224.0,0.0006122124032117426
240.0,0.0009904010221362114
256.0,0.0006101137842051685
288.0,0.0019021691987290978
320.0,0.0011433371109887958
352.0,0.0006886407500132918
384.0,0.00020043789118062705
416.0,0.00030460720881819725
448.0,0.0008400817168876529
480.0,0.0008894891361705959
512.0,0.0016583326505497098
576.0,-0.0010016289306804538
640.0,-0.0030708787962794304
704.0,-0.002563973655924201
768.0,-0.002467247424647212
832.0,-0.0017026247223839164
896.0,-0.0003509088419377804
960.0,-0.0009729420416988432
1024.0,-0.001599345006980002
1152.0,-0.0022806597407907248
1280.0,-0.0019184591947123408
1408.0,-0.0022852628026157618
1536.0,-0.002701594028621912
1664.0,-0.0005424910341389477
1792.0,0.0001531932211946696
1920.0,-0.0009361573029309511
2048.0,-0.0008606273913756013
2304.0,0.0013289576163515449
2560.0,0.0014769122935831547
2816.0,0.0030997232533991337
3072.0,0.0004833117127418518
3328.0,-0.001095636747777462
3584.0,0.0003994454746134579
3840.0,-0.0008352877339348197
4096.0,-0.0018140210304409266
4608.0,-0.00011933887435588986
5120.0,-0.0005804219981655478
5632.0,0.0008434588089585304
6144.0,0.0016428731614723802
6656.0,0.00027903547743335366
7168.0,-0.003249963279813528
7680.0,0.00010271891369484365
8192.0,0.0015133604174479842
end
