version,3.0
numOfCh,1
type,point
parent_name,fe81d_0dot4-0dot1
ch_type,1_1
kcount,1
numberNandB,1
brightnessNandB,1
carpet pos,0
pc,0
Time (ms),CH1 Auto-Correlation
1.0,0.02997872419655323
2.0,0.028928512707352638
3.0,0.027938375249505043
4.0,0.026974620297551155
5.0,0.02606895938515663
6.0,0.02520003169775009
7.0,0.024390071630477905
8.0,0.02360026352107525
9.0,0.022856030613183975
10.0,0.022145455703139305
11.0,0.021469837054610252
12.0,0.020831547677516937
13.0,0.020246751606464386
14.0,0.019673243165016174
15.0,0.019131386652588844
16.0,0.018614863976836205
18.0,0.01762564294040203
20.0,0.01676068641245365
22.0,0.015956463292241096
24.0,0.015260087326169014
26.0,0.014621392823755741
28.0,0.014085208997130394
30.0,0.013609456829726696
32.0,0.013117654249072075
36.0,0.012196392752230167
40.0,0.011298123747110367
44.0,0.010429942980408669
48.0,0.009616290219128132
52.0,0.00893594790250063
56.0,0.008272300474345684
60.0,0.00765247642993927
64.0,0.007211779244244099
72.0,0.006616397760808468
80.0,0.0064227525144815445
88.0,0.006378511898219585
96.0,0.005973639898002148
104.0,0.005252678878605366
112.0,0.004422156605869532
120.0,0.004148948471993208
128.0,0.003872159169986844
144.0,0.0030163044575601816
160.0,0.0021367149893194437
176.0,0.0017637691926211119
192.0,0.001358900684863329
208.0,0.001132675213739276
224.0,0.0013223611749708652
240.0,0.0011104971636086702
256.0,0.0008916112710721791
288.0,5.9462967328727245e-05
320.0,-0.0012157297460362315
352.0,-0.002690452616661787
384.0,-0.0036364614497870207
416.0,-0.0030803638510406017
448.0,-0.0016063731163740158
480.0,-0.001223283470608294
512.0,-0.0008343617082573473
576.0,-0.0002958516124635935
640.0,-0.0001043843585648574
704.0,0.0008911066688597202
768.0,0.0007671104976907372
832.0,0.0012392322532832623
896.0,0.0008554342202842236
960.0,0.0015349752502515912
1024.0,0.0017013308824971318
1152.0,0.0028336711693555117
1280.0,-0.00019364486797712743
1408.0,-0.0006774273933842778
1536.0,-0.0015993877314031124
1664.0,0.0009966095676645637
1792.0,-6.166236562421545e-05
1920.0,0.0007408069795928895
2048.0,7.4408103500900324e-06
2304.0,-0.000629597285296768
2560.0,-0.0021987848449498415
2816.0,0.0008270631660707295
3072.0,0.000619009486399591
3328.0,-0.002331202384084463
3584.0,-0.002090997761115432
3840.0,0.00017058925004675984
4096.0,-0.0004292524536140263
4608.0,-0.00031765757012180984
5120.0,-0.00045311247231438756
5632.0,0.0004312693199608475
6144.0,0.0003674732579383999
6656.0,0.002128141699358821
7168.0,-8.536905806977302e-05
7680.0,0.0012970027746632695
8192.0,-0.0001980546221602708
end
