version,3.0
numOfCh,1
type,point
parent_name,fe81d_0dot4-0dot1
ch_type,1_1
kcount,1
numberNandB,1
brightnessNandB,1
carpet pos,0
pc,0
Time (ms),CH1 Auto-Correlation
1.0,0.032659001648426056
2.0,0.031512051820755005
3.0,0.030469171702861786
4.0,0.029508471488952637
5.0,0.02859928086400032
6.0,0.027712101116776466
7.0,0.026852702721953392
8.0,0.026025379076600075
9.0,0.02522250823676586
10.0,0.024451039731502533
11.0,0.02367103099822998
12.0,0.022946061566472054
13.0,0.022287821397185326
14.0,0.021648656576871872
15.0,0.021043457090854645
16.0,0.02046765200793743
18.0,0.019430197775363922
20.0,0.018489345908164978
22.0,0.017618393525481224
24.0,0.016836216673254967
26.0,0.016068480908870697
28.0,0.01539702620357275
30.0,0.014694740064442158
32.0,0.014028486795723438
36.0,0.012942438945174217
40.0,0.012055272236466408
44.0,0.011157662607729435
48.0,0.01019908208400011
52.0,0.00934070535004139
56.0,0.008806989528238773
60.0,0.008406879380345345
64.0,0.008072908967733383
72.0,0.007412091828882694
80.0,0.006743718404322863
88.0,0.005934025160968304
96.0,0.005137065891176462
104.0,0.004479785915464163
112.0,0.004124470055103302
120.0,0.004272591322660446
128.0,0.004857428837567568
144.0,0.005221730098128319
160.0,0.0051291994750499725
176.0,0.005277739372104406
192.0,0.004888791125267744
208.0,0.004375234246253967
224.0,0.0035184745211154222
240.0,0.002391731133684516
256.0,0.0016997914062812924
288.0,0.0012727007269859314
320.0,0.0018999844323843718
352.0,0.003308923915028572
384.0,0.0031541152857244015
416.0,0.0013667799066752195
448.0,0.0003958473389502615
480.0,3.559246761142276e-05
512.0,2.99269213428488e-05
576.0,0.0030705526005476713
640.0,0.002523597562685609
704.0,0.002710169879719615
768.0,0.001912106410600245
832.0,0.0006452454254031181
896.0,0.00032689273939467967
960.0,0.00020241757738403976
1024.0,-0.0002018114464590326
1152.0,-0.0016677171224728227
1280.0,-0.0006442230078391731
1408.0,-0.003294040448963642
1536.0,-0.0009738272638060153
1664.0,-0.001009805011563003
1792.0,-0.0008797877817414701
1920.0,-0.0003101355687249452
2048.0,-0.0014586392790079117
2304.0,0.0009365963051095605
2560.0,0.001983430003747344
2816.0,0.003026232123374939
3072.0,-0.00011374403402442113
3328.0,-0.00012250817962922156
3584.0,1.613973654457368e-05
3840.0,-0.0004906033864244819
4096.0,-0.0013210002798587084
4608.0,-0.002379927085712552
5120.0,-0.002512394217774272
5632.0,-0.0016553227324038744
6144.0,-0.0006246305420063436
6656.0,0.0037325392477214336
7168.0,-0.004956929013133049
7680.0,-0.00542922830209136
8192.0,-0.004440513905137777
end
