version,3.0
numOfCh,1
type,point
parent_name,fe81d_0dot4-0dot1
ch_type,1_1
kcount,1
numberNandB,1
brightnessNandB,1
carpet pos,0
pc,0
Time (ms),CH1 Auto-Correlation
1.0,0.029821647331118584
2.0,0.02872326970100403
3.0,0.027646904811263084
4.0,0.026651235297322273
5.0,0.025737497955560684
6.0,0.02489274926483631
7.0,0.024110259488224983
8.0,0.02339131571352482
9.0,0.022709183394908905
10.0,0.022079015150666237
11.0,0.021458694711327553
12.0,0.020868739113211632
13.0,0.02033303491771221
14.0,0.01983313076198101
15.0,0.019367894157767296
16.0,0.018888626247644424
18.0,0.01797274500131607
20.0,0.017103005200624466
22.0,0.016312263906002045
24.0,0.015536230057477951
26.0,0.014812015928328037
28.0,0.0141229797154665
30.0,0.013432790525257587
32.0,0.012714414857327938
36.0,0.011585638858377934
40.0,0.010873818770051003
44.0,0.01027145329862833
48.0,0.009697453118860722
52.0,0.009105002507567406
56.0,0.00849531777203083
60.0,0.008030829019844532
64.0,0.007658077869564295
72.0,0.006885815877467394
80.0,0.0057440209202468395
88.0,0.0050887358374893665
96.0,0.004877956584095955
104.0,0.004778178874403238
112.0,0.005246778484433889
120.0,0.005786598660051823
128.0,0.006084734573960304
144.0,0.005566389765590429
160.0,0.005210716277360916
176.0,0.005358819384127855
192.0,0.005299592390656471
208.0,0.00490372721105814
224.0,0.003591001033782959
240.0,0.003144458867609501
256.0,0.0027532042004168034
288.0,0.002615039236843586
320.0,0.002603237982839346
352.0,0.0022239412646740675
384.0,0.0022660773247480392
416.0,0.0033913743682205677
448.0,0.003796112723648548
480.0,0.002218803856521845
512.0,0.0010283172596246004
576.0,-0.00015282373351510614
640.0,-0.000687597319483757
704.0,-0.0020920669194310904
768.0,-0.0019935432355850935
832.0,-0.00027587934164330363
896.0,-0.001461803913116455
960.0,0.0008230349631048739
1024.0,-0.0005429693264886737
1152.0,-0.0004939975333400071
1280.0,0.0005547623732127249
1408.0,0.0009132943814620376
1536.0,0.0019366651540622115
1664.0,0.0032907132990658283
1792.0,0.0006922220345586538
1920.0,0.0008487941813655198
2048.0,0.0008387186098843813
2304.0,-0.0010195245267823339
2560.0,0.0016678875545039773
2816.0,0.0008328454568982124
3072.0,0.0007521070074290037
3328.0,-7.789803203195333e-05
3584.0,-0.0016425942303612828
3840.0,-0.002471297513693571
4096.0,-0.0017066531581804156
4608.0,0.0013093012385070324
5120.0,0.0021323973778635263
5632.0,-0.0011551977368071675
6144.0,-0.002475499641150236
6656.0,-0.001999231521040201
7168.0,-0.0021332295145839453
7680.0,-0.0011504603317007422
8192.0,-0.002853991463780403
end
