version,3.0
numOfCh,1
type,point
parent_name,fe81d_0dot4-0dot1
ch_type,1_1
kcount,1
numberNandB,1
brightnessNandB,1
carpet pos,0
pc,0
Time (ms),CH1 Auto-Correlation
1.0,0.03251340612769127
2.0,0.03138507902622223
3.0,0.030329205095767975
4.0,0.029359841719269753
5.0,0.02843858301639557
6.0,0.027585139498114586
7.0,0.026770666241645813
8.0,0.02602032758295536
9.0,0.025294046849012375
10.0,0.024597659707069397
11.0,0.02391047216951847
12.0,0.02324695885181427
13.0,0.02264520898461342
14.0,0.02209731750190258
15.0,0.021587112918496132
16.0,0.021124448627233505
18.0,0.02025069296360016
20.0,0.019418396055698395
22.0,0.0186751838773489
24.0,0.0180282574146986
26.0,0.017429985105991364
28.0,0.016898375004529953
30.0,0.016352862119674683
32.0,0.015836890786886215
36.0,0.014964808709919453
40.0,0.014191749505698681
44.0,0.013475575484335423
48.0,0.012796388007700443
52.0,0.012144864536821842
56.0,0.011651929467916489
60.0,0.011205064132809639
64.0,0.010813106782734394
72.0,0.010229465551674366
80.0,0.009880505502223969
88.0,0.00949967373162508
96.0,0.00880514271557331
104.0,0.007599020842462778
112.0,0.006458311341702938
120.0,0.005552877672016621
128.0,0.005277507938444614
144.0,0.004639346618205309
160.0,0.003869852516800165
176.0,0.003527384251356125
192.0,0.003189758164808154
208.0,0.0025014367420226336
224.0,0.0015485805924981833
240.0,0.0013418825110420585
256.0,0.0011349963024258614
288.0,0.0009746639989316463
320.0,0.0005881775286979973
352.0,0.0012559595052152872
384.0,0.002514190971851349
416.0,0.0026580109260976315
448.0,0.0025485954247415066
480.0,0.0014705803478136659
512.0,0.0018831925699487329
576.0,0.003276816103607416
640.0,0.0023831867147237062
704.0,0.002354654250666499
768.0,0.0013091287110000849
832.0,0.0006611234275624156
896.0,0.0014544869773089886
960.0,0.003834642469882965
1024.0,0.005840625613927841
1152.0,0.0055420007556676865
1280.0,0.0019596091005951166
1408.0,0.0006484905024990439
1536.0,0.0007145911804400384
1664.0,0.0032099380623549223
1792.0,0.0005088254110887647
1920.0,-0.0006926701753400266
2048.0,-0.0008513109060004354
2304.0,0.0009047797648236156
2560.0,-0.0005240761674940586
2816.0,0.0010650937911123037
3072.0,-0.0001855506852734834
3328.0,0.001797539065591991
3584.0,0.00021621567429974675
3840.0,-0.0008188326028175652
4096.0,0.0001561239769216627
4608.0,0.0009574886062182486
5120.0,0.000510202837176621
5632.0,-0.0013200741959735751
6144.0,-0.0010759368306025863
6656.0,-0.002172735519707203
7168.0,-0.0028059310279786587
7680.0,-0.0021716426126658916
8192.0,-0.0041090683080255985
end
