version,3.0
numOfCh,1
type,point
parent_name,fe81d_0dot4-0dot1
ch_type,1_1
kcount,1
numberNandB,1
brightnessNandB,1
carpet pos,0
pc,0
Time (ms),CH1 Auto-Correlation
1.0,0.03098079189658165
2.0,0.029890719801187515
3.0,0.02885313518345356
4.0,0.027864933013916016
5.0,0.026963861659169197
6.0,0.026124201714992523
7.0,0.02535027638077736
8.0,0.024616898968815804
9.0,0.023944450542330742
10.0,0.02328331395983696
11.0,0.022626657038927078
12.0,0.0220134649425745
13.0,0.021439412608742714
14.0,0.02090422250330448
15.0,0.020405476912856102
16.0,0.01989721693098545
18.0,0.018893323838710785
20.0,0.017923373728990555
22.0,0.017042487859725952
24.0,0.016263406723737717
26.0,0.015579210594296455
28.0,0.015001279301941395
30.0,0.014484790153801441
32.0,0.014020201750099659
36.0,0.013182543218135834
40.0,0.012445365078747272
44.0,0.011834083124995232
48.0,0.011262024752795696
52.0,0.010640857741236687
56.0,0.010189970955252647
60.0,0.009837985038757324
64.0,0.009431039914488792
72.0,0.00884979497641325
80.0,0.008256961591541767
88.0,0.00767493387684226
96.0,0.007278325501829386
104.0,0.006911827716976404
112.0,0.006453447975218296
120.0,0.005825065542012453
128.0,0.005229414440691471
144.0,0.005324540194123983
160.0,0.005236099008470774
176.0,0.004448212683200836
192.0,0.003823072649538517
208.0,0.003098779823631048
224.0,0.002522587077692151
240.0,0.002138682873919606
256.0,0.0016491505084559321
288.0,0.0007714943494647741
320.0,0.0010803902987390757
352.0,0.0010649561882019043
384.0,0.0008037041407078505
416.0,0.0011994222877547145
448.0,0.0005685137584805489
480.0,0.00035988487070426345
512.0,0.0005901225376874208
576.0,0.0005120211862958968
640.0,-0.0007101731025613844
704.0,-0.0019253274658694863
768.0,-0.0022354586981236935
832.0,-7.969656144268811e-05
896.0,-0.0008791301515884697
960.0,0.0004329988732933998
1024.0,0.0022386994678527117
1152.0,0.0011862812098115683
1280.0,0.003054580185562372
1408.0,0.0032491772435605526
1536.0,0.0015921505400910974
1664.0,-0.000162534968694672
1792.0,-0.0006148472311906517
1920.0,-0.0005157540435902774
2048.0,-0.002148532308638096
2304.0,-0.005497365724295378
2560.0,-0.004192442167550325
2816.0,0.0010047416435554624
3072.0,-0.0011298577301204205
3328.0,0.0007317011477425694
3584.0,-0.004555533640086651
3840.0,-0.0018686592811718583
4096.0,-0.002001214539632201
4608.0,0.0008091430645436049
5120.0,-0.0005482424166984856
5632.0,-0.0021048521157354116
6144.0,0.0020889167208224535
6656.0,0.000492471328470856
7168.0,-0.00046905604540370405
7680.0,0.0034144772216677666
8192.0,0.0009058118448592722
end
