version,3.0
numOfCh,1
type,point
parent_name,fe81d_0dot4-0dot1
ch_type,1_1
kcount,1
numberNandB,1
brightnessNandB,1
carpet pos,0
pc,0
Time (ms),CH1 Auto-Correlation
1.0,0.028280675411224365
2.0,0.027190938591957092
3.0,0.0262133926153183
4.0,0.025275690481066704
5.0,0.024382544681429863
6.0,0.02358226291835308
7.0,0.02284577675163746
8.0,0.02216649241745472
9.0,0.021483825519680977
10.0,0.02081502228975296
11.0,0.02011975459754467
12.0,0.01945398934185505
13.0,0.01884431764483452
14.0,0.018296243622899055
15.0,0.0177615974098444
16.0,0.017274366691708565
18.0,0.016406655311584473
20.0,0.015610172413289547
22.0,0.014870795421302319
24.0,0.014234006404876709
26.0,0.013707959093153477
28.0,0.013228301890194416
30.0,0.012783767655491829
32.0,0.012374849990010262
36.0,0.011731424368917942
40.0,0.011097204871475697
44.0,0.010477706789970398
48.0,0.009796851314604282
52.0,0.009118391200900078
56.0,0.008404192514717579
60.0,0.007762102410197258
64.0,0.007211613468825817
72.0,0.00653154356405139
80.0,0.005890255328267813
88.0,0.005523400381207466
96.0,0.005141888279467821
104.0,0.004708006512373686
112.0,0.004310977645218372
120.0,0.0039868541061878204
128.0,0.003807096742093563
144.0,0.004037376027554274
160.0,0.003802296705543995
176.0,0.003505301894620061
192.0,0.00361546385101974
208.0,0.003296384122222662
224.0,0.00300103472545743
240.0,0.0026582784485071898
256.0,0.0020307970698922873
288.0,0.0007118215435184538
320.0,0.0012588618556037545
352.0,0.0011920087272301316
384.0,0.0004963363753631711
416.0,-0.00036948308115825057
448.0,0.00011129956692457199
480.0,0.0007297034608200192
512.0,0.0014971623895689845
576.0,0.001886336482129991
640.0,0.00022568392159882933
704.0,0.0005207986105233431
768.0,0.0014309589751064777
832.0,0.0016241074772551656
896.0,-0.0002781679795589298
960.0,-0.0008720463956706226
1024.0,-0.0003965141368098557
1152.0,0.00011178059503436089
1280.0,0.00042052482604049146
1408.0,0.0015686756232753396
1536.0,0.0023073828779160976
1664.0,0.0030630941037088633
1792.0,0.0019497519824653864
1920.0,0.0020355693995952606
2048.0,-5.165680340724066e-05
2304.0,-0.0009593662107363343
2560.0,-0.0006187384715303779
2816.0,0.000924387015402317
3072.0,0.0006888076313771307
3328.0,0.0019327359041199088
3584.0,0.0012086592614650726
3840.0,0.0004924049135297537
4096.0,-0.0012824698351323605
4608.0,0.0005041765398345888
5120.0,0.0008263777126558125
5632.0,-0.0006736341747455299
6144.0,0.0012049447977915406
6656.0,-0.0002127211628248915
7168.0,-0.0035543448757380247
7680.0,-0.001549447886645794
8192.0,-0.0010175593197345734
end
