version,3.0
numOfCh,1
type,point
parent_name,fe81d_0dot4-0dot1
ch_type,1_1
kcount,1
numberNandB,1
brightnessNandB,1
carpet pos,0
pc,0
Time (ms),CH1 Auto-Correlation
1.0,0.029488367959856987
2.0,0.028455521911382675
3.0,0.027506303042173386
4.0,0.026606328785419464
5.0,0.02574925124645233
6.0,0.024962877854704857
7.0,0.024217640981078148
8.0,0.023513972759246826
9.0,0.022877460345625877
10.0,0.022265154868364334
11.0,0.02169317938387394
12.0,0.02113981731235981
13.0,0.020586218684911728
14.0,0.020044425502419472
15.0,0.019538870081305504
16.0,0.019067900255322456
18.0,0.018218910321593285
20.0,0.017448680475354195
22.0,0.016718370839953423
24.0,0.016040466725826263
26.0,0.015390469692647457
28.0,0.014825139194726944
30.0,0.014253583736717701
32.0,0.013690605759620667
36.0,0.012584036216139793
40.0,0.011651750653982162
44.0,0.010802739299833775
48.0,0.009996000677347183
52.0,0.009299952536821365
56.0,0.008622780442237854
60.0,0.007966840639710426
64.0,0.007440817542374134
72.0,0.006674863398075104
80.0,0.005914157256484032
88.0,0.0054730880074203014
96.0,0.005336472764611244
104.0,0.005130353383719921
112.0,0.0050175548531115055
120.0,0.004788906313478947
128.0,0.004363706801086664
144.0,0.003734559752047062
160.0,0.003439829219132662
176.0,0.003816209966316819
192.0,0.004600056912750006
208.0,0.004910259507596493
224.0,0.004694679286330938
240.0,0.004706582520157099
256.0,0.003845684230327606
288.0,0.0025880879256874323
320.0,0.0019874218851327896
352.0,0.0014369855634868145
384.0,0.0015049204230308533
416.0,0.0016310644568875432
448.0,0.002160591073334217
480.0,0.0016440675826743245
512.0,0.001825238112360239
576.0,-0.00017701297474559397
640.0,-0.0011527910828590393
704.0,-0.0015983652556315064
768.0,-0.0007376837893389165
832.0,-0.0006451458903029561
896.0,-0.0019251755438745022
960.0,-0.002081636106595397
1024.0,0.0004092722083441913
1152.0,-0.0007207082235254347
1280.0,-2.7041676275985083e-06
1408.0,0.0019400076707825065
1536.0,0.002944377949461341
1664.0,0.0004162011609878391
1792.0,-0.0016238200478255749
1920.0,-0.0006348773022182286
2048.0,-0.0021438237745314837
2304.0,-0.0035043605603277683
2560.0,-0.002260839333757758
2816.0,-0.0011771549470722675
3072.0,0.000222562623093836
3328.0,0.000623544619884342
3584.0,-0.0022295613307505846
3840.0,-0.0026851617731153965
4096.0,-0.001571216038428247
4608.0,0.0007973866304382682
5120.0,-0.0010993985924869776
5632.0,0.0019051440758630633
6144.0,0.0015765695134177804
6656.0,-0.001875346410088241
7168.0,0.0013373460387811065
7680.0,-0.000554908940102905
8192.0,-0.00015531900862697512
end
