version,3.0
numOfCh,1
type,point
parent_name,fe81d_0dot4-0dot1
ch_type,1_1
kcount,1
numberNandB,1
brightnessNandB,1
carpet pos,0
pc,0
Time (ms),CH1 Auto-Correlation
1.0,0.029283976182341576
2.0,0.028275437653064728
3.0,0.02733057178556919
4.0,0.026448426768183708
5.0,0.025610115379095078
6.0,0.024815436452627182
7.0,0.024078592658042908
8.0,0.023404205217957497
9.0,0.022765932604670525
10.0,0.022165188565850258
11.0,0.02159460261464119
12.0,0.021051302552223206
13.0,0.020537445321679115
14.0,0.020021019503474236
15.0,0.019535692408680916
16.0,0.019072003662586212
18.0,0.01824456825852394
20.0,0.017481191083788872
22.0,0.016785837709903717
24.0,0.016115887090563774
26.0,0.015473496168851852
28.0,0.014907226897776127
30.0,0.014368037693202496
32.0,0.01383577473461628
36.0,0.012905881740152836
40.0,0.01209001149982214
44.0,0.011410551145672798
48.0,0.010769547894597054
52.0,0.010284209623932838
56.0,0.010010777972638607
60.0,0.009794393554329872
64.0,0.009575904347002506
72.0,0.009151047095656395
80.0,0.008779844269156456
88.0,0.0084236990660429
96.0,0.008237256668508053
104.0,0.008107762783765793
112.0,0.00816427357494831
120.0,0.007863293401896954
128.0,0.007318833842873573
144.0,0.00642421143129468
160.0,0.006209471728652716
176.0,0.005950437858700752
192.0,0.005374053493142128
208.0,0.0051185982301831245
224.0,0.004771793726831675
240.0,0.0045190900564193726
256.0,0.00466961832717061
288.0,0.003691207617521286
320.0,0.0030344927217811346
352.0,0.002887511858716607
384.0,0.0037829740904271603
416.0,0.004407575819641352
448.0,0.004095196258276701
480.0,0.002478503854945302
512.0,0.0028971857391297817
576.0,0.0028804121538996696
640.0,0.0013905769446864724
704.0,9.666230653238017e-06
768.0,0.00015814699872862548
832.0,0.0003918170987162739
896.0,4.668119072448462e-05
960.0,0.0013751891674473882
1024.0,0.0012183301150798798
1152.0,-0.0017293464625254273
1280.0,-0.002913772827014327
1408.0,-0.0007848704699426889
1536.0,0.000603135209530592
1664.0,0.00047169908066280186
1792.0,0.00027209086692892015
1920.0,5.6072487495839596e-05
2048.0,-0.0005682241171598434
2304.0,-0.0008869881276041269
2560.0,-1.5453747437277343e-06
2816.0,-0.0004744782636407763
3072.0,-0.0015009634662419558
3328.0,-0.001448471681214869
3584.0,-0.0015579450409859419
3840.0,-0.0021084777545183897
4096.0,-0.0015685491962358356
4608.0,-0.0020612352527678013
5120.0,-0.003135452512651682
5632.0,-7.245357119245455e-05
6144.0,-0.00235610525123775
6656.0,-0.0031433086842298508
7168.0,-0.000732899468857795
7680.0,0.0022075765300542116
8192.0,0.002029063180088997
end
