version,3.0
numOfCh,1
type,point
parent_name,fe81d_0dot4-0dot1
ch_type,1_1
kcount,1
numberNandB,1
brightnessNandB,1
carpet pos,0
pc,0
Time (ms),CH1 Auto-Correlation
1.0,0.039242591708898544
2.0,0.03731994703412056
3.0,0.03543728590011597
4.0,0.033572692424058914
5.0,0.03188065439462662
6.0,0.03024929016828537
7.0,0.02860637940466404
8.0,0.027814747765660286
9.0,0.02699175849556923
10.0,0.026257788762450218
11.0,0.025570811703801155
12.0,0.024898268282413483
13.0,0.02421284280717373
14.0,0.02352374792098999
15.0,0.02286139875650406
16.0,0.022265994921326637
18.0,0.021138451993465424
20.0,0.020042290911078453
22.0,0.019031696021556854
24.0,0.01808866672217846
26.0,0.017291463911533356
28.0,0.01655537635087967
30.0,0.015963425859808922
32.0,0.015358413569629192
36.0,0.014732933603227139
40.0,0.014025071635842323
44.0,0.013193108141422272
48.0,0.012407934293150902
52.0,0.011583196930587292
56.0,0.010805792175233364
60.0,0.010160932317376137
64.0,0.009501146152615547
72.0,0.008569384925067425
80.0,0.007683103904128075
88.0,0.007155566941946745
96.0,0.006899143103510141
104.0,0.006663138046860695
112.0,0.0056358035653829575
120.0,0.004670803900808096
128.0,0.004053445067256689
144.0,0.003563451115041971
160.0,0.0030736736953258514
176.0,0.0032013128511607647
192.0,0.003295013215392828
208.0,0.002235667547211051
224.0,0.0016929751727730036
240.0,0.0015949280932545662
256.0,0.0017114210641011596
288.0,0.004142467863857746
320.0,0.0039461697451770306
352.0,0.0017631376395002007
384.0,-0.00061821099370718
416.0,-0.0006954022101126611
448.0,-0.0007109011057764292
480.0,-0.0003502056351862848
512.0,0.0005327165708877146
576.0,6.133808346930891e-05
640.0,-0.00015182873175945133
704.0,-0.0016127430135384202
768.0,-0.00042283270158804953
832.0,0.0006515037384815514
896.0,0.0011760264169424772
960.0,0.0012248435523360968
1024.0,5.7728782849153504e-05
1152.0,-4.14157984778285e-05
1280.0,0.003977521322667599
1408.0,0.002981074620038271
1536.0,0.0011889600427821279
1664.0,0.0004922879161313176
1792.0,0.00027465715538710356
1920.0,-0.0005380110233090818
2048.0,0.000493406318128109
2304.0,0.0009267531568184495
2560.0,0.001400001347064972
2816.0,0.0019630591850727797
3072.0,-0.0005514532094821334
3328.0,-0.0011559767881408334
3584.0,0.0013019859325140715
3840.0,0.00046739965910091996
4096.0,-0.0014992987271398306
4608.0,-0.0002795684849843383
5120.0,0.00038636685349047184
5632.0,9.232201409759e-05
6144.0,-0.002905848203226924
6656.0,-0.0005517419776879251
7168.0,-0.0007917669136077166
7680.0,-0.0010536167537793517
8192.0,-0.0015958241419866681
end
