version,3.0
numOfCh,1
type,point
parent_name,fe81d_0dot4-0dot1
ch_type,1_1
kcount,1
numberNandB,1
brightnessNandB,1
carpet pos,0
pc,0
Time (ms),CH1 Auto-Correlation
1.0,0.03140954300761223
2.0,0.03033187799155712
3.0,0.029326964169740677
4.0,0.02841644361615181
5.0,0.027566082775592804
6.0,0.0267226193100214
7.0,0.025956392288208008
8.0,0.025252675637602806
9.0,0.024598851799964905
10.0,0.02398371323943138
11.0,0.023389004170894623
12.0,0.02282652072608471
13.0,0.02228449285030365
14.0,0.021780025213956833
15.0,0.021290689706802368
16.0,0.02080644853413105
18.0,0.020059050992131233
20.0,0.019357308745384216
22.0,0.0186562929302454
24.0,0.01804026961326599
26.0,0.017455287277698517
28.0,0.016816619783639908
30.0,0.016249381005764008
32.0,0.01577231101691723
36.0,0.014847218990325928
40.0,0.013978763483464718
44.0,0.013215632177889347
48.0,0.012482729740440845
52.0,0.011711020022630692
56.0,0.01096869446337223
60.0,0.01028053741902113
64.0,0.009776663035154343
72.0,0.008983687497675419
80.0,0.008078843355178833
88.0,0.00721787428483367
96.0,0.006210375111550093
104.0,0.00538338627666235
112.0,0.004940705373883247
120.0,0.004362701438367367
128.0,0.003885291749611497
144.0,0.0027550982777029276
160.0,0.0013872752897441387
176.0,0.00011036566138500348
192.0,-0.0008705203654244542
208.0,-0.001676266547292471
224.0,-0.0022550206631422043
240.0,-0.0027425778098404408
256.0,-0.002892104908823967
288.0,-0.0027303029783070087
320.0,-0.0039918310940265656
352.0,-0.003340516472235322
384.0,-0.0021931452210992575
416.0,-0.0017989935586228967
448.0,-0.0019031921401619911
480.0,-0.00227515515871346
512.0,-0.002752911765128374
576.0,-0.0023715218994766474
640.0,-0.0010971821611747146
704.0,0.00038097857031971216
768.0,0.002015072386711836
832.0,0.00348447123542428
896.0,0.0021192114800214767
960.0,0.0014625900657847524
1024.0,2.256802144984249e-05
1152.0,-0.0015776535728946328
1280.0,-0.0004931192961521447
1408.0,-5.091358980280347e-05
1536.0,-0.004140328615903854
1664.0,-0.0023341274354606867
1792.0,0.0013337574200704694
1920.0,0.0004993720212951303
2048.0,-9.098837472265586e-05
2304.0,-0.0026152050122618675
2560.0,0.0015902742743492126
2816.0,0.0029711744282394648
3072.0,-0.0006629275740124285
3328.0,-0.0005098108667880297
3584.0,0.0001264323655050248
3840.0,-0.0005655774148181081
4096.0,0.0007495934842154384
4608.0,-0.0012752101756632328
5120.0,-0.0006532808183692396
5632.0,0.00012618275650311261
6144.0,0.0002865551214199513
6656.0,0.0025720444973558187
7168.0,-0.001739493221975863
7680.0,-0.0014269384555518627
8192.0,-0.0007295855320990086
end
