version,3.0
numOfCh,1
type,point
parent_name,fe81d_0dot4-0dot1
ch_type,1_1
kcount,1
numberNandB,1
brightnessNandB,1
carpet pos,0
pc,0
Time (ms),CH1 Auto-Correlation
1.0,0.031913939863443375
2.0,0.030764147639274597
3.0,0.029688622802495956
4.0,0.028641581535339355
5.0,0.02767752856016159
6.0,0.026776233687996864
7.0,0.025910789147019386
8.0,0.025086551904678345
9.0,0.024317478761076927
10.0,0.023606307804584503
11.0,0.022963780909776688
12.0,0.022374510765075684
13.0,0.021822670474648476
14.0,0.02131844311952591
15.0,0.020848216488957405
16.0,0.02041544020175934
18.0,0.01955021731555462
20.0,0.01881297491490841
22.0,0.018160931766033173
24.0,0.017480626702308655
26.0,0.016802825033664703
28.0,0.016154756769537926
30.0,0.015445145778357983
32.0,0.014753603376448154
36.0,0.01351014245301485
40.0,0.012464296072721481
44.0,0.011529763229191303
48.0,0.010726293548941612
52.0,0.010050352662801743
56.0,0.009489852003753185
60.0,0.00891035981476307
64.0,0.008443932980298996
72.0,0.007700650952756405
80.0,0.007135392166674137
88.0,0.006580214481800795
96.0,0.006450401619076729
104.0,0.006412530783563852
112.0,0.005967401899397373
120.0,0.0053533148020505905
128.0,0.004623881541192532
144.0,0.0038508172146975994
160.0,0.0032506866846233606
176.0,0.003500276245176792
192.0,0.003962409216910601
208.0,0.004061057232320309
224.0,0.0037707132287323475
240.0,0.0031869530212134123
256.0,0.0026839824859052896
288.0,0.0009649043786339462
320.0,5.60357584618032e-05
352.0,-0.0006754256901331246
384.0,-0.00018956836720462888
416.0,-0.00028320547426119447
448.0,0.00019988411804661155
480.0,0.0013624426210299134
512.0,0.0013475962914526463
576.0,0.0009659791248850524
640.0,0.0013591934693977237
704.0,0.001503031700849533
768.0,0.0003470114024821669
832.0,0.0014362543588504195
896.0,0.0027891607023775578
960.0,0.0030354768969118595
1024.0,0.0023648233618587255
1152.0,0.00271997950039804
1280.0,0.00042564194882288575
1408.0,0.0020984397269785404
1536.0,0.0005184878828004003
1664.0,-0.002609966555610299
1792.0,-0.0024687994737178087
1920.0,-0.002471938729286194
2048.0,-0.0011375320609658957
2304.0,-0.002562163630500436
2560.0,-0.0019851617980748415
2816.0,-0.0032525125425308943
3072.0,-0.0027626371011137962
3328.0,-0.0017291194526478648
3584.0,-0.002564752707257867
3840.0,-0.0015746328281238675
4096.0,0.00024320255033671856
4608.0,0.0007846690132282674
5120.0,0.0014467316213995218
5632.0,0.0010957723716273904
6144.0,0.0016711280914023519
6656.0,0.000538281281478703
7168.0,-0.0002461190160829574
7680.0,-0.000900139391887933
8192.0,-0.00215001474134624
end
