version,3.0
numOfCh,1
type,point
parent_name,fe81d_0dot4-0dot1
ch_type,1_1
kcount,1
numberNandB,1
brightnessNandB,1
carpet pos,0
pc,0
Time (ms),CH1 Auto-Correlation
1.0,0.03010782040655613
2.0,0.029021337628364563
3.0,0.027997588738799095
4.0,0.027071412652730942
5.0,0.02618027664721012
6.0,0.025322847068309784
7.0,0.024504996836185455
8.0,0.02374623529613018
9.0,0.023048831149935722
10.0,0.022384127601981163
11.0,0.021770697087049484
12.0,0.02118237502872944
13.0,0.020604608580470085
14.0,0.020074862986803055
15.0,0.01958325318992138
16.0,0.019118253141641617
18.0,0.01832321099936962
20.0,0.01761125586926937
22.0,0.01691433973610401
24.0,0.016314150765538216
26.0,0.01573846861720085
28.0,0.015311225317418575
30.0,0.014948457479476929
32.0,0.014649206772446632
36.0,0.014053905382752419
40.0,0.013475230894982815
44.0,0.012994651682674885
48.0,0.012542081996798515
52.0,0.01207496877759695
56.0,0.011591342277824879
60.0,0.011131025850772858
64.0,0.010636293329298496
72.0,0.009335538372397423
80.0,0.008526891469955444
88.0,0.007940923795104027
96.0,0.006867688149213791
104.0,0.00604280224069953
112.0,0.005305041093379259
120.0,0.004836071748286486
128.0,0.004246831405907869
144.0,0.0030636547598987818
160.0,0.002453883644193411
176.0,0.0023422567173838615
192.0,0.0020573227666318417
208.0,0.0014494206989184022
224.0,0.0013238888932392001
240.0,0.0018873739754781127
256.0,0.002178327413275838
288.0,0.001363889197818935
320.0,0.0010425843065604568
352.0,1.3096154361846857e-05
384.0,-0.0005049846367910504
416.0,-1.8624274161993526e-05
448.0,6.933484837645665e-05
480.0,0.0006241888040676713
512.0,0.001671503414399922
576.0,0.002092752605676651
640.0,0.002616398734971881
704.0,0.0012365623842924833
768.0,0.0016631190665066242
832.0,0.00021189675317145884
896.0,-0.001870895503088832
960.0,-0.003380530048161745
1024.0,-0.0030387770384550095
1152.0,-0.0014483164995908737
1280.0,-0.002595426980406046
1408.0,-0.0024402521084994078
1536.0,0.00020584631420206279
1664.0,0.00020235676493030041
1792.0,0.0003050900704693049
1920.0,-0.0022993539460003376
2048.0,-0.0014996714890003204
2304.0,-0.000769302889239043
2560.0,-0.002732358407229185
2816.0,-0.0013176234206184745
3072.0,-0.0019312347285449505
3328.0,0.0005534958909265697
3584.0,-0.0008768842089921236
3840.0,0.0018527533393353224
4096.0,0.0015830835327506065
4608.0,0.0008156542899087071
5120.0,0.0007417619344778359
5632.0,0.0004706145264208317
6144.0,-0.0018590777181088924
6656.0,-0.003439226420596242
7168.0,-0.0003574419824872166
7680.0,0.0018944649491459131
8192.0,0.0020578159019351006
end
