version,3.0
numOfCh,1
type,point
parent_name,484af_0dot4-1dot0
ch_type,1_1
kcount,1
numberNandB,1
brightnessNandB,1
carpet pos,0
pc,0
Time (ms),CH1 Auto-Correlation
1.0,0.10387906432151794
2.0,0.09953930228948593
3.0,0.09572108089923859
4.0,0.0923231691122055
5.0,0.08910441398620605
6.0,0.08628208935260773
7.0,0.08355312794446945
8.0,0.08101586997509003
9.0,0.07872271537780762
10.0,0.07633312046527863
11.0,0.07418423146009445
12.0,0.0723223090171814
13.0,0.07040827721357346
14.0,0.06856703013181686
15.0,0.06678099930286407
16.0,0.0651421919465065
18.0,0.06212923675775528
20.0,0.059241510927677155
22.0,0.05661801993846893
24.0,0.05413704738020897
26.0,0.05171540752053261
28.0,0.049447473138570786
30.0,0.047267790883779526
32.0,0.04508240148425102
36.0,0.04126418009400368
40.0,0.03803151845932007
44.0,0.03541678935289383
48.0,0.0327489860355854
52.0,0.030241521075367928
56.0,0.028639482334256172
60.0,0.026921570301055908
64.0,0.025081194937229156
72.0,0.021437890827655792
80.0,0.018615061417222023
88.0,0.01662789098918438
96.0,0.015199309214949608
104.0,0.014220289885997772
112.0,0.012993321754038334
120.0,0.012586547061800957
128.0,0.011623111553490162
144.0,0.009611555375158787
160.0,0.009078411385416985
176.0,0.008775566704571247
192.0,0.006814086344093084
208.0,0.0040010190568864346
224.0,0.004927944857627153
240.0,0.0064913611859083176
256.0,0.007030072156339884
288.0,0.007037582341581583
320.0,0.0017479938687756658
352.0,-0.002067377557978034
384.0,-0.0014706787187606096
416.0,-0.00010775268310680985
448.0,-0.0032388789113610983
480.0,-0.007729760371148586
512.0,-0.008106864988803864
576.0,-0.0074831647798419
640.0,-0.005873280577361584
704.0,-0.0030273026786744595
768.0,-0.0040917471051216125
832.0,-0.005763271823525429
896.0,-0.010223190300166607
960.0,-0.009111708961427212
1024.0,-0.005843781400471926
1152.0,-0.004224786069244146
1280.0,-0.0014192044036462903
1408.0,0.001223051454871893
1536.0,0.0069191232323646545
1664.0,0.0030602365732192993
1792.0,0.0029924148693680763
1920.0,0.007209387607872486
2048.0,-0.004415609408169985
2304.0,0.00017940285033546388
2560.0,-0.006175040267407894
2816.0,-0.00017758454487193376
3072.0,-0.0025874204002320766
3328.0,-0.0018271073931828141
3584.0,0.0016161124221980572
3840.0,0.0030413612257689238
4096.0,0.000585717149078846
4608.0,0.001430887496098876
5120.0,-0.006870071403682232
5632.0,-0.0010427262168377638
6144.0,0.002891652286052704
6656.0,-0.0032685964833945036
7168.0,0.00036636789445765316
7680.0,-0.004545288160443306
8192.0,0.0006802185671404004
end
