version,3.0
numOfCh,1
type,point
parent_name,484af_0dot4-1dot0
ch_type,1_1
kcount,1
numberNandB,1
brightnessNandB,1
carpet pos,0
pc,0
Time (ms),CH1 Auto-Correlation
1.0,0.10355978459119797
2.0,0.09887382388114929
3.0,0.09469149261713028
4.0,0.09100539982318878
5.0,0.08760596066713333
6.0,0.08449093997478485
7.0,0.08163277059793472
8.0,0.07900279015302658
9.0,0.07672443985939026
10.0,0.0746317207813263
11.0,0.07265626639127731
12.0,0.07070109248161316
13.0,0.06872206181287766
14.0,0.0668892040848732
15.0,0.06534799933433533
16.0,0.06382361799478531
18.0,0.06075599789619446
20.0,0.058111876249313354
22.0,0.05572932958602905
24.0,0.053416524082422256
26.0,0.0511210672557354
28.0,0.04898756742477417
30.0,0.047203075140714645
32.0,0.045440152287483215
36.0,0.04201732575893402
40.0,0.03899204730987549
44.0,0.036368150264024734
48.0,0.033899709582328796
52.0,0.03134025260806084
56.0,0.028877733275294304
60.0,0.02656817063689232
64.0,0.024552106857299805
72.0,0.021817591041326523
80.0,0.0210763830691576
88.0,0.020547084510326385
96.0,0.01898433454334736
104.0,0.01677003875374794
112.0,0.015615931712090969
120.0,0.014606373384594917
128.0,0.014377952553331852
144.0,0.015838393941521645
160.0,0.015668483451008797
176.0,0.0148014510050416
192.0,0.015319092199206352
208.0,0.014483030885457993
224.0,0.011301250196993351
240.0,0.008321041241288185
256.0,0.006126525811851025
288.0,0.00646698335185647
320.0,0.007765389513224363
352.0,0.0038333218544721603
384.0,0.0028512312564998865
416.0,0.0015391932101920247
448.0,0.0008856792119331658
480.0,0.0015955896815285087
512.0,-0.0017055566422641277
576.0,-0.005298988427966833
640.0,-0.009815561585128307
704.0,-0.007957429625093937
768.0,-0.00899265892803669
832.0,-0.007451353128999472
896.0,-0.0030677183531224728
960.0,-0.005508513655513525
1024.0,-0.00661506550386548
1152.0,-0.004259219393134117
1280.0,-0.004958336241543293
1408.0,0.004011151380836964
1536.0,0.006772065069526434
1664.0,-0.002287013689056039
1792.0,-0.0019687942694872618
1920.0,0.0014211254892870784
2048.0,-0.002839001128450036
2304.0,-0.0013492826838046312
2560.0,-0.0011268085800111294
2816.0,0.0007255914388224483
3072.0,0.003448309376835823
3328.0,0.0018655196763575077
3584.0,-0.002076412783935666
3840.0,-0.008570401929318905
4096.0,-0.001744070090353489
4608.0,-0.005531279370188713
5120.0,-0.004521362949162722
5632.0,-0.00022728444309905171
6144.0,-0.0005205290508456528
6656.0,0.005199304316192865
7168.0,0.006527637597173452
7680.0,-0.003465103916823864
8192.0,-0.003207771573215723
end
