version,3.0
numOfCh,1
type,point
parent_name,484af_0dot4-1dot0
ch_type,1_1
kcount,1
numberNandB,1
brightnessNandB,1
carpet pos,0
pc,0
Time (ms),CH1 Auto-Correlation
1.0,0.10988595336675644
2.0,0.10559573769569397
3.0,0.10177535563707352
4.0,0.09858956933021545
5.0,0.09558720141649246
6.0,0.09256409108638763
7.0,0.08979816734790802
8.0,0.08728395402431488
9.0,0.08468299359083176
10.0,0.0822572261095047
11.0,0.07997848093509674
12.0,0.07762481272220612
13.0,0.07542022317647934
14.0,0.07343019545078278
15.0,0.07169395685195923
16.0,0.06998397409915924
18.0,0.06677953898906708
20.0,0.06412466615438461
22.0,0.061658184975385666
24.0,0.05919867753982544
26.0,0.05671464651823044
28.0,0.05451173335313797
30.0,0.05226010084152222
32.0,0.050026655197143555
36.0,0.046046216040849686
40.0,0.04293036833405495
44.0,0.03987886384129524
48.0,0.036943219602108
52.0,0.034550413489341736
56.0,0.03165557235479355
60.0,0.02904035523533821
64.0,0.027296874672174454
72.0,0.024861430749297142
80.0,0.02257024310529232
88.0,0.0206871647387743
96.0,0.01951909065246582
104.0,0.018197791650891304
112.0,0.017503855749964714
120.0,0.017318908125162125
128.0,0.01688336953520775
144.0,0.014094446785748005
160.0,0.010226990096271038
176.0,0.008614824153482914
192.0,0.009721729904413223
208.0,0.009429963305592537
224.0,0.007914723828434944
240.0,0.007147568743675947
256.0,0.009845501743257046
288.0,0.011339668184518814
320.0,0.009516920894384384
352.0,0.00803049560636282
384.0,0.004918738268315792
416.0,0.003300726180896163
448.0,0.0018966360948979855
480.0,0.0021184852812439203
512.0,-0.0005914962384849787
576.0,-0.000351073918864131
640.0,-0.0017371948342770338
704.0,-0.0016503629740327597
768.0,7.764891779515892e-05
832.0,0.0023204560857266188
896.0,-0.0045108855701982975
960.0,-0.0009637074545025826
1024.0,-0.00028106835088692605
1152.0,-0.0008046965813264251
1280.0,-0.00490962341427803
1408.0,-0.003793366951867938
1536.0,-0.00681014871224761
1664.0,-0.004299473017454147
1792.0,-0.005228388123214245
1920.0,-0.00874336063861847
2048.0,-0.007370326202362776
2304.0,-0.004933775402605534
2560.0,-0.0032616695389151573
2816.0,-0.0025805134791880846
3072.0,0.0007910135900601745
3328.0,-0.0070303925313055515
3584.0,-0.0022482683416455984
3840.0,0.0035756081342697144
4096.0,0.008755204267799854
4608.0,0.0044165742583572865
5120.0,0.00539248576387763
5632.0,-0.009207860566675663
6144.0,-0.007602006196975708
6656.0,-0.012448088265955448
7168.0,-0.001542807905934751
7680.0,0.00574868218973279
8192.0,0.000832460995297879
end
