version,3.0
numOfCh,1
type,point
parent_name,484af_0dot4-1dot0
ch_type,1_1
kcount,1
numberNandB,1
brightnessNandB,1
carpet pos,0
pc,0
Time (ms),CH1 Auto-Correlation
1.0,0.09539741277694702
2.0,0.09151306003332138
3.0,0.0880158394575119
4.0,0.08477961272001266
5.0,0.08178400993347168
6.0,0.0790531188249588
7.0,0.07659479230642319
8.0,0.07415944337844849
9.0,0.0719078779220581
10.0,0.06983593851327896
11.0,0.06790803372859955
12.0,0.06615308672189713
13.0,0.06436986476182938
14.0,0.06274410337209702
15.0,0.06115351989865303
16.0,0.0597379133105278
18.0,0.057047031819820404
20.0,0.05432314798235893
22.0,0.05197186768054962
24.0,0.04986725002527237
26.0,0.04793759062886238
28.0,0.04623202607035637
30.0,0.04449869692325592
32.0,0.042680248618125916
36.0,0.03942077234387398
40.0,0.03631681576371193
44.0,0.03335031121969223
48.0,0.031125422567129135
52.0,0.029241593554615974
56.0,0.02736029215157032
60.0,0.026081806048750877
64.0,0.02540568821132183
72.0,0.024499014019966125
80.0,0.02317613549530506
88.0,0.0219920314848423
96.0,0.01979328878223896
104.0,0.017822925001382828
112.0,0.016413619741797447
120.0,0.015981139615178108
128.0,0.01582627184689045
144.0,0.016054963693022728
160.0,0.01667054556310177
176.0,0.014113785699009895
192.0,0.009659042581915855
208.0,0.007960312068462372
224.0,0.007495749741792679
240.0,0.0068595572374761105
256.0,0.005751056130975485
288.0,0.006122280843555927
320.0,0.003867699531838298
352.0,0.004188774153590202
384.0,0.005407259799540043
416.0,0.0049705784767866135
448.0,0.006799261085689068
480.0,0.004663931671530008
512.0,0.005840695928782225
576.0,0.002348631154745817
640.0,0.00441778264939785
704.0,-0.0006566772935912013
768.0,-0.006099912337958813
832.0,-0.010010631754994392
896.0,-0.00984120275825262
960.0,-0.004568820353597403
1024.0,-0.004942618310451508
1152.0,-0.005066113080829382
1280.0,0.00022414408158510923
1408.0,0.003586405422538519
1536.0,0.0010672587668523192
1664.0,-0.0011925131548196077
1792.0,-0.0008885477436706424
1920.0,-0.0007653289940208197
2048.0,-0.0020932157058268785
2304.0,-0.007791854441165924
2560.0,-0.005999966990202665
2816.0,-0.0026454913895577192
3072.0,0.0003931050014216453
3328.0,0.001359960064291954
3584.0,0.0008731458801776171
3840.0,0.00035680487053468823
4096.0,0.0019194040214642882
4608.0,-0.0029657999984920025
5120.0,-0.0014932265039533377
5632.0,0.0007333166431635618
6144.0,-0.00026137405075132847
6656.0,-0.007095247507095337
7168.0,-0.005586655344814062
7680.0,0.002295484533533454
8192.0,-0.0011030833702534437
end
