version,3.0
numOfCh,1
type,point
parent_name,484af_0dot4-1dot0
ch_type,1_1
kcount,1
numberNandB,1
brightnessNandB,1
carpet pos,0
pc,0
Time (ms),CH1 Auto-Correlation
1.0,0.10327635705471039
2.0,0.09919001162052155
3.0,0.09548579156398773
4.0,0.09194137156009674
5.0,0.0887405276298523
6.0,0.08574089407920837
7.0,0.08280007541179657
8.0,0.08001475781202316
9.0,0.0774078294634819
10.0,0.0749538317322731
11.0,0.0726444348692894
12.0,0.0704975575208664
13.0,0.06852351874113083
14.0,0.06690392643213272
15.0,0.0652315765619278
16.0,0.0635497197508812
18.0,0.060636263340711594
20.0,0.05761202424764633
22.0,0.05485312640666962
24.0,0.052376341074705124
26.0,0.049986932426691055
28.0,0.047762610018253326
30.0,0.04591672867536545
32.0,0.04434395954012871
36.0,0.04183994233608246
40.0,0.03960723429918289
44.0,0.037004899233579636
48.0,0.03505673259496689
52.0,0.03330095484852791
56.0,0.032237812876701355
60.0,0.03195331618189812
64.0,0.03150712326169014
72.0,0.030739637091755867
80.0,0.031088219955563545
88.0,0.03111201897263527
96.0,0.03145769611001015
104.0,0.031342990696430206
112.0,0.03002096153795719
120.0,0.029845774173736572
128.0,0.029526952654123306
144.0,0.02915065921843052
160.0,0.02655576542019844
176.0,0.023577246814966202
192.0,0.02077573910355568
208.0,0.01962544582784176
224.0,0.01993744447827339
240.0,0.020074067637324333
256.0,0.016743237152695656
288.0,0.008962150663137436
320.0,0.005967315286397934
352.0,0.004272183869034052
384.0,0.006150619592517614
416.0,0.002452752785757184
448.0,0.0024374485947191715
480.0,0.00124418456107378
512.0,0.001724416739307344
576.0,-0.0017668611835688353
640.0,-0.007052452769130468
704.0,-0.006027697119861841
768.0,-0.005609279032796621
832.0,-0.004236344248056412
896.0,-0.009073062799870968
960.0,-0.007750080898404121
1024.0,-0.005093031097203493
1152.0,-0.005524815525859594
1280.0,-0.003060638904571533
1408.0,-0.002201051451265812
1536.0,-0.0020450230222195387
1664.0,0.001504903775639832
1792.0,0.006192548666149378
1920.0,0.010871896520256996
2048.0,0.01271525863558054
2304.0,0.006459817290306091
2560.0,-0.004729596432298422
2816.0,-0.009452980943024158
3072.0,-0.010851830244064331
3328.0,-0.009618599899113178
3584.0,-0.0031242563854902983
3840.0,-0.004586034920066595
4096.0,-0.0006569651304744184
4608.0,-0.002999106654897332
5120.0,0.006554549094289541
5632.0,0.00011515750520629808
6144.0,-0.002930000890046358
6656.0,0.004973160568624735
7168.0,0.01111068855971098
7680.0,-0.013321981765329838
8192.0,-0.01153173390775919
end
