version,3.0
numOfCh,1
type,point
parent_name,484af_0dot4-1dot0
ch_type,1_1
kcount,1
numberNandB,1
brightnessNandB,1
carpet pos,0
pc,0
Time (ms),CH1 Auto-Correlation
1.0,0.09464479982852936
2.0,0.09064436703920364
3.0,0.0869956761598587
4.0,0.083699531853199
5.0,0.08053695410490036
6.0,0.07765930891036987
7.0,0.07506318390369415
8.0,0.07262510061264038
9.0,0.07024034857749939
10.0,0.06809922307729721
11.0,0.06614270806312561
12.0,0.06416387110948563
13.0,0.062354665249586105
14.0,0.06055169925093651
15.0,0.058739662170410156
16.0,0.05695536360144615
18.0,0.053840722888708115
20.0,0.0508982390165329
22.0,0.04848289117217064
24.0,0.04621626064181328
26.0,0.04376298561692238
28.0,0.04144184663891792
30.0,0.039398130029439926
32.0,0.0373571552336216
36.0,0.03337489068508148
40.0,0.03084307536482811
44.0,0.028866441920399666
48.0,0.02702644281089306
52.0,0.02522723190486431
56.0,0.023878272622823715
60.0,0.022664513438940048
64.0,0.02178765833377838
72.0,0.019861839711666107
80.0,0.017537888139486313
88.0,0.015181157737970352
96.0,0.013880654238164425
104.0,0.013147331774234772
112.0,0.01316777803003788
120.0,0.012750609777867794
128.0,0.011505616828799248
144.0,0.010465909726917744
160.0,0.00922921858727932
176.0,0.008932367898523808
192.0,0.009921280667185783
208.0,0.011015664786100388
224.0,0.011890463531017303
240.0,0.013606158085167408
256.0,0.013346976600587368
288.0,0.007215060293674469
320.0,0.004583768080919981
352.0,0.0031151678413152695
384.0,0.0037443628534674644
416.0,0.003006929298862815
448.0,0.002716895192861557
480.0,0.0031996481120586395
512.0,0.001624719938263297
576.0,-0.0037489584647119045
640.0,-0.008455254137516022
704.0,-0.006005850154906511
768.0,-0.001543395221233368
832.0,0.00013659642718266696
896.0,-0.0006774128996767104
960.0,-0.0016251795459538698
1024.0,0.002293830271810293
1152.0,0.007244984619319439
1280.0,0.002035341691225767
1408.0,0.002302933484315872
1536.0,0.0030473999213427305
1664.0,0.002277216175571084
1792.0,0.0015443441225215793
1920.0,-0.006739719305187464
2048.0,-0.006742747034877539
2304.0,-0.011097630485892296
2560.0,-0.0068612415343523026
2816.0,-0.0013363577891141176
3072.0,-0.003181488486006856
3328.0,-0.006253798026591539
3584.0,-0.010237029753625393
3840.0,-0.0038945127744227648
4096.0,0.0022304372396320105
4608.0,0.006808865815401077
5120.0,0.0022205235436558723
5632.0,-0.0014174296520650387
6144.0,0.005140488501638174
6656.0,0.0009375950903631747
7168.0,-0.0021794333588331938
7680.0,0.002528816694393754
8192.0,-0.008075754158198833
end
