version,3.0
numOfCh,1
type,point
parent_name,484af_0dot4-1dot0
ch_type,1_1
kcount,1
numberNandB,1
brightnessNandB,1
carpet pos,0
pc,0
Time (ms),CH1 Auto-Correlation
1.0,0.11311548203229904
2.0,0.10911768674850464
3.0,0.105532705783844
4.0,0.1022147387266159
5.0,0.09914267063140869
6.0,0.09626815468072891
7.0,0.0937100425362587
8.0,0.09130115061998367
9.0,0.08887391537427902
10.0,0.08650733530521393
11.0,0.08431326597929001
12.0,0.08231961727142334
13.0,0.08046132326126099
14.0,0.07867144048213959
15.0,0.07694776356220245
16.0,0.07528997212648392
18.0,0.07214298099279404
20.0,0.06923452764749527
22.0,0.06680400669574738
24.0,0.06473441421985626
26.0,0.06273726373910904
28.0,0.06087740883231163
30.0,0.05913242697715759
32.0,0.057344045490026474
36.0,0.05417032539844513
40.0,0.05142476409673691
44.0,0.04908193647861481
48.0,0.046607378870248795
52.0,0.0444679893553257
56.0,0.04267249256372452
60.0,0.04103924706578255
64.0,0.03943199664354324
72.0,0.036134980618953705
80.0,0.03295335918664932
88.0,0.029771210625767708
96.0,0.02760373242199421
104.0,0.026210017502307892
112.0,0.024667516350746155
120.0,0.022724226117134094
128.0,0.021138861775398254
144.0,0.016034016385674477
160.0,0.013319578021764755
176.0,0.013151715509593487
192.0,0.012069464661180973
208.0,0.011890538036823273
224.0,0.010803629644215107
240.0,0.01023426279425621
256.0,0.008433430455625057
288.0,0.004933740943670273
320.0,0.0049239592626690865
352.0,0.006806048098951578
384.0,0.006957849487662315
416.0,0.0040659005753695965
448.0,0.0026343304198235273
480.0,0.002691767644137144
512.0,0.0029406521935015917
576.0,-0.002725651254877448
640.0,-0.00487490464001894
704.0,-0.005732462741434574
768.0,-0.0051431190222501755
832.0,-0.006482132710516453
896.0,-0.008082219399511814
960.0,-0.005703861825168133
1024.0,-0.009398884139955044
1152.0,-0.013754336163401604
1280.0,-0.007137584965676069
1408.0,-0.010280654765665531
1536.0,-0.009602121077477932
1664.0,-0.008725845254957676
1792.0,-0.0019253238569945097
1920.0,0.014225252903997898
2048.0,0.018174298107624054
2304.0,0.0011951809283345938
2560.0,-0.0019742727745324373
2816.0,0.0004526925040408969
3072.0,-0.004334837663918734
3328.0,-0.001153786899521947
3584.0,-0.007086250931024551
3840.0,0.0009213140001520514
4096.0,0.0048904730938375
4608.0,-0.000861470412928611
5120.0,-0.0015927713830024004
5632.0,0.001515715615823865
6144.0,-0.004362027160823345
6656.0,-0.0025851328391581774
7168.0,-0.004567704629153013
7680.0,0.007097919471561909
8192.0,-0.008534574881196022
end
