version,3.0
numOfCh,1
type,point
parent_name,484af_0dot4-1dot0
ch_type,1_1
kcount,1
numberNandB,1
brightnessNandB,1
carpet pos,0
pc,0
Time (ms),CH1 Auto-Correlation
1.0,0.10823148488998413
2.0,0.10404499620199203
3.0,0.10042102634906769
4.0,0.09716365486383438
5.0,0.09406544268131256
6.0,0.0911240205168724
7.0,0.08842652291059494
8.0,0.0859210193157196
9.0,0.08372713625431061
10.0,0.08171676099300385
11.0,0.07987990975379944
12.0,0.0779092013835907
13.0,0.0761653259396553
14.0,0.07448747009038925
15.0,0.07275696098804474
16.0,0.07110731303691864
18.0,0.06817921996116638
20.0,0.06540750712156296
22.0,0.06296829134225845
24.0,0.06075803562998772
26.0,0.05876295641064644
28.0,0.05683630704879761
30.0,0.05491109564900398
32.0,0.052912745624780655
36.0,0.04897434264421463
40.0,0.04537283256649971
44.0,0.04200299084186554
48.0,0.039263203740119934
52.0,0.03664694353938103
56.0,0.03463156148791313
60.0,0.032779891043901443
64.0,0.030020570382475853
72.0,0.025898708030581474
80.0,0.023158269003033638
88.0,0.0213820431381464
96.0,0.019586820155382156
104.0,0.018142862245440483
112.0,0.016147591173648834
120.0,0.014234084635972977
128.0,0.01245509460568428
144.0,0.010001616552472115
160.0,0.007236206438392401
176.0,0.005079708062112331
192.0,0.004325794987380505
208.0,0.002043222775682807
224.0,0.000702895107679069
240.0,0.0015613723080605268
256.0,0.0020759901963174343
288.0,0.0016874598804861307
320.0,-0.0012579899048432708
352.0,-0.002983721438795328
384.0,-0.001126165734604001
416.0,0.0022489484399557114
448.0,0.003129658754914999
480.0,0.0038569169119000435
512.0,0.005625701509416103
576.0,0.0014473327901214361
640.0,-0.0017866904381662607
704.0,-0.0002998093841597438
768.0,-0.0020820782519876957
832.0,0.001370439538732171
896.0,-0.004441424272954464
960.0,-0.007593289948999882
1024.0,-0.007690757513046265
1152.0,-0.004928430542349815
1280.0,-0.002320723608136177
1408.0,0.0004090691509190947
1536.0,0.0005888265441171825
1664.0,-0.0038750539533793926
1792.0,-0.004650411196053028
1920.0,0.005781944841146469
2048.0,0.00550602562725544
2304.0,-0.0007391199469566345
2560.0,0.0066227237693965435
2816.0,-0.005977810360491276
3072.0,-0.004878087900578976
3328.0,-0.007348096929490566
3584.0,0.002066949615254998
3840.0,-0.0008454740163870156
4096.0,0.007461634464561939
4608.0,-0.006123292725533247
5120.0,-0.011147608049213886
5632.0,-0.0005932148196734488
6144.0,0.005201066844165325
6656.0,0.0021950805094093084
7168.0,-0.006225734483450651
7680.0,-0.003885799553245306
8192.0,0.006579361855983734
end
