version,3.0
numOfCh,1
type,point
parent_name,484af_0dot4-1dot0
ch_type,1_1
kcount,1
numberNandB,1
brightnessNandB,1
carpet pos,0
pc,0
Time (ms),CH1 Auto-Correlation
1.0,0.10400228947401047
2.0,0.09987418353557587
3.0,0.095985546708107
4.0,0.09248854219913483
5.0,0.08916986733675003
6.0,0.08613527566194534
7.0,0.08318760246038437
8.0,0.08047113567590714
9.0,0.0780433863401413
10.0,0.07589585334062576
11.0,0.07392571121454239
12.0,0.07206184417009354
13.0,0.07033482939004898
14.0,0.06843975931406021
15.0,0.06660261750221252
16.0,0.06488537788391113
18.0,0.06169038265943527
20.0,0.05865471437573433
22.0,0.05578778684139252
24.0,0.05306484177708626
26.0,0.050500448793172836
28.0,0.04837816581130028
30.0,0.04653458297252655
32.0,0.044873062521219254
36.0,0.042007531970739365
40.0,0.03989854082465172
44.0,0.03795764595270157
48.0,0.03657324239611626
52.0,0.03483293950557709
56.0,0.033146195113658905
60.0,0.03149956837296486
64.0,0.029830703511834145
72.0,0.02676929347217083
80.0,0.023810112848877907
88.0,0.022053595632314682
96.0,0.020376645028591156
104.0,0.018297279253602028
112.0,0.016680210828781128
120.0,0.01378654595464468
128.0,0.0103859081864357
144.0,0.00762584712356329
160.0,0.008800416253507137
176.0,0.008391225710511208
192.0,0.008713562972843647
208.0,0.008760378696024418
224.0,0.008324677124619484
240.0,0.009170182049274445
256.0,0.0065696341916918755
288.0,0.0010213615605607629
320.0,-0.00313270790502429
352.0,-0.003926100209355354
384.0,-0.005154648795723915
416.0,-0.0033696184400469065
448.0,-0.0011963810538873076
480.0,-0.0001039089256664738
512.0,0.002875917823985219
576.0,0.006998886354267597
640.0,0.011518320068717003
704.0,0.014944403432309628
768.0,0.01043479610234499
832.0,0.0019146761624142528
896.0,-0.0038109244778752327
960.0,-0.0013813655823469162
1024.0,-0.004388105124235153
1152.0,-0.0011014696210622787
1280.0,0.0027223597280681133
1408.0,0.003540437901392579
1536.0,0.0008972067153081298
1664.0,-0.001186174456961453
1792.0,-0.002879204461351037
1920.0,-0.0053986599668860435
2048.0,-0.0038546561263501644
2304.0,-0.002603749977424741
2560.0,-0.007172610145062208
2816.0,-0.00752244284376502
3072.0,-0.008479681797325611
3328.0,-0.00525856064632535
3584.0,0.004670266527682543
3840.0,-0.0012828789185732603
4096.0,0.0017301938496530056
4608.0,0.0020518717356026173
5120.0,-0.0009280933882109821
5632.0,-0.00434332899749279
6144.0,0.0027430211193859577
6656.0,0.0012927654897794127
7168.0,0.0026990999467670918
7680.0,0.0017279167659580708
8192.0,0.0021694067399948835
end
