version,3.0
numOfCh,1
type,point
parent_name,484af_0dot4-1dot0
ch_type,1_1
kcount,1
numberNandB,1
brightnessNandB,1
carpet pos,0
pc,0
Time (ms),CH1 Auto-Correlation
1.0,0.1125316247344017
2.0,0.10860216617584229
3.0,0.10505788773298264
4.0,0.10173506289720535
5.0,0.09883854538202286
6.0,0.09629425406455994
7.0,0.09377297759056091
8.0,0.09135844558477402
9.0,0.0891454815864563
10.0,0.08713525533676147
11.0,0.08512233942747116
12.0,0.08334285020828247
13.0,0.08162389695644379
14.0,0.07995223999023438
15.0,0.07828259468078613
16.0,0.07687560468912125
18.0,0.073678158223629
20.0,0.07095010578632355
22.0,0.06855382770299911
24.0,0.06666011363267899
26.0,0.06482722610235214
28.0,0.06292606145143509
30.0,0.06113163381814957
32.0,0.05945417657494545
36.0,0.05644498020410538
40.0,0.053796760737895966
44.0,0.05104146525263786
48.0,0.048376210033893585
52.0,0.045669980347156525
56.0,0.043761298060417175
60.0,0.04197811707854271
64.0,0.04018520563840866
72.0,0.036239661276340485
80.0,0.03375330567359924
88.0,0.03221174329519272
96.0,0.030633065849542618
104.0,0.029405275359749794
112.0,0.027656201273202896
120.0,0.025586260482668877
128.0,0.023519741371273994
144.0,0.02057105302810669
160.0,0.015938149765133858
176.0,0.012666339986026287
192.0,0.01150247361510992
208.0,0.011002309620380402
224.0,0.009064690209925175
240.0,0.007884825579822063
256.0,0.008448457345366478
288.0,0.009889737702906132
320.0,0.012952860444784164
352.0,0.015729166567325592
384.0,0.012065988965332508
416.0,0.011144004762172699
448.0,0.009935367852449417
480.0,0.010167133063077927
512.0,0.010646850802004337
576.0,0.007646880578249693
640.0,0.0044824485667049885
704.0,0.0022634989582002163
768.0,0.0035753597039729357
832.0,0.0009529870003461838
896.0,0.0017209512880071998
960.0,0.0032757120206952095
1024.0,0.0011045285500586033
1152.0,-0.00292960531078279
1280.0,-0.008628216572105885
1408.0,-0.01091387402266264
1536.0,-0.006267705466598272
1664.0,-0.005473925732076168
1792.0,-0.004376751836389303
1920.0,-0.004416049458086491
2048.0,-0.00811042357236147
2304.0,-0.0010142846731469035
2560.0,0.01413782499730587
2816.0,0.007903402671217918
3072.0,0.011147193610668182
3328.0,0.013926065526902676
3584.0,0.012777367606759071
3840.0,0.0002881782129406929
4096.0,-0.006899880710989237
4608.0,-0.007693311665207148
5120.0,-0.009855886921286583
5632.0,-0.0033714480232447386
6144.0,0.0016896201996132731
6656.0,0.0045186541974544525
7168.0,0.005521396640688181
7680.0,-0.007198786363005638
8192.0,-0.010851212777197361
end
