version,3.0
numOfCh,1
type,point
parent_name,484af_0dot4-1dot0
ch_type,1_1
kcount,1
numberNandB,1
brightnessNandB,1
carpet pos,0
pc,0
Time (ms),CH1 Auto-Correlation
1.0,0.10281915962696075
2.0,0.09898485988378525
3.0,0.09562140703201294
4.0,0.09237845987081528
5.0,0.08958174288272858
6.0,0.08683445304632187
7.0,0.08438250422477722
8.0,0.08197715133428574
9.0,0.07962461560964584
10.0,0.07755059003829956
11.0,0.07550366222858429
12.0,0.07363241910934448
13.0,0.0718267560005188
14.0,0.0699932649731636
15.0,0.06826905906200409
16.0,0.06659511476755142
18.0,0.06363900750875473
20.0,0.061043817549943924
22.0,0.05865691974759102
24.0,0.056195951998233795
26.0,0.0537826344370842
28.0,0.05153672397136688
30.0,0.049542564898729324
32.0,0.04756858944892883
36.0,0.04394550248980522
40.0,0.04083970934152603
44.0,0.03861982747912407
48.0,0.036973774433135986
52.0,0.035259708762168884
56.0,0.03315804898738861
60.0,0.03145959600806236
64.0,0.02942642942070961
72.0,0.025871645659208298
80.0,0.022608621045947075
88.0,0.019756563007831573
96.0,0.01792783848941326
104.0,0.016748463734984398
112.0,0.01634196937084198
120.0,0.015708303079009056
128.0,0.014225924387574196
144.0,0.011038749478757381
160.0,0.009707964025437832
176.0,0.007915502414107323
192.0,0.005645409692078829
208.0,0.0012783424463123083
224.0,0.00013108551502227783
240.0,0.0031607786659151316
256.0,0.0042947400361299515
288.0,0.001278064912185073
320.0,0.002597473096102476
352.0,0.004429555498063564
384.0,0.005207573529332876
416.0,0.0071631744503974915
448.0,0.007630739826709032
480.0,0.00937097892165184
512.0,0.006338988896459341
576.0,0.0024817909579724073
640.0,-0.0011018009390681982
704.0,-0.0035304648336023092
768.0,-0.005939953960478306
832.0,-0.008956637233495712
896.0,-0.010607707314193249
960.0,-0.0033968843054026365
1024.0,0.0008088495815172791
1152.0,0.000172788422787562
1280.0,-0.0023579630069434643
1408.0,-0.00032470375299453735
1536.0,0.00016500626225024462
1664.0,-0.0008899588137865067
1792.0,-0.00016677152598276734
1920.0,-0.0076161944307386875
2048.0,-0.007837051525712013
2304.0,-0.005120867397636175
2560.0,-0.004056974314153194
2816.0,-0.003911423496901989
3072.0,-0.004891770426183939
3328.0,0.0013189775636419654
3584.0,0.002591172931715846
3840.0,0.009864245541393757
4096.0,0.007637294940650463
4608.0,0.00029044272378087044
5120.0,-0.0051630353555083275
5632.0,-0.004705464001744986
6144.0,-0.006344778463244438
6656.0,-0.006446280516684055
7168.0,0.004234795458614826
7680.0,-0.0011060129618272185
8192.0,0.007099964655935764
end
