version,3.0
numOfCh,1
type,point
parent_name,484af_0dot4-1dot0
ch_type,1_1
kcount,1
numberNandB,1
brightnessNandB,1
carpet pos,0
pc,0
Time (ms),CH1 Auto-Correlation
1.0,0.10471025854349136
2.0,0.10019630938768387
3.0,0.09614237397909164
4.0,0.0925126001238823
5.0,0.08918239921331406
6.0,0.08599276095628738
7.0,0.083040751516819
8.0,0.08037769794464111
9.0,0.07792553305625916
10.0,0.07556866854429245
11.0,0.07335357367992401
12.0,0.07119767367839813
13.0,0.06928101927042007
14.0,0.06749095022678375
15.0,0.06576687097549438
16.0,0.0641431137919426
18.0,0.061263345181941986
20.0,0.05873755365610123
22.0,0.056468285620212555
24.0,0.05414238199591637
26.0,0.051962412893772125
28.0,0.049688320606946945
30.0,0.047380104660987854
32.0,0.04553402587771416
36.0,0.042146261781454086
40.0,0.03944585472345352
44.0,0.03695068508386612
48.0,0.03442338481545448
52.0,0.0322040356695652
56.0,0.030538327991962433
60.0,0.029314428567886353
64.0,0.028035061433911324
72.0,0.024570398032665253
80.0,0.019445884972810745
88.0,0.014735915698111057
96.0,0.011742373928427696
104.0,0.008705629035830498
112.0,0.005686492659151554
120.0,0.004088507033884525
128.0,0.0029359853360801935
144.0,0.0019015187863260508
160.0,0.002549777738749981
176.0,0.0033816013019531965
192.0,0.0020512824412435293
208.0,0.0027096907142549753
224.0,0.004548005294054747
240.0,0.0049990443512797356
256.0,0.004564092494547367
288.0,0.0018930596997961402
320.0,0.0008000953821465373
352.0,0.0004260640998836607
384.0,-0.0010011352133005857
416.0,-0.0026517186779528856
448.0,-0.004228766076266766
480.0,-0.002371479757130146
512.0,-0.0010695738019421697
576.0,0.004205217584967613
640.0,0.0037168122362345457
704.0,-0.0002878320519812405
768.0,-0.003144064685329795
832.0,-0.0012486288323998451
896.0,-0.005901574157178402
960.0,-0.009010947309434414
1024.0,-0.007281293626874685
1152.0,-0.0077553922310471535
1280.0,-0.0055667320266366005
1408.0,0.001614039414562285
1536.0,0.0015983555931597948
1664.0,0.0013955702306702733
1792.0,-0.0014129994669929147
1920.0,-0.001140957116149366
2048.0,0.002402098383754492
2304.0,0.003171343822032213
2560.0,0.005255567841231823
2816.0,0.0025829265359789133
3072.0,-0.0026841566432267427
3328.0,-0.01049626525491476
3584.0,-0.012123862281441689
3840.0,-0.006759626790881157
4096.0,0.0017433525063097477
4608.0,0.0040639485232532024
5120.0,-0.0013620555400848389
5632.0,-0.003157526021823287
6144.0,-0.0051347981207072735
6656.0,0.00389680964872241
7168.0,0.008020528592169285
7680.0,-0.006108960136771202
8192.0,-0.004755562637001276
end
