version,3.0
numOfCh,1
type,point
parent_name,484af_0dot4-1dot0
ch_type,1_1
kcount,1
numberNandB,1
brightnessNandB,1
carpet pos,0
pc,0
Time (ms),CH1 Auto-Correlation
1.0,0.09236251562833786
2.0,0.08812157809734344
3.0,0.08432925492525101
4.0,0.0809178277850151
5.0,0.0778542011976242
6.0,0.07494746893644333
7.0,0.0724126547574997
8.0,0.0700516626238823
9.0,0.06779956072568893
10.0,0.06556522101163864
11.0,0.06345461308956146
12.0,0.06147576868534088
13.0,0.059642691165208817
14.0,0.057905592024326324
15.0,0.05634532868862152
16.0,0.054757654666900635
18.0,0.051765456795692444
20.0,0.04946155101060867
22.0,0.04727712646126747
24.0,0.045580167323350906
26.0,0.044053636491298676
28.0,0.04248235747218132
30.0,0.04099338501691818
32.0,0.03941291943192482
36.0,0.03638917952775955
40.0,0.03377966582775116
44.0,0.031356919556856155
48.0,0.02847169153392315
52.0,0.0258792731910944
56.0,0.02355528064072132
60.0,0.02202734537422657
64.0,0.020251447334885597
72.0,0.01653129979968071
80.0,0.012256343849003315
88.0,0.009196840226650238
96.0,0.005881736986339092
104.0,0.0038065253756940365
112.0,0.003307207254692912
120.0,0.0028479238972067833
128.0,0.00264321593567729
144.0,0.005472538992762566
160.0,0.005695415660738945
176.0,0.004627506248652935
192.0,0.0044999560341238976
208.0,0.005310028325766325
224.0,0.0054874904453754425
240.0,0.004371145740151405
256.0,0.0015114895068109035
288.0,0.0032232310622930527
320.0,0.003957787994295359
352.0,0.005198182072490454
384.0,0.00486079091206193
416.0,0.001620919443666935
448.0,0.0023172772489488125
480.0,0.004460848867893219
512.0,0.008666384033858776
576.0,0.007166965864598751
640.0,0.0003067723591811955
704.0,0.0027736464980989695
768.0,-0.0006537065492011607
832.0,-0.0042621055617928505
896.0,-0.0030522311571985483
960.0,-0.005379995331168175
1024.0,-0.005334665533155203
1152.0,-0.0004293510573916137
1280.0,-0.0032117196824401617
1408.0,-0.011476320214569569
1536.0,-0.008721106685698032
1664.0,-0.007003756705671549
1792.0,-0.004898600745946169
1920.0,-0.008321952074766159
2048.0,-0.004237850662320852
2304.0,-0.0016814526170492172
2560.0,-0.0002574876125436276
2816.0,0.002769374055787921
3072.0,0.005024959798902273
3328.0,0.003712561447173357
3584.0,-0.001472407253459096
3840.0,-0.006205828860402107
4096.0,3.578977339202538e-05
4608.0,0.0004528337740339339
5120.0,0.002688648412004113
5632.0,0.00025783610180951655
6144.0,0.0004987108986824751
6656.0,-0.0027823697309941053
7168.0,-0.006601389497518539
7680.0,-0.004314539022743702
8192.0,0.003871943335980177
end
