version,3.0
numOfCh,1
type,point
parent_name,484af_0dot4-1dot0
ch_type,1_1
kcount,1
numberNandB,1
brightnessNandB,1
carpet pos,0
pc,0
Time (ms),CH1 Auto-Correlation
1.0,0.10743114352226257
2.0,0.10381246358156204
3.0,0.10056005418300629
4.0,0.09748537093400955
5.0,0.09452790766954422
6.0,0.09172512590885162
7.0,0.0892285704612732
8.0,0.08680260181427002
9.0,0.08453337848186493
10.0,0.08242499828338623
11.0,0.08058683574199677
12.0,0.07874449342489243
13.0,0.07694078236818314
14.0,0.07525493949651718
15.0,0.07369585335254669
16.0,0.07216423749923706
18.0,0.06943874061107635
20.0,0.06705018132925034
22.0,0.06502023339271545
24.0,0.06300777941942215
26.0,0.061119444668293
28.0,0.05938686802983284
30.0,0.05763948708772659
32.0,0.05597429722547531
36.0,0.05317411199212074
40.0,0.050572849810123444
44.0,0.0483517162501812
48.0,0.046593077480793
52.0,0.04541439563035965
56.0,0.044228654354810715
60.0,0.04296759516000748
64.0,0.04165288433432579
72.0,0.038281768560409546
80.0,0.035307321697473526
88.0,0.032727181911468506
96.0,0.030159762129187584
104.0,0.027901284396648407
112.0,0.025531426072120667
120.0,0.023786455392837524
128.0,0.02212757244706154
144.0,0.02097981981933117
160.0,0.02276553399860859
176.0,0.02484177052974701
192.0,0.024281121790409088
208.0,0.021910052746534348
224.0,0.018840687349438667
240.0,0.017552178353071213
256.0,0.01723158173263073
288.0,0.013063223101198673
320.0,0.007936769165098667
352.0,0.0062694186344742775
384.0,0.007880172692239285
416.0,0.007354850880801678
448.0,0.0026984591968357563
480.0,-0.00020181147556286305
512.0,-0.0031346636824309826
576.0,-0.0037106103263795376
640.0,-0.003013849491253495
704.0,0.0004422271449584514
768.0,-0.00037158787017688155
832.0,-0.002650451147928834
896.0,-0.004980708472430706
960.0,-0.005643528886139393
1024.0,-0.0017343449871987104
1152.0,-0.0008813803433440626
1280.0,-0.001825485029257834
1408.0,-0.00538987061008811
1536.0,-0.006904022768139839
1664.0,-0.005749380681663752
1792.0,-0.0007909090491011739
1920.0,0.0025814787950366735
2048.0,0.008008907549083233
2304.0,0.01234600879251957
2560.0,0.008703941479325294
2816.0,-0.0074176546186208725
3072.0,-0.006351956631988287
3328.0,-0.003927247598767281
3584.0,-0.008331811055541039
3840.0,-0.006683079991489649
4096.0,-0.004108087625354528
4608.0,0.004110046662390232
5120.0,0.010454409755766392
5632.0,-0.0072690886445343494
6144.0,-0.0036132505629211664
6656.0,-0.008741000667214394
7168.0,0.00927096139639616
7680.0,-0.0010756225092336535
8192.0,-0.013604898005723953
end
