version,3.0
numOfCh,1
type,point
parent_name,484af_0dot4-1dot0
ch_type,1_1
kcount,1
numberNandB,1
brightnessNandB,1
carpet pos,0
pc,0
Time (ms),CH1 Auto-Correlation
1.0,0.10584185272455215
2.0,0.10210584849119186
3.0,0.09880722314119339
4.0,0.09572950005531311
5.0,0.09284462779760361
6.0,0.09017916768789291
7.0,0.08779235184192657
8.0,0.08568098396062851
9.0,0.08353859186172485
10.0,0.08148621767759323
11.0,0.07948701083660126
12.0,0.07760269194841385
13.0,0.0756632387638092
14.0,0.07388892769813538
15.0,0.07209593057632446
16.0,0.07041732966899872
18.0,0.06698388606309891
20.0,0.06373323500156403
22.0,0.060524702072143555
24.0,0.05786624550819397
26.0,0.05539815500378609
28.0,0.052950818091630936
30.0,0.05027263984084129
32.0,0.04793368652462959
36.0,0.04418567195534706
40.0,0.04100506752729416
44.0,0.03837039694190025
48.0,0.03583085164427757
52.0,0.03357693552970886
56.0,0.031676359474658966
60.0,0.029578758403658867
64.0,0.02811884880065918
72.0,0.026409847661852837
80.0,0.025389116257429123
88.0,0.025257661938667297
96.0,0.024947697296738625
104.0,0.02436082623898983
112.0,0.023018425330519676
120.0,0.020934179425239563
128.0,0.019389845430850983
144.0,0.01644611917436123
160.0,0.016143059358000755
176.0,0.01704101264476776
192.0,0.016428610309958458
208.0,0.014123071916401386
224.0,0.011104012839496136
240.0,0.009896188043057919
256.0,0.008412574417889118
288.0,0.007869907654821873
320.0,0.007425926625728607
352.0,0.006976126693189144
384.0,0.008516083471477032
416.0,0.0036468934267759323
448.0,-0.00011708380770869553
480.0,0.0010290372883901
512.0,0.0011383069213479757
576.0,0.0016840454190969467
640.0,0.0018098248401656747
704.0,-0.003159086685627699
768.0,-0.002179986797273159
832.0,0.0035118546802550554
896.0,0.003998668864369392
960.0,0.0017034612828865647
1024.0,-0.002631604904308915
1152.0,-0.004154295660555363
1280.0,-0.008872698061168194
1408.0,-0.011151601560413837
1536.0,-0.009523918852210045
1664.0,-0.011733217164874077
1792.0,-0.0070140971802175045
1920.0,0.0011949973413720727
2048.0,6.941044830455212e-06
2304.0,-0.0028525483794510365
2560.0,-0.005160621367394924
2816.0,-0.0022247633896768093
3072.0,0.00543024018406868
3328.0,-0.004812312312424183
3584.0,-0.001598930568434298
3840.0,0.003157936967909336
4096.0,-0.002887814538553357
4608.0,0.0006638040649704635
5120.0,0.006883493158966303
5632.0,0.0077486177906394005
6144.0,-0.00264037330634892
6656.0,-0.007414977997541428
7168.0,-0.003242914564907551
7680.0,-0.0025064304936677217
8192.0,-0.0025661448016762733
end
