version,3.0
numOfCh,1
type,point
parent_name,484af_0dot4-1dot0
ch_type,1_1
kcount,1
numberNandB,1
brightnessNandB,1
carpet pos,0
pc,0
Time (ms),CH1 Auto-Correlation
1.0,0.11823213845491409
2.0,0.11407673358917236
3.0,0.11019585281610489
4.0,0.10663244128227234
5.0,0.10334260761737823
6.0,0.10036788135766983
7.0,0.09751281887292862
8.0,0.09491512924432755
9.0,0.09264782816171646
10.0,0.09056545794010162
11.0,0.08857417851686478
12.0,0.08669433742761612
13.0,0.08486827462911606
14.0,0.08320628851652145
15.0,0.08164867013692856
16.0,0.08003251999616623
18.0,0.07687512785196304
20.0,0.07399637997150421
22.0,0.071458600461483
24.0,0.06910819560289383
26.0,0.06689295917749405
28.0,0.06459780782461166
30.0,0.06220460310578346
32.0,0.0600474588572979
36.0,0.05610540136694908
40.0,0.05225370451807976
44.0,0.0486762560904026
48.0,0.04533737152814865
52.0,0.041886106133461
56.0,0.03931542858481407
60.0,0.037379179149866104
64.0,0.03620580956339836
72.0,0.03552265092730522
80.0,0.033673375844955444
88.0,0.03145051747560501
96.0,0.029428856447339058
104.0,0.026782548055052757
112.0,0.02484399452805519
120.0,0.021843211725354195
128.0,0.019004881381988525
144.0,0.01688462123274803
160.0,0.01438517402857542
176.0,0.011753750033676624
192.0,0.009100387804210186
208.0,0.007970988750457764
224.0,0.006859207525849342
240.0,0.006459374446421862
256.0,0.006417885422706604
288.0,0.00215555215254426
320.0,-0.000542688649147749
352.0,0.0012356084771454334
384.0,0.0018123530317097902
416.0,0.004358315374702215
448.0,0.002930339425802231
480.0,0.00030395580688491464
512.0,0.0013626748695969582
576.0,-0.0024763874243944883
640.0,-0.0069648222997784615
704.0,-0.010084498673677444
768.0,-0.012477200478315353
832.0,-0.013106288388371468
896.0,-0.013140693306922913
960.0,-0.007416231092065573
1024.0,-0.0050049214623868465
1152.0,0.004503398668020964
1280.0,0.006385463289916515
1408.0,0.003937806934118271
1536.0,-0.0016600748058408499
1664.0,0.0014726786175742745
1792.0,0.0032008260022848845
1920.0,-0.009613564237952232
2048.0,-0.01600434072315693
2304.0,-0.005348542705178261
2560.0,-0.005072887986898422
2816.0,0.007350188679993153
3072.0,0.002927017631009221
3328.0,-0.018810130655765533
3584.0,-0.013644560240209103
3840.0,-0.01458846963942051
4096.0,0.01123901642858982
4608.0,0.009702197276055813
5120.0,-0.0024845264852046967
5632.0,0.008894002065062523
6144.0,0.004803412593901157
6656.0,0.002880875952541828
7168.0,0.002956831594929099
7680.0,-0.009964676573872566
8192.0,-0.014746122993528843
end
