version,3.0
numOfCh,1
type,point
parent_name,484af_0dot4-1dot0
ch_type,1_1
kcount,1
numberNandB,1
brightnessNandB,1
carpet pos,0
pc,0
Time (ms),CH1 Auto-Correlation
1.0,0.1070350706577301
2.0,0.10200826823711395
3.0,0.09777189791202545
4.0,0.09423156082630157
5.0,0.09096019715070724
6.0,0.08770906925201416
7.0,0.08466548472642899
8.0,0.08207456022500992
9.0,0.07956739515066147
10.0,0.07746542245149612
11.0,0.07555075734853745
12.0,0.07369422912597656
13.0,0.07176583260297775
14.0,0.07011385262012482
15.0,0.06842116266489029
16.0,0.06666294485330582
18.0,0.06377112120389938
20.0,0.060850322246551514
22.0,0.05835721269249916
24.0,0.05598435178399086
26.0,0.053903937339782715
28.0,0.05174650624394417
30.0,0.049899958074092865
32.0,0.04818829149007797
36.0,0.044655706733465195
40.0,0.04148191586136818
44.0,0.038782112300395966
48.0,0.03672914579510689
52.0,0.03472912684082985
56.0,0.032923076301813126
60.0,0.03166418895125389
64.0,0.03046463429927826
72.0,0.028115715831518173
80.0,0.026849357411265373
88.0,0.02531128190457821
96.0,0.02385292574763298
104.0,0.023971905931830406
112.0,0.022329453378915787
120.0,0.020154466852545738
128.0,0.018877552822232246
144.0,0.018677065148949623
160.0,0.01691427454352379
176.0,0.01562156155705452
192.0,0.013488436117768288
208.0,0.010798417031764984
224.0,0.008531425148248672
240.0,0.005240516271442175
256.0,0.003394483355805278
288.0,0.002187698846682906
320.0,-0.0009263688116334379
352.0,-0.0026696284767240286
384.0,-0.004688969813287258
416.0,-0.006113071925938129
448.0,-0.008704111911356449
480.0,-0.00887245498597622
512.0,-0.007582674268633127
576.0,-0.0024747150018811226
640.0,-0.0017588164191693068
704.0,-0.005055840127170086
768.0,-0.0023721945472061634
832.0,-0.004762140568345785
896.0,0.0009351678309030831
960.0,-0.000908927118871361
1024.0,0.0023987784516066313
1152.0,0.005343634635210037
1280.0,0.004111490212380886
1408.0,0.006778073031455278
1536.0,0.00635303882881999
1664.0,-0.0015446519246324897
1792.0,-0.0013345376355573535
1920.0,0.002201101277023554
2048.0,0.002289630239829421
2304.0,0.0018768678419291973
2560.0,-0.003972679376602173
2816.0,-0.004792677238583565
3072.0,-0.0022110245190560818
3328.0,-0.002583150053396821
3584.0,0.003511451417580247
3840.0,-0.008409966714680195
4096.0,-0.012143030762672424
4608.0,-0.002658025361597538
5120.0,-0.003813787829130888
5632.0,-0.003181394888088107
6144.0,0.002891081850975752
6656.0,0.0002610166266094893
7168.0,-0.0047317929565906525
7680.0,0.0034141098149120808
8192.0,-0.0029444897081702948
end
