version,3.0
numOfCh,1
type,point
parent_name,484af_0dot4-1dot0
ch_type,1_1
kcount,1
numberNandB,1
brightnessNandB,1
carpet pos,0
pc,0
Time (ms),CH1 Auto-Correlation
1.0,0.10582119971513748
2.0,0.10058856755495071
3.0,0.09602820128202438
4.0,0.092421755194664
5.0,0.08917651325464249
6.0,0.08615767955780029
7.0,0.08335159718990326
8.0,0.08065531402826309
9.0,0.07840143144130707
10.0,0.07608793675899506
11.0,0.07395060360431671
12.0,0.07225344330072403
13.0,0.07030043005943298
14.0,0.06847401708364487
15.0,0.0667261853814125
16.0,0.0651387944817543
18.0,0.062017738819122314
20.0,0.05896209552884102
22.0,0.05664893612265587
24.0,0.054730627685785294
26.0,0.052372198551893234
28.0,0.050447456538677216
30.0,0.04849444702267647
32.0,0.04676339775323868
36.0,0.04324784129858017
40.0,0.04139023274183273
44.0,0.03959200531244278
48.0,0.03769783303141594
52.0,0.03631750866770744
56.0,0.03502308577299118
60.0,0.03431534767150879
64.0,0.03339780494570732
72.0,0.032175976783037186
80.0,0.029934873804450035
88.0,0.026956254616379738
96.0,0.024688465520739555
104.0,0.022762179374694824
112.0,0.022403888404369354
120.0,0.023112161085009575
128.0,0.02297937497496605
144.0,0.020691251382231712
160.0,0.017040513455867767
176.0,0.014123914763331413
192.0,0.013208556920289993
208.0,0.011487212032079697
224.0,0.009483255445957184
240.0,0.008677386678755283
256.0,0.006618693470954895
288.0,0.003282990539446473
320.0,0.006289912853389978
352.0,0.005628005601465702
384.0,0.0007240529521368444
416.0,0.0016611948376521468
448.0,-0.0030849892646074295
480.0,-0.00258255610242486
512.0,-0.004212814383208752
576.0,-0.000925486150663346
640.0,-0.003507930086925626
704.0,-0.004789013881236315
768.0,-0.003215035190805793
832.0,-0.0030654349830001593
896.0,-0.00420190766453743
960.0,0.0008323332294821739
1024.0,0.0015950507950037718
1152.0,0.0030366210266947746
1280.0,0.006328174844384193
1408.0,0.004968552850186825
1536.0,-0.001942267408594489
1664.0,-0.004825911018997431
1792.0,-0.0006505728233605623
1920.0,0.0050428761169314384
2048.0,0.006701047532260418
2304.0,0.005935502238571644
2560.0,-0.006993667688220739
2816.0,-0.014474818482995033
3072.0,-0.0011589312925934792
3328.0,0.009611574932932854
3584.0,-0.0037021769676357508
3840.0,-0.004327212460339069
4096.0,-0.008145550265908241
4608.0,0.0013150549493730068
5120.0,-0.005025156307965517
5632.0,-0.0017765751108527184
6144.0,-0.0049606794491410255
6656.0,0.007473488338291645
7168.0,-0.010518660768866539
7680.0,0.0031393244862556458
8192.0,0.004033832345157862
end
