version,3.0
numOfCh,1
type,point
parent_name,484af_0dot4-1dot0
ch_type,1_1
kcount,1
numberNandB,1
brightnessNandB,1
carpet pos,0
pc,0
Time (ms),CH1 Auto-Correlation
1.0,0.10119722783565521
2.0,0.09731385856866837
3.0,0.09378863871097565
4.0,0.09070421755313873
5.0,0.0878695473074913
6.0,0.08519330620765686
7.0,0.08268313854932785
8.0,0.08041837066411972
9.0,0.07804356515407562
10.0,0.07582538574934006
11.0,0.0737735778093338
12.0,0.07186181843280792
13.0,0.0700225755572319
14.0,0.06833670288324356
15.0,0.06685902178287506
16.0,0.06549634784460068
18.0,0.06295621395111084
20.0,0.060763582587242126
22.0,0.0587322860956192
24.0,0.05706712231040001
26.0,0.055552899837493896
28.0,0.054264213889837265
30.0,0.05307979881763458
32.0,0.05204959958791733
36.0,0.050088174641132355
40.0,0.048036105930805206
44.0,0.045935068279504776
48.0,0.04386564716696739
52.0,0.04177945479750633
56.0,0.03968432918190956
60.0,0.037708982825279236
64.0,0.0356244295835495
72.0,0.03233697637915611
80.0,0.029367726296186447
88.0,0.026934154331684113
96.0,0.024958951398730278
104.0,0.023563029244542122
112.0,0.022368676960468292
120.0,0.02050936222076416
128.0,0.019082633778452873
144.0,0.018212491646409035
160.0,0.01552041620016098
176.0,0.013304059393703938
192.0,0.013294828124344349
208.0,0.011008216068148613
224.0,0.00920795276761055
240.0,0.008004814386367798
256.0,0.004811188206076622
288.0,-0.0009154694271273911
320.0,-0.0023063679691404104
352.0,-0.0032796086743474007
384.0,-0.004262109752744436
416.0,-0.0055392105132341385
448.0,-0.0036077643744647503
480.0,-0.001241107820533216
512.0,-0.0013868333771824837
576.0,-0.003279774682596326
640.0,0.00037461897591128945
704.0,-0.004079028964042664
768.0,-0.009849684312939644
832.0,-0.013675989583134651
896.0,-0.013335692696273327
960.0,-0.009949229657649994
1024.0,-0.007339234463870525
1152.0,0.000765081902500242
1280.0,0.001263206242583692
1408.0,-0.0033244984224438667
1536.0,-0.007716797757893801
1664.0,-0.00689395098015666
1792.0,-0.0034759463742375374
1920.0,0.0011086906306445599
2048.0,0.005249026697129011
2304.0,0.004517841152846813
2560.0,0.00477831345051527
2816.0,0.0007154677878133953
3072.0,-0.007860066369175911
3328.0,0.000909804308321327
3584.0,-0.0013092620065435767
3840.0,-0.004048551898449659
4096.0,0.011043651960790157
4608.0,-0.001891877967864275
5120.0,-0.0018761289538815618
5632.0,-0.002662627724930644
6144.0,-0.0018633953295648098
6656.0,0.005629721097648144
7168.0,-0.002336119767278433
7680.0,-0.00016598925867583603
8192.0,-0.009644110687077045
end
