version,3.0
numOfCh,1
type,point
parent_name,484af_0dot4-1dot0
ch_type,1_1
kcount,1
numberNandB,1
brightnessNandB,1
carpet pos,0
pc,0
Time (ms),CH1 Auto-Correlation
1.0,0.11608253419399261
2.0,0.11137475073337555
3.0,0.10728719830513
4.0,0.1033456102013588
5.0,0.09958746284246445
6.0,0.09636946022510529
7.0,0.09326241165399551
8.0,0.09043730795383453
9.0,0.08793903142213821
10.0,0.08545605838298798
11.0,0.08290854096412659
12.0,0.08072198927402496
13.0,0.07849880307912827
14.0,0.0763181746006012
15.0,0.0743667408823967
16.0,0.07254455238580704
18.0,0.06905610859394073
20.0,0.06569211184978485
22.0,0.06272007524967194
24.0,0.060087453573942184
26.0,0.057742320001125336
28.0,0.05588557943701744
30.0,0.054060034453868866
32.0,0.052437882870435715
36.0,0.04933420196175575
40.0,0.04635607823729515
44.0,0.044311799108982086
48.0,0.042908865958452225
52.0,0.04127483069896698
56.0,0.039750583469867706
60.0,0.038519829511642456
64.0,0.037078455090522766
72.0,0.033308643847703934
80.0,0.030008632689714432
88.0,0.027254123240709305
96.0,0.025255996733903885
104.0,0.02376703917980194
112.0,0.022788776084780693
120.0,0.02195747196674347
128.0,0.020157434046268463
144.0,0.01686435006558895
160.0,0.014697737991809845
176.0,0.012053022161126137
192.0,0.008791697211563587
208.0,0.008083580061793327
224.0,0.00955536775290966
240.0,0.006892059929668903
256.0,0.004736937582492828
288.0,0.0010596027132123709
320.0,0.002951403148472309
352.0,0.005717033054679632
384.0,0.005162815097719431
416.0,0.007708885706961155
448.0,0.009141473099589348
480.0,0.01150386780500412
512.0,0.012309517711400986
576.0,0.006313212215900421
640.0,0.0018873998196795583
704.0,0.0012223776429891586
768.0,0.002894653705880046
832.0,0.004853775259107351
896.0,0.010484656319022179
960.0,0.011728939600288868
1024.0,0.011799495667219162
1152.0,0.007526971399784088
1280.0,-0.001293479697778821
1408.0,-0.008432041853666306
1536.0,-0.004796086344867945
1664.0,0.0012750885216519237
1792.0,0.003130655735731125
1920.0,0.004410409834235907
2048.0,0.007299690041691065
2304.0,-0.0003389000194147229
2560.0,0.0012898985296487808
2816.0,0.015037428587675095
3072.0,0.010935671627521515
3328.0,-0.002984968014061451
3584.0,-0.001278919167816639
3840.0,0.001376027357764542
4096.0,-0.0039785197004675865
4608.0,-0.004811973311007023
5120.0,-0.0036211125552654266
5632.0,0.0008941714186221361
6144.0,-0.0011334746377542615
6656.0,-0.004803366493433714
7168.0,-0.015605094842612743
7680.0,-0.010350141674280167
8192.0,-0.007629896979779005
end
