version,3.0
numOfCh,1
type,point
parent_name,484af_0dot4-1dot0
ch_type,1_1
kcount,1
numberNandB,1
brightnessNandB,1
carpet pos,0
pc,0
Time (ms),CH1 Auto-Correlation
1.0,0.10642853379249573
2.0,0.10233290493488312
3.0,0.09877263754606247
4.0,0.09552867710590363
5.0,0.09272907674312592
6.0,0.08998875319957733
7.0,0.08751975744962692
8.0,0.08520902693271637
9.0,0.08303678035736084
10.0,0.08094730228185654
11.0,0.07899259775876999
12.0,0.07712333649396896
13.0,0.07535761594772339
14.0,0.07370088249444962
15.0,0.0720338225364685
16.0,0.07040727883577347
18.0,0.06700778752565384
20.0,0.06411198526620865
22.0,0.061641108244657516
24.0,0.0593850314617157
26.0,0.05746033415198326
28.0,0.05566609278321266
30.0,0.05370699614286423
32.0,0.05193290114402771
36.0,0.049379635602235794
40.0,0.04667709022760391
44.0,0.04410863667726517
48.0,0.041948314756155014
52.0,0.0396101213991642
56.0,0.03690173104405403
60.0,0.03469221666455269
64.0,0.03268265351653099
72.0,0.029752004891633987
80.0,0.02837766520678997
88.0,0.027430303394794464
96.0,0.02598772943019867
104.0,0.024160783737897873
112.0,0.022641783580183983
120.0,0.020599007606506348
128.0,0.02000024914741516
144.0,0.018305467441678047
160.0,0.016268746927380562
176.0,0.01587824523448944
192.0,0.016468409448862076
208.0,0.016643624752759933
224.0,0.016401022672653198
240.0,0.014619458466768265
256.0,0.013169552199542522
288.0,0.008450550027191639
320.0,0.007130940444767475
352.0,0.004658062476664782
384.0,2.473716995154973e-05
416.0,-0.0010399199090898037
448.0,-0.0018788912566378713
480.0,-0.000404200836783275
512.0,-0.0025313799269497395
576.0,0.0019170226296409965
640.0,0.00021478314010892063
704.0,-0.005372118204832077
768.0,-0.003549756947904825
832.0,-0.0007673613727092743
896.0,0.00045357554336078465
960.0,-0.001977477455511689
1024.0,-0.0028560771606862545
1152.0,-0.0048442380502820015
1280.0,-0.009049659594893456
1408.0,-0.005540731828659773
1536.0,-0.00432328088209033
1664.0,-0.0009416684042662382
1792.0,0.0018935579573735595
1920.0,0.0018735576886683702
2048.0,0.005414531100541353
2304.0,-0.0019315880490466952
2560.0,-0.0025205339770764112
2816.0,-0.008561559021472931
3072.0,-0.005679520778357983
3328.0,-0.0014263892080634832
3584.0,0.00019309009076096117
3840.0,-0.0034136935137212276
4096.0,-0.004098123870790005
4608.0,0.007735737599432468
5120.0,0.001383958850055933
5632.0,-0.009055297821760178
6144.0,-0.00025676662335172296
6656.0,0.004427480045706034
7168.0,0.0065712472423911095
7680.0,0.0025196941569447517
8192.0,-7.927750993985683e-05
end
