version,3.0
numOfCh,1
type,point
parent_name,484af_0dot4-1dot0
ch_type,1_1
kcount,1
numberNandB,1
brightnessNandB,1
carpet pos,0
pc,0
Time (ms),CH1 Auto-Correlation
1.0,0.10352350026369095
2.0,0.09795928746461868
3.0,0.09163561463356018
4.0,0.0866674929857254
5.0,0.08229005336761475
6.0,0.07876389473676682
7.0,0.075785331428051
8.0,0.07309547811746597
9.0,0.07053566724061966
10.0,0.06829817593097687
11.0,0.06628723442554474
12.0,0.06421083211898804
13.0,0.06213684752583504
14.0,0.060271456837654114
15.0,0.05843828618526459
16.0,0.056737020611763
18.0,0.05378890410065651
20.0,0.05125784873962402
22.0,0.049150507897138596
24.0,0.04740462452173233
26.0,0.04571300745010376
28.0,0.04412522539496422
30.0,0.04284242168068886
32.0,0.041378606110811234
36.0,0.03818853572010994
40.0,0.03309866786003113
44.0,0.029455795884132385
48.0,0.02658988907933235
52.0,0.024545060470700264
56.0,0.02328239195048809
60.0,0.021423887461423874
64.0,0.020038357004523277
72.0,0.01851699687540531
80.0,0.016846485435962677
88.0,0.015001009218394756
96.0,0.012757482938468456
104.0,0.009874592535197735
112.0,0.007296489551663399
120.0,0.00615779310464859
128.0,0.004863755311816931
144.0,0.0028939582407474518
160.0,0.0016975565813481808
176.0,0.0011380909709259868
192.0,0.00026865891413763165
208.0,0.0029581107664853334
224.0,0.004519416484981775
240.0,0.005498707760125399
256.0,0.004647774621844292
288.0,0.006819495465606451
320.0,0.007934422232210636
352.0,0.0018070043297484517
384.0,-0.006232491694390774
416.0,-0.005381223279982805
448.0,-0.002763536758720875
480.0,-0.0031075223814696074
512.0,0.0006321431137621403
576.0,0.004059446509927511
640.0,0.000358570454409346
704.0,-0.002273617312312126
768.0,-0.005372914951294661
832.0,0.000773445819504559
896.0,0.002735865069553256
960.0,0.004382092971354723
1024.0,0.004413139540702105
1152.0,0.002496925415471196
1280.0,-0.003526926739141345
1408.0,-1.0619510248943698e-05
1536.0,0.0037214476615190506
1664.0,0.00015912577509880066
1792.0,-0.0024548943620175123
1920.0,-0.005427155178040266
2048.0,-0.0020804309751838446
2304.0,-0.0008330451673828065
2560.0,0.0027389812748879194
2816.0,-0.004719768185168505
3072.0,0.0011685863137245178
3328.0,-0.00263802008703351
3584.0,-0.009221615269780159
3840.0,-0.00603064801543951
4096.0,-0.0029406556859612465
4608.0,-0.0029237987473607063
5120.0,-0.0010017198510468006
5632.0,0.004335399251431227
6144.0,-0.0004300922155380249
6656.0,0.0041854470036923885
7168.0,0.0004927999689243734
7680.0,0.002618410624563694
8192.0,0.005099587608128786
end
