version,3.0
numOfCh,1
type,point
parent_name,484af_0dot4-1dot0
ch_type,1_1
kcount,1
numberNandB,1
brightnessNandB,1
carpet pos,0
pc,0
Time (ms),CH1 Auto-Correlation
1.0,0.09931755810976028
2.0,0.09542657434940338
3.0,0.09202606976032257
4.0,0.08884893357753754
5.0,0.08588622510433197
6.0,0.08307496458292007
7.0,0.08026131242513657
8.0,0.07768798619508743
9.0,0.07543627172708511
10.0,0.07332231104373932
11.0,0.07122576981782913
12.0,0.06926774978637695
13.0,0.06752007454633713
14.0,0.06600592285394669
15.0,0.064545176923275
16.0,0.0633038803935051
18.0,0.060709770768880844
20.0,0.05837520956993103
22.0,0.05622321367263794
24.0,0.0540565587580204
26.0,0.05179440602660179
28.0,0.049899592995643616
30.0,0.0480220802128315
32.0,0.0460389107465744
36.0,0.042989738285541534
40.0,0.040466681122779846
44.0,0.03842189908027649
48.0,0.036615487188100815
52.0,0.034313350915908813
56.0,0.03217793256044388
60.0,0.030308440327644348
64.0,0.028883617371320724
72.0,0.02760004624724388
80.0,0.026536986231803894
88.0,0.025154149159789085
96.0,0.02467229776084423
104.0,0.024501897394657135
112.0,0.0229143425822258
120.0,0.02150147780776024
128.0,0.020223870873451233
144.0,0.01740671694278717
160.0,0.01692437380552292
176.0,0.01757124811410904
192.0,0.01907534711062908
208.0,0.017615826800465584
224.0,0.016414497047662735
240.0,0.013888197019696236
256.0,0.01256734412163496
288.0,0.010809715837240219
320.0,0.00734502961859107
352.0,0.006450997665524483
384.0,0.007619913201779127
416.0,0.009505868889391422
448.0,0.00889661069959402
480.0,0.00895950198173523
512.0,0.008192221634089947
576.0,0.0036047010216861963
640.0,0.0023470812011510134
704.0,0.001512762624770403
768.0,-0.0005504309083335102
832.0,-0.003057496389374137
896.0,-0.0016254492802545428
960.0,-0.006639469414949417
1024.0,-0.014424784108996391
1152.0,-0.009665646590292454
1280.0,-0.014579666778445244
1408.0,-0.009109252132475376
1536.0,-0.010336581617593765
1664.0,-0.01353005226701498
1792.0,-0.012054285034537315
1920.0,-0.013932804577052593
2048.0,-0.00990269985049963
2304.0,0.007706758566200733
2560.0,0.00936499610543251
2816.0,0.016405241563916206
3072.0,0.01169958058744669
3328.0,0.00932927243411541
3584.0,0.0019575718324631453
3840.0,-0.0030263334047049284
4096.0,-0.010038797743618488
4608.0,-0.012902488000690937
5120.0,-0.004090570844709873
5632.0,0.009353412315249443
6144.0,0.011441947892308235
6656.0,0.00190239236690104
7168.0,-0.007007584907114506
7680.0,-0.005188079550862312
8192.0,-0.003500599879771471
end
