version,3.0
numOfCh,1
type,point
parent_name,484af_0dot4-1dot0
ch_type,1_1
kcount,1
numberNandB,1
brightnessNandB,1
carpet pos,0
pc,0
Time (ms),CH1 Auto-Correlation
1.0,0.09545151889324188
2.0,0.09125708788633347
3.0,0.08758452534675598
4.0,0.08430501818656921
5.0,0.08135560899972916
6.0,0.07838620990514755
7.0,0.07586661726236343
8.0,0.07352539896965027
9.0,0.07126525789499283
10.0,0.06921736150979996
11.0,0.06716807931661606
12.0,0.06524621695280075
13.0,0.06339281052350998
14.0,0.06165093928575516
15.0,0.060130078345537186
16.0,0.058760158717632294
18.0,0.05623103305697441
20.0,0.053738489747047424
22.0,0.05113386735320091
24.0,0.04846959933638573
26.0,0.04585957154631615
28.0,0.04329504072666168
30.0,0.040749091655015945
32.0,0.03862863779067993
36.0,0.03556794673204422
40.0,0.03319798782467842
44.0,0.03140759840607643
48.0,0.0296360794454813
52.0,0.02740318328142166
56.0,0.025126339867711067
60.0,0.022974587976932526
64.0,0.02084706537425518
72.0,0.018247827887535095
80.0,0.017410345375537872
88.0,0.01704680547118187
96.0,0.01706662029027939
104.0,0.016460062935948372
112.0,0.01574854366481304
120.0,0.014117014594376087
128.0,0.013407456688582897
144.0,0.013313643634319305
160.0,0.010892660357058048
176.0,0.007238057907670736
192.0,0.0061345817521214485
208.0,0.007886203937232494
224.0,0.009491019882261753
240.0,0.00987529568374157
256.0,0.008861257694661617
288.0,0.008425883017480373
320.0,0.005910580512136221
352.0,0.005663126707077026
384.0,0.0004090784059371799
416.0,-0.0064101149328053
448.0,-0.005540323443710804
480.0,-0.0004476338508538902
512.0,0.00076717184856534
576.0,-0.003655355889350176
640.0,-0.001831282745115459
704.0,-0.0009602755308151245
768.0,-0.0007106273551471531
832.0,-0.004879796877503395
896.0,-0.0052574397996068
960.0,-0.005384332034736872
1024.0,-0.002583725145086646
1152.0,-0.0030966943595558405
1280.0,0.0016463653882965446
1408.0,0.001922435825690627
1536.0,0.0053643430583179
1664.0,0.00015970510139595717
1792.0,0.004173845052719116
1920.0,0.002078480087220669
2048.0,0.0026599664706736803
2304.0,-0.003692964091897011
2560.0,-0.001261030905880034
2816.0,0.0010583196999505162
3072.0,0.0009821015410125256
3328.0,-0.0014514316571876407
3584.0,-0.010597910732030869
3840.0,-0.0073692286387085915
4096.0,0.0064488910138607025
4608.0,0.007763136178255081
5120.0,-0.010938783176243305
5632.0,-0.004833573941141367
6144.0,0.004190794192254543
6656.0,-0.002540259389206767
7168.0,0.00039537280099466443
7680.0,-0.006477245595306158
8192.0,-0.009396410547196865
end
