version,3.0
numOfCh,1
type,point
parent_name,484af_0dot4-1dot0
ch_type,1_1
kcount,1
numberNandB,1
brightnessNandB,1
carpet pos,0
pc,0
Time (ms),CH1 Auto-Correlation
1.0,0.11414337158203125
2.0,0.10992337763309479
3.0,0.10614537447690964
4.0,0.10268818587064743
5.0,0.09941970556974411
6.0,0.0963340774178505
7.0,0.09345545619726181
8.0,0.09086058288812637
9.0,0.08834262937307358
10.0,0.08591670542955399
11.0,0.08352338522672653
12.0,0.08122362941503525
13.0,0.07902071624994278
14.0,0.07692549377679825
15.0,0.07477202266454697
16.0,0.07284765690565109
18.0,0.0692690908908844
20.0,0.06603149324655533
22.0,0.0634617954492569
24.0,0.061230409890413284
26.0,0.059083499014377594
28.0,0.05713114142417908
30.0,0.05545950308442116
32.0,0.054045360535383224
36.0,0.05121902376413345
40.0,0.04879464581608772
44.0,0.04632485657930374
48.0,0.04358769208192825
52.0,0.04085376486182213
56.0,0.038419004529714584
60.0,0.03610522672533989
64.0,0.033663708716630936
72.0,0.029872341081500053
80.0,0.027199245989322662
88.0,0.02651026099920273
96.0,0.026140108704566956
104.0,0.02571186050772667
112.0,0.02473827451467514
120.0,0.023130420595407486
128.0,0.023315925151109695
144.0,0.02610141411423683
160.0,0.025505520403385162
176.0,0.02349839173257351
192.0,0.0204909797757864
208.0,0.020871026441454887
224.0,0.021763192489743233
240.0,0.022075673565268517
256.0,0.020496850833296776
288.0,0.016671301797032356
320.0,0.011789470911026001
352.0,0.007949472405016422
384.0,0.010150971822440624
416.0,0.008388260379433632
448.0,0.00359906442463398
480.0,0.0011169830104336143
512.0,0.0020530095789581537
576.0,0.005071180872619152
640.0,0.005655692890286446
704.0,0.003972036298364401
768.0,0.006335084326565266
832.0,0.008863610215485096
896.0,0.0097588449716568
960.0,0.01235915720462799
1024.0,0.008206048049032688
1152.0,0.008030775003135204
1280.0,0.004609659779816866
1408.0,0.007674834690988064
1536.0,0.009509017691016197
1664.0,0.012749453075230122
1792.0,0.016009677201509476
1920.0,0.01670035906136036
2048.0,0.014497931115329266
2304.0,0.0037553133442997932
2560.0,0.007750802207738161
2816.0,0.01141228899359703
3072.0,0.00015088786312844604
3328.0,0.0015127171063795686
3584.0,0.007811563089489937
3840.0,0.007557653822004795
4096.0,-0.0003073109546676278
4608.0,-0.0009492851095274091
5120.0,-0.0018001776188611984
5632.0,0.0006870751385577023
6144.0,-0.014453156851232052
6656.0,-0.013098328374326229
7168.0,-0.0038576326332986355
7680.0,-0.017014874145388603
8192.0,-0.005375182721763849
end
