version,3.0
numOfCh,1
type,point
parent_name,484af_0dot4-1dot0
ch_type,1_1
kcount,1
numberNandB,1
brightnessNandB,1
carpet pos,0
pc,0
Time (ms),CH1 Auto-Correlation
1.0,0.1014067754149437
2.0,0.09737004339694977
3.0,0.09367422759532928
4.0,0.09038171172142029
5.0,0.08725284785032272
6.0,0.08430209010839462
7.0,0.08165760338306427
8.0,0.07914035767316818
9.0,0.07673448324203491
10.0,0.07449981570243835
11.0,0.07236188650131226
12.0,0.07043591886758804
13.0,0.06852775812149048
14.0,0.06665429472923279
15.0,0.06486799567937851
16.0,0.06326679140329361
18.0,0.06026795506477356
20.0,0.05750688165426254
22.0,0.05493881553411484
24.0,0.052311092615127563
26.0,0.04966245964169502
28.0,0.04726555570960045
30.0,0.04531470313668251
32.0,0.043664295226335526
36.0,0.04068994149565697
40.0,0.037905286997556686
44.0,0.035346467047929764
48.0,0.0330825038254261
52.0,0.030933549627661705
56.0,0.028902629390358925
60.0,0.02738340198993683
64.0,0.026020511984825134
72.0,0.02230697311460972
80.0,0.019997479394078255
88.0,0.017916526645421982
96.0,0.016148708760738373
104.0,0.014731762930750847
112.0,0.013393259607255459
120.0,0.011072453111410141
128.0,0.008630317635834217
144.0,0.004679267760366201
160.0,0.0036421148106455803
176.0,0.004063952714204788
192.0,0.0064207823015749454
208.0,0.006593904923647642
224.0,0.006392521318048239
240.0,0.007020425051450729
256.0,0.006997582968324423
288.0,0.0076400889083743095
320.0,0.006614049896597862
352.0,0.0078881261870265
384.0,0.009798748418688774
416.0,0.008821549825370312
448.0,0.008171651512384415
480.0,0.007552842143923044
512.0,0.004788876511156559
576.0,0.005529110319912434
640.0,0.007783716078847647
704.0,0.0036488219629973173
768.0,-0.004381289705634117
832.0,-0.01114883553236723
896.0,-0.005955908447504044
960.0,-0.005753001663833857
1024.0,-0.012354789301753044
1152.0,-0.006089030299335718
1280.0,-0.004124179482460022
1408.0,-0.008403124287724495
1536.0,-0.008586306124925613
1664.0,-0.002318885875865817
1792.0,-0.0021591249387711287
1920.0,-0.004712929017841816
2048.0,-0.004780711140483618
2304.0,-0.006642718333750963
2560.0,-0.0013917172327637672
2816.0,0.001347794895991683
3072.0,0.005277678370475769
3328.0,0.009516901336610317
3584.0,0.012251113541424274
3840.0,0.004808974452316761
4096.0,0.008458059281110764
4608.0,-0.005085798446089029
5120.0,-0.01167670451104641
5632.0,-0.006436098366975784
6144.0,0.00016543068340979517
6656.0,0.0015114765847101808
7168.0,0.008521421812474728
7680.0,0.009918881580233574
8192.0,-0.00465928390622139
end
