version,3.0
numOfCh,1
type,point
parent_name,484af_0dot4-1dot0
ch_type,1_1
kcount,1
numberNandB,1
brightnessNandB,1
carpet pos,0
pc,0
Time (ms),CH1 Auto-Correlation
1.0,0.1239672601222992
2.0,0.11925464123487473
3.0,0.11514531821012497
4.0,0.11148884147405624
5.0,0.10821900516748428
6.0,0.10494217276573181
7.0,0.10195273160934448
8.0,0.09927624464035034
9.0,0.0967027023434639
10.0,0.09436198323965073
11.0,0.09204313904047012
12.0,0.08993957936763763
13.0,0.08778364211320877
14.0,0.08581998199224472
15.0,0.08406374603509903
16.0,0.08237629383802414
18.0,0.07926246523857117
20.0,0.07647325098514557
22.0,0.07394995540380478
24.0,0.07184683531522751
26.0,0.06979425996541977
28.0,0.06771806627511978
30.0,0.06598398089408875
32.0,0.06447365134954453
36.0,0.06180442497134209
40.0,0.05962987616658211
44.0,0.0579979345202446
48.0,0.05618833377957344
52.0,0.0540103018283844
56.0,0.05165942758321762
60.0,0.050045087933540344
64.0,0.04912722855806351
72.0,0.04714387655258179
80.0,0.04410402476787567
88.0,0.04111539199948311
96.0,0.038668449968099594
104.0,0.03666236996650696
112.0,0.03570345416665077
120.0,0.03449282795190811
128.0,0.03330787271261215
144.0,0.033219851553440094
160.0,0.031155016273260117
176.0,0.02701479010283947
192.0,0.022313984110951424
208.0,0.021449245512485504
224.0,0.020436028018593788
240.0,0.016987064853310585
256.0,0.013836879283189774
288.0,0.012867491692304611
320.0,0.010121947154402733
352.0,0.007529136259108782
384.0,0.008569159545004368
416.0,0.00809059664607048
448.0,0.006999680772423744
480.0,0.0035279507283121347
512.0,-0.0015018654521554708
576.0,-0.00036653963616117835
640.0,-0.0010664649307727814
704.0,-0.008648369461297989
768.0,-0.01013072021305561
832.0,-0.007270332891494036
896.0,-0.0049499929882586
960.0,-0.005886656232178211
1024.0,-0.002743204589933157
1152.0,0.0031331991776823997
1280.0,0.0048183477483689785
1408.0,-0.0017720244359225035
1536.0,-0.0006669950671494007
1664.0,0.004656595177948475
1792.0,0.0035349500831216574
1920.0,0.0019579408690333366
2048.0,-0.0016910877311602235
2304.0,0.0005996656254865229
2560.0,-0.001004343735985458
2816.0,-0.011490113101899624
3072.0,-0.021502068266272545
3328.0,-0.010941038839519024
3584.0,0.007910755462944508
3840.0,0.01020182017236948
4096.0,-0.0002742798824328929
4608.0,-0.015273327007889748
5120.0,-0.001889909035526216
5632.0,-0.006801985204219818
6144.0,0.004931708797812462
6656.0,-0.004687901120632887
7168.0,-0.0002654925629030913
7680.0,0.004340846557170153
8192.0,0.00505612650886178
end
