version,3.0
numOfCh,1
type,point
parent_name,484af_0dot4-1dot0
ch_type,1_1
kcount,1
numberNandB,1
brightnessNandB,1
carpet pos,0
pc,0
Time (ms),CH1 Auto-Correlation
1.0,0.111663319170475
2.0,0.1074879840016365
3.0,0.10373327136039734
4.0,0.10021926462650299
5.0,0.09705446660518646
6.0,0.0940721184015274
7.0,0.09124099463224411
8.0,0.0886564701795578
9.0,0.08617159724235535
10.0,0.08399290591478348
11.0,0.08187868446111679
12.0,0.07989978790283203
13.0,0.07813754677772522
14.0,0.07654333859682083
15.0,0.07485083490610123
16.0,0.07328290492296219
18.0,0.07015873491764069
20.0,0.06732162833213806
22.0,0.064586341381073
24.0,0.06204311177134514
26.0,0.05963583663105965
28.0,0.05725526064634323
30.0,0.05506458505988121
32.0,0.05310985445976257
36.0,0.04903947189450264
40.0,0.04520643129944801
44.0,0.04173656553030014
48.0,0.038687948137521744
52.0,0.03608928248286247
56.0,0.03423480689525604
60.0,0.03244352713227272
64.0,0.030870964750647545
72.0,0.027700401842594147
80.0,0.02482335828244686
88.0,0.02105576917529106
96.0,0.0167030468583107
104.0,0.012951819226145744
112.0,0.010352326557040215
120.0,0.008126305416226387
128.0,0.006871215999126434
144.0,0.004161215387284756
160.0,0.0034898577723652124
176.0,0.004838006570935249
192.0,0.0068625942803919315
208.0,0.006112972274422646
224.0,0.004291766323149204
240.0,0.0033401760738343
256.0,0.0034777289256453514
288.0,0.004470421466976404
320.0,0.004602635744959116
352.0,0.004688661079853773
384.0,0.0031804561149328947
416.0,-0.0009969414677470922
448.0,-0.0004940781509503722
480.0,-0.0038747277576476336
512.0,-0.003407215466722846
576.0,-0.0006960832979530096
640.0,-0.00021628776448778808
704.0,0.004349547438323498
768.0,0.0006759915268048644
832.0,-0.0016932006692513824
896.0,0.0015662461519241333
960.0,0.0015517068095505238
1024.0,-0.0038782022893428802
1152.0,-0.0014157249825075269
1280.0,-0.0026155668310821056
1408.0,-0.0004156084614805877
1536.0,0.00017702270997688174
1664.0,-0.008940240368247032
1792.0,-0.00874658115208149
1920.0,-0.007039464544504881
2048.0,-0.0024889151100069284
2304.0,-3.614612069213763e-05
2560.0,-0.0022710897028446198
2816.0,0.0016493654111400247
3072.0,0.007722918875515461
3328.0,0.0019679975230246782
3584.0,0.0008646518108434975
3840.0,-0.002477780682966113
4096.0,-0.00209742016158998
4608.0,-0.008810130879282951
5120.0,-0.005393169354647398
5632.0,-0.0010538318892940879
6144.0,0.0043768263421952724
6656.0,0.009347187355160713
7168.0,-0.0007519158534705639
7680.0,-0.005446221213787794
8192.0,-0.003955465741455555
end
