version,3.0
numOfCh,1
type,point
parent_name,c1204_1dot0-0dot1
ch_type,1_1
kcount,1
numberNandB,1
brightnessNandB,1
carpet pos,0
pc,0
Time (ms),CH1 Auto-Correlation
1.0,0.11206799000501633
2.0,0.10466087609529495
3.0,0.09827254712581635
4.0,0.09257390350103378
5.0,0.08763866871595383
6.0,0.08316513895988464
7.0,0.07922272384166718
8.0,0.07593121379613876
9.0,0.07289135456085205
10.0,0.06984076648950577
11.0,0.06702730059623718
12.0,0.06451353430747986
13.0,0.062173765152692795
14.0,0.06010066345334053
15.0,0.05800892785191536
16.0,0.056137628853321075
18.0,0.052710674703121185
20.0,0.04936673492193222
22.0,0.046124402433633804
24.0,0.04288346692919731
26.0,0.04013318940997124
28.0,0.03848394379019737
30.0,0.03738555312156677
32.0,0.035906605422496796
36.0,0.03272790461778641
40.0,0.030676551163196564
44.0,0.029299166053533554
48.0,0.02785203792154789
52.0,0.026553349569439888
56.0,0.025322964414954185
60.0,0.024663804098963737
64.0,0.024112746119499207
72.0,0.023905083537101746
80.0,0.0230499729514122
88.0,0.020430637523531914
96.0,0.017492372542619705
104.0,0.015019293874502182
112.0,0.012036537751555443
120.0,0.00920670386403799
128.0,0.007967033423483372
144.0,0.008121424354612827
160.0,0.008712193928658962
176.0,0.006715643685311079
192.0,0.0067524174228310585
208.0,0.004377749748528004
224.0,0.0012728567235171795
240.0,0.002155641559511423
256.0,0.001164942397736013
288.0,0.008950622752308846
320.0,0.010940237902104855
352.0,0.009504401125013828
384.0,0.009039206430315971
416.0,0.006653612945228815
448.0,0.007610645145177841
480.0,0.00601144740357995
512.0,0.002862051362171769
576.0,0.0003811188507825136
640.0,0.002424064790830016
704.0,-0.00012608946417458355
768.0,-0.0011261379113420844
832.0,-0.0025976356118917465
896.0,-0.00059323146706447
960.0,0.00048598877037875354
1024.0,0.0005364800454117358
1152.0,-0.003853010246530175
1280.0,-0.0035067955031991005
1408.0,0.003890115302056074
1536.0,0.003052873071283102
1664.0,-0.000429970386903733
1792.0,0.00045261572813615203
1920.0,-0.0027724967803806067
2048.0,-0.006421094760298729
2304.0,-0.0018054698593914509
2560.0,-0.009558672085404396
2816.0,-0.004529654048383236
3072.0,-0.001097374246455729
3328.0,-0.004556563217192888
3584.0,7.750529039185494e-05
3840.0,-0.0036602900363504887
4096.0,-0.009038192220032215
4608.0,0.00019226827134843916
5120.0,0.006663821171969175
5632.0,0.0034636047203093767
6144.0,0.010841108858585358
6656.0,0.0060162669979035854
7168.0,-0.0030471663922071457
7680.0,-0.007465105038136244
8192.0,-0.0018102909671142697
end
