version,3.0
numOfCh,1
type,point
parent_name,c1204_1dot0-0dot1
ch_type,1_1
kcount,1
numberNandB,1
brightnessNandB,1
carpet pos,0
pc,0
Time (ms),CH1 Auto-Correlation
1.0,0.09363019466400146
2.0,0.0867883637547493
3.0,0.08076115697622299
4.0,0.07549180835485458
5.0,0.07101757824420929
6.0,0.06699924170970917
7.0,0.06333707273006439
8.0,0.0601518340408802
9.0,0.05727371573448181
10.0,0.05460059642791748
11.0,0.0523027703166008
12.0,0.05015866085886955
13.0,0.0481751449406147
14.0,0.04649202898144722
15.0,0.04490359500050545
16.0,0.04353472590446472
18.0,0.04135797917842865
20.0,0.038936059921979904
22.0,0.036516688764095306
24.0,0.03451472148299217
26.0,0.03254065662622452
28.0,0.030876165255904198
30.0,0.029381567612290382
32.0,0.027847325429320335
36.0,0.025030700489878654
40.0,0.022511597722768784
44.0,0.02028457261621952
48.0,0.018707066774368286
52.0,0.01668972708284855
56.0,0.015040121972560883
60.0,0.014066795818507671
64.0,0.012222787365317345
72.0,0.008821130730211735
80.0,0.006109617184847593
88.0,0.0033632179256528616
96.0,0.0016363925533369184
104.0,-0.00010902464418904856
112.0,-0.0011183773167431355
120.0,0.00021975339041091502
128.0,0.0002218659210484475
144.0,0.0010484284721314907
160.0,0.004602204076945782
176.0,0.005061194766312838
192.0,0.006493501830846071
208.0,0.005816192366182804
224.0,0.006761929020285606
240.0,0.006423029117286205
256.0,0.007312249857932329
288.0,0.0020250040106475353
320.0,0.0014720326289534569
352.0,0.004092783201485872
384.0,0.004345830995589495
416.0,0.003705208422616124
448.0,0.0020464686676859856
480.0,0.003525476437062025
512.0,0.004062103107571602
576.0,0.002904152497649193
640.0,0.006736276671290398
704.0,0.004426592495292425
768.0,0.0005571105284616351
832.0,-0.00259060924872756
896.0,-0.00315179699100554
960.0,0.002554392907768488
1024.0,-0.004735588561743498
1152.0,-0.0005396867054514587
1280.0,-0.0006889249780215323
1408.0,-0.0002384898834861815
1536.0,-0.0024093259125947952
1664.0,-0.0023858302738517523
1792.0,-0.0029472880996763706
1920.0,0.0013379197334870696
2048.0,0.0013716708635911345
2304.0,0.007246883120387793
2560.0,0.003597619477659464
2816.0,0.0035008052363991737
3072.0,-0.00027490773936733603
3328.0,-0.00042594739352352917
3584.0,0.0016213051276281476
3840.0,-0.002119255717843771
4096.0,-0.0021143562626093626
4608.0,-0.0024990099482238293
5120.0,-0.0012439507991075516
5632.0,-0.0024959570728242397
6144.0,5.8840072597377e-05
6656.0,-0.00018888498016167432
7168.0,-0.0013546006521210074
7680.0,-0.004562731832265854
8192.0,-0.006064902059733868
end
