version,3.0
numOfCh,1
type,point
parent_name,c1204_1dot0-0dot1
ch_type,1_1
kcount,1
numberNandB,1
brightnessNandB,1
carpet pos,0
pc,0
Time (ms),CH1 Auto-Correlation
1.0,0.0869782418012619
2.0,0.08007529377937317
3.0,0.07388963550329208
4.0,0.06854920834302902
5.0,0.06400953978300095
6.0,0.060037754476070404
7.0,0.05639110878109932
8.0,0.053060438483953476
9.0,0.04993255063891411
10.0,0.04728466644883156
11.0,0.04482749104499817
12.0,0.04251589998602867
13.0,0.040524907410144806
14.0,0.03870046138763428
15.0,0.036832474172115326
16.0,0.03505968675017357
18.0,0.03221400827169418
20.0,0.030254041776061058
22.0,0.028919778764247894
24.0,0.02748386561870575
26.0,0.025853371247649193
28.0,0.02418280765414238
30.0,0.022627703845500946
32.0,0.021620366722345352
36.0,0.02077782154083252
40.0,0.02025419846177101
44.0,0.019212275743484497
48.0,0.01822361722588539
52.0,0.017152538523077965
56.0,0.015848668292164803
60.0,0.014865938574075699
64.0,0.013838092796504498
72.0,0.012692208401858807
80.0,0.011723855510354042
88.0,0.009995872154831886
96.0,0.009793845936655998
104.0,0.009866640903055668
112.0,0.009739553555846214
120.0,0.009275052696466446
128.0,0.00810621865093708
144.0,0.004975077696144581
160.0,0.004382763989269733
176.0,0.00617107842117548
192.0,0.004452062770724297
208.0,0.0021319114603102207
224.0,0.0015516184503212571
240.0,0.0005135952378623188
256.0,-0.00011945271398872137
288.0,0.0006059701554477215
320.0,0.0012288381112739444
352.0,0.002807694487273693
384.0,0.00012993474956601858
416.0,-0.0026186704635620117
448.0,-0.0041870479471981525
480.0,-0.004056580364704132
512.0,-0.0013671473134309053
576.0,0.0012877235421910882
640.0,0.0025158822536468506
704.0,0.0003439112624619156
768.0,-0.004120859317481518
832.0,-0.003794909454882145
896.0,-0.003093698062002659
960.0,-0.0056572239845991135
1024.0,-0.003739583306014538
1152.0,-0.004126274958252907
1280.0,-0.00039099238347262144
1408.0,-0.0004569465818349272
1536.0,0.0030908086337149143
1664.0,-0.00010380172170698643
1792.0,2.2786023691878654e-05
1920.0,0.0021941063459962606
2048.0,6.682494858978316e-05
2304.0,0.0023121312260627747
2560.0,-0.002066215267404914
2816.0,-0.003131116507574916
3072.0,-0.0010829545790329576
3328.0,-0.0007063407683745027
3584.0,0.004775880370289087
3840.0,-0.00016155117191374302
4096.0,0.0026608528569340706
4608.0,-0.00011439844820415601
5120.0,-0.0015180254122242332
5632.0,-0.00040671476745046675
6144.0,-0.0008357710903510451
6656.0,-0.004172804765403271
7168.0,-0.002505985088646412
7680.0,0.0042614806443452835
8192.0,0.0007657083333469927
end
