version,3.0
numOfCh,1
type,point
parent_name,c1204_1dot0-0dot1
ch_type,1_1
kcount,1
numberNandB,1
brightnessNandB,1
carpet pos,0
pc,0
Time (ms),CH1 Auto-Correlation
1.0,0.0932404026389122
2.0,0.08639107644557953
3.0,0.08041497319936752
4.0,0.07503009587526321
5.0,0.07041804492473602
6.0,0.06654243171215057
7.0,0.0629451721906662
8.0,0.05961347743868828
9.0,0.05658929422497749
10.0,0.053811460733413696
11.0,0.05144962668418884
12.0,0.04898551106452942
13.0,0.04675215855240822
14.0,0.044642623513936996
15.0,0.04282025247812271
16.0,0.04124873876571655
18.0,0.038520365953445435
20.0,0.03592542186379433
22.0,0.03394825756549835
24.0,0.032200317829847336
26.0,0.029964342713356018
28.0,0.02780919149518013
30.0,0.025902554392814636
32.0,0.024716392159461975
36.0,0.022295327857136726
40.0,0.020653264597058296
44.0,0.021051837131381035
48.0,0.021477125585079193
52.0,0.021756526082754135
56.0,0.021326059475541115
60.0,0.01938072219491005
64.0,0.018123462796211243
72.0,0.01644146256148815
80.0,0.014455086551606655
88.0,0.011317734606564045
96.0,0.008919453248381615
104.0,0.006512291729450226
112.0,0.005184647627174854
120.0,0.006971864495426416
128.0,0.008550993166863918
144.0,0.009815264493227005
160.0,0.0069420672953128815
176.0,0.004715253598988056
192.0,0.006755078677088022
208.0,0.008084522560238838
224.0,0.007087842095643282
240.0,0.0046938094310462475
256.0,0.0026269343215972185
288.0,0.0060506584122776985
320.0,0.00026190406060777605
352.0,-0.0007002059137448668
384.0,-0.0034674927592277527
416.0,-0.0012458469718694687
448.0,-0.0014573826920241117
480.0,-0.0021548867225646973
512.0,0.0026327797677367926
576.0,0.0037416040431708097
640.0,0.003886336926370859
704.0,0.004765538964420557
768.0,0.006814100313931704
832.0,0.0068227616138756275
896.0,0.007028899621218443
960.0,0.004230338614434004
1024.0,0.001283398363739252
1152.0,0.003990646451711655
1280.0,0.005577495321631432
1408.0,0.0019506955286487937
1536.0,0.004241862799972296
1664.0,0.006972094066441059
1792.0,0.008085571229457855
1920.0,0.0038583967834711075
2048.0,9.982402843888849e-05
2304.0,0.005246037617325783
2560.0,0.0018690222641453147
2816.0,0.0017704537604004145
3072.0,0.0009625214152038097
3328.0,-0.0017634520772844553
3584.0,0.0022532690782099962
3840.0,-0.00034251343458890915
4096.0,-0.0003131182456854731
4608.0,0.00019161215459462255
5120.0,0.002084349049255252
5632.0,-0.006593901664018631
6144.0,-0.002586609683930874
6656.0,-0.0010411610128358006
7168.0,-0.009854700416326523
7680.0,-0.006224855314940214
8192.0,-0.0076254503801465034
end
