version,3.0
numOfCh,1
type,point
parent_name,c1204_1dot0-0dot1
ch_type,1_1
kcount,1
numberNandB,1
brightnessNandB,1
carpet pos,0
pc,0
Time (ms),CH1 Auto-Correlation
1.0,0.10336658358573914
2.0,0.09597396105527878
3.0,0.08971536159515381
4.0,0.08435716480016708
5.0,0.07943921536207199
6.0,0.07516016811132431
7.0,0.07135618478059769
8.0,0.06810376048088074
9.0,0.06513267755508423
10.0,0.0626024454832077
11.0,0.059900496155023575
12.0,0.05767041817307472
13.0,0.055357519537210464
14.0,0.05321327969431877
15.0,0.051410675048828125
16.0,0.049595560878515244
18.0,0.04661703109741211
20.0,0.04415668547153473
22.0,0.04182067885994911
24.0,0.03925884887576103
26.0,0.036953799426555634
28.0,0.03506188094615936
30.0,0.03384263440966606
32.0,0.03287818282842636
36.0,0.031617630273103714
40.0,0.029788654297590256
44.0,0.027040619403123856
48.0,0.024905595928430557
52.0,0.022957535460591316
56.0,0.02143833413720131
60.0,0.020857341587543488
64.0,0.020572258159518242
72.0,0.02042527310550213
80.0,0.018782082945108414
88.0,0.016564853489398956
96.0,0.01494640950113535
104.0,0.013661154545843601
112.0,0.010941154323518276
120.0,0.009124635718762875
128.0,0.00875545758754015
144.0,0.008966565132141113
160.0,0.00936582125723362
176.0,0.0071115316823124886
192.0,0.004201579838991165
208.0,0.00433851545676589
224.0,0.005217110272496939
240.0,0.00479755736887455
256.0,0.005871802102774382
288.0,0.009156976826488972
320.0,0.012231950648128986
352.0,0.009902400895953178
384.0,0.005786943715065718
416.0,0.003878696821630001
448.0,0.00702132610604167
480.0,0.009115345776081085
512.0,0.007566621992737055
576.0,0.006253109313547611
640.0,0.0071490551345050335
704.0,-0.0006455231923609972
768.0,-0.002525384770706296
832.0,0.0010821938049048185
896.0,0.006298767868429422
960.0,0.006695052143186331
1024.0,0.005014246795326471
1152.0,0.003990751225501299
1280.0,-0.00032119578099809587
1408.0,-0.0035210568457841873
1536.0,0.0034494800493121147
1664.0,-0.0035099871456623077
1792.0,0.00025052193086594343
1920.0,-0.0001284134341403842
2048.0,0.0026836188044399023
2304.0,0.0005908833118155599
2560.0,-0.003040035255253315
2816.0,-0.007051864638924599
3072.0,-0.004772655665874481
3328.0,-0.004334249999374151
3584.0,-0.0028313160873949528
3840.0,-0.0067897215485572815
4096.0,-0.002118590986356139
4608.0,-0.00017967198800761253
5120.0,-0.008546826429665089
5632.0,0.002269314369186759
6144.0,0.0002853106998372823
6656.0,0.0019853198900818825
7168.0,-0.0008386416593566537
7680.0,-0.001562157878652215
8192.0,-0.00210062088444829
end
