version,3.0
numOfCh,1
type,point
parent_name,c1204_1dot0-0dot1
ch_type,1_1
kcount,1
numberNandB,1
brightnessNandB,1
carpet pos,0
pc,0
Time (ms),CH1 Auto-Correlation
1.0,0.08535136282444
2.0,0.07829152047634125
3.0,0.07222867757081985
4.0,0.06677880138158798
5.0,0.06197308748960495
6.0,0.05786056071519852
7.0,0.05446194112300873
8.0,0.051354989409446716
9.0,0.04847630485892296
10.0,0.04599364474415779
11.0,0.04370924457907677
12.0,0.04166260361671448
13.0,0.03977058455348015
14.0,0.03799841180443764
15.0,0.03620564937591553
16.0,0.03462112322449684
18.0,0.03162308409810066
20.0,0.028827516362071037
22.0,0.02610807679593563
24.0,0.02343088947236538
26.0,0.021004829555749893
28.0,0.01901804469525814
30.0,0.017433930188417435
32.0,0.015859290957450867
36.0,0.012518648989498615
40.0,0.010464373975992203
44.0,0.008597170002758503
48.0,0.007005166262388229
52.0,0.005968285258859396
56.0,0.004783788695931435
60.0,0.0038585246074944735
64.0,0.004801305942237377
72.0,0.005666282959282398
80.0,0.004457657225430012
88.0,0.004025509115308523
96.0,0.004320142325013876
104.0,0.002861806657165289
112.0,0.0012200968340039253
120.0,-0.001345831318758428
128.0,-0.0012199475895613432
144.0,-0.0006725976127199829
160.0,-0.0008590089273639023
176.0,0.002145851496607065
192.0,0.004869604017585516
208.0,0.004369386006146669
224.0,0.0038747680373489857
240.0,0.0030392599292099476
256.0,0.002389877336099744
288.0,0.004241734743118286
320.0,0.0023199066054075956
352.0,0.001666054013185203
384.0,-0.00043897359864786267
416.0,0.0013279876438900828
448.0,0.003486804198473692
480.0,0.004494641907513142
512.0,0.0017785971285775304
576.0,0.002014877274632454
640.0,-0.0004971183370798826
704.0,0.0011638172436505556
768.0,0.003983126953244209
832.0,0.0018907804042100906
896.0,0.00268021272495389
960.0,0.003546713152900338
1024.0,0.0006432397058233619
1152.0,-3.3249227271880955e-05
1280.0,0.0013903302606195211
1408.0,-0.00039933339576236904
1536.0,-0.000382887723390013
1664.0,-0.0017491282196715474
1792.0,-0.0023651979863643646
1920.0,-0.004278191365301609
2048.0,-0.0009020663565024734
2304.0,-0.001967186573892832
2560.0,-0.0012785285944119096
2816.0,-0.0019253831123933196
3072.0,-0.0022150937002152205
3328.0,0.001604354241862893
3584.0,-0.0007603829726576805
3840.0,-0.000152028223965317
4096.0,-0.0009679389768280089
4608.0,0.002370449248701334
5120.0,0.000541403831448406
5632.0,0.0017316518351435661
6144.0,-0.002662076847627759
6656.0,-0.0045676822774112225
7168.0,-0.005219798535108566
7680.0,6.118852616054937e-05
8192.0,-0.0015854749362915754
end
