version,3.0
numOfCh,1
type,point
parent_name,c1204_1dot0-0dot1
ch_type,1_1
kcount,1
numberNandB,1
brightnessNandB,1
carpet pos,0
pc,0
Time (ms),CH1 Auto-Correlation
1.0,0.08630865067243576
2.0,0.07932393252849579
3.0,0.07322928309440613
4.0,0.067870132625103
5.0,0.06327314674854279
6.0,0.05932921916246414
7.0,0.056068796664476395
8.0,0.053445663303136826
9.0,0.050995782017707825
10.0,0.048681311309337616
11.0,0.046579476445913315
12.0,0.04443990811705589
13.0,0.04266878217458725
14.0,0.041110116988420486
15.0,0.03965622931718826
16.0,0.038122668862342834
18.0,0.035139236599206924
20.0,0.03280823677778244
22.0,0.030563591048121452
24.0,0.02841775305569172
26.0,0.026647210121154785
28.0,0.02523110993206501
30.0,0.02410506084561348
32.0,0.023156601935625076
36.0,0.020891772583127022
40.0,0.01909444108605385
44.0,0.01808931864798069
48.0,0.01560960616916418
52.0,0.012550937943160534
56.0,0.009686664678156376
60.0,0.0076517388224601746
64.0,0.0058951727114617825
72.0,0.004814779851585627
80.0,0.0048568095080554485
88.0,0.0054533290676772594
96.0,0.0055017597042024136
104.0,0.0040406654588878155
112.0,0.0038562347181141376
120.0,0.005806502420455217
128.0,0.006422602105885744
144.0,0.002824975410476327
160.0,0.0013804447371512651
176.0,0.0020196859259158373
192.0,0.0014436033088713884
208.0,0.0025039496831595898
224.0,0.002942209132015705
240.0,0.002737402683123946
256.0,0.0031548587139695883
288.0,0.002917178673669696
320.0,0.0018610133556649089
352.0,0.0018720589578151703
384.0,-0.00013805055641569197
416.0,-0.0016220706747844815
448.0,-0.0006645956309512258
480.0,-0.0022943669464439154
512.0,-0.00028518529143184423
576.0,2.747234066191595e-05
640.0,0.002210959093645215
704.0,0.0018347840523347259
768.0,-0.0016060734633356333
832.0,-0.0001344227057415992
896.0,0.002355500590056181
960.0,0.006827165372669697
1024.0,0.0023034566547721624
1152.0,0.00011967104364885017
1280.0,-0.002043098909780383
1408.0,-0.005271813832223415
1536.0,-0.00047381053445860744
1664.0,-0.001992190722376108
1792.0,-0.003074263921007514
1920.0,0.005456211976706982
2048.0,-0.0009529757662676275
2304.0,-0.004200093448162079
2560.0,-0.003686228534206748
2816.0,-0.0028484868817031384
3072.0,-0.0022545084357261658
3328.0,-0.0012713641626760364
3584.0,-0.0022872942499816418
3840.0,0.004958991892635822
4096.0,0.0015584597131237388
4608.0,0.0011899273376911879
5120.0,0.0027466125320643187
5632.0,7.629946048837155e-05
6144.0,-0.00024166012008208781
6656.0,-0.0033805042039602995
7168.0,-0.003282346297055483
7680.0,-0.0012947660870850086
8192.0,-0.0012719036312773824
end
