version,3.0
numOfCh,1
type,point
parent_name,c1204_1dot0-0dot1
ch_type,1_1
kcount,1
numberNandB,1
brightnessNandB,1
carpet pos,0
pc,0
Time (ms),CH1 Auto-Correlation
1.0,0.0794658362865448
2.0,0.07262152433395386
3.0,0.06672996282577515
4.0,0.061903540045022964
5.0,0.0575389601290226
6.0,0.053639475256204605
7.0,0.05033174902200699
8.0,0.047335151582956314
9.0,0.04472336545586586
10.0,0.04267362505197525
11.0,0.040770795196294785
12.0,0.03891740366816521
13.0,0.03717309609055519
14.0,0.03565684333443642
15.0,0.03416246920824051
16.0,0.0327286534011364
18.0,0.030186302959918976
20.0,0.027785804122686386
22.0,0.025718646124005318
24.0,0.02407500520348549
26.0,0.022309063002467155
28.0,0.020944882184267044
30.0,0.01959480158984661
32.0,0.018278703093528748
36.0,0.01650194823741913
40.0,0.01548087876290083
44.0,0.014405807480216026
48.0,0.012709145434200764
52.0,0.011638890020549297
56.0,0.011082900688052177
60.0,0.011368033476173878
64.0,0.011321783065795898
72.0,0.009555952623486519
80.0,0.008368650451302528
88.0,0.0076995049603283405
96.0,0.0066757360473275185
104.0,0.003763475688174367
112.0,0.001355087966658175
120.0,0.0016662956913933158
128.0,0.0037502062041312456
144.0,0.004892519675195217
160.0,0.004239269066601992
176.0,0.005010324530303478
192.0,0.006337086670100689
208.0,0.008537953719496727
224.0,0.00973456259816885
240.0,0.00870947539806366
256.0,0.007283207960426807
288.0,0.003516928292810917
320.0,0.0009325098944827914
352.0,-0.002001715125516057
384.0,-0.0033813028130680323
416.0,-0.001742216176353395
448.0,-0.000983304576948285
480.0,0.0006024877657182515
512.0,-0.00043787024333141744
576.0,-0.005225128959864378
640.0,-0.006794081535190344
704.0,-0.004926125518977642
768.0,-0.0030335765331983566
832.0,-0.005532487295567989
896.0,-0.0030216211453080177
960.0,-0.0024428560864180326
1024.0,-0.0022364670876413584
1152.0,-0.0007014069124124944
1280.0,-0.0016011253464967012
1408.0,-0.0021091026719659567
1536.0,-0.003072248073294759
1664.0,0.0005640112794935703
1792.0,0.0013276748359203339
1920.0,0.004102905746549368
2048.0,0.004032459110021591
2304.0,0.003302460303530097
2560.0,-0.002866643713787198
2816.0,-0.005645048804581165
3072.0,-0.0018356022192165256
3328.0,0.004369162023067474
3584.0,0.002257342217490077
3840.0,-0.002690070541575551
4096.0,0.0003994375001639128
4608.0,-1.8339724192628637e-05
5120.0,-0.0008531386847607791
5632.0,0.0025000879541039467
6144.0,-0.0032250694930553436
6656.0,-0.0002871178730856627
7168.0,-0.00048385903937742114
7680.0,-0.0008816739427857101
8192.0,-0.002104077721014619
end
