version,3.0
numOfCh,1
type,point
parent_name,c1204_1dot0-0dot1
ch_type,1_1
kcount,1
numberNandB,1
brightnessNandB,1
carpet pos,0
pc,0
Time (ms),CH1 Auto-Correlation
1.0,0.08425309509038925
2.0,0.07755335420370102
3.0,0.07177853584289551
4.0,0.06685294210910797
5.0,0.06266868859529495
6.0,0.0589422769844532
7.0,0.05564286187291145
8.0,0.052565138787031174
9.0,0.049762655049562454
10.0,0.047166451811790466
11.0,0.044628921896219254
12.0,0.04230925440788269
13.0,0.0403083860874176
14.0,0.038555808365345
15.0,0.03687160089612007
16.0,0.03521398827433586
18.0,0.0325796976685524
20.0,0.030317597091197968
22.0,0.028334233909845352
24.0,0.026072751730680466
26.0,0.023917583748698235
28.0,0.022075913846492767
30.0,0.020604945719242096
32.0,0.018933631479740143
36.0,0.01641276478767395
40.0,0.014298183843493462
44.0,0.0128705482929945
48.0,0.011753907427191734
52.0,0.01117976289242506
56.0,0.010399265214800835
60.0,0.010193324647843838
64.0,0.00991881638765335
72.0,0.009368772618472576
80.0,0.00891776941716671
88.0,0.007820975966751575
96.0,0.00694144144654274
104.0,0.005457830149680376
112.0,0.004238172434270382
120.0,0.0032328213565051556
128.0,0.0009012397495098412
144.0,-0.001348283258266747
160.0,0.0018338620429858565
176.0,0.004177561961114407
192.0,0.003844477701932192
208.0,0.0019747475162148476
224.0,0.001354854553937912
240.0,-4.28301100328099e-05
256.0,-0.0011301792692393064
288.0,-0.0011386434780433774
320.0,0.0014452571049332619
352.0,0.0058116246946156025
384.0,0.003066263860091567
416.0,0.005903112702071667
448.0,0.0028534976299852133
480.0,0.0009996145963668823
512.0,0.0016446530353277922
576.0,0.0037534127477556467
640.0,0.0022453204728662968
704.0,0.004081574734300375
768.0,0.0034399020951241255
832.0,0.0026512080803513527
896.0,-0.0036634078714996576
960.0,0.0017507015727460384
1024.0,0.002336201723664999
1152.0,0.0011954682413488626
1280.0,-0.0014649227960035205
1408.0,-0.0005838591023348272
1536.0,-0.0008653672412037849
1664.0,-0.0034221999812871218
1792.0,-0.001539949793368578
1920.0,0.0012481102021411061
2048.0,0.0031792239751666784
2304.0,0.00013935673632659018
2560.0,-0.000791578262578696
2816.0,0.0004410188412293792
3072.0,-0.0005816844641231
3328.0,0.002402879763394594
3584.0,-0.003358041401952505
3840.0,-0.0006881747976876795
4096.0,-0.0011562429135665298
4608.0,-0.001591229229234159
5120.0,-0.00029809249099344015
5632.0,-0.0005773251177743077
6144.0,-0.0006181870121508837
6656.0,0.00037991240969859064
7168.0,-0.0011136040557175875
7680.0,-0.0011302633211016655
8192.0,0.0011663534678518772
end
