version,3.0
numOfCh,1
type,point
parent_name,c1204_1dot0-0dot1
ch_type,1_1
kcount,1
numberNandB,1
brightnessNandB,1
carpet pos,0
pc,0
Time (ms),CH1 Auto-Correlation
1.0,0.09029223024845123
2.0,0.08351430296897888
3.0,0.07764672487974167
4.0,0.07242422550916672
5.0,0.068023182451725
6.0,0.06430542469024658
7.0,0.06099582836031914
8.0,0.05788611248135567
9.0,0.055121004581451416
10.0,0.052555352449417114
11.0,0.05018999055027962
12.0,0.04796420410275459
13.0,0.045996975153684616
14.0,0.04410312697291374
15.0,0.042310990393161774
16.0,0.04063821956515312
18.0,0.03736983612179756
20.0,0.03463190421462059
22.0,0.03216993808746338
24.0,0.030262121930718422
26.0,0.028736473992466927
28.0,0.027587270364165306
30.0,0.02657182887196541
32.0,0.02535155601799488
36.0,0.023352785035967827
40.0,0.021391309797763824
44.0,0.018665336072444916
48.0,0.015670062974095345
52.0,0.01334362756460905
56.0,0.012137342244386673
60.0,0.010934076271951199
64.0,0.01000739261507988
72.0,0.010789226740598679
80.0,0.009986589662730694
88.0,0.008522837422788143
96.0,0.007054988760501146
104.0,0.007948175072669983
112.0,0.007173585705459118
120.0,0.0048444876447319984
128.0,0.0038135191425681114
144.0,0.005216361489146948
160.0,0.005840145517140627
176.0,0.0003689446020871401
192.0,-0.0025323517620563507
208.0,0.0002050119946943596
224.0,0.0015823347494006157
240.0,0.0010096421465277672
256.0,-0.0002572264347691089
288.0,-0.001371182268485427
320.0,-0.000517551670782268
352.0,-0.000417799165006727
384.0,-0.0008485827129334211
416.0,0.00041225491440854967
448.0,0.0012541885953396559
480.0,0.001925602089613676
512.0,0.0025565498508512974
576.0,0.0017720602918416262
640.0,0.0006547492812387645
704.0,0.0009655678295530379
768.0,0.002075557131320238
832.0,-0.0006188906263560057
896.0,0.00020067664445377886
960.0,-0.0040284451097249985
1024.0,-0.006699256133288145
1152.0,-0.0034521690104156733
1280.0,-0.004864063113927841
1408.0,-0.0068818372674286366
1536.0,-0.004370857495814562
1664.0,-0.001877680653706193
1792.0,-0.002575722523033619
1920.0,0.003912198822945356
2048.0,-0.004414968658238649
2304.0,-0.0018450990319252014
2560.0,-0.002504087286069989
2816.0,0.0021089413203299046
3072.0,0.0016159501392394304
3328.0,0.003743504174053669
3584.0,0.006387696601450443
3840.0,0.004879542160779238
4096.0,-0.0012654649326577783
4608.0,-0.001733599347062409
5120.0,-0.0008295185980387032
5632.0,-0.0035163897555321455
6144.0,-0.0010968560818582773
6656.0,0.005997482221573591
7168.0,0.002098394325003028
7680.0,-0.002603794913738966
8192.0,-0.0012415075907483697
end
