version,3.0
numOfCh,1
type,point
parent_name,c1204_1dot0-0dot1
ch_type,1_1
kcount,1
numberNandB,1
brightnessNandB,1
carpet pos,0
pc,0
Time (ms),CH1 Auto-Correlation
1.0,0.08376377075910568
2.0,0.07701871544122696
3.0,0.07123319804668427
4.0,0.06630317121744156
5.0,0.062059879302978516
6.0,0.058272864669561386
7.0,0.054880253970623016
8.0,0.05166967958211899
9.0,0.04889563471078873
10.0,0.046387020498514175
11.0,0.0441710390150547
12.0,0.042086947709321976
13.0,0.04008956998586655
14.0,0.03815784305334091
15.0,0.03645830601453781
16.0,0.03504862263798714
18.0,0.03270532563328743
20.0,0.030787382274866104
22.0,0.028895273804664612
24.0,0.02721639908850193
26.0,0.025726070627570152
28.0,0.024178385734558105
30.0,0.022597074508666992
32.0,0.021096782758831978
36.0,0.018554501235485077
40.0,0.015856128185987473
44.0,0.013974620029330254
48.0,0.012700183317065239
52.0,0.01179790310561657
56.0,0.011092892847955227
60.0,0.010327682830393314
64.0,0.009740496054291725
72.0,0.010669494979083538
80.0,0.011044342070817947
88.0,0.009977225214242935
96.0,0.0082831010222435
104.0,0.007595839444547892
112.0,0.006381817162036896
120.0,0.006411274895071983
128.0,0.006220548413693905
144.0,0.003709804266691208
160.0,0.0054624443873763084
176.0,0.008036157116293907
192.0,0.008052664808928967
208.0,0.00687298271805048
224.0,0.006033953279256821
240.0,0.006668916437774897
256.0,0.006586985196918249
288.0,0.0051683117635548115
320.0,0.003912257496267557
352.0,0.004268108867108822
384.0,0.003230102825909853
416.0,0.0012130325194448233
448.0,0.00024454662343487144
480.0,0.0012354549253359437
512.0,-0.0036334844771772623
576.0,-0.001973444828763604
640.0,-0.0012613944709300995
704.0,-0.00048373345634900033
768.0,0.0013745019678026438
832.0,-0.004144387319684029
896.0,-0.0027996161952614784
960.0,-0.0009869331261143088
1024.0,0.0024875022936612368
1152.0,-0.0009874296374619007
1280.0,-0.0015870296629145741
1408.0,-0.0022779793944209814
1536.0,-0.0017461271490901709
1664.0,0.00027451987261883914
1792.0,0.0026373539585620165
1920.0,-0.000684038270264864
2048.0,-0.00155568215996027
2304.0,0.0005978106637485325
2560.0,0.0029498061630874872
2816.0,0.003086218610405922
3072.0,-0.001971213845536113
3328.0,-0.001876668888144195
3584.0,-0.00034442328615114093
3840.0,-0.001576937735080719
4096.0,-0.0034883739426732063
4608.0,-0.0004181843250989914
5120.0,4.584973430610262e-05
5632.0,-0.0008036671788431704
6144.0,-0.0002627627400215715
6656.0,-0.0015010354109108448
7168.0,0.0003121101181022823
7680.0,0.004768352024257183
8192.0,0.0011729382677003741
end
