version,3.0
numOfCh,1
type,point
parent_name,c1204_1dot0-0dot1
ch_type,1_1
kcount,1
numberNandB,1
brightnessNandB,1
carpet pos,0
pc,0
Time (ms),CH1 Auto-Correlation
1.0,0.08990493416786194
2.0,0.08268547803163528
3.0,0.07663635164499283
4.0,0.07150931656360626
5.0,0.06685495376586914
6.0,0.0627811849117279
7.0,0.059127725660800934
8.0,0.05625941976904869
9.0,0.053784601390361786
10.0,0.05135250836610794
11.0,0.04921893775463104
12.0,0.04714146628975868
13.0,0.0452946275472641
14.0,0.04349410906434059
15.0,0.041716527193784714
16.0,0.04007166251540184
18.0,0.03713374212384224
20.0,0.03437191620469093
22.0,0.03194495663046837
24.0,0.03002491220831871
26.0,0.02824954129755497
28.0,0.0266533475369215
30.0,0.02486281841993332
32.0,0.02329973690211773
36.0,0.020063525065779686
40.0,0.018235059455037117
44.0,0.016691941767930984
48.0,0.01545329112559557
52.0,0.014345849864184856
56.0,0.014240981079638004
60.0,0.014470506459474564
64.0,0.015108952298760414
72.0,0.014473376795649529
80.0,0.013607473112642765
88.0,0.012821915559470654
96.0,0.012678381986916065
104.0,0.012025019153952599
112.0,0.01019991748034954
120.0,0.009639636613428593
128.0,0.009996806271374226
144.0,0.009217015467584133
160.0,0.007498659193515778
176.0,0.005544518120586872
192.0,0.00340579217299819
208.0,0.003216059412807226
224.0,0.0024036220274865627
240.0,0.0027313516475260258
256.0,0.0016807712381705642
288.0,-0.0018568078521639109
320.0,-0.0040560634806752205
352.0,-0.002087235450744629
384.0,-6.324949936242774e-05
416.0,-0.0036938295233994722
448.0,-0.0028238228987902403
480.0,-0.0030373740009963512
512.0,-0.006947226356714964
576.0,-0.005188180133700371
640.0,-0.006923921871930361
704.0,-0.008657433092594147
768.0,-0.0077779097482562065
832.0,-0.00417988421395421
896.0,-0.0035520195960998535
960.0,-0.00012126351793995127
1024.0,0.0012551606632769108
1152.0,0.007372975815087557
1280.0,0.005174958612769842
1408.0,0.0022473905701190233
1536.0,0.00020618030976038426
1664.0,-0.003896821290254593
1792.0,-0.006541638169437647
1920.0,-0.009796111844480038
2048.0,-0.009973084554076195
2304.0,3.4076485462719575e-05
2560.0,0.006049062125384808
2816.0,0.005028608720749617
3072.0,-0.0033404340501874685
3328.0,-0.00424898462370038
3584.0,0.0006493061664514244
3840.0,0.006047561764717102
4096.0,0.003246128559112549
4608.0,-0.0033270930871367455
5120.0,0.0010554607724770904
5632.0,-0.000886055757291615
6144.0,-0.0033576267305761576
6656.0,0.0034056566655635834
7168.0,-0.0007295551477000117
7680.0,-0.00010461120109539479
8192.0,-0.0008153309463523328
end
