version,3.0
numOfCh,1
type,point
parent_name,c1204_1dot0-0dot1
ch_type,1_1
kcount,1
numberNandB,1
brightnessNandB,1
carpet pos,0
pc,0
Time (ms),CH1 Auto-Correlation
1.0,0.08920176327228546
2.0,0.08225521445274353
3.0,0.07626840472221375
4.0,0.07111551612615585
5.0,0.06684937328100204
6.0,0.06281602382659912
7.0,0.05911834537982941
8.0,0.05598202347755432
9.0,0.05304550752043724
10.0,0.05052338168025017
11.0,0.04816688597202301
12.0,0.045854974538087845
13.0,0.04379144310951233
14.0,0.04201975837349892
15.0,0.04041614383459091
16.0,0.03892119228839874
18.0,0.03630293160676956
20.0,0.03390667587518692
22.0,0.03234374150633812
24.0,0.03104649856686592
26.0,0.02982959896326065
28.0,0.028742661699652672
30.0,0.02752741426229477
32.0,0.02617296203970909
36.0,0.02385580912232399
40.0,0.02176140807569027
44.0,0.02038741298019886
48.0,0.020213168114423752
52.0,0.019837427884340286
56.0,0.01869400218129158
60.0,0.017336329445242882
64.0,0.016630779951810837
72.0,0.015134786255657673
80.0,0.014042334631085396
88.0,0.011878108605742455
96.0,0.010016133077442646
104.0,0.010127079673111439
112.0,0.009024002589285374
120.0,0.0066563962027430534
128.0,0.006833821069449186
144.0,0.0076012820936739445
160.0,0.006666549481451511
176.0,0.007139324210584164
192.0,0.00768000865355134
208.0,0.007518363650888205
224.0,0.007639620453119278
240.0,0.00904274545609951
256.0,0.009526587091386318
288.0,0.008862437680363655
320.0,0.007165394723415375
352.0,0.005765166133642197
384.0,0.0028031785041093826
416.0,0.004864058922976255
448.0,0.005649707280099392
480.0,0.01013250183314085
512.0,0.002677825279533863
576.0,0.0016266565071418881
640.0,0.0007263562874868512
704.0,-4.0966966707856045e-07
768.0,0.0006454032263718545
832.0,0.0001384397182846442
896.0,0.004654589109122753
960.0,0.005950248800218105
1024.0,0.0006413388182409108
1152.0,-1.261672605323838e-05
1280.0,0.0015477328561246395
1408.0,0.00012000341666862369
1536.0,-0.0012227364350110292
1664.0,0.0010832424741238356
1792.0,-0.0004370601673144847
1920.0,0.005630542524158955
2048.0,0.0005227955989539623
2304.0,-6.082479376345873e-05
2560.0,-0.0014255517162382603
2816.0,0.00014377248589880764
3072.0,-0.0002759719209279865
3328.0,-0.0020756900776177645
3584.0,-0.006097298115491867
3840.0,-0.002359723439440131
4096.0,0.0018515088595449924
4608.0,-0.0002425865677651018
5120.0,-0.0027537692803889513
5632.0,-0.009150649420917034
6144.0,-0.007519163191318512
6656.0,-0.0007847303058952093
7168.0,-0.000925655011087656
7680.0,-0.0037055721040815115
8192.0,-0.005867269355803728
end
