version,3.0
numOfCh,1
type,point
parent_name,c1204_1dot0-0dot1
ch_type,1_1
kcount,1
numberNandB,1
brightnessNandB,1
carpet pos,0
pc,0
Time (ms),CH1 Auto-Correlation
1.0,0.1142825111746788
2.0,0.10637179017066956
3.0,0.09928908944129944
4.0,0.09297741949558258
5.0,0.08715225011110306
6.0,0.08169099688529968
7.0,0.07698652148246765
8.0,0.07251077145338058
9.0,0.06802701950073242
10.0,0.06406968832015991
11.0,0.06043029576539993
12.0,0.056936755776405334
13.0,0.053442176431417465
14.0,0.050526827573776245
15.0,0.04841861501336098
16.0,0.046121448278427124
18.0,0.04230376332998276
20.0,0.03901679441332817
22.0,0.0357479453086853
24.0,0.033159490674734116
26.0,0.030729137361049652
28.0,0.028860298916697502
30.0,0.027089443057775497
32.0,0.02554422989487648
36.0,0.02210754156112671
40.0,0.019127514213323593
44.0,0.01718609593808651
48.0,0.015955282375216484
52.0,0.015372645109891891
56.0,0.01642817072570324
60.0,0.01777057535946369
64.0,0.017645452171564102
72.0,0.01657845824956894
80.0,0.017377730458974838
88.0,0.018039394170045853
96.0,0.01601318083703518
104.0,0.01282806508243084
112.0,0.01106095127761364
120.0,0.011009925045073032
128.0,0.010378191247582436
144.0,0.009047558531165123
160.0,0.010043110698461533
176.0,0.006249907426536083
192.0,0.004330993164330721
208.0,0.004704269580543041
224.0,0.0037793514784425497
240.0,0.0034033372066915035
256.0,0.003161934670060873
288.0,0.0007603279664181173
320.0,0.003460621228441596
352.0,-0.0010448712855577469
384.0,-0.00015885225730016828
416.0,-6.044763722456992e-05
448.0,0.0038296703714877367
480.0,0.005075086373835802
512.0,0.00136901147197932
576.0,0.0038625055458396673
640.0,0.0012244859244674444
704.0,0.00031550490530207753
768.0,-8.997018449008465e-05
832.0,0.003300610464066267
896.0,0.001135818543843925
960.0,0.003616125090047717
1024.0,0.005768936593085527
1152.0,-0.002923274412751198
1280.0,-0.005919006187468767
1408.0,-0.0043097310699522495
1536.0,0.005044946912676096
1664.0,0.005448371637612581
1792.0,0.0015634851297363639
1920.0,-0.0004946589469909668
2048.0,0.004040020518004894
2304.0,0.002347431145608425
2560.0,0.002702514175325632
2816.0,-6.341397966025397e-05
3072.0,-0.0003010931541211903
3328.0,-0.004192815162241459
3584.0,-0.006086297798901796
3840.0,-0.0027507958002388477
4096.0,0.0021829314064234495
4608.0,-2.5326171453343704e-05
5120.0,-0.004159025382250547
5632.0,-0.005055457819253206
6144.0,-0.00337798660621047
6656.0,-0.0011790287680923939
7168.0,0.0009458301356062293
7680.0,-0.0004757786518894136
8192.0,-0.00011006443673977628
end
