version,3.0
numOfCh,1
type,point
parent_name,c1204_1dot0-0dot1
ch_type,1_1
kcount,1
numberNandB,1
brightnessNandB,1
carpet pos,0
pc,0
Time (ms),CH1 Auto-Correlation
1.0,0.09221567213535309
2.0,0.0855519250035286
3.0,0.08014068007469177
4.0,0.07557915896177292
5.0,0.07180026173591614
6.0,0.06837238371372223
7.0,0.06554000824689865
8.0,0.06310363113880157
9.0,0.06096811592578888
10.0,0.05870766192674637
11.0,0.056569695472717285
12.0,0.054627105593681335
13.0,0.052794042974710464
14.0,0.05100323632359505
15.0,0.0494416318833828
16.0,0.047780320048332214
18.0,0.04431610554456711
20.0,0.04133952036499977
22.0,0.038762353360652924
24.0,0.03670017793774605
26.0,0.035185474902391434
28.0,0.033713314682245255
30.0,0.032308172434568405
32.0,0.031224051490426064
36.0,0.03015199676156044
40.0,0.02944059483706951
44.0,0.028988702222704887
48.0,0.027989953756332397
52.0,0.02677900716662407
56.0,0.02612587809562683
60.0,0.025319015607237816
64.0,0.024335619062185287
72.0,0.0219865869730711
80.0,0.01900484226644039
88.0,0.016427891328930855
96.0,0.015409629791975021
104.0,0.014697595499455929
112.0,0.014603556133806705
120.0,0.013674523681402206
128.0,0.01312874723225832
144.0,0.012164211831986904
160.0,0.01117191556841135
176.0,0.01190265640616417
192.0,0.012717364355921745
208.0,0.01226987037807703
224.0,0.010259068571031094
240.0,0.008528081700205803
256.0,0.009031979367136955
288.0,0.007268992252647877
320.0,0.005768890492618084
352.0,0.009457618929445744
384.0,0.010326470248401165
416.0,0.007834883406758308
448.0,0.005108308978378773
480.0,0.005453797988593578
512.0,0.005389953963458538
576.0,0.008156932890415192
640.0,0.005807326175272465
704.0,0.0021826422307640314
768.0,0.00430926401168108
832.0,0.005826851353049278
896.0,0.006294113118201494
960.0,0.010311029851436615
1024.0,0.011606968939304352
1152.0,0.004113408271223307
1280.0,0.003363079857081175
1408.0,0.004809000063687563
1536.0,0.0019155265763401985
1664.0,-0.003167797112837434
1792.0,-0.006200940813869238
1920.0,-0.0065553574822843075
2048.0,-0.007962646894156933
2304.0,-0.009636394679546356
2560.0,-0.0068305195309221745
2816.0,-0.00978181790560484
3072.0,-0.01376506220549345
3328.0,-0.013532846234738827
3584.0,-0.009071024134755135
3840.0,-0.0070326244458556175
4096.0,-0.005713616497814655
4608.0,-0.004201666451990604
5120.0,0.0013483207440003753
5632.0,0.004784381482750177
6144.0,0.011142870411276817
6656.0,0.01501925103366375
7168.0,0.010308708064258099
7680.0,0.008151812478899956
8192.0,-0.000515248510055244
end
