version,3.0
numOfCh,1
type,point
parent_name,c1204_1dot0-0dot1
ch_type,1_1
kcount,1
numberNandB,1
brightnessNandB,1
carpet pos,0
pc,0
Time (ms),CH1 Auto-Correlation
1.0,0.0841527134180069
2.0,0.0776270404458046
3.0,0.07183156162500381
4.0,0.0667588859796524
5.0,0.06214181333780289
6.0,0.05807863175868988
7.0,0.05461770296096802
8.0,0.05153985694050789
9.0,0.048806242644786835
10.0,0.04625970125198364
11.0,0.04397452995181084
12.0,0.041792817413806915
13.0,0.039824604988098145
14.0,0.038123682141304016
15.0,0.036542583256959915
16.0,0.0350281298160553
18.0,0.03171589970588684
20.0,0.02913796715438366
22.0,0.027338292449712753
24.0,0.02588525228202343
26.0,0.024821961298584938
28.0,0.024166179820895195
30.0,0.023426029831171036
32.0,0.02270510420203209
36.0,0.021225567907094955
40.0,0.019842272624373436
44.0,0.018208201974630356
48.0,0.016611911356449127
52.0,0.015027722343802452
56.0,0.014726453460752964
60.0,0.01405092142522335
64.0,0.011692220345139503
72.0,0.010906768962740898
80.0,0.009521543979644775
88.0,0.00851297564804554
96.0,0.005988672375679016
104.0,0.003401277121156454
112.0,0.0015428140759468079
120.0,0.0012845847522839904
128.0,0.0004354214179329574
144.0,4.3196178012294695e-05
160.0,0.0016277976101264358
176.0,0.0015969055239111185
192.0,-0.00010788078361656517
208.0,-0.0007818656740710139
224.0,0.002039010403677821
240.0,0.0035259646829217672
256.0,0.0025971485301852226
288.0,0.003534468123689294
320.0,0.0037507761735469103
352.0,0.0043571339920163155
384.0,0.001819246681407094
416.0,0.0011362552177160978
448.0,-2.8494181947280595e-07
480.0,-0.0021544985938817263
512.0,-0.0013678406830877066
576.0,0.00019278191030025482
640.0,-0.0027105470653623343
704.0,0.0010234599467366934
768.0,-0.0005756639875471592
832.0,-0.0001016169335343875
896.0,-0.004054618533700705
960.0,-0.0038068625144660473
1024.0,-0.0028600404039025307
1152.0,-0.0024380329996347427
1280.0,-0.004546364303678274
1408.0,-0.005468024872243404
1536.0,-0.0014107219176366925
1664.0,0.004054083954542875
1792.0,0.0010456390446051955
1920.0,0.0021525307092815638
2048.0,0.004002852831035852
2304.0,0.000813078775536269
2560.0,0.0003483161563053727
2816.0,0.0027646832168102264
3072.0,-0.002999395364895463
3328.0,-0.0062173898331820965
3584.0,-0.0031459250021725893
3840.0,0.0032962614204734564
4096.0,-0.000182175514055416
4608.0,0.004226432181894779
5120.0,-0.0033355928026139736
5632.0,-0.0032139152754098177
6144.0,6.439232674892992e-05
6656.0,0.0027965682093054056
7168.0,-0.0035471853334456682
7680.0,-0.002664768137037754
8192.0,0.0008420429658144712
end
