version,3.0
numOfCh,1
type,point
parent_name,c1204_1dot0-0dot1
ch_type,1_1
kcount,1
numberNandB,1
brightnessNandB,1
carpet pos,0
pc,0
Time (ms),CH1 Auto-Correlation
1.0,0.09513130784034729
2.0,0.08791783452033997
3.0,0.08173064142465591
4.0,0.07614710927009583
5.0,0.07143452763557434
6.0,0.06742549687623978
7.0,0.06386010348796844
8.0,0.06063384190201759
9.0,0.05784036964178085
10.0,0.05520797148346901
11.0,0.05275924503803253
12.0,0.050592049956321716
13.0,0.0484786219894886
14.0,0.04659939929842949
15.0,0.04509816691279411
16.0,0.043595168739557266
18.0,0.040951918810606
20.0,0.03868362307548523
22.0,0.036545947194099426
24.0,0.0348396897315979
26.0,0.033660534769296646
28.0,0.032576221972703934
30.0,0.03130811080336571
32.0,0.029812041670084
36.0,0.026274431496858597
40.0,0.02407677471637726
44.0,0.02222236432135105
48.0,0.020842069759964943
52.0,0.020015396177768707
56.0,0.01945214904844761
60.0,0.018704205751419067
64.0,0.017065851017832756
72.0,0.013768238946795464
80.0,0.011616125702857971
88.0,0.010579329915344715
96.0,0.008699917234480381
104.0,0.007667838130146265
112.0,0.006963473744690418
120.0,0.007000755984336138
128.0,0.005941358394920826
144.0,0.004736784379929304
160.0,0.00369729264639318
176.0,0.0021287561394274235
192.0,0.0006220501381903887
208.0,-0.0011845717672258615
224.0,-0.001582276658155024
240.0,-0.0011723022907972336
256.0,-0.0018543059704825282
288.0,-0.004778021015226841
320.0,-0.003962279297411442
352.0,-0.0011948937317356467
384.0,-0.0031103938817977905
416.0,-0.002967703389003873
448.0,-0.004372432827949524
480.0,-0.00347280059941113
512.0,-0.002947630826383829
576.0,-0.008088869974017143
640.0,-0.006293429993093014
704.0,-0.0030106038320809603
768.0,-0.004321835935115814
832.0,-0.004922726657241583
896.0,-0.0027778204530477524
960.0,0.0048597571440041065
1024.0,0.003976911772042513
1152.0,0.0008985307649709284
1280.0,-0.00011321257625240833
1408.0,-0.0011506344890221953
1536.0,-0.0007546435226686299
1664.0,0.0036603491753339767
1792.0,-0.0061887637712061405
1920.0,-0.0074572390876710415
2048.0,-0.005979749374091625
2304.0,0.007010112516582012
2560.0,0.002085148822516203
2816.0,-0.006726984865963459
3072.0,-0.005989876575767994
3328.0,0.0016864496283233166
3584.0,0.0009161447524093091
3840.0,0.0017533974023535848
4096.0,-0.00030014972435310483
4608.0,0.005216638557612896
5120.0,-0.002218017354607582
5632.0,0.0007327317143790424
6144.0,-0.002200804417952895
6656.0,-0.0010025757364928722
7168.0,0.00033130351221188903
7680.0,-0.002237354638054967
8192.0,0.0018828035099431872
end
