version,3.0
numOfCh,1
type,point
parent_name,c1204_1dot0-0dot1
ch_type,1_1
kcount,1
numberNandB,1
brightnessNandB,1
carpet pos,0
pc,0
Time (ms),CH1 Auto-Correlation
1.0,0.09363915026187897
2.0,0.08647884428501129
3.0,0.08020942658185959
4.0,0.07477918267250061
5.0,0.0699724331498146
6.0,0.06556916236877441
7.0,0.06138315424323082
8.0,0.05750390142202377
9.0,0.054031796753406525
10.0,0.05096850171685219
11.0,0.04832639545202255
12.0,0.0458882674574852
13.0,0.043449364602565765
14.0,0.04151657968759537
15.0,0.03977122902870178
16.0,0.03816387802362442
18.0,0.03526196628808975
20.0,0.032607387751340866
22.0,0.029793627560138702
24.0,0.027065495029091835
26.0,0.02480246126651764
28.0,0.023394906893372536
30.0,0.022252850234508514
32.0,0.0212064478546381
36.0,0.019161248579621315
40.0,0.018439441919326782
44.0,0.017023369669914246
48.0,0.015126277692615986
52.0,0.012956210412085056
56.0,0.011294988915324211
60.0,0.01051581185311079
64.0,0.00884799100458622
72.0,0.006393053103238344
80.0,0.005556474439799786
88.0,0.005890346132218838
96.0,0.0055144052021205425
104.0,0.0037146378308534622
112.0,0.002334730001166463
120.0,0.0013520080829039216
128.0,0.0007264898740686476
144.0,0.0026457428466528654
160.0,0.004444339778274298
176.0,0.00355904852040112
192.0,0.003932018764317036
208.0,0.0016138963401317596
224.0,-0.0010246342280879617
240.0,-0.001104088849388063
256.0,0.0008604221511632204
288.0,0.00043645474943332374
320.0,0.0011512121418491006
352.0,0.006227204110473394
384.0,0.005131986457854509
416.0,0.0020329596009105444
448.0,0.004626637324690819
480.0,0.0036489139311015606
512.0,-0.0010632015764713287
576.0,-0.0045822421088814735
640.0,0.0015469269128516316
704.0,0.0008654379635117948
768.0,-0.0010567684657871723
832.0,0.0067682829685509205
896.0,0.004304042551666498
960.0,0.0006806118180975318
1024.0,0.0030581895262002945
1152.0,-0.0004253695660736412
1280.0,-0.0037823824677616358
1408.0,0.0009291304158978164
1536.0,-0.00466578733175993
1664.0,-0.0015465161995962262
1792.0,7.750916120130569e-05
1920.0,-0.005220010410994291
2048.0,-0.004461228381842375
2304.0,-0.0017432470340281725
2560.0,-0.0020033803302794695
2816.0,-0.0001404697832185775
3072.0,0.0010280526475980878
3328.0,-0.0009601569618098438
3584.0,0.0004741312295664102
3840.0,-0.0006337898666970432
4096.0,-0.00222265487536788
4608.0,5.84003355470486e-05
5120.0,0.0016371523961424828
5632.0,0.0011205666232854128
6144.0,-0.0009176929015666246
6656.0,0.0012129690730944276
7168.0,-0.003932489547878504
7680.0,0.0005152461817488074
8192.0,-0.00079460529377684
end
