version,3.0
numOfCh,1
type,point
parent_name,c1204_1dot0-0dot1
ch_type,1_1
kcount,1
numberNandB,1
brightnessNandB,1
carpet pos,0
pc,0
Time (ms),CH1 Auto-Correlation
1.0,0.08742447197437286
2.0,0.08077085763216019
3.0,0.07468460500240326
4.0,0.06944151967763901
5.0,0.06487465649843216
6.0,0.06073932349681854
7.0,0.05703193321824074
8.0,0.05393799766898155
9.0,0.051191262900829315
10.0,0.04856632649898529
11.0,0.046081386506557465
12.0,0.043699391186237335
13.0,0.04172958806157112
14.0,0.03980740159749985
15.0,0.037903353571891785
16.0,0.03632271662354469
18.0,0.03317219018936157
20.0,0.030759494751691818
22.0,0.028693746775388718
24.0,0.027107853442430496
26.0,0.025659799575805664
28.0,0.02390741929411888
30.0,0.022350218147039413
32.0,0.021240463480353355
36.0,0.018896378576755524
40.0,0.01643287017941475
44.0,0.014051486738026142
48.0,0.012293392792344093
52.0,0.0101110078394413
56.0,0.008817886002361774
60.0,0.008183249272406101
64.0,0.007473259698599577
72.0,0.005609769839793444
80.0,0.003672082209959626
88.0,0.0029008418787270784
96.0,0.0031558938790112734
104.0,0.002935482421889901
112.0,0.00336808362044394
120.0,0.004988036118447781
128.0,0.006008043419569731
144.0,0.0058530280366539955
160.0,0.003888090141117573
176.0,0.002359298523515463
192.0,0.0008688628440722823
208.0,1.4425105291593354e-05
224.0,0.000933769391849637
240.0,-0.0003735841892194003
256.0,0.002085992367938161
288.0,0.0008770243730396032
320.0,0.00031718204263597727
352.0,-0.0020992965437471867
384.0,-0.0027655293233692646
416.0,0.0007611043401993811
448.0,0.0021121648605912924
480.0,0.002188377780839801
512.0,0.0008497432572767138
576.0,0.001962624490261078
640.0,0.0024686504621058702
704.0,0.00449703074991703
768.0,0.00013038761971984059
832.0,-0.00039683253271505237
896.0,0.005222470965236425
960.0,0.005928907077759504
1024.0,0.004343061242252588
1152.0,0.001578327501192689
1280.0,0.004404015373438597
1408.0,0.005015939474105835
1536.0,-0.0011367069091647863
1664.0,-0.003054714063182473
1792.0,-0.0036257198080420494
1920.0,0.0031118527986109257
2048.0,0.004431426990777254
2304.0,0.002389941830188036
2560.0,-0.002848182339221239
2816.0,-0.0030647418461740017
3072.0,-0.0036788026336580515
3328.0,0.0024927754420787096
3584.0,-0.001405673217959702
3840.0,-0.005987865384668112
4096.0,-0.00559669965878129
4608.0,-0.0029137362726032734
5120.0,-0.005790996830910444
5632.0,0.0006567793898284435
6144.0,-0.005252651404589415
6656.0,0.0027019924018532038
7168.0,-0.0004036861064378172
7680.0,0.0015409115003421903
8192.0,0.0019334127428010106
end
