version,3.0
numOfCh,1
type,point
parent_name,0cd20_0dot6-1dot0
ch_type,1_1
kcount,1
numberNandB,1
brightnessNandB,1
carpet pos,0
pc,0
Time (ms),CH1 Auto-Correlation
1.0,0.043433550745248795
2.0,0.04116533696651459
3.0,0.03902573883533478
4.0,0.037148367613554
5.0,0.035518452525138855
6.0,0.03397481143474579
7.0,0.03258355334401131
8.0,0.03139544278383255
9.0,0.030100980773568153
10.0,0.02901575341820717
11.0,0.028018660843372345
12.0,0.027128690853714943
13.0,0.02628636173903942
14.0,0.025472350418567657
15.0,0.024710316210985184
16.0,0.02398381568491459
18.0,0.022557945922017097
20.0,0.021266140043735504
22.0,0.020151639357209206
24.0,0.019096847623586655
26.0,0.01819824054837227
28.0,0.01737978495657444
30.0,0.016795799136161804
32.0,0.01616399921476841
36.0,0.01487159263342619
40.0,0.014023562893271446
44.0,0.013317267410457134
48.0,0.012475220486521721
52.0,0.01144169270992279
56.0,0.010323897004127502
60.0,0.009479779750108719
64.0,0.008879315108060837
72.0,0.008159512653946877
80.0,0.00704571045935154
88.0,0.005336715839803219
96.0,0.004020687658339739
104.0,0.003496696939691901
112.0,0.003418959444388747
120.0,0.003888678504154086
128.0,0.004035498946905136
144.0,0.0027090178336948156
160.0,0.0019435769645497203
176.0,0.0025099138729274273
192.0,0.001979199470952153
208.0,0.001315525034442544
224.0,0.0016942970687523484
240.0,0.0012160780606791377
256.0,0.001491606468334794
288.0,0.0005637320573441684
320.0,0.00042504360317252576
352.0,0.0008248390513472259
384.0,0.002887217327952385
416.0,0.004701931960880756
448.0,0.0037830029614269733
480.0,0.002167027909308672
512.0,0.0008540176786482334
576.0,0.004492600914090872
640.0,0.00373510317876935
704.0,0.0021696502808481455
768.0,0.002176081296056509
832.0,0.0024259958881884813
896.0,0.0015765463467687368
960.0,0.0014531046617776155
1024.0,0.0016407849034294486
1152.0,0.0022999849170446396
1280.0,0.002903490327298641
1408.0,-0.0002957459364552051
1536.0,0.0012740230886265635
1664.0,0.00033401668770238757
1792.0,0.00031512827263213694
1920.0,-0.001983629772439599
2048.0,-0.0012365395668894053
2304.0,-0.00254934374243021
2560.0,-0.0005967614124529064
2816.0,-0.0007799520390108228
3072.0,-0.0011388002894818783
3328.0,-0.0034038007725030184
3584.0,-0.001028508529998362
3840.0,-0.0015391359338536859
4096.0,0.0006485697231255472
4608.0,-0.0016316064866259694
5120.0,-0.0008817847701720893
5632.0,-0.0018112341640517116
6144.0,-0.0012896236730739474
6656.0,-0.0009621327626518905
7168.0,-0.0008839123183861375
7680.0,0.0011585353640839458
8192.0,-0.0008568188059143722
end
