version,3.0
numOfCh,1
type,point
parent_name,0cd20_0dot6-1dot0
ch_type,1_1
kcount,1
numberNandB,1
brightnessNandB,1
carpet pos,0
pc,0
Time (ms),CH1 Auto-Correlation
1.0,0.04283171147108078
2.0,0.04012484848499298
3.0,0.03772483393549919
4.0,0.0358460433781147
5.0,0.034042783081531525
6.0,0.03237904608249664
7.0,0.030889134854078293
8.0,0.029546691104769707
9.0,0.028259247541427612
10.0,0.027083775028586388
11.0,0.026003997772932053
12.0,0.024975590407848358
13.0,0.02401726134121418
14.0,0.023122480139136314
15.0,0.022385483607649803
16.0,0.021598050370812416
18.0,0.019893033429980278
20.0,0.018356623128056526
22.0,0.01693643257021904
24.0,0.01562933623790741
26.0,0.014679553918540478
28.0,0.013920462690293789
30.0,0.013281097635626793
32.0,0.012632899917662144
36.0,0.011231265030801296
40.0,0.01006748154759407
44.0,0.009528188034892082
48.0,0.00909481942653656
52.0,0.008741474710404873
56.0,0.008675890974700451
60.0,0.008463215082883835
64.0,0.008232547901570797
72.0,0.0076522971503436565
80.0,0.0074921585619449615
88.0,0.00725152250379324
96.0,0.0062070670537650585
104.0,0.004738625138998032
112.0,0.003568775951862335
120.0,0.002704156329855323
128.0,0.002398961689323187
144.0,0.0029583806172013283
160.0,0.00278988154605031
176.0,0.0013348264619708061
192.0,0.00027308647986501455
208.0,0.0008104588487185538
224.0,0.0022806734777987003
240.0,0.003584513673558831
256.0,0.0030098443385213614
288.0,0.0013737883418798447
320.0,0.0023550079204142094
352.0,0.0009527229121886194
384.0,0.0010255902307108045
416.0,0.0009752066107466817
448.0,0.001661522313952446
480.0,0.0009096543653868139
512.0,0.0004387172812130302
576.0,0.0006532913539558649
640.0,-0.0006056224228814244
704.0,-0.00048649217933416367
768.0,-0.0003457361599430442
832.0,-0.0020530216861516237
896.0,-0.002020294312387705
960.0,-0.0032600495032966137
1024.0,-0.0019734492525458336
1152.0,-0.0020622501615434885
1280.0,6.507609214168042e-05
1408.0,0.0013693389482796192
1536.0,0.0012027849443256855
1664.0,-0.0011643776670098305
1792.0,0.000913123891223222
1920.0,-4.644649743568152e-05
2048.0,-0.0008759284391999245
2304.0,-0.0015978049486875534
2560.0,-0.00012927148782182485
2816.0,-0.0007979737129062414
3072.0,-0.0024185790680348873
3328.0,-0.0008114978554658592
3584.0,-0.0002612003590911627
3840.0,0.0017780984053388238
4096.0,0.001815748168155551
4608.0,-0.0011367190163582563
5120.0,-0.0010251157218590379
5632.0,-0.0009188918047584593
6144.0,-0.0021003615111112595
6656.0,0.0012881680158898234
7168.0,0.0008470292668789625
7680.0,-0.00027183088241145015
8192.0,0.0010634983191266656
end
