version,3.0
numOfCh,1
type,point
parent_name,0cd20_0dot6-1dot0
ch_type,1_1
kcount,1
numberNandB,1
brightnessNandB,1
carpet pos,0
pc,0
Time (ms),CH1 Auto-Correlation
1.0,0.047833699733018875
2.0,0.04510807245969772
3.0,0.042717453092336655
4.0,0.04057511314749718
5.0,0.03866752237081528
6.0,0.03692721948027611
7.0,0.03529578447341919
8.0,0.03384336829185486
9.0,0.03248699754476547
10.0,0.031228404492139816
11.0,0.029954198747873306
12.0,0.028775690123438835
13.0,0.027709662914276123
14.0,0.0267334021627903
15.0,0.02578635886311531
16.0,0.02489316649734974
18.0,0.023224303498864174
20.0,0.021603334695100784
22.0,0.02013205550611019
24.0,0.018918167799711227
26.0,0.017987919971346855
28.0,0.017064524814486504
30.0,0.01614280231297016
32.0,0.015325842425227165
36.0,0.013587871566414833
40.0,0.0122526241466403
44.0,0.011264683678746223
48.0,0.010066584683954716
52.0,0.009043064899742603
56.0,0.008476372808218002
60.0,0.007856390438973904
64.0,0.007392134517431259
72.0,0.007192256860435009
80.0,0.006399271544069052
88.0,0.0049077048897743225
96.0,0.0043289861641824245
104.0,0.003949496895074844
112.0,0.0031782032456249
120.0,0.002323657274246216
128.0,0.002161764306947589
144.0,0.0009205336100421846
160.0,2.06792992685223e-05
176.0,0.0015144692733883858
192.0,0.0011556161334738135
208.0,0.0024843201972544193
224.0,0.0029101138934493065
240.0,0.0030930903740227222
256.0,0.0024972856044769287
288.0,0.0022016509901732206
320.0,0.0018839719705283642
352.0,0.0006465255282819271
384.0,-0.0011689121602103114
416.0,-0.0019453429849818349
448.0,-0.0027441014535725117
480.0,-0.003674571868032217
512.0,-0.001932637533172965
576.0,0.0003601704665925354
640.0,0.0009647257393226027
704.0,-0.001982735935598612
768.0,-0.00205159280449152
832.0,-0.001994302961975336
896.0,-0.0007775599369779229
960.0,0.0018501062877476215
1024.0,-0.00030180858448147774
1152.0,0.0011504690628498793
1280.0,0.0038571967743337154
1408.0,-0.000778059009462595
1536.0,-0.000666907406412065
1664.0,-0.0005304540391080081
1792.0,5.2332721679704264e-05
1920.0,0.0005711602279916406
2048.0,0.00046815062523819506
2304.0,0.002899764571338892
2560.0,-0.0016460746992379427
2816.0,-0.003468027338385582
3072.0,-0.0014681131578981876
3328.0,-0.0004925471730530262
3584.0,0.0015050058718770742
3840.0,-0.0005889423191547394
4096.0,-0.0010252922074869275
4608.0,1.3513596059055999e-05
5120.0,-0.0006551638361997902
5632.0,-7.430335244862363e-07
6144.0,0.001151651726104319
6656.0,-0.0011851354502141476
7168.0,-0.0007952464511618018
7680.0,-0.0022387548815459013
8192.0,0.002040542894974351
end
