version,3.0
numOfCh,1
type,point
parent_name,0cd20_0dot6-1dot0
ch_type,1_1
kcount,1
numberNandB,1
brightnessNandB,1
carpet pos,0
pc,0
Time (ms),CH1 Auto-Correlation
1.0,0.04667017608880997
2.0,0.04352959617972374
3.0,0.04144234210252762
4.0,0.03865419700741768
5.0,0.03691699728369713
6.0,0.035338934510946274
7.0,0.03373963385820389
8.0,0.032450731843709946
9.0,0.031242553144693375
10.0,0.030177481472492218
11.0,0.029249709099531174
12.0,0.028362087905406952
13.0,0.027563054114580154
14.0,0.026650605723261833
15.0,0.02583071030676365
16.0,0.02505509927868843
18.0,0.023558279499411583
20.0,0.022221533581614494
22.0,0.021057574078440666
24.0,0.020030245184898376
26.0,0.018914083018898964
28.0,0.018022507429122925
30.0,0.017207441851496696
32.0,0.016533540561795235
36.0,0.015581037849187851
40.0,0.014706402085721493
44.0,0.013792889192700386
48.0,0.013276367448270321
52.0,0.01267277356237173
56.0,0.011730264872312546
60.0,0.010554896667599678
64.0,0.009489515796303749
72.0,0.008210289292037487
80.0,0.0074174716137349606
88.0,0.006588444113731384
96.0,0.006660502403974533
104.0,0.00632591312751174
112.0,0.005934906657785177
120.0,0.0053449408151209354
128.0,0.004952060058712959
144.0,0.003595485584810376
160.0,0.0020054932683706284
176.0,0.0011567851761355996
192.0,0.0012290322920307517
208.0,0.0019264748552814126
224.0,0.0027392457704991102
240.0,0.003743311855942011
256.0,0.0042206281796097755
288.0,0.0033438527025282383
320.0,0.002765486016869545
352.0,0.0004339755978435278
384.0,-0.00030713301384821534
416.0,0.0014682422624900937
448.0,0.002472341526299715
480.0,0.0016275484813377261
512.0,0.0003358310495968908
576.0,-0.0006472496315836906
640.0,-0.0009372991626150906
704.0,0.0009803291177377105
768.0,0.00018030696082860231
832.0,-0.002723903162404895
896.0,-0.0001041616196744144
960.0,0.0016611252212896943
1024.0,0.0031214517075568438
1152.0,0.0008532422361895442
1280.0,-0.0001367074582958594
1408.0,-0.001070166938006878
1536.0,-0.0018171737901866436
1664.0,-0.002540336921811104
1792.0,-0.003087686374783516
1920.0,-0.005013103596866131
2048.0,-0.0013374182162806392
2304.0,-0.002264717360958457
2560.0,0.0003665104741230607
2816.0,-0.00013222687994129956
3072.0,-0.003861397970467806
3328.0,0.0005304458318278193
3584.0,0.0012994499411433935
3840.0,0.003762235166504979
4096.0,-0.00034412986133247614
4608.0,0.0008982612052932382
5120.0,-0.001545136095955968
5632.0,-0.0011525785084813833
6144.0,0.0025042204651981592
6656.0,-0.0035699151922017336
7168.0,-0.0010640871478244662
7680.0,-0.00035937808570452034
8192.0,0.0029443884268403053
end
