version,3.0
numOfCh,1
type,point
parent_name,0cd20_0dot6-1dot0
ch_type,1_1
kcount,1
numberNandB,1
brightnessNandB,1
carpet pos,0
pc,0
Time (ms),CH1 Auto-Correlation
1.0,0.04680340737104416
2.0,0.04454025253653526
3.0,0.04252238944172859
4.0,0.04066845029592514
5.0,0.03893711417913437
6.0,0.03752250224351883
7.0,0.03611304983496666
8.0,0.03473915904760361
9.0,0.033478401601314545
10.0,0.03225024789571762
11.0,0.031097806990146637
12.0,0.030016524717211723
13.0,0.028915250673890114
14.0,0.027866164222359657
15.0,0.02691406011581421
16.0,0.026063386350870132
18.0,0.02461455576121807
20.0,0.023288045078516006
22.0,0.022108661010861397
24.0,0.020996445789933205
26.0,0.01977873407304287
28.0,0.01857747696340084
30.0,0.01754654198884964
32.0,0.0167315062135458
36.0,0.015344829298555851
40.0,0.013944166712462902
44.0,0.012860104441642761
48.0,0.01200447790324688
52.0,0.011349926702678204
56.0,0.01068891491740942
60.0,0.009992662817239761
64.0,0.009443356655538082
72.0,0.009016699157655239
80.0,0.00819523073732853
88.0,0.007650152780115604
96.0,0.007973521947860718
104.0,0.008828765712678432
112.0,0.009725872427225113
120.0,0.010201976634562016
128.0,0.010167849250137806
144.0,0.00873112678527832
160.0,0.00808916799724102
176.0,0.007291287183761597
192.0,0.00653041573241353
208.0,0.006301662418991327
224.0,0.005937368143349886
240.0,0.005640157964080572
256.0,0.00559594389051199
288.0,0.004737410228699446
320.0,0.0037788404151797295
352.0,0.004313200246542692
384.0,0.004315976053476334
416.0,0.0030455333180725574
448.0,0.003275914816185832
480.0,0.0043700397945940495
512.0,0.004580544773489237
576.0,0.0011049493914470077
640.0,0.00011491416807984933
704.0,0.0006458187126554549
768.0,-0.000932553259190172
832.0,-0.003391309641301632
896.0,-0.0049422020092606544
960.0,-0.0036177104339003563
1024.0,-0.004953563213348389
1152.0,-0.00345935532823205
1280.0,-0.003379120724275708
1408.0,-0.002139209071174264
1536.0,-0.002685070736333728
1664.0,-0.0033432580530643463
1792.0,-0.0023617090191692114
1920.0,0.0014723929343745112
2048.0,-9.491363016422838e-05
2304.0,0.0006107481895014644
2560.0,-0.0017167299520224333
2816.0,0.00022351609368342906
3072.0,-0.003047045087441802
3328.0,0.0003590760752558708
3584.0,0.0011949100298807025
3840.0,0.004263514187186956
4096.0,0.0027463154401630163
4608.0,-0.003058262635022402
5120.0,-0.00382419116795063
5632.0,0.0016730936476960778
6144.0,0.0015178656904026866
6656.0,-0.0025254462379962206
7168.0,-0.003602266777306795
7680.0,0.003420295426622033
8192.0,0.00746089406311512
end
