version,3.0
numOfCh,1
type,point
parent_name,0cd20_0dot6-1dot0
ch_type,1_1
kcount,1
numberNandB,1
brightnessNandB,1
carpet pos,0
pc,0
Time (ms),CH1 Auto-Correlation
1.0,0.04861696809530258
2.0,0.0461917482316494
3.0,0.04415193572640419
4.0,0.04232564568519592
5.0,0.04072970151901245
6.0,0.03911899775266647
7.0,0.037525106221437454
8.0,0.036166686564683914
9.0,0.034872766584157944
10.0,0.03376922011375427
11.0,0.032632410526275635
12.0,0.031456880271434784
13.0,0.030406441539525986
14.0,0.029502876102924347
15.0,0.028627336025238037
16.0,0.027827203273773193
18.0,0.026272736489772797
20.0,0.025031089782714844
22.0,0.023798273876309395
24.0,0.022593757137656212
26.0,0.021556558087468147
28.0,0.0204959437251091
30.0,0.01967013068497181
32.0,0.018831891939044
36.0,0.01745501160621643
40.0,0.01640978828072548
44.0,0.015607871115207672
48.0,0.014693649485707283
52.0,0.014001135714352131
56.0,0.013521810062229633
60.0,0.013233760371804237
64.0,0.013132044114172459
72.0,0.01250949501991272
80.0,0.011804602108895779
88.0,0.011082789860665798
96.0,0.010636691935360432
104.0,0.010646906681358814
112.0,0.010531810112297535
120.0,0.010146504268050194
128.0,0.009293601848185062
144.0,0.007211655378341675
160.0,0.005234480835497379
176.0,0.004886748269200325
192.0,0.005929967854171991
208.0,0.006063725333660841
224.0,0.005164068657904863
240.0,0.004679986275732517
256.0,0.003299002069979906
288.0,0.002137967851012945
320.0,0.0031255087815225124
352.0,0.001870166277512908
384.0,0.0019086841493844986
416.0,0.00454446766525507
448.0,0.005511131603270769
480.0,0.00616942485794425
512.0,0.006894620601087809
576.0,0.004389130510389805
640.0,0.0030428681056946516
704.0,0.0009316575014963746
768.0,0.001001453143544495
832.0,0.00015881033323239535
896.0,0.0008261427865363657
960.0,-0.0004657569224946201
1024.0,-0.0001776845019776374
1152.0,-0.0002896819496527314
1280.0,-0.0004921028157696128
1408.0,-0.0009585816296748817
1536.0,-0.001323579577729106
1664.0,-0.0006898471037857234
1792.0,0.0003013253153767437
1920.0,-0.002913904841989279
2048.0,-0.005769091192632914
2304.0,-0.004849181976169348
2560.0,-0.0011505628935992718
2816.0,-0.0014558981638401747
3072.0,0.001602871110662818
3328.0,0.00012540668831206858
3584.0,0.0033481523860245943
3840.0,0.0015827894676476717
4096.0,0.00033794131013564765
4608.0,-0.0025961855426430702
5120.0,-0.0022907278034836054
5632.0,-0.0034530486445873976
6144.0,0.0001597089576534927
6656.0,0.00465591112151742
7168.0,0.001345534808933735
7680.0,-0.0018492398085072637
8192.0,-0.0036312160082161427
end
