version,3.0
numOfCh,1
type,point
parent_name,0cd20_0dot6-1dot0
ch_type,1_1
kcount,1
numberNandB,1
brightnessNandB,1
carpet pos,0
pc,0
Time (ms),CH1 Auto-Correlation
1.0,0.04835916683077812
2.0,0.04599245637655258
3.0,0.04388532042503357
4.0,0.04198532924056053
5.0,0.04026191309094429
6.0,0.03866611048579216
7.0,0.03718230873346329
8.0,0.035809244960546494
9.0,0.034497082233428955
10.0,0.03328218311071396
11.0,0.03220115229487419
12.0,0.03109070658683777
13.0,0.030048498883843422
14.0,0.02909821644425392
15.0,0.02826450951397419
16.0,0.027509603649377823
18.0,0.026128064841032028
20.0,0.024903327226638794
22.0,0.023773934692144394
24.0,0.02268521673977375
26.0,0.021770071238279343
28.0,0.020870855078101158
30.0,0.019984370097517967
32.0,0.019188962876796722
36.0,0.017823727801442146
40.0,0.016899045556783676
44.0,0.015805574133992195
48.0,0.01457939948886633
52.0,0.013472584076225758
56.0,0.012340513989329338
60.0,0.011429478414356709
64.0,0.0108291981741786
72.0,0.009230213239789009
80.0,0.007940610870718956
88.0,0.006844343151897192
96.0,0.006560793612152338
104.0,0.005880789831280708
112.0,0.005263177677989006
120.0,0.004964990541338921
128.0,0.005358354654163122
144.0,0.005015928763896227
160.0,0.0034616156481206417
176.0,0.0011033635819330812
192.0,0.00013496277097146958
208.0,0.0012463090242817998
224.0,0.0029947087168693542
240.0,0.004936554469168186
256.0,0.006437521893531084
288.0,0.005547334440052509
320.0,0.005843913182616234
352.0,0.005079180467873812
384.0,0.005659768357872963
416.0,0.006005364935845137
448.0,0.005009345710277557
480.0,0.0030204851645976305
512.0,0.0021963699255138636
576.0,0.0018307551508769393
640.0,-0.0004427378880791366
704.0,0.0018293618923053145
768.0,0.001395245548337698
832.0,0.0010931981960311532
896.0,0.0007717360858805478
960.0,-0.0005783932865597308
1024.0,-0.0019065551459789276
1152.0,-0.00047236497630365193
1280.0,0.000962453312240541
1408.0,0.0002155538386432454
1536.0,0.0009293967741541564
1664.0,0.0014143792213872075
1792.0,-0.0015575182624161243
1920.0,0.0016874512657523155
2048.0,0.0009942380711436272
2304.0,0.0012371164048090577
2560.0,0.0004888813709840178
2816.0,-0.0013198148226365447
3072.0,-0.0002982390869874507
3328.0,0.00013637404481414706
3584.0,0.0023193960078060627
3840.0,0.0009282092796638608
4096.0,5.8889956562779844e-05
4608.0,-0.0008481937693431973
5120.0,-0.002821387257426977
5632.0,0.0005525739397853613
6144.0,0.00023095242795534432
6656.0,-0.003948654979467392
7168.0,-0.0004819902533199638
7680.0,0.004143225494772196
8192.0,0.001543644000776112
end
