version,3.0
numOfCh,1
type,point
parent_name,0cd20_0dot6-1dot0
ch_type,1_1
kcount,1
numberNandB,1
brightnessNandB,1
carpet pos,0
pc,0
Time (ms),CH1 Auto-Correlation
1.0,0.05079240724444389
2.0,0.0480068102478981
3.0,0.04558630660176277
4.0,0.04334230348467827
5.0,0.04138819873332977
6.0,0.039499446749687195
7.0,0.037664275616407394
8.0,0.03610369935631752
9.0,0.03454761207103729
10.0,0.03326134756207466
11.0,0.03194554150104523
12.0,0.030690152198076248
13.0,0.02948472648859024
14.0,0.02830045111477375
15.0,0.02725144289433956
16.0,0.026306219398975372
18.0,0.02464052103459835
20.0,0.02308160811662674
22.0,0.021696876734495163
24.0,0.020354637876152992
26.0,0.019022265449166298
28.0,0.017848052084445953
30.0,0.016836468130350113
32.0,0.01606273464858532
36.0,0.014734209515154362
40.0,0.013866300694644451
44.0,0.013386215083301067
48.0,0.012811853550374508
52.0,0.011758986860513687
56.0,0.011016489006578922
60.0,0.010301835834980011
64.0,0.009438731707632542
72.0,0.007428573444485664
80.0,0.006460600066930056
88.0,0.005706122610718012
96.0,0.004753364250063896
104.0,0.0039662206545472145
112.0,0.003948485013097525
120.0,0.003669159486889839
128.0,0.0029553116764873266
144.0,0.0036555922124534845
160.0,0.004875671584159136
176.0,0.005620506592094898
192.0,0.005489098373800516
208.0,0.004550999496132135
224.0,0.0029887049458920956
240.0,0.0020065417047590017
256.0,0.0026139758992940187
288.0,0.0034154136665165424
320.0,0.001953004626557231
352.0,0.0027276515029370785
384.0,0.0023494965862482786
416.0,0.002214965643361211
448.0,0.002840284025296569
480.0,0.002860560081899166
512.0,0.003941299393773079
576.0,0.0037236742209643126
640.0,-9.728417353471741e-05
704.0,-0.0013507985277101398
768.0,0.0009879693388938904
832.0,-0.0008901990368030965
896.0,-0.0036200257018208504
960.0,-0.0010811695829033852
1024.0,0.0010042779613286257
1152.0,-0.0012225446989759803
1280.0,-0.001982840010896325
1408.0,-0.0012055172119289637
1536.0,0.0006278440705500543
1664.0,0.0012376189697533846
1792.0,0.0018537562573328614
1920.0,-0.0016746706096455455
2048.0,0.0003774841025006026
2304.0,0.0010375886922702193
2560.0,0.0019775331020355225
2816.0,-0.0001956983032869175
3072.0,-0.002235851949080825
3328.0,-0.0006053413380868733
3584.0,-0.0017024825792759657
3840.0,-0.0018305126577615738
4096.0,-0.0015070356894284487
4608.0,-0.00031396097620017827
5120.0,-0.0001864443183876574
5632.0,-0.004445564933121204
6144.0,-0.0016547000268474221
6656.0,0.0030803147237747908
7168.0,0.003034545574337244
7680.0,0.002123528625816107
8192.0,0.000608339614700526
end
