version,3.0
numOfCh,1
type,point
parent_name,0cd20_0dot6-1dot0
ch_type,1_1
kcount,1
numberNandB,1
brightnessNandB,1
carpet pos,0
pc,0
Time (ms),CH1 Auto-Correlation
1.0,0.044598594307899475
2.0,0.04224896803498268
3.0,0.04014761745929718
4.0,0.03813108429312706
5.0,0.03624996915459633
6.0,0.03461948782205582
7.0,0.03312698006629944
8.0,0.03166590631008148
9.0,0.03034273348748684
10.0,0.029094472527503967
11.0,0.027902750298380852
12.0,0.026795636862516403
13.0,0.02577982284128666
14.0,0.024853358045220375
15.0,0.02399425394833088
16.0,0.023219097405672073
18.0,0.021815743297338486
20.0,0.02056109346449375
22.0,0.019527088850736618
24.0,0.018585557118058205
26.0,0.0177601408213377
28.0,0.01701599359512329
30.0,0.016281278803944588
32.0,0.015406457707285881
36.0,0.01372991967946291
40.0,0.012233523651957512
44.0,0.010957807302474976
48.0,0.01017883513122797
52.0,0.009534906595945358
56.0,0.008993839845061302
60.0,0.008713902905583382
64.0,0.008507906459271908
72.0,0.007447147276252508
80.0,0.006010162178426981
88.0,0.0053674909286201
96.0,0.0040163928642869
104.0,0.002783933188766241
112.0,0.0020721815526485443
120.0,0.001129889627918601
128.0,0.00093779870076105
144.0,0.00139522273093462
160.0,6.259964720811695e-05
176.0,-0.0010898530017584562
192.0,-0.002237385604530573
208.0,-0.003376674372702837
224.0,-0.0028909065295010805
240.0,-0.002663730178028345
256.0,-0.0013538142666220665
288.0,0.0014129974879324436
320.0,0.0016501650679856539
352.0,0.0012595209991559386
384.0,0.002935691736638546
416.0,0.0027404255233705044
448.0,0.0018710402073338628
480.0,0.001694864360615611
512.0,0.0008915105136111379
576.0,0.0003235881740693003
640.0,0.0008659999002702534
704.0,0.002101920312270522
768.0,0.0019074180163443089
832.0,0.0007316325209103525
896.0,-0.0019068511901423335
960.0,-0.002295564627274871
1024.0,-0.0020892166066914797
1152.0,-0.0004465725796762854
1280.0,0.0014534017536789179
1408.0,-0.0018236153991892934
1536.0,-0.002404235303401947
1664.0,-0.0004982078098692
1792.0,0.0016708445036783814
1920.0,0.0018439580453559756
2048.0,0.0020437364000827074
2304.0,0.0015024051535874605
2560.0,0.0006268096040003002
2816.0,-0.0014356626197695732
3072.0,0.00021963927429169416
3328.0,-0.0026257578283548355
3584.0,-0.0014737712917849422
3840.0,0.0012702413368970156
4096.0,-3.377618486410938e-05
4608.0,0.001931810867972672
5120.0,-0.0010639210231602192
5632.0,-0.0023960501421242952
6144.0,0.00010611204925226048
6656.0,0.0013928745174780488
7168.0,-0.0012253413442522287
7680.0,-0.0020645365584641695
8192.0,-0.0019520273199304938
end
