version,3.0
numOfCh,1
type,point
parent_name,0cd20_0dot6-1dot0
ch_type,1_1
kcount,1
numberNandB,1
brightnessNandB,1
carpet pos,0
pc,0
Time (ms),CH1 Auto-Correlation
1.0,0.040971286594867706
2.0,0.038572266697883606
3.0,0.03641729801893234
4.0,0.03447360917925835
5.0,0.03267386928200722
6.0,0.030903279781341553
7.0,0.029341015964746475
8.0,0.027826115489006042
9.0,0.026401210576295853
10.0,0.025127138942480087
11.0,0.023906612768769264
12.0,0.022774187847971916
13.0,0.02156589739024639
14.0,0.020461129024624825
15.0,0.01950274407863617
16.0,0.01858099363744259
18.0,0.017041319981217384
20.0,0.01578683964908123
22.0,0.014719398692250252
24.0,0.013846038840711117
26.0,0.013055983930826187
28.0,0.012259433045983315
30.0,0.011487866751849651
32.0,0.010583280585706234
36.0,0.009034601040184498
40.0,0.00797622837126255
44.0,0.0074721649289131165
48.0,0.007459877524524927
52.0,0.007309931796044111
56.0,0.007054793182760477
60.0,0.006652272306382656
64.0,0.006382548250257969
72.0,0.005791414529085159
80.0,0.005714066326618195
88.0,0.005681450478732586
96.0,0.005621418356895447
104.0,0.005369957070797682
112.0,0.0049056438729166985
120.0,0.004243373870849609
128.0,0.003890062216669321
144.0,0.002779849572107196
160.0,0.0015279100043699145
176.0,0.0006874629179947078
192.0,0.00021603121422231197
208.0,0.0005117799155414104
224.0,-0.0003881131415255368
240.0,-0.0006007851334288716
256.0,-0.0010726042091846466
288.0,0.00026425867690704763
320.0,0.00041531375609338284
352.0,-0.0010024396469816566
384.0,-0.0019111639121547341
416.0,-0.002821186790242791
448.0,-0.0010717019904404879
480.0,-0.0011221182066947222
512.0,-0.0014594974927604198
576.0,-0.002735672751441598
640.0,-0.0023967535234987736
704.0,-0.0026963583659380674
768.0,-0.0011561179999262094
832.0,1.0519487659621518e-05
896.0,-7.329401705646887e-05
960.0,-4.6181026846170425e-05
1024.0,-0.001226063002832234
1152.0,0.00012385447917040437
1280.0,-0.00038533355109393597
1408.0,-0.00010037138417828828
1536.0,0.0007897522300481796
1664.0,-0.00020868545107077807
1792.0,-0.0007949299761094153
1920.0,-0.0009258533245883882
2048.0,0.0006372100906446576
2304.0,0.0005109612829983234
2560.0,-0.0013139951042830944
2816.0,-0.0014508593594655395
3072.0,-0.0015977250877767801
3328.0,-0.002175181871280074
3584.0,0.001583578996360302
3840.0,0.002873877761885524
4096.0,0.0005601220182143152
4608.0,0.0007937067421153188
5120.0,2.6321711629861966e-05
5632.0,0.0014030730817466974
6144.0,-0.0008818854112178087
6656.0,0.0004359165614005178
7168.0,-0.0019404186168685555
7680.0,-0.0001885505043901503
8192.0,2.586832306405995e-05
end
