version,3.0
numOfCh,1
type,point
parent_name,0cd20_0dot6-1dot0
ch_type,1_1
kcount,1
numberNandB,1
brightnessNandB,1
carpet pos,0
pc,0
Time (ms),CH1 Auto-Correlation
1.0,0.04511711001396179
2.0,0.0427730530500412
3.0,0.04064660519361496
4.0,0.038712285459041595
5.0,0.037029512226581573
6.0,0.035480789840221405
7.0,0.033961597830057144
8.0,0.03256233409047127
9.0,0.03129091486334801
10.0,0.030069757252931595
11.0,0.028882863000035286
12.0,0.027835873886942863
13.0,0.02685508318245411
14.0,0.025904087349772453
15.0,0.025003116577863693
16.0,0.02408311702311039
18.0,0.022367218509316444
20.0,0.020925089716911316
22.0,0.019690074026584625
24.0,0.01854448951780796
26.0,0.017477773129940033
28.0,0.016443058848381042
30.0,0.015447990037500858
32.0,0.01457090862095356
36.0,0.01323909591883421
40.0,0.01210531685501337
44.0,0.011276966892182827
48.0,0.010524332523345947
52.0,0.009908432140946388
56.0,0.009533240459859371
60.0,0.009260565973818302
64.0,0.009150054305791855
72.0,0.008993751369416714
80.0,0.008663101121783257
88.0,0.008019881322979927
96.0,0.007690627593547106
104.0,0.007387511432170868
112.0,0.00744278309866786
120.0,0.00741987070068717
128.0,0.006817593704909086
144.0,0.00535932881757617
160.0,0.0038971975445747375
176.0,0.002768028760328889
192.0,0.0031837336719036102
208.0,0.0029879461508244276
224.0,0.002381834201514721
240.0,0.002086392603814602
256.0,0.0018718716455623507
288.0,0.001403903472237289
320.0,0.0006592151476070285
352.0,-0.0016566970152780414
384.0,-0.002144708065316081
416.0,-0.0019122272497043014
448.0,-0.0018169805407524109
480.0,-0.00013135685003362596
512.0,-0.000373545044567436
576.0,-0.0008066860027611256
640.0,0.0003206631517969072
704.0,-0.0002801248920150101
768.0,-0.002389974659308791
832.0,-0.001490979571826756
896.0,-0.0019925108645111322
960.0,-0.0008714648429304361
1024.0,-0.0003336243680678308
1152.0,-0.0001861159544205293
1280.0,-0.0017374767921864986
1408.0,0.00038091838359832764
1536.0,0.0016625444404780865
1664.0,0.0014525839360430837
1792.0,0.0006158892065286636
1920.0,0.001033181557431817
2048.0,0.005141095258295536
2304.0,0.0026574423536658287
2560.0,-0.00035763782216235995
2816.0,0.0008813106687739491
3072.0,-0.001177655067294836
3328.0,-0.0018967795185744762
3584.0,0.003949024248868227
3840.0,0.0011340026976540685
4096.0,0.001973439007997513
4608.0,-0.001159433857537806
5120.0,-0.0038332899566739798
5632.0,0.0037356677930802107
6144.0,-0.0016836782451719046
6656.0,-0.0009179307380691171
7168.0,-0.003537232056260109
7680.0,0.0007041684584692121
8192.0,-0.0002169655926991254
end
