version,3.0
numOfCh,1
type,point
parent_name,0cd20_0dot6-1dot0
ch_type,1_1
kcount,1
numberNandB,1
brightnessNandB,1
carpet pos,0
pc,0
Time (ms),CH1 Auto-Correlation
1.0,0.040112316608428955
2.0,0.03777275234460831
3.0,0.0357082299888134
4.0,0.03379916772246361
5.0,0.032115690410137177
6.0,0.0304609015583992
7.0,0.028886303305625916
8.0,0.027430355548858643
9.0,0.026140442118048668
10.0,0.024916548281908035
11.0,0.023892657831311226
12.0,0.022871004417538643
13.0,0.02193387784063816
14.0,0.021094080060720444
15.0,0.020261595025658607
16.0,0.01947968453168869
18.0,0.018133584409952164
20.0,0.016895849257707596
22.0,0.015790296718478203
24.0,0.014682610519230366
26.0,0.013773750513792038
28.0,0.012981627136468887
30.0,0.012343327514827251
32.0,0.011834897100925446
36.0,0.01086527481675148
40.0,0.009881329722702503
44.0,0.009196295402944088
48.0,0.00887064915150404
52.0,0.008479642681777477
56.0,0.008043458685278893
60.0,0.007789368275552988
64.0,0.007658389396965504
72.0,0.007294172421097755
80.0,0.006757310125976801
88.0,0.005998194683343172
96.0,0.004734809510409832
104.0,0.003782673506066203
112.0,0.0030003634747117758
120.0,0.003103984519839287
128.0,0.0030446310993283987
144.0,0.0026743379421532154
160.0,0.0025953196454793215
176.0,0.002773015294224024
192.0,0.0029994072392582893
208.0,0.0023435766343027353
224.0,0.0022681267000734806
240.0,0.0019965467508882284
256.0,0.0016445693327113986
288.0,0.0018783052219077945
320.0,0.0010839151218533516
352.0,0.00031014412525109947
384.0,0.0022540290374308825
416.0,0.0028665324207395315
448.0,0.0021564692724496126
480.0,0.002978848060593009
512.0,0.0018492169911041856
576.0,0.0008178239222615957
640.0,0.0009347478626295924
704.0,0.0007080890936776996
768.0,0.0010699732229113579
832.0,0.0008909849566407502
896.0,0.001830789027735591
960.0,0.0015608568210154772
1024.0,-9.529076487524435e-05
1152.0,0.00038649135967716575
1280.0,-7.147144060581923e-05
1408.0,0.0020612403750419617
1536.0,-0.00041533104376867414
1664.0,-0.0002919907565228641
1792.0,-0.00023861693625804037
1920.0,-0.0010262752184644341
2048.0,-0.002438330091536045
2304.0,-0.0019828686490654945
2560.0,-0.000906179309822619
2816.0,-0.001476494362577796
3072.0,-0.0014500044053420424
3328.0,-0.0008005116833373904
3584.0,0.0002807003038469702
3840.0,-0.0017420074436813593
4096.0,-0.0005829039728268981
4608.0,-0.0016910425620153546
5120.0,0.0018749834271147847
5632.0,0.0010021589696407318
6144.0,-0.0003367926983628422
6656.0,0.0009158879984170198
7168.0,-0.001997457817196846
7680.0,-0.00218513747677207
8192.0,-0.0016593639738857746
end
