version,3.0
numOfCh,1
type,point
parent_name,0cd20_0dot6-1dot0
ch_type,1_1
kcount,1
numberNandB,1
brightnessNandB,1
carpet pos,0
pc,0
Time (ms),CH1 Auto-Correlation
1.0,0.0444837249815464
2.0,0.042073607444763184
3.0,0.03987003117799759
4.0,0.03787335753440857
5.0,0.0360410213470459
6.0,0.034414827823638916
7.0,0.0328853502869606
8.0,0.03156006708741188
9.0,0.030313562601804733
10.0,0.029243698343634605
11.0,0.028232507407665253
12.0,0.02720000222325325
13.0,0.026312341913580894
14.0,0.025460846722126007
15.0,0.024667926132678986
16.0,0.023958591744303703
18.0,0.02272285893559456
20.0,0.021608101204037666
22.0,0.020686842501163483
24.0,0.019814804196357727
26.0,0.019007941707968712
28.0,0.018299702554941177
30.0,0.0177259873598814
32.0,0.01722300425171852
36.0,0.016102967783808708
40.0,0.01476042065769434
44.0,0.013488458469510078
48.0,0.012347402051091194
52.0,0.011378323659300804
56.0,0.01047132071107626
60.0,0.00936297420412302
64.0,0.008355461992323399
72.0,0.007519659586250782
80.0,0.006677617318928242
88.0,0.005200998391956091
96.0,0.004592431243509054
104.0,0.003789676818996668
112.0,0.0026950358878821135
120.0,0.00232959003187716
128.0,0.002152073197066784
144.0,0.0011579161509871483
160.0,0.00039366926648654044
176.0,0.0004073765885550529
192.0,0.0001694441889412701
208.0,-0.0003590656560845673
224.0,-0.0006339362007565796
240.0,-0.0008032550103962421
256.0,-0.0008383636013604701
288.0,-0.0004517471243161708
320.0,-0.0029503724072128534
352.0,-0.005186834838241339
384.0,-0.004212100524455309
416.0,-0.0025205048732459545
448.0,-0.003270551096647978
480.0,-0.0031220815144479275
512.0,-0.0011810229625552893
576.0,-0.0005595869733951986
640.0,-0.0005866189021617174
704.0,0.0007054179441183805
768.0,0.0015070571098476648
832.0,0.0028949601110070944
896.0,0.0028152104932814837
960.0,0.0008994151721708477
1024.0,-0.0034559015184640884
1152.0,-0.0024251381400972605
1280.0,-0.0004556278290692717
1408.0,0.0019485809607431293
1536.0,0.0005850762245245278
1664.0,0.0010825066128745675
1792.0,-0.00041956768836826086
1920.0,0.0008502941345795989
2048.0,-0.0010674137156456709
2304.0,0.0017069682944566011
2560.0,0.0006326842703856528
2816.0,-0.0009262874373234808
3072.0,-0.0001126307834056206
3328.0,0.0029888669960200787
3584.0,-0.00011737786553567275
3840.0,-0.0018311812309548259
4096.0,0.0005718949832953513
4608.0,-0.0016134952893480659
5120.0,-0.0010026227682828903
5632.0,0.0016006572404876351
6144.0,-1.6564807083341293e-05
6656.0,0.0002444207784719765
7168.0,-0.0006503904005512595
7680.0,-5.283311475068331e-05
8192.0,-0.0011867120629176497
end
