version,3.0
numOfCh,1
type,point
parent_name,0cd20_0dot6-1dot0
ch_type,1_1
kcount,1
numberNandB,1
brightnessNandB,1
carpet pos,0
pc,0
Time (ms),CH1 Auto-Correlation
1.0,0.04884059727191925
2.0,0.04653387889266014
3.0,0.04444955289363861
4.0,0.04259614273905754
5.0,0.040914107114076614
6.0,0.03928642347455025
7.0,0.03783273696899414
8.0,0.036495599895715714
9.0,0.035257719457149506
10.0,0.034120045602321625
11.0,0.033020131289958954
12.0,0.031954552978277206
13.0,0.030956724658608437
14.0,0.03007006272673607
15.0,0.029223555698990822
16.0,0.02839612029492855
18.0,0.02687511406838894
20.0,0.02559625543653965
22.0,0.024248940870165825
24.0,0.02295759506523609
26.0,0.021940702572464943
28.0,0.0211885217577219
30.0,0.020490769296884537
32.0,0.019918616861104965
36.0,0.01931900531053543
40.0,0.01877383142709732
44.0,0.01813323237001896
48.0,0.017183884978294373
52.0,0.016232188791036606
56.0,0.015497866086661816
60.0,0.014957940205931664
64.0,0.014307421632111073
72.0,0.013081640936434269
80.0,0.012270210310816765
88.0,0.012102765031158924
96.0,0.012033072300255299
104.0,0.011041911318898201
112.0,0.010035369545221329
120.0,0.009155891835689545
128.0,0.00860773678869009
144.0,0.007875826209783554
160.0,0.007696888409554958
176.0,0.00711604580283165
192.0,0.0058485581539571285
208.0,0.006226478610187769
224.0,0.006971273571252823
240.0,0.007526036351919174
256.0,0.00604605209082365
288.0,0.0038573506753891706
320.0,0.002007298404350877
352.0,-0.0005983211449347436
384.0,-0.00045555742690339684
416.0,-0.0007626592414453626
448.0,-0.002027088077738881
480.0,-0.00207170145586133
512.0,-0.0027769231237471104
576.0,-0.0029694295953959227
640.0,-0.002747077727690339
704.0,-0.002060448983684182
768.0,-0.004116179887205362
832.0,-0.0035395491868257523
896.0,0.00019205338321626186
960.0,0.002511660335585475
1024.0,0.0017013057367876172
1152.0,0.004583310801535845
1280.0,0.006380445323884487
1408.0,0.005988763645291328
1536.0,0.001254503265954554
1664.0,-0.0015339629026129842
1792.0,-0.0038820963818579912
1920.0,-0.004358344711363316
2048.0,-0.0033406561706215143
2304.0,0.0007271216018125415
2560.0,-0.0009947409853339195
2816.0,-0.0021084335166960955
3072.0,-0.0001451559946872294
3328.0,-0.0004606468428391963
3584.0,0.0008167423657141626
3840.0,-0.0008539967238903046
4096.0,-0.0034598330967128277
4608.0,-0.0021938933059573174
5120.0,0.0004323599860072136
5632.0,-0.00479685515165329
6144.0,-0.0017280058236792684
6656.0,0.0027752050664275885
7168.0,-0.0020732427947223186
7680.0,0.0022735896054655313
8192.0,0.003978777676820755
end
