version,3.0
numOfCh,1
type,point
parent_name,0cd20_0dot6-1dot0
ch_type,1_1
kcount,1
numberNandB,1
brightnessNandB,1
carpet pos,0
pc,0
Time (ms),CH1 Auto-Correlation
1.0,0.049113884568214417
2.0,0.04660824313759804
3.0,0.04442979395389557
4.0,0.04242042452096939
5.0,0.040660709142684937
6.0,0.03902164846658707
7.0,0.03758108615875244
8.0,0.036164790391922
9.0,0.034880898892879486
10.0,0.033696722239255905
11.0,0.03260241076350212
12.0,0.03160937502980232
13.0,0.030681012198328972
14.0,0.02979378029704094
15.0,0.02900601178407669
16.0,0.0282337237149477
18.0,0.02694941870868206
20.0,0.025437813252210617
22.0,0.023958630859851837
24.0,0.0227570328861475
26.0,0.02173398621380329
28.0,0.02088242769241333
30.0,0.020068034529685974
32.0,0.019284987822175026
36.0,0.018030423671007156
40.0,0.01689114235341549
44.0,0.015824899077415466
48.0,0.015077692456543446
52.0,0.014426288194954395
56.0,0.014073641039431095
60.0,0.01348461490124464
64.0,0.012729507870972157
72.0,0.011650143191218376
80.0,0.01118013821542263
88.0,0.01084503810852766
96.0,0.010715113021433353
104.0,0.010820400901138783
112.0,0.010668300092220306
120.0,0.01010205503553152
128.0,0.00930013507604599
144.0,0.00892332848161459
160.0,0.009318431839346886
176.0,0.008550078608095646
192.0,0.007290458772331476
208.0,0.008221377618610859
224.0,0.008508344180881977
240.0,0.006428739987313747
256.0,0.006656762678176165
288.0,0.0064393929205834866
320.0,0.00691865012049675
352.0,0.004569809418171644
384.0,0.0036630132235586643
416.0,0.003039846196770668
448.0,0.002047694753855467
480.0,0.002897705649957061
512.0,0.0035744914785027504
576.0,0.002229347126558423
640.0,0.0003011928347405046
704.0,0.0016553938621655107
768.0,0.00016509565466549248
832.0,0.00019154345500282943
896.0,0.00018451384676154703
960.0,-0.0004471240099519491
1024.0,0.0006481831078417599
1152.0,6.654301250819117e-05
1280.0,-0.00020002006203867495
1408.0,-0.00011197433195775375
1536.0,-0.0010651384945958853
1664.0,-0.00017052343173418194
1792.0,-0.003284527687355876
1920.0,-0.002926815766841173
2048.0,-0.004228061065077782
2304.0,-0.0034619916696101427
2560.0,-0.0010484429076313972
2816.0,-0.0020989414770156145
3072.0,-0.0012816193047910929
3328.0,-0.002439209260046482
3584.0,-0.002944567007943988
3840.0,-0.002062418730929494
4096.0,-0.0005457938532344997
4608.0,0.001086097676306963
5120.0,0.0009980917675420642
5632.0,0.0009751637699082494
6144.0,0.002920368453487754
6656.0,0.0018763266270980239
7168.0,-0.0003963505441788584
7680.0,-0.005010815802961588
8192.0,-0.005107184872031212
end
