version,3.0
numOfCh,1
type,point
parent_name,0cd20_0dot6-1dot0
ch_type,1_1
kcount,1
numberNandB,1
brightnessNandB,1
carpet pos,0
pc,0
Time (ms),CH1 Auto-Correlation
1.0,0.04266858473420143
2.0,0.0404747910797596
3.0,0.03849944472312927
4.0,0.036714114248752594
5.0,0.03511206805706024
6.0,0.03366217762231827
7.0,0.03224700316786766
8.0,0.030891165137290955
9.0,0.029735134914517403
10.0,0.028687264770269394
11.0,0.027695249766111374
12.0,0.026827843859791756
13.0,0.026025081053376198
14.0,0.025176329538226128
15.0,0.024356365203857422
16.0,0.023557720705866814
18.0,0.022220656275749207
20.0,0.02115219458937645
22.0,0.020156584680080414
24.0,0.01921194978058338
26.0,0.018281076103448868
28.0,0.01743275858461857
30.0,0.016673944890499115
32.0,0.015905993059277534
36.0,0.014933920465409756
40.0,0.013853279873728752
44.0,0.012831796891987324
48.0,0.011880398727953434
52.0,0.011027919128537178
56.0,0.010068357922136784
60.0,0.009270270355045795
64.0,0.00857655517756939
72.0,0.00750252790749073
80.0,0.006238379515707493
88.0,0.0049095177091658115
96.0,0.004098617006093264
104.0,0.004039044491946697
112.0,0.003536882111802697
120.0,0.0025772282388061285
128.0,0.0022361231967806816
144.0,0.0018598414026200771
160.0,0.002671449910849333
176.0,0.002300939755514264
192.0,0.0013351961970329285
208.0,0.001334160566329956
224.0,0.001493525691330433
240.0,0.0015278601786121726
256.0,0.00019575942133087665
288.0,-0.0012685003457590938
320.0,-0.00021978034055791795
352.0,-0.0005180031876079738
384.0,-0.001253268914297223
416.0,-0.001805511419661343
448.0,-0.0029997907113283873
480.0,-0.0024871749337762594
512.0,-0.0031235406640917063
576.0,-0.002455062000080943
640.0,-0.0007032208959572017
704.0,0.0022292323410511017
768.0,0.003202303545549512
832.0,0.0017990643391385674
896.0,0.0016721202991902828
960.0,0.001268027350306511
1024.0,0.0005390450824052095
1152.0,0.00015557152801193297
1280.0,-0.002678933320567012
1408.0,-0.0014113554498180747
1536.0,-0.0009951827814802527
1664.0,0.0014475161442533135
1792.0,-0.0001994441990973428
1920.0,-0.0012916354462504387
2048.0,-0.0012145007494837046
2304.0,-0.0039028546307235956
2560.0,-0.002281133085489273
2816.0,0.0016307460609823465
3072.0,0.0009179551852867007
3328.0,-0.0001563952973810956
3584.0,0.0007691151113249362
3840.0,0.0014533033827319741
4096.0,-5.668778976541944e-05
4608.0,0.0028053743299096823
5120.0,-0.0033281275536864996
5632.0,-0.0010635635117068887
6144.0,-0.00038917764322832227
6656.0,-0.0010971868177875876
7168.0,-0.0008570441859774292
7680.0,0.003757111495360732
8192.0,-0.0002036701189354062
end
