version,3.0
numOfCh,1
type,point
parent_name,0cd20_0dot6-1dot0
ch_type,1_1
kcount,1
numberNandB,1
brightnessNandB,1
carpet pos,0
pc,0
Time (ms),CH1 Auto-Correlation
1.0,0.04405685141682625
2.0,0.04178744554519653
3.0,0.03980066999793053
4.0,0.03796791657805443
5.0,0.036337871104478836
6.0,0.034903787076473236
7.0,0.03352757915854454
8.0,0.03222348913550377
9.0,0.031075958162546158
10.0,0.029981648549437523
11.0,0.02893269807100296
12.0,0.027972061187028885
13.0,0.027189943939447403
14.0,0.026438120752573013
15.0,0.025725070387125015
16.0,0.02503451332449913
18.0,0.023688072338700294
20.0,0.022565368562936783
22.0,0.021569199860095978
24.0,0.020451603457331657
26.0,0.019355157390236855
28.0,0.018364209681749344
30.0,0.01739795133471489
32.0,0.016563424840569496
36.0,0.015142756514251232
40.0,0.014019341208040714
44.0,0.013149848207831383
48.0,0.012347089126706123
52.0,0.011523973196744919
56.0,0.010698012076318264
60.0,0.010015144944190979
64.0,0.009485971182584763
72.0,0.008888647891581059
80.0,0.008198956958949566
88.0,0.007302142679691315
96.0,0.006689668633043766
104.0,0.006521960720419884
112.0,0.006274393294006586
120.0,0.005889092572033405
128.0,0.005598559509962797
144.0,0.0047576031647622585
160.0,0.004913935903459787
176.0,0.00483395392075181
192.0,0.004573659971356392
208.0,0.005351336672902107
224.0,0.00571108516305685
240.0,0.006546271964907646
256.0,0.006705001927912235
288.0,0.005138955544680357
320.0,0.004828410688787699
352.0,0.0048621343448758125
384.0,0.0035351288970559835
416.0,0.0027891118079423904
448.0,0.0026866253465414047
480.0,0.00244519067928195
512.0,0.004219898954033852
576.0,0.0035927635617554188
640.0,0.004683700855821371
704.0,0.004331845790147781
768.0,0.0035885730758309364
832.0,0.003409407567232847
896.0,0.0025450261309742928
960.0,0.00039907655445858836
1024.0,0.0007270556525327265
1152.0,0.0010569206206128001
1280.0,0.002537280321121216
1408.0,0.0017533096252009273
1536.0,0.0014349445700645447
1664.0,-0.0006580047775059938
1792.0,-0.0009670331492088735
1920.0,0.0016375085106119514
2048.0,0.0011235370766371489
2304.0,0.00016973170568235219
2560.0,-0.0014041552785784006
2816.0,-0.0027895672246813774
3072.0,-0.004348886664956808
3328.0,-0.0035959568340331316
3584.0,-0.002927684923633933
3840.0,-0.0002931291237473488
4096.0,0.00029960228130221367
4608.0,0.0014017773792147636
5120.0,0.0005025353166274726
5632.0,-0.0004548047436401248
6144.0,0.00245778844691813
6656.0,0.00039668066892772913
7168.0,-0.002919742139056325
7680.0,-0.004083704203367233
8192.0,-0.002601877087727189
end
