version,3.0
numOfCh,1
type,point
parent_name,0cd20_0dot6-1dot0
ch_type,1_1
kcount,1
numberNandB,1
brightnessNandB,1
carpet pos,0
pc,0
Time (ms),CH1 Auto-Correlation
1.0,0.05131901800632477
2.0,0.04881839454174042
3.0,0.04668112471699715
4.0,0.04479905217885971
5.0,0.0429898276925087
6.0,0.04135265573859215
7.0,0.039878569543361664
8.0,0.03857983648777008
9.0,0.03745720535516739
10.0,0.03647250309586525
11.0,0.03550361096858978
12.0,0.03452865406870842
13.0,0.03364012762904167
14.0,0.03283179551362991
15.0,0.03198065236210823
16.0,0.031209710985422134
18.0,0.02995988354086876
20.0,0.028573283925652504
22.0,0.027390291914343834
24.0,0.026223864406347275
26.0,0.025275766849517822
28.0,0.024375220760703087
30.0,0.02352171763777733
32.0,0.022608531638979912
36.0,0.02124798111617565
40.0,0.02032213844358921
44.0,0.019346727058291435
48.0,0.018415099009871483
52.0,0.017707834020256996
56.0,0.017147211357951164
60.0,0.01689939573407173
64.0,0.0163570623844862
72.0,0.015160046517848969
80.0,0.013975493609905243
88.0,0.013418333604931831
96.0,0.013219699263572693
104.0,0.01277514360845089
112.0,0.012860779650509357
120.0,0.012953960336744785
128.0,0.012265294790267944
144.0,0.01087721437215805
160.0,0.01045832596719265
176.0,0.010024501010775566
192.0,0.00948143471032381
208.0,0.007487015798687935
224.0,0.005666808690875769
240.0,0.005242111161351204
256.0,0.005334926303476095
288.0,0.00500477384775877
320.0,0.004431018140166998
352.0,0.005515304394066334
384.0,0.005447046831250191
416.0,0.004394057206809521
448.0,0.0026526886504143476
480.0,0.0017765406519174576
512.0,0.000650322821456939
576.0,0.0018882474396377802
640.0,-2.1856469174963422e-05
704.0,-0.0011652031680569053
768.0,-0.002799856709316373
832.0,-0.005875788163393736
896.0,-0.005550697911530733
960.0,-0.0060972715727984905
1024.0,-0.004913278855383396
1152.0,-0.004344759043306112
1280.0,-0.0024201725609600544
1408.0,-0.002266463590785861
1536.0,-0.003712097182869911
1664.0,-2.2500678824144416e-05
1792.0,0.0011485946597531438
1920.0,0.0028546059038490057
2048.0,0.003270253771916032
2304.0,0.0030173712875694036
2560.0,0.0020289127714931965
2816.0,0.00032443951931782067
3072.0,-0.0018079807050526142
3328.0,-0.0026787128299474716
3584.0,-0.005170031916350126
3840.0,-0.0035107466392219067
4096.0,-0.0003358737158123404
4608.0,0.004208007361739874
5120.0,0.00023235952539835125
5632.0,-0.009640655480325222
6144.0,-0.002647746354341507
6656.0,0.0031607025302946568
7168.0,0.002639180514961481
7680.0,-0.006389573682099581
8192.0,-0.0002517699613235891
end
