version,3.0
numOfCh,1
type,point
parent_name,0cd20_0dot6-1dot0
ch_type,1_1
kcount,1
numberNandB,1
brightnessNandB,1
carpet pos,0
pc,0
Time (ms),CH1 Auto-Correlation
1.0,0.047854382544755936
2.0,0.04455116018652916
3.0,0.04217778891324997
4.0,0.03992767259478569
5.0,0.0374024361371994
6.0,0.035044580698013306
7.0,0.03316446766257286
8.0,0.03150053322315216
9.0,0.03026691824197769
10.0,0.029099998995661736
11.0,0.0278796274214983
12.0,0.02674049884080887
13.0,0.02573375776410103
14.0,0.02491861768066883
15.0,0.02415849082171917
16.0,0.02346229925751686
18.0,0.022524969652295113
20.0,0.021839521825313568
22.0,0.021092530339956284
24.0,0.020402926951646805
26.0,0.01952771097421646
28.0,0.018795568495988846
30.0,0.018214406445622444
32.0,0.017540233209729195
36.0,0.016313178464770317
40.0,0.015266370959579945
44.0,0.01420672982931137
48.0,0.013031230308115482
52.0,0.012222352437675
56.0,0.01138990093022585
60.0,0.010506805963814259
64.0,0.00973094068467617
72.0,0.008382701314985752
80.0,0.007714670617133379
88.0,0.006716263946145773
96.0,0.005762957036495209
104.0,0.004326628055423498
112.0,0.004176295828074217
120.0,0.004841345828026533
128.0,0.005441030953079462
144.0,0.006274820771068335
160.0,0.00606423057615757
176.0,0.005610648076981306
192.0,0.005690355785191059
208.0,0.007104794029146433
224.0,0.005387654062360525
240.0,0.004638584330677986
256.0,0.003366549964994192
288.0,0.003248213091865182
320.0,0.0033398668747395277
352.0,0.0028946453239768744
384.0,0.004128362983465195
416.0,0.00470278924331069
448.0,0.0030011599883437157
480.0,-0.0001865500962594524
512.0,-0.0009345011785626411
576.0,0.0008526536403223872
640.0,-0.0011707310331985354
704.0,-0.004465674050152302
768.0,-0.004562164656817913
832.0,-0.0030009234324097633
896.0,-0.0018757781945168972
960.0,-0.0006408306653611362
1024.0,0.00016195871285162866
1152.0,-0.0025613869074732065
1280.0,-0.003621998243033886
1408.0,-0.0024684371892362833
1536.0,-0.0010550718288868666
1664.0,-0.0031214195769280195
1792.0,-0.0030834772624075413
1920.0,-0.0006673199823126197
2048.0,-0.0002146181504940614
2304.0,-0.0005289508844725788
2560.0,0.00233826762996614
2816.0,-0.0003780656261369586
3072.0,-0.0016111911972984672
3328.0,-0.005174563731998205
3584.0,-0.001483346801251173
3840.0,-0.00020085732103325427
4096.0,0.002293382538482547
4608.0,0.002880851039662957
5120.0,0.0019524800591170788
5632.0,-0.0004377736186143011
6144.0,-0.0007002190686762333
6656.0,0.0013008293462917209
7168.0,5.897861046832986e-05
7680.0,-0.0032866557594388723
8192.0,-0.004344633314758539
end
