version,3.0
numOfCh,1
type,point
parent_name,0cd20_0dot6-1dot0
ch_type,1_1
kcount,1
numberNandB,1
brightnessNandB,1
carpet pos,0
pc,0
Time (ms),CH1 Auto-Correlation
1.0,0.04183099418878555
2.0,0.03963505104184151
3.0,0.03770285099744797
4.0,0.03593476116657257
5.0,0.03429802507162094
6.0,0.03277001529932022
7.0,0.03138461709022522
8.0,0.030132263898849487
9.0,0.029013600200414658
10.0,0.027970246970653534
11.0,0.02702469378709793
12.0,0.02617555856704712
13.0,0.025342239066958427
14.0,0.024505628272891045
15.0,0.023693187162280083
16.0,0.022862885147333145
18.0,0.021336564794182777
20.0,0.02011975459754467
22.0,0.01903875358402729
24.0,0.01806291751563549
26.0,0.017254559323191643
28.0,0.01640908047556877
30.0,0.01575162447988987
32.0,0.015100629068911076
36.0,0.013984614051878452
40.0,0.013007131405174732
44.0,0.012209266424179077
48.0,0.011181226931512356
52.0,0.010367825627326965
56.0,0.009648896753787994
60.0,0.009255591779947281
64.0,0.00890938751399517
72.0,0.008430883288383484
80.0,0.007560290861874819
88.0,0.006741211283951998
96.0,0.006356782279908657
104.0,0.006017058622092009
112.0,0.005315354093909264
120.0,0.004222171846777201
128.0,0.003728658426553011
144.0,0.003268730128183961
160.0,0.00373473740182817
176.0,0.0032152635976672173
192.0,0.0018394781509414315
208.0,0.0015761867398396134
224.0,0.0020498603116720915
240.0,0.001316145295277238
256.0,0.00022899986652191728
288.0,-0.0010755083058029413
320.0,9.304971172241494e-06
352.0,-1.822719059418887e-05
384.0,-0.0008736011805012822
416.0,-0.0011586020700633526
448.0,-0.0016071540303528309
480.0,-0.0001610953186172992
512.0,-0.0015573208220303059
576.0,-0.001642177696339786
640.0,-0.0033495454117655754
704.0,-0.0010349889053031802
768.0,-0.0016893435968086123
832.0,-0.002253604819998145
896.0,-0.0009185353410430253
960.0,-6.220140494406223e-05
1024.0,-0.0010451235575601459
1152.0,-0.0005101044662296772
1280.0,-0.00024885989842005074
1408.0,-0.0012259813956916332
1536.0,-0.00136305030900985
1664.0,-0.002061349805444479
1792.0,0.0005134825478307903
1920.0,0.0029698864091187716
2048.0,0.0021819390822201967
2304.0,0.001148430397734046
2560.0,-0.0007894275477156043
2816.0,-0.0026933124754577875
3072.0,-0.0011026752181351185
3328.0,0.00032646310864947736
3584.0,0.00024014539667405188
3840.0,0.0002902738924603909
4096.0,0.002770607825368643
4608.0,-0.0008822123636491597
5120.0,0.0009840927086770535
5632.0,0.00029770188848488033
6144.0,-0.0007604885031469166
6656.0,-0.0022467682138085365
7168.0,-0.0018448977498337626
7680.0,0.0017411173321306705
8192.0,-7.086713594617322e-05
end
