version,3.0
numOfCh,1
type,point
parent_name,0cd20_0dot6-1dot0
ch_type,1_1
kcount,1
numberNandB,1
brightnessNandB,1
carpet pos,0
pc,0
Time (ms),CH1 Auto-Correlation
1.0,0.04630549997091293
2.0,0.044064316898584366
3.0,0.042083989828825
4.0,0.040357574820518494
5.0,0.038793690502643585
6.0,0.03737379238009453
7.0,0.03607100993394852
8.0,0.034762825816869736
9.0,0.03358171135187149
10.0,0.032468490302562714
11.0,0.0314546562731266
12.0,0.03056485205888748
13.0,0.029740218073129654
14.0,0.02897951751947403
15.0,0.028304236009716988
16.0,0.027637634426355362
18.0,0.026442963629961014
20.0,0.025412727147340775
22.0,0.024335244670510292
24.0,0.02332816645503044
26.0,0.022339705377817154
28.0,0.0214819498360157
30.0,0.020703637972474098
32.0,0.019957954064011574
36.0,0.01853463612496853
40.0,0.01745779812335968
44.0,0.01625540852546692
48.0,0.015051259659230709
52.0,0.014193234965205193
56.0,0.013476988300681114
60.0,0.0129671236500144
64.0,0.012438763864338398
72.0,0.01200591865926981
80.0,0.011532791890203953
88.0,0.010970739647746086
96.0,0.010802091099321842
104.0,0.010426510125398636
112.0,0.010109109804034233
120.0,0.010088305920362473
128.0,0.009899605065584183
144.0,0.0088633568957448
160.0,0.007946200668811798
176.0,0.005965788848698139
192.0,0.0050538466311991215
208.0,0.004771487321704626
224.0,0.004930015187710524
240.0,0.004234750755131245
256.0,0.004488581791520119
288.0,0.0056852190755307674
320.0,0.006426549516618252
352.0,0.0068124509416520596
384.0,0.0067658694460988045
416.0,0.00513408612459898
448.0,0.004034577868878841
480.0,0.003150025149807334
512.0,0.0015869298949837685
576.0,0.0009817045647650957
640.0,0.0016383965266868472
704.0,0.0015888971975073218
768.0,0.001010383479297161
832.0,-1.3398417650023475e-05
896.0,-0.001167760114185512
960.0,0.001394285005517304
1024.0,0.0026100054383277893
1152.0,-0.0005354518070816994
1280.0,-0.0008931960910558701
1408.0,0.001237152493558824
1536.0,0.00032343631028197706
1664.0,-0.0013154426123946905
1792.0,0.0025988181587308645
1920.0,0.004911830183118582
2048.0,0.001260767923668027
2304.0,9.666672849562019e-05
2560.0,-0.0007457506726495922
2816.0,-0.0017320893239229918
3072.0,-0.0016984969843178988
3328.0,-0.0010216510854661465
3584.0,0.0009075280395336449
3840.0,0.0017661245074123144
4096.0,1.9891103875124827e-05
4608.0,-5.499920735019259e-05
5120.0,-0.0038175287190824747
5632.0,0.0004770559025928378
6144.0,-0.002486724406480789
6656.0,-0.003889425890520215
7168.0,-0.0032581931445747614
7680.0,0.00028086002566851676
8192.0,-0.004259596578776836
end
