version,3.0
numOfCh,1
type,point
parent_name,0cd20_0dot6-1dot0
ch_type,1_1
kcount,1
numberNandB,1
brightnessNandB,1
carpet pos,0
pc,0
Time (ms),CH1 Auto-Correlation
1.0,0.045048851519823074
2.0,0.04246792197227478
3.0,0.04036032408475876
4.0,0.03848273307085037
5.0,0.0368121862411499
6.0,0.03520360589027405
7.0,0.03368965908885002
8.0,0.032212093472480774
9.0,0.0309256874024868
10.0,0.029656564816832542
11.0,0.028460053727030754
12.0,0.02737477235496044
13.0,0.02635190449655056
14.0,0.025376711040735245
15.0,0.02449425309896469
16.0,0.023674877360463142
18.0,0.022323694080114365
20.0,0.021021418273448944
22.0,0.019865715876221657
24.0,0.018871530890464783
26.0,0.017930107191205025
28.0,0.017061319202184677
30.0,0.016208212822675705
32.0,0.015410537831485271
36.0,0.014205445535480976
40.0,0.013222851790487766
44.0,0.01206232514232397
48.0,0.010804433375597
52.0,0.009669197723269463
56.0,0.008962336927652359
60.0,0.008507451973855495
64.0,0.007753951475024223
72.0,0.006594004575163126
80.0,0.006137453950941563
88.0,0.005808529444038868
96.0,0.005458267871290445
104.0,0.005282339174300432
112.0,0.004703310783952475
120.0,0.004464013036340475
128.0,0.004399472381919622
144.0,0.004201858304440975
160.0,0.005137705244123936
176.0,0.006194929592311382
192.0,0.005757761187851429
208.0,0.006029366049915552
224.0,0.005893716122955084
240.0,0.006515887100249529
256.0,0.005475828889757395
288.0,0.004114185459911823
320.0,0.004103579558432102
352.0,0.0031135689932852983
384.0,0.0010644731810316443
416.0,0.0012809836771339178
448.0,-0.0006431014626286924
480.0,-0.002026037545874715
512.0,-0.001454847166314721
576.0,-0.00018698096391744912
640.0,-0.0010852235136553645
704.0,-0.00017820751236286014
768.0,0.0004127591091673821
832.0,-0.0017452331958338618
896.0,0.0011586738983169198
960.0,0.004044452216476202
1024.0,0.002915905322879553
1152.0,0.002717896830290556
1280.0,0.001420075073838234
1408.0,0.000298370054224506
1536.0,-0.0001265283062821254
1664.0,-0.00350950681604445
1792.0,-0.0031461548060178757
1920.0,-0.0028405655175447464
2048.0,-0.0009158303728327155
2304.0,-0.0011380473151803017
2560.0,-0.0012374016223475337
2816.0,-0.003271668218076229
3072.0,-0.0020605979952961206
3328.0,-0.0002787757257465273
3584.0,0.0011004421394318342
3840.0,-0.000995334004983306
4096.0,-0.0017528875032439828
4608.0,-0.00016998950741253793
5120.0,0.002890869276598096
5632.0,-0.0009402784635312855
6144.0,-0.0029985203873366117
6656.0,-0.0007567597203887999
7168.0,-0.004158759489655495
7680.0,-0.0013523645466193557
8192.0,0.00045074938680045307
end
