version,3.0
numOfCh,1
type,point
parent_name,0cd20_0dot6-1dot0
ch_type,1_1
kcount,1
numberNandB,1
brightnessNandB,1
carpet pos,0
pc,0
Time (ms),CH1 Auto-Correlation
1.0,0.041245970875024796
2.0,0.03891831636428833
3.0,0.036797959357500076
4.0,0.03475836291909218
5.0,0.03306443616747856
6.0,0.0315224714577198
7.0,0.03013615682721138
8.0,0.028791118413209915
9.0,0.027480455115437508
10.0,0.026283204555511475
11.0,0.025189487263560295
12.0,0.02417544275522232
13.0,0.023308701813220978
14.0,0.022408898919820786
15.0,0.0215977244079113
16.0,0.02078370563685894
18.0,0.019438201561570168
20.0,0.018373288214206696
22.0,0.017357680946588516
24.0,0.016440723091363907
26.0,0.015557031147181988
28.0,0.014952423982322216
30.0,0.014281201176345348
32.0,0.013501867651939392
36.0,0.012093772180378437
40.0,0.010986736975610256
44.0,0.009960904717445374
48.0,0.00913530495017767
52.0,0.008889498189091682
56.0,0.008507629856467247
60.0,0.007889604195952415
64.0,0.007352935150265694
72.0,0.006143457721918821
80.0,0.0061166961677372456
88.0,0.006064892280846834
96.0,0.006001490633934736
104.0,0.0058174110017716885
112.0,0.005820872727781534
120.0,0.006678231526166201
128.0,0.006936265155673027
144.0,0.007221858482807875
160.0,0.006994541268795729
176.0,0.005611888598650694
192.0,0.004027498420327902
208.0,0.002462126547470689
224.0,0.0036825332790613174
240.0,0.0034706792794167995
256.0,0.002902210922911763
288.0,0.0021488459315150976
320.0,0.0016157826175913215
352.0,0.0007668964099138975
384.0,0.0003656251064967364
416.0,-0.0008972407085821033
448.0,0.0004200400726404041
480.0,-0.00046972723794169724
512.0,-0.0017677911091595888
576.0,3.091871622018516e-05
640.0,8.011724276002496e-05
704.0,0.00043183891102671623
768.0,0.0002811048470903188
832.0,0.0002368806308368221
896.0,-0.00011839553917525336
960.0,0.00012926080671604723
1024.0,-0.0007716229883953929
1152.0,-0.0013363749021664262
1280.0,-0.0017862077802419662
1408.0,-0.001198092824779451
1536.0,0.00026989897014573216
1664.0,-0.0017752511193975806
1792.0,0.0016195077914744616
1920.0,-0.00027616918669082224
2048.0,-0.0021116663701832294
2304.0,-0.0023527732118964195
2560.0,-0.0014066675212234259
2816.0,-0.0005959304980933666
3072.0,-0.00018187110254075378
3328.0,0.0016206891741603613
3584.0,-0.00027974523254670203
3840.0,-0.0024426088202744722
4096.0,-0.0012907602358609438
4608.0,0.0031031568069010973
5120.0,0.003402440110221505
5632.0,0.0005271181580610573
6144.0,-0.00209955801256001
6656.0,-0.0034888603258877993
7168.0,-0.0027991330716758966
7680.0,-0.0006292476318776608
8192.0,0.000955834228079766
end
