version,3.0
numOfCh,1
type,point
parent_name,ff67b_10dot0-0dot1
ch_type,1_1
kcount,1
numberNandB,1
brightnessNandB,1
carpet pos,0
pc,0
Time (ms),CH1 Auto-Correlation
1.0,0.035227205604314804
2.0,0.026408443227410316
3.0,0.022129563614726067
4.0,0.01917540468275547
5.0,0.016955014318227768
6.0,0.014791940338909626
7.0,0.012985722161829472
8.0,0.010875196196138859
9.0,0.009717348963022232
10.0,0.00822399090975523
11.0,0.00734101515263319
12.0,0.006587206851691008
13.0,0.005611226428300142
14.0,0.004427117295563221
15.0,0.0033673455473035574
16.0,0.0021212510764598846
18.0,0.0018824769649654627
20.0,0.0015100670279935002
22.0,0.0014324545627459884
24.0,0.0020169306080788374
26.0,0.0016475263983011246
28.0,0.00176168920006603
30.0,0.0018457702826708555
32.0,0.0017260996391996741
36.0,0.001411491772159934
40.0,0.0007134759216569364
44.0,0.000429136969614774
48.0,-4.5764776587020606e-05
52.0,-0.0003462589520495385
56.0,-0.0003889211511705071
60.0,-0.0002539090346544981
64.0,-0.0004799227463081479
72.0,-0.00020837011106777936
80.0,-4.761845775647089e-05
88.0,-0.0005217246944084764
96.0,7.268310582730919e-05
104.0,9.439381392439827e-05
112.0,0.0001490324648329988
120.0,0.0003062275645788759
128.0,0.0001779666927177459
144.0,4.178280505584553e-06
160.0,0.0006162154604680836
176.0,0.0004166577709838748
192.0,-0.00012044657341903076
208.0,-0.00017268455121666193
224.0,-4.649880065699108e-05
240.0,0.0004617141967173666
256.0,0.00035522901453077793
288.0,0.0002680653124116361
320.0,0.0002993351954501122
352.0,0.0003971690603066236
384.0,-0.0005570180946961045
416.0,-0.000727756938431412
448.0,-0.0002500594418961555
480.0,0.00018031707440968603
512.0,0.0006356734083965421
576.0,0.0003907650534529239
640.0,5.4165400797501206e-05
704.0,0.0003650659346021712
768.0,-7.427867967635393e-05
832.0,0.0002550184726715088
896.0,0.00015632690337952226
960.0,1.67047037393786e-05
1024.0,1.7866474081529304e-05
1152.0,-0.00011792141594924033
1280.0,-0.00014172990631777793
1408.0,0.0001722377201076597
1536.0,5.255258656688966e-05
1664.0,-6.0831702285213396e-05
1792.0,-9.751925972523168e-06
1920.0,-0.00020945444703102112
2048.0,0.0002527175238355994
2304.0,4.830083707929589e-05
2560.0,-9.306279389420524e-05
2816.0,2.224311356258113e-05
3072.0,0.00018965695926453918
3328.0,-1.4245162674342282e-05
3584.0,3.848774213111028e-05
3840.0,0.0002671887632459402
4096.0,0.00011714577703969553
4608.0,-5.979447814752348e-05
5120.0,-0.00017086869047489017
5632.0,-0.00022261500998865813
6144.0,0.00028886328800581396
6656.0,5.5459109717048705e-05
7168.0,-2.0029490769957192e-05
7680.0,5.881478955416242e-06
8192.0,-0.00011264830391155556
end
