version,3.0
numOfCh,1
type,point
parent_name,ff67b_10dot0-0dot1
ch_type,1_1
kcount,1
numberNandB,1
brightnessNandB,1
carpet pos,0
pc,0
Time (ms),CH1 Auto-Correlation
1.0,0.031857360154390335
2.0,0.02485724166035652
3.0,0.021018976345658302
4.0,0.018516844138503075
5.0,0.01656108722090721
6.0,0.01531427912414074
7.0,0.01478691678494215
8.0,0.014042305760085583
9.0,0.01331910490989685
10.0,0.012950371950864792
11.0,0.012600265443325043
12.0,0.011692640371620655
13.0,0.011193637736141682
14.0,0.01039720606058836
15.0,0.010244099423289299
16.0,0.009629945270717144
18.0,0.009762557223439217
20.0,0.009757528081536293
22.0,0.009443574585020542
24.0,0.009387439116835594
26.0,0.008759886957705021
28.0,0.007942816242575645
30.0,0.0070068007335066795
32.0,0.00625991728156805
36.0,0.0055025420151650906
40.0,0.00498378649353981
44.0,0.004286927171051502
48.0,0.0037839387077838182
52.0,0.0036064451560378075
56.0,0.003486418630927801
60.0,0.003621600102633238
64.0,0.0031771280337125063
72.0,0.002609005430713296
80.0,0.0021051333751529455
88.0,0.0018012525979429483
96.0,0.0013927184045314789
104.0,0.0013325678883120418
112.0,0.0013329334324225783
120.0,0.001217611483298242
128.0,0.001915117958560586
144.0,0.0015219368506222963
160.0,0.0003163360815960914
176.0,0.0005257177981548011
192.0,0.000685625767800957
208.0,0.0005505505250766873
224.0,0.00038517831126227975
240.0,0.0008139533456414938
256.0,0.0013130363076925278
288.0,0.00048087595496326685
320.0,0.0003741492982953787
352.0,5.75058875256218e-05
384.0,-0.0006529140518978238
416.0,-8.685432840138674e-05
448.0,-0.00022823570179753006
480.0,-0.00033380085369572043
512.0,-0.0010278215631842613
576.0,-0.000373951654182747
640.0,-0.000271070544840768
704.0,0.00045950262574478984
768.0,2.1596370061160997e-05
832.0,-0.000924138817936182
896.0,-0.0006790358456782997
960.0,-0.0006518279551528394
1024.0,-0.000958532327786088
1152.0,-7.681249553570524e-05
1280.0,8.76469784998335e-05
1408.0,0.0005881913239136338
1536.0,-0.0005232237745076418
1664.0,-3.151518103550188e-05
1792.0,-0.000484888645587489
1920.0,-0.00042784641846083105
2048.0,-0.000581576838158071
2304.0,0.00019845405768137425
2560.0,0.0009622692596167326
2816.0,0.0005507325986400247
3072.0,0.00011596084368648008
3328.0,-0.00019462581258267164
3584.0,-0.00016501070058438927
3840.0,0.0006128150853328407
4096.0,4.305557376937941e-05
4608.0,-0.0006280583911575377
5120.0,0.0001082103990484029
5632.0,0.00028626207495108247
6144.0,0.00029777726740576327
6656.0,-0.000546497292816639
7168.0,-0.001053564832545817
7680.0,-0.000270721095148474
8192.0,0.0006259641377255321
end
