version,3.0
numOfCh,1
type,point
parent_name,34a6d_0dot2-0dot01
ch_type,1_1
kcount,1
numberNandB,1
brightnessNandB,1
carpet pos,0
pc,0
Time (ms),CH1 Auto-Correlation
1.0,0.06261920928955078
2.0,0.061917323619127274
3.0,0.06124619394540787
4.0,0.06061051785945892
5.0,0.05995447188615799
6.0,0.05931860953569412
7.0,0.058709315955638885
8.0,0.05811489373445511
9.0,0.05752336233854294
10.0,0.05695105716586113
11.0,0.05638783797621727
12.0,0.05584481358528137
13.0,0.05531507357954979
14.0,0.05482669547200203
15.0,0.054339099675416946
16.0,0.0538790263235569
18.0,0.05298721790313721
20.0,0.05216445401310921
22.0,0.05137866362929344
24.0,0.050605010241270065
26.0,0.04981708899140358
28.0,0.04905831813812256
30.0,0.04834839701652527
32.0,0.04766540974378586
36.0,0.046562038362026215
40.0,0.0455305315554142
44.0,0.04450759291648865
48.0,0.04348914697766304
52.0,0.042425986379384995
56.0,0.04136935621500015
60.0,0.04033860191702843
64.0,0.03929947316646576
72.0,0.037351179867982864
80.0,0.03583348169922829
88.0,0.034998852759599686
96.0,0.034457799047231674
104.0,0.033925093710422516
112.0,0.033299773931503296
120.0,0.032800015062093735
128.0,0.03205813094973564
144.0,0.029895436018705368
160.0,0.027748020365834236
176.0,0.025565728545188904
192.0,0.02387637086212635
208.0,0.022433334961533546
224.0,0.02137460932135582
240.0,0.01991102658212185
256.0,0.01842665486037731
288.0,0.014976178295910358
320.0,0.0115402452647686
352.0,0.01051512360572815
384.0,0.011389766819775105
416.0,0.011946000158786774
448.0,0.010687081143260002
480.0,0.009814546443521976
512.0,0.009717486798763275
576.0,0.008680435828864574
640.0,0.0070128305815160275
704.0,0.004008044954389334
768.0,0.002267609117552638
832.0,-0.00037668031291104853
896.0,-0.002996731549501419
960.0,-0.004409091547131538
1024.0,-0.004604717716574669
1152.0,-0.004440130665898323
1280.0,-0.002674860879778862
1408.0,-0.0041675567626953125
1536.0,-0.010745788924396038
1664.0,-0.017153434455394745
1792.0,-0.012807818129658699
1920.0,-0.007448065560311079
2048.0,-0.005143945105373859
2304.0,-0.0063542029820382595
2560.0,-0.0026523007545620203
2816.0,-2.160749318136368e-05
3072.0,0.002304574241861701
3328.0,0.003862128360196948
3584.0,-0.005677438341081142
3840.0,-0.013459496200084686
4096.0,-0.008355759084224701
4608.0,-0.010060815140604973
5120.0,-0.013031426817178726
5632.0,0.0044389949180185795
6144.0,0.004672993905842304
6656.0,0.0058579035103321075
7168.0,0.019305184483528137
7680.0,0.020651500672101974
8192.0,0.005709522403776646
end
