version,3.0
numOfCh,1
type,point
parent_name,34a6d_0dot2-0dot01
ch_type,1_1
kcount,1
numberNandB,1
brightnessNandB,1
carpet pos,0
pc,0
Time (ms),CH1 Auto-Correlation
1.0,0.0341469943523407
2.0,0.03356163203716278
3.0,0.03299959748983383
4.0,0.03245563805103302
5.0,0.031948454678058624
6.0,0.03145447000861168
7.0,0.030996765941381454
8.0,0.03056173399090767
9.0,0.03014500066637993
10.0,0.0297520961612463
11.0,0.029371052980422974
12.0,0.02900591306388378
13.0,0.028652507811784744
14.0,0.028310395777225494
15.0,0.027986977249383926
16.0,0.02767271362245083
18.0,0.027037786319851875
20.0,0.026426568627357483
22.0,0.025848388671875
24.0,0.02529599331319332
26.0,0.02477252297103405
28.0,0.024284107610583305
30.0,0.023841409012675285
32.0,0.02341560460627079
36.0,0.022622399032115936
40.0,0.02193732187151909
44.0,0.021358825266361237
48.0,0.020757246762514114
52.0,0.020144758746027946
56.0,0.019634492695331573
60.0,0.019164646044373512
64.0,0.018693111836910248
72.0,0.017774758860468864
80.0,0.016759393736720085
88.0,0.01572488807141781
96.0,0.014823425561189651
104.0,0.014130115509033203
112.0,0.013467296957969666
120.0,0.012648346833884716
128.0,0.011866170912981033
144.0,0.010882948525249958
160.0,0.010317155160009861
176.0,0.010016023181378841
192.0,0.009654108434915543
208.0,0.0091635100543499
224.0,0.00852557085454464
240.0,0.008092580363154411
256.0,0.00779971806332469
288.0,0.007217586040496826
320.0,0.005565374158322811
352.0,0.004674194380640984
384.0,0.0046123238280415535
416.0,0.004498549737036228
448.0,0.004148218780755997
480.0,0.004697290249168873
512.0,0.004843542352318764
576.0,0.005105284508317709
640.0,0.00532404612749815
704.0,0.004906812682747841
768.0,0.005076009780168533
832.0,0.005765522364526987
896.0,0.006352170370519161
960.0,0.004284773953258991
1024.0,0.003595047863200307
1152.0,0.001878353301435709
1280.0,-0.0001098246211768128
1408.0,0.0003640646464191377
1536.0,0.002725562546402216
1664.0,0.005236674565821886
1792.0,0.005550018046051264
1920.0,0.004566869232803583
2048.0,0.002582595916464925
2304.0,0.0025261281989514828
2560.0,0.004081287886947393
2816.0,0.005641454830765724
3072.0,0.0029381311032921076
3328.0,0.0002436581562506035
3584.0,0.0025063843932002783
3840.0,0.0015799886314198375
4096.0,-0.002982201287522912
4608.0,0.000298394967103377
5120.0,-0.0033740894868969917
5632.0,0.00024709556601010263
6144.0,-0.002167168539017439
6656.0,-0.00421054195612669
7168.0,-0.0011136088287457824
7680.0,-0.0018468202324584126
8192.0,-0.0007981149828992784
end
