version,3.0
numOfCh,1
type,point
parent_name,34a6d_0dot2-0dot01
ch_type,1_1
kcount,1
numberNandB,1
brightnessNandB,1
carpet pos,0
pc,0
Time (ms),CH1 Auto-Correlation
1.0,0.03521569445729256
2.0,0.03463670611381531
3.0,0.03407329320907593
4.0,0.03353379666805267
5.0,0.033023957163095474
6.0,0.0325448177754879
7.0,0.03207479044795036
8.0,0.03160252794623375
9.0,0.031131738796830177
10.0,0.0306780356913805
11.0,0.030255155637860298
12.0,0.029844507575035095
13.0,0.029428109526634216
14.0,0.029012123122811317
15.0,0.02860257402062416
16.0,0.028218045830726624
18.0,0.02747001126408577
20.0,0.02677963674068451
22.0,0.026157628744840622
24.0,0.025578491389751434
26.0,0.025015439838171005
28.0,0.024475809186697006
30.0,0.023954428732395172
32.0,0.023457476869225502
36.0,0.02257031574845314
40.0,0.02179381623864174
44.0,0.02113332785665989
48.0,0.020674172788858414
52.0,0.02036317251622677
56.0,0.020088816061615944
60.0,0.019799983128905296
64.0,0.0195429939776659
72.0,0.018929651007056236
80.0,0.01828654296696186
88.0,0.0173635333776474
96.0,0.01626150868833065
104.0,0.01524254772812128
112.0,0.014674973674118519
120.0,0.014319879934191704
128.0,0.013936549425125122
144.0,0.01324260514229536
160.0,0.012760850600898266
176.0,0.012228359468281269
192.0,0.012008320540189743
208.0,0.011244510300457478
224.0,0.01041845977306366
240.0,0.00998917780816555
256.0,0.00996933039277792
288.0,0.008369121700525284
320.0,0.00714984443038702
352.0,0.005331655032932758
384.0,0.003399465000256896
416.0,0.0014405586989596486
448.0,0.0012949181254953146
480.0,0.001270288834348321
512.0,0.0011185243492946029
576.0,0.00139545276761055
640.0,0.0014721631305292249
704.0,8.27814219519496e-05
768.0,3.3778131182771176e-05
832.0,0.0015859872801229358
896.0,0.0011360493954271078
960.0,0.0002839622611645609
1024.0,0.00011879222438437864
1152.0,0.0027207459788769484
1280.0,0.0048257047310471535
1408.0,0.005440363194793463
1536.0,0.004594063851982355
1664.0,0.0021323913242667913
1792.0,0.0025732244830578566
1920.0,0.0015071436064317822
2048.0,0.0024031393695622683
2304.0,0.0027434946969151497
2560.0,0.00017042776744347066
2816.0,0.0033006626181304455
3072.0,0.00230556633323431
3328.0,-0.0012933010002598166
3584.0,0.00025641676620580256
3840.0,-0.0024909749627113342
4096.0,-0.001893797772936523
4608.0,-0.007682386785745621
5120.0,-0.0049080802127718925
5632.0,-0.0030859948601573706
6144.0,-0.004354270175099373
6656.0,-0.004638575948774815
7168.0,-0.004031950142234564
7680.0,-0.007634786423295736
8192.0,-0.0028307761531323195
end
