version,3.0
numOfCh,1
type,point
parent_name,34a6d_0dot2-0dot01
ch_type,1_1
kcount,1
numberNandB,1
brightnessNandB,1
carpet pos,0
pc,0
Time (ms),CH1 Auto-Correlation
1.0,0.032242678105831146
2.0,0.03155846148729324
3.0,0.030889540910720825
4.0,0.030252601951360703
5.0,0.029658187180757523
6.0,0.029087044298648834
7.0,0.028519680723547935
8.0,0.027956930920481682
9.0,0.027402672916650772
10.0,0.026878366246819496
11.0,0.026377316564321518
12.0,0.02597232349216938
13.0,0.025588830932974815
14.0,0.025219494476914406
15.0,0.024872248992323875
16.0,0.024530552327632904
18.0,0.023872248828411102
20.0,0.023180125281214714
22.0,0.022514712065458298
24.0,0.021879930049180984
26.0,0.02126484364271164
28.0,0.02060815878212452
30.0,0.020011717453598976
32.0,0.01944153755903244
36.0,0.018418671563267708
40.0,0.01747850701212883
44.0,0.016706297174096107
48.0,0.016000578179955482
52.0,0.015320483595132828
56.0,0.014621308073401451
60.0,0.014003265649080276
64.0,0.013450792990624905
72.0,0.012380309402942657
80.0,0.011296598240733147
88.0,0.010413482785224915
96.0,0.009717329405248165
104.0,0.00916251540184021
112.0,0.008716470561921597
120.0,0.008154320530593395
128.0,0.00755181023851037
144.0,0.006609505508095026
160.0,0.005965369753539562
176.0,0.00544869527220726
192.0,0.00475120497867465
208.0,0.004084624815732241
224.0,0.003759403945878148
240.0,0.0033076168037950993
256.0,0.0028143757954239845
288.0,0.0025890348479151726
320.0,0.0026052205357700586
352.0,0.0028704293072223663
384.0,0.003947352059185505
416.0,0.004121294245123863
448.0,0.0027858936227858067
480.0,0.001436667051166296
512.0,3.63895196642261e-05
576.0,-0.0020741859916597605
640.0,-0.0023152607027441263
704.0,-0.0013935576425865293
768.0,0.00023079868697095662
832.0,0.0009281876846216619
896.0,-0.0007977313362061977
960.0,-0.001830227323807776
1024.0,-0.002351487521082163
1152.0,0.000745012890547514
1280.0,-0.00026743533089756966
1408.0,-0.001737331855110824
1536.0,0.0001681208668742329
1664.0,-0.0007151110330596566
1792.0,-0.002103452105075121
1920.0,-0.001618479611352086
2048.0,-0.0011137117398902774
2304.0,-0.0011835664045065641
2560.0,-0.004696302581578493
2816.0,-0.0001526098494650796
3072.0,0.0007453017169609666
3328.0,0.0005577883566729724
3584.0,0.000613848736975342
3840.0,0.0012803834397345781
4096.0,-0.001664884272031486
4608.0,-0.004218264948576689
5120.0,0.0005503974971361458
5632.0,1.3943900739832316e-05
6144.0,-0.002040049759671092
6656.0,-0.0004431821289472282
7168.0,0.003492213087156415
7680.0,-0.00043345289304852486
8192.0,0.003596703754737973
end
