version,3.0
numOfCh,1
type,point
parent_name,34a6d_0dot2-0dot01
ch_type,1_1
kcount,1
numberNandB,1
brightnessNandB,1
carpet pos,0
pc,0
Time (ms),CH1 Auto-Correlation
1.0,0.03328734263777733
2.0,0.032660990953445435
3.0,0.03208358585834503
4.0,0.031512074172496796
5.0,0.030944526195526123
6.0,0.03038857690989971
7.0,0.02985178306698799
8.0,0.029340527951717377
9.0,0.028847450390458107
10.0,0.0283859483897686
11.0,0.027948206290602684
12.0,0.027544060721993446
13.0,0.02716059610247612
14.0,0.02680078148841858
15.0,0.026459524407982826
16.0,0.02613597735762596
18.0,0.025516564026474953
20.0,0.024932747706770897
22.0,0.02436787635087967
24.0,0.02375633642077446
26.0,0.023181991651654243
28.0,0.02265191450715065
30.0,0.02215096727013588
32.0,0.02165941521525383
36.0,0.02080877311527729
40.0,0.02009100280702114
44.0,0.019424334168434143
48.0,0.018831364810466766
52.0,0.018213098868727684
56.0,0.017579201608896255
60.0,0.017050113528966904
64.0,0.016568567603826523
72.0,0.015784073621034622
80.0,0.015189346857368946
88.0,0.014607807621359825
96.0,0.013932625763118267
104.0,0.01328025572001934
112.0,0.012708069756627083
120.0,0.012434340082108974
128.0,0.012391607277095318
144.0,0.012492632493376732
160.0,0.012035835534334183
176.0,0.011784703470766544
192.0,0.011288774199783802
208.0,0.011037848889827728
224.0,0.010841061361134052
240.0,0.010308204218745232
256.0,0.010186463594436646
288.0,0.009383799508213997
320.0,0.008854789659380913
352.0,0.00794496200978756
384.0,0.006850089877843857
416.0,0.006359881721436977
448.0,0.006676080171018839
480.0,0.0070059956051409245
512.0,0.00585749140009284
576.0,0.003932375926524401
640.0,0.004338165279477835
704.0,0.0044523440301418304
768.0,0.004060711711645126
832.0,0.003954377491027117
896.0,0.0029760536272078753
960.0,0.0024274333845824003
1024.0,0.0013852360425516963
1152.0,-0.0009203930967487395
1280.0,-0.002374822972342372
1408.0,-0.0018242248333990574
1536.0,-0.0014814890455454588
1664.0,-0.002715756418183446
1792.0,-0.004624548833817244
1920.0,-0.005573481321334839
2048.0,-0.005739782936871052
2304.0,-0.005871512461453676
2560.0,-0.004373830743134022
2816.0,-0.002842574380338192
3072.0,-0.0022203640546649694
3328.0,-0.000460101175121963
3584.0,0.001986254472285509
3840.0,0.002898842329159379
4096.0,0.002151785884052515
4608.0,0.0012534260749816895
5120.0,-0.0016454950673505664
5632.0,-0.001801291829906404
6144.0,-0.002576676430180669
6656.0,-0.00022713493672199547
7168.0,-0.003112320089712739
7680.0,-0.0037015541456639767
8192.0,0.0023057737853378057
end
