version,3.0
numOfCh,1
type,point
parent_name,34a6d_0dot2-0dot01
ch_type,1_1
kcount,1
numberNandB,1
brightnessNandB,1
carpet pos,0
pc,0
Time (ms),CH1 Auto-Correlation
1.0,0.03447558358311653
2.0,0.033895447850227356
3.0,0.033327966928482056
4.0,0.03276993706822395
5.0,0.032221969217061996
6.0,0.03167840838432312
7.0,0.03116000071167946
8.0,0.030668150633573532
9.0,0.03018396906554699
10.0,0.029701290652155876
11.0,0.02925247885286808
12.0,0.028814302757382393
13.0,0.028393249958753586
14.0,0.027964476495981216
15.0,0.0275720302015543
16.0,0.02717553824186325
18.0,0.026402698829770088
20.0,0.025673121213912964
22.0,0.02495834231376648
24.0,0.02427407167851925
26.0,0.023633910343050957
28.0,0.02306024730205536
30.0,0.02253929153084755
32.0,0.022051377221941948
36.0,0.021083733066916466
40.0,0.020110296085476875
44.0,0.01921139657497406
48.0,0.018427766859531403
52.0,0.017748069018125534
56.0,0.017199579626321793
60.0,0.0168000515550375
64.0,0.016413114964962006
72.0,0.015585078857839108
80.0,0.014879136346280575
88.0,0.014177648350596428
96.0,0.013517334125936031
104.0,0.013019801117479801
112.0,0.012365528382360935
120.0,0.011695265769958496
128.0,0.0111625287681818
144.0,0.010689093731343746
160.0,0.010390564799308777
176.0,0.010013721883296967
192.0,0.009366379119455814
208.0,0.008552806451916695
224.0,0.007964509539306164
240.0,0.007048807572573423
256.0,0.005627344362437725
288.0,0.003568491665646434
320.0,0.0016940905479714274
352.0,0.0007923654629848897
384.0,0.0010662461863830686
416.0,0.002033628523349762
448.0,0.0028808230999857187
480.0,0.004006986040621996
512.0,0.0044677103869616985
576.0,0.0063130841590464115
640.0,0.007022108882665634
704.0,0.00841473788022995
768.0,0.008882137946784496
832.0,0.007155660539865494
896.0,0.005144711118191481
960.0,0.001106629497371614
1024.0,-0.0004430938861332834
1152.0,-0.000770041486248374
1280.0,0.002304049441590905
1408.0,0.005863712634891272
1536.0,0.006076847668737173
1664.0,0.002474920591339469
1792.0,-0.001397221232764423
1920.0,-0.00288868579082191
2048.0,0.0008125792373903096
2304.0,0.000888199545443058
2560.0,-0.0005834231851622462
2816.0,-0.0010248750913888216
3072.0,0.00019414868438616395
3328.0,-0.0013452472630888224
3584.0,-0.0008701835758984089
3840.0,0.0011781787034124136
4096.0,-0.001171145006082952
4608.0,-0.003731121774762869
5120.0,-0.003928654827177525
5632.0,-0.004117805976420641
6144.0,-0.003075266722589731
6656.0,-0.0014793521258980036
7168.0,0.001118105836212635
7680.0,-0.001103573595173657
8192.0,-0.003075421554967761
end
