version,3.0
numOfCh,1
type,point
parent_name,34a6d_0dot2-0dot01
ch_type,1_1
kcount,1
numberNandB,1
brightnessNandB,1
carpet pos,0
pc,0
Time (ms),CH1 Auto-Correlation
1.0,0.041533127427101135
2.0,0.040918223559856415
3.0,0.040327005088329315
4.0,0.03977129980921745
5.0,0.03923998773097992
6.0,0.0387132465839386
7.0,0.03822089731693268
8.0,0.037746790796518326
9.0,0.03726830706000328
10.0,0.03681337833404541
11.0,0.03635791689157486
12.0,0.03590526059269905
13.0,0.0354527048766613
14.0,0.03499455749988556
15.0,0.03456586226820946
16.0,0.034154199063777924
18.0,0.03335373476147652
20.0,0.03255738690495491
22.0,0.03178733214735985
24.0,0.031084055081009865
26.0,0.030425041913986206
28.0,0.029810527339577675
30.0,0.029188819229602814
32.0,0.02857205457985401
36.0,0.027527356520295143
40.0,0.026525337249040604
44.0,0.02561929263174534
48.0,0.0248163603246212
52.0,0.024072380736470222
56.0,0.02340967208147049
60.0,0.022734757512807846
64.0,0.02210276760160923
72.0,0.021074235439300537
80.0,0.020255833864212036
88.0,0.01951090432703495
96.0,0.018978239968419075
104.0,0.018565349280834198
112.0,0.01818086765706539
120.0,0.017834221944212914
128.0,0.01733851432800293
144.0,0.015827324241399765
160.0,0.014531867578625679
176.0,0.013435293920338154
192.0,0.012825245037674904
208.0,0.012318436056375504
224.0,0.011866230517625809
240.0,0.011497501283884048
256.0,0.010643265210092068
288.0,0.008750063367187977
320.0,0.007008073851466179
352.0,0.005342020653188229
384.0,0.004430556204169989
416.0,0.003963697236031294
448.0,0.002645091852173209
480.0,0.0004965998232364655
512.0,-0.0014616978587582707
576.0,-0.0038909160066396
640.0,-0.005004396662116051
704.0,-0.00555827422067523
768.0,-0.006023374851793051
832.0,-0.006270617246627808
896.0,-0.007444828748703003
960.0,-0.007069044280797243
1024.0,-0.007545270957052708
1152.0,-0.005565428175032139
1280.0,-0.004847904201596975
1408.0,-0.004286023788154125
1536.0,-0.0037035986315459013
1664.0,-0.003613456152379513
1792.0,-0.0016892373096197844
1920.0,0.0011519097024574876
2048.0,0.0020025880075991154
2304.0,0.004971652757376432
2560.0,0.005495334509760141
2816.0,0.0032570408657193184
3072.0,0.0010081978980451822
3328.0,-0.004036132711917162
3584.0,-0.009362379088997841
3840.0,-0.008772611618041992
4096.0,0.0008545678574591875
4608.0,0.0015824316069483757
5120.0,0.003959076013416052
5632.0,-0.001124385860748589
6144.0,-0.007428876124322414
6656.0,-0.0023095880169421434
7168.0,0.005444156005978584
7680.0,8.184726175386459e-05
8192.0,-0.004520725924521685
end
