version,3.0
numOfCh,1
type,point
parent_name,34a6d_0dot2-0dot01
ch_type,1_1
kcount,1
numberNandB,1
brightnessNandB,1
carpet pos,0
pc,0
Time (ms),CH1 Auto-Correlation
1.0,0.03379286453127861
2.0,0.03317690268158913
3.0,0.03259139135479927
4.0,0.03204698488116264
5.0,0.0315292626619339
6.0,0.031042814254760742
7.0,0.030577335506677628
8.0,0.030116988345980644
9.0,0.029680898413062096
10.0,0.029264403507113457
11.0,0.02884967066347599
12.0,0.028473323211073875
13.0,0.028094438835978508
14.0,0.02772929146885872
15.0,0.02736649475991726
16.0,0.02704186923801899
18.0,0.02642618678510189
20.0,0.025774093344807625
22.0,0.025134660303592682
24.0,0.02452114038169384
26.0,0.02392984740436077
28.0,0.023363441228866577
30.0,0.02286079339683056
32.0,0.022401396185159683
36.0,0.021458974108099937
40.0,0.020583653822541237
44.0,0.019770989194512367
48.0,0.019136982038617134
52.0,0.018455807119607925
56.0,0.017722779884934425
60.0,0.016985515132546425
64.0,0.016376737505197525
72.0,0.01539120078086853
80.0,0.014641198329627514
88.0,0.014012930914759636
96.0,0.013438909314572811
104.0,0.012923210859298706
112.0,0.012199529446661472
120.0,0.011497067287564278
128.0,0.010782773606479168
144.0,0.009646201506257057
160.0,0.008937053382396698
176.0,0.008301077410578728
192.0,0.007965638302266598
208.0,0.00744240079075098
224.0,0.006426383275538683
240.0,0.0049185012467205524
256.0,0.0033151088282465935
288.0,0.0012499736621975899
320.0,0.0004983613616786897
352.0,0.00027043104637414217
384.0,0.0003060168819501996
416.0,0.000585144676733762
448.0,0.0014456305652856827
480.0,0.0013067382387816906
512.0,0.00010690378985600546
576.0,0.0016783432802185416
640.0,0.003356494940817356
704.0,0.0044530536979436874
768.0,0.004329570569097996
832.0,0.005517469719052315
896.0,0.006840710993856192
960.0,0.004461002070456743
1024.0,0.0019938445184379816
1152.0,0.0003973749990109354
1280.0,-0.0001358364534098655
1408.0,1.1589614587137476e-05
1536.0,0.0002477092784829438
1664.0,0.0002863024710677564
1792.0,-0.000783815688919276
1920.0,-0.003968146163970232
2048.0,-0.0065011330880224705
2304.0,0.0006559885223396122
2560.0,-0.0019805836491286755
2816.0,-0.00714199198409915
3072.0,-0.0012981400359421968
3328.0,-0.0013761100126430392
3584.0,-0.003326993202790618
3840.0,-0.002968485001474619
4096.0,-0.0012879465939477086
4608.0,-0.004356092307716608
5120.0,-0.0017602660227566957
5632.0,0.0017764370422810316
6144.0,0.0005695194704458117
6656.0,0.010974541306495667
7168.0,0.0008744935621507466
7680.0,-0.0005956274108029902
8192.0,-0.007094087544828653
end
