version,3.0
numOfCh,1
type,point
parent_name,34a6d_0dot2-0dot01
ch_type,1_1
kcount,1
numberNandB,1
brightnessNandB,1
carpet pos,0
pc,0
Time (ms),CH1 Auto-Correlation
1.0,0.05537845939397812
2.0,0.05478246882557869
3.0,0.054221101105213165
4.0,0.053692519664764404
5.0,0.05318590998649597
6.0,0.052683185786008835
7.0,0.05218680575489998
8.0,0.05167803168296814
9.0,0.05118593946099281
10.0,0.050721630454063416
11.0,0.05028859153389931
12.0,0.04988116770982742
13.0,0.04947780445218086
14.0,0.049082089215517044
15.0,0.04870001599192619
16.0,0.04832267016172409
18.0,0.04755765572190285
20.0,0.046806249767541885
22.0,0.046093251556158066
24.0,0.04539855942130089
26.0,0.044774193316698074
28.0,0.04420999437570572
30.0,0.043736595660448074
32.0,0.043284643441438675
36.0,0.04237264022231102
40.0,0.041485801339149475
44.0,0.04065234586596489
48.0,0.03983539342880249
52.0,0.03912786766886711
56.0,0.03850053623318672
60.0,0.037942931056022644
64.0,0.03737477958202362
72.0,0.0361623577773571
80.0,0.03511843830347061
88.0,0.03446068614721298
96.0,0.03395473584532738
104.0,0.03355898708105087
112.0,0.03307449072599411
120.0,0.032610438764095306
128.0,0.03220584616065025
144.0,0.030781131237745285
160.0,0.029434334486722946
176.0,0.028327450156211853
192.0,0.027917202562093735
208.0,0.027062874287366867
224.0,0.026106547564268112
240.0,0.025585096329450607
256.0,0.02508171834051609
288.0,0.024439161643385887
320.0,0.024344757199287415
352.0,0.023471113294363022
384.0,0.0236402228474617
416.0,0.0233287513256073
448.0,0.022175922989845276
480.0,0.020620474591851234
512.0,0.020767919719219208
576.0,0.018333662301301956
640.0,0.016219278797507286
704.0,0.015227183699607849
768.0,0.014622768387198448
832.0,0.014808113686740398
896.0,0.012571007944643497
960.0,0.011659852229058743
1024.0,0.010678539052605629
1152.0,0.0067890784703195095
1280.0,0.004416223149746656
1408.0,0.0030632526613771915
1536.0,0.0004906389513053
1664.0,-0.003268573200330138
1792.0,-0.007444303948432207
1920.0,-0.005039750598371029
2048.0,-0.005165288224816322
2304.0,-0.009288730099797249
2560.0,-0.007498869672417641
2816.0,-0.0025303345173597336
3072.0,-0.0037216979544609785
3328.0,-0.006097625475376844
3584.0,-0.005062241572886705
3840.0,-0.0066396514885127544
4096.0,-0.009062303230166435
4608.0,-0.013463814742863178
5120.0,-0.02170105278491974
5632.0,-0.015247991308569908
6144.0,-0.00904624443501234
6656.0,6.737033254466951e-05
7168.0,0.0037976677995175123
7680.0,0.0040133860893547535
8192.0,-0.0006133249262347817
end
