version,3.0
numOfCh,1
type,point
parent_name,34a6d_0dot2-0dot01
ch_type,1_1
kcount,1
numberNandB,1
brightnessNandB,1
carpet pos,0
pc,0
Time (ms),CH1 Auto-Correlation
1.0,0.05516810342669487
2.0,0.054428961127996445
3.0,0.05369829386472702
4.0,0.052978623658418655
5.0,0.052252817898988724
6.0,0.05158393830060959
7.0,0.050920676440000534
8.0,0.05028228461742401
9.0,0.04964945837855339
10.0,0.049035921692848206
11.0,0.04845798388123512
12.0,0.04790316894650459
13.0,0.04736980050802231
14.0,0.04686009883880615
15.0,0.04636571556329727
16.0,0.04586629569530487
18.0,0.04488431662321091
20.0,0.043881017714738846
22.0,0.04291081801056862
24.0,0.04202919825911522
26.0,0.041193798184394836
28.0,0.040340617299079895
30.0,0.03946194797754288
32.0,0.03861580789089203
36.0,0.03679139167070389
40.0,0.03474115580320358
44.0,0.03277244418859482
48.0,0.0309334397315979
52.0,0.029134739190340042
56.0,0.0271976999938488
60.0,0.025334421545267105
64.0,0.023817047476768494
72.0,0.021273979917168617
80.0,0.01897384226322174
88.0,0.01693529635667801
96.0,0.015357298776507378
104.0,0.01488526351749897
112.0,0.014870150946080685
120.0,0.014884375967085361
128.0,0.014731088653206825
144.0,0.014340418390929699
160.0,0.013812659308314323
176.0,0.012257927097380161
192.0,0.010239006020128727
208.0,0.00853793416172266
224.0,0.00797764677554369
240.0,0.008676883764564991
256.0,0.009580579586327076
288.0,0.011806556954979897
320.0,0.010794324800372124
352.0,0.009093220345675945
384.0,0.006139527540653944
416.0,0.003235801123082638
448.0,0.0013345852494239807
480.0,-0.0010249471524730325
512.0,-0.0035361340269446373
576.0,-0.004192110151052475
640.0,-0.0025236194487661123
704.0,-0.00606961827725172
768.0,-0.00841519981622696
832.0,-0.006739869713783264
896.0,-0.0035045226104557514
960.0,-0.0009962825570255518
1024.0,0.00022355871624313295
1152.0,0.004705849569290876
1280.0,0.00747010949999094
1408.0,0.004938551690429449
1536.0,-0.003315350040793419
1664.0,-0.002843784634023905
1792.0,-0.002219291403889656
1920.0,-0.0036429015453904867
2048.0,-0.002648900495842099
2304.0,0.007593276910483837
2560.0,0.008655891753733158
2816.0,-0.00035094289341941476
3072.0,-0.00270739383995533
3328.0,-0.001245203078724444
3584.0,0.001801373902708292
3840.0,-0.003256717463955283
4096.0,-0.0031397375278174877
4608.0,0.00025061381165869534
5120.0,-0.004823524039238691
5632.0,-0.0016195910284295678
6144.0,-0.004609884228557348
6656.0,-0.001108813565224409
7168.0,0.0016514131566509604
7680.0,-0.018154051154851913
8192.0,0.0026249364018440247
end
