version,3.0
numOfCh,1
type,point
parent_name,34a6d_0dot2-0dot01
ch_type,1_1
kcount,1
numberNandB,1
brightnessNandB,1
carpet pos,0
pc,0
Time (ms),CH1 Auto-Correlation
1.0,0.028467003256082535
2.0,0.02791384607553482
3.0,0.02738933265209198
4.0,0.02688325196504593
5.0,0.026385517790913582
6.0,0.025892646983265877
7.0,0.025411082431674004
8.0,0.024945169687271118
9.0,0.02448730729520321
10.0,0.024042489007115364
11.0,0.02360760048031807
12.0,0.023198479786515236
13.0,0.02281334064900875
14.0,0.02243722230195999
15.0,0.022062154486775398
16.0,0.021687589585781097
18.0,0.020966771990060806
20.0,0.02029121108353138
22.0,0.019666070118546486
24.0,0.019108878448605537
26.0,0.018555788323283195
28.0,0.017995625734329224
30.0,0.017477763816714287
32.0,0.016988344490528107
36.0,0.016080588102340698
40.0,0.015295877121388912
44.0,0.014563944190740585
48.0,0.013902600854635239
52.0,0.013259314000606537
56.0,0.012635249644517899
60.0,0.012055622413754463
64.0,0.011557835154235363
72.0,0.01073021162301302
80.0,0.009988236241042614
88.0,0.009269307367503643
96.0,0.008482670411467552
104.0,0.007611345034092665
112.0,0.006805473938584328
120.0,0.006338905543088913
128.0,0.006144359707832336
144.0,0.005688893608748913
160.0,0.005262077786028385
176.0,0.005312040913850069
192.0,0.0053931488655507565
208.0,0.005642754025757313
224.0,0.005701414309442043
240.0,0.0053247613832354546
256.0,0.005266622174531221
288.0,0.005648934282362461
320.0,0.0049440874718129635
352.0,0.003996741026639938
384.0,0.003339112503454089
416.0,0.0032883791718631983
448.0,0.003297872142866254
480.0,0.0035337721928954124
512.0,0.003869373118504882
576.0,0.0026944756973534822
640.0,0.001817366573959589
704.0,0.0009579925099387765
768.0,0.00022509200789500028
832.0,-0.0003940120805054903
896.0,-0.0009284747065976262
960.0,-0.0017547449097037315
1024.0,-0.0028368260245770216
1152.0,-0.0019274215446785092
1280.0,-0.003542219987139106
1408.0,-0.0027969968505203724
1536.0,-0.0019065237138420343
1664.0,-0.0032142235431820154
1792.0,-0.002399901859462261
1920.0,-0.0017384090460836887
2048.0,0.00011694809654727578
2304.0,0.000806728727184236
2560.0,0.0015857776161283255
2816.0,0.002296246588230133
3072.0,0.0004633117641787976
3328.0,-0.0003616479516495019
3584.0,0.0002723989018704742
3840.0,-6.828929326729849e-05
4096.0,7.633183122379705e-05
4608.0,-0.0029763251077383757
5120.0,-0.002573517384007573
5632.0,0.0004697070980910212
6144.0,0.00013093969027977437
6656.0,-0.0019686485175043344
7168.0,-0.0035703624598681927
7680.0,-0.0014019227819517255
8192.0,0.003037017537280917
end
