version,3.0
numOfCh,1
type,point
parent_name,34a6d_0dot2-0dot01
ch_type,1_1
kcount,1
numberNandB,1
brightnessNandB,1
carpet pos,0
pc,0
Time (ms),CH1 Auto-Correlation
1.0,0.030712341889739037
2.0,0.030124161392450333
3.0,0.02954992465674877
4.0,0.029014872387051582
5.0,0.028500501066446304
6.0,0.027998361736536026
7.0,0.027533819898962975
8.0,0.0270827766507864
9.0,0.026640065014362335
10.0,0.026205535978078842
11.0,0.025785692036151886
12.0,0.025375276803970337
13.0,0.024984179064631462
14.0,0.02461005002260208
15.0,0.02425220236182213
16.0,0.023897463455796242
18.0,0.023209165781736374
20.0,0.022530846297740936
22.0,0.02186463214457035
24.0,0.021240638568997383
26.0,0.020625853911042213
28.0,0.020038314163684845
30.0,0.01949010044336319
32.0,0.018966984003782272
36.0,0.018103722482919693
40.0,0.017345938831567764
44.0,0.016588659957051277
48.0,0.01581536792218685
52.0,0.015018978156149387
56.0,0.014266672544181347
60.0,0.013540037907660007
64.0,0.01291536632925272
72.0,0.011630561202764511
80.0,0.010571039281785488
88.0,0.009685041382908821
96.0,0.00913678016513586
104.0,0.008844864554703236
112.0,0.008629499934613705
120.0,0.008217638358473778
128.0,0.007806721143424511
144.0,0.007140876725316048
160.0,0.006330815609544516
176.0,0.005546944215893745
192.0,0.004917611833661795
208.0,0.0046801320277154446
224.0,0.004366931039839983
240.0,0.003735340666025877
256.0,0.0033972933888435364
288.0,0.00299989921040833
320.0,0.0027423242572695017
352.0,0.0027138609439134598
384.0,0.0034021742176264524
416.0,0.004653081763535738
448.0,0.004348549526184797
480.0,0.003699662396684289
512.0,0.0036849076859652996
576.0,0.003288497216999531
640.0,0.0038948673754930496
704.0,0.004814088810235262
768.0,0.003312931628897786
832.0,0.0021787912119179964
896.0,0.0018732879543676972
960.0,0.00178223242983222
1024.0,-0.0004747759667225182
1152.0,0.0011751397978514433
1280.0,-0.0004822992777917534
1408.0,-0.0009126239456236362
1536.0,0.0016127637354657054
1664.0,0.0026824064552783966
1792.0,4.38198221672792e-05
1920.0,-0.00027208070969209075
2048.0,0.0018936219858005643
2304.0,0.0029436834156513214
2560.0,0.003142191329970956
2816.0,0.0008518003160133958
3072.0,-0.0007615395588800311
3328.0,-0.0020789389964193106
3584.0,-0.0033739544451236725
3840.0,-0.00203882809728384
4096.0,0.00029934063786640763
4608.0,0.0014871819876134396
5120.0,0.0015865812310948968
5632.0,-0.0031042674090713263
6144.0,-0.006597454193979502
6656.0,-0.005162653513252735
7168.0,-0.0010924394009634852
7680.0,-0.004248096141964197
8192.0,-0.004290392156690359
end
