version,3.0
numOfCh,1
type,point
parent_name,34a6d_0dot2-0dot01
ch_type,1_1
kcount,1
numberNandB,1
brightnessNandB,1
carpet pos,0
pc,0
Time (ms),CH1 Auto-Correlation
1.0,0.047713086009025574
2.0,0.045868467539548874
3.0,0.04403217136859894
4.0,0.042267490178346634
5.0,0.040468938648700714
6.0,0.03871200606226921
7.0,0.03696608170866966
8.0,0.03647639602422714
9.0,0.03598197549581528
10.0,0.03549956902861595
11.0,0.03503886237740517
12.0,0.03457984700798988
13.0,0.03414294868707657
14.0,0.033689022064208984
15.0,0.03327091410756111
16.0,0.03284398838877678
18.0,0.03201527148485184
20.0,0.03116845339536667
22.0,0.030329080298542976
24.0,0.02954668179154396
26.0,0.0288133155554533
28.0,0.028159163892269135
30.0,0.027614904567599297
32.0,0.02715630643069744
36.0,0.026274284347891808
40.0,0.025099601596593857
44.0,0.023920275270938873
48.0,0.022857148200273514
52.0,0.021698616445064545
56.0,0.020563913509249687
60.0,0.01961405761539936
64.0,0.018815433606505394
72.0,0.017745934426784515
80.0,0.01682557351887226
88.0,0.01627390831708908
96.0,0.015671702101826668
104.0,0.01509991753846407
112.0,0.01452422421425581
120.0,0.013737576082348824
128.0,0.013188626617193222
144.0,0.012058739550411701
160.0,0.011168880388140678
176.0,0.009883835911750793
192.0,0.009036000818014145
208.0,0.008358247578144073
224.0,0.007443832699209452
240.0,0.006620836444199085
256.0,0.006600236054509878
288.0,0.0070871817879378796
320.0,0.006917215883731842
352.0,0.005650597158819437
384.0,0.005874511785805225
416.0,0.006338345818221569
448.0,0.006153511349111795
480.0,0.004604844376444817
512.0,0.0017052242765203118
576.0,-0.00036519140121527016
640.0,-0.0006501971511170268
704.0,-0.0011844196124002337
768.0,-0.0010441060876473784
832.0,0.0009340410470031202
896.0,0.0033072985243052244
960.0,0.006923939101397991
1024.0,0.009394515305757523
1152.0,0.007333242334425449
1280.0,0.0027420453261584044
1408.0,0.004336419049650431
1536.0,0.0018270958680659533
1664.0,-0.0014175127726048231
1792.0,-0.001540280762128532
1920.0,0.0029190920758992434
2048.0,0.0060567231848835945
2304.0,0.003991862293332815
2560.0,0.0005656999419443309
2816.0,-0.002160480944439769
3072.0,0.0023116180673241615
3328.0,0.00558666605502367
3584.0,0.001977830659598112
3840.0,-0.0022767491172999144
4096.0,-0.00403835903853178
4608.0,-0.0010098302736878395
5120.0,-0.003972664475440979
5632.0,-0.002833500737324357
6144.0,-0.0015393260400742292
6656.0,-0.0008608311763964593
7168.0,-0.007592590991407633
7680.0,-0.00769084645435214
8192.0,-0.0052828253246843815
end
