version,3.0
numOfCh,1
type,point
parent_name,34a6d_0dot2-0dot01
ch_type,1_1
kcount,1
numberNandB,1
brightnessNandB,1
carpet pos,0
pc,0
Time (ms),CH1 Auto-Correlation
1.0,0.031132010743021965
2.0,0.030526377260684967
3.0,0.02993657998740673
4.0,0.029378501698374748
5.0,0.02883404679596424
6.0,0.028319567441940308
7.0,0.027826739475131035
8.0,0.027323732152581215
9.0,0.026839058846235275
10.0,0.026355722919106483
11.0,0.02588609606027603
12.0,0.025429481640458107
13.0,0.025005001574754715
14.0,0.024586960673332214
15.0,0.024184152483940125
16.0,0.023804636672139168
18.0,0.023058632388710976
20.0,0.02233300358057022
22.0,0.02164076641201973
24.0,0.02097165770828724
26.0,0.020328180864453316
28.0,0.01973685435950756
30.0,0.019184334203600883
32.0,0.018661832436919212
36.0,0.017683684825897217
40.0,0.016787352040410042
44.0,0.016006888821721077
48.0,0.015322281047701836
52.0,0.01462868507951498
56.0,0.01395091600716114
60.0,0.013348112814128399
64.0,0.012809013947844505
72.0,0.011839993298053741
80.0,0.01076987199485302
88.0,0.009633351117372513
96.0,0.008580166846513748
104.0,0.007659029681235552
112.0,0.006968604866415262
120.0,0.00649260776117444
128.0,0.006209737155586481
144.0,0.005731087643653154
160.0,0.005581989884376526
176.0,0.005623042117804289
192.0,0.005334184039384127
208.0,0.004973432514816523
224.0,0.004782750271260738
240.0,0.004699197132140398
256.0,0.004662097431719303
288.0,0.005375707056373358
320.0,0.0059461952187120914
352.0,0.006726506631821394
384.0,0.006931021809577942
416.0,0.005839107092469931
448.0,0.0047736275009810925
480.0,0.004021028522402048
512.0,0.0036761434748768806
576.0,0.0030591473914682865
640.0,0.0011566992616280913
704.0,0.0017184338066726923
768.0,0.0019317623227834702
832.0,0.0018916386179625988
896.0,0.00133819121401757
960.0,0.00040878335130400956
1024.0,0.001196067314594984
1152.0,0.00235008099116385
1280.0,0.0023295681457966566
1408.0,0.002145303413271904
1536.0,0.003962718416005373
1664.0,0.005547780077904463
1792.0,0.002738473005592823
1920.0,0.0030218965839594603
2048.0,0.0020370823331177235
2304.0,0.0021387338638305664
2560.0,0.000648600747808814
2816.0,0.0008531155763193965
3072.0,0.0019406931241974235
3328.0,0.000963139405939728
3584.0,-0.000651911657769233
3840.0,0.0008485088474117219
4096.0,0.0006907135830260813
4608.0,-0.0024795071221888065
5120.0,-0.004444394260644913
5632.0,-0.0004917518235743046
6144.0,-0.002872053999453783
6656.0,-0.005813664756715298
7168.0,-0.001729399198666215
7680.0,-0.002819651737809181
8192.0,-0.00391365634277463
end
