version,3.0
numOfCh,1
type,point
parent_name,34a6d_0dot2-0dot01
ch_type,1_1
kcount,1
numberNandB,1
brightnessNandB,1
carpet pos,0
pc,0
Time (ms),CH1 Auto-Correlation
1.0,0.035636987537145615
2.0,0.035006485879421234
3.0,0.03440152481198311
4.0,0.03380540385842323
5.0,0.033206213265657425
6.0,0.03262661024928093
7.0,0.03205582872033119
8.0,0.031499624252319336
9.0,0.030951812863349915
10.0,0.030417734757065773
11.0,0.029896093532443047
12.0,0.029392415657639503
13.0,0.028905456885695457
14.0,0.028397802263498306
15.0,0.02789769507944584
16.0,0.027404911816120148
18.0,0.0264629777520895
20.0,0.025607943534851074
22.0,0.024821296334266663
24.0,0.024088215082883835
26.0,0.023389117792248726
28.0,0.02277315780520439
30.0,0.02224113792181015
32.0,0.021769901737570763
36.0,0.021007969975471497
40.0,0.020313892513513565
44.0,0.01961740478873253
48.0,0.01892789453268051
52.0,0.018237311393022537
56.0,0.017470557242631912
60.0,0.016613909974694252
64.0,0.015744594857096672
72.0,0.014387098141014576
80.0,0.013410516083240509
88.0,0.012967749498784542
96.0,0.012298575602471828
104.0,0.011583013460040092
112.0,0.011043504811823368
120.0,0.010505872778594494
128.0,0.009958791546523571
144.0,0.008938422426581383
160.0,0.008868002332746983
176.0,0.009169872850179672
192.0,0.008813968859612942
208.0,0.007941823452711105
224.0,0.006946633104234934
240.0,0.006037543527781963
256.0,0.00516547029837966
288.0,0.004052991978824139
320.0,0.003421161789447069
352.0,0.0036455909721553326
384.0,0.005051436834037304
416.0,0.00660172151401639
448.0,0.007387430872768164
480.0,0.007026097737252712
512.0,0.006910458207130432
576.0,0.00499111320823431
640.0,0.0036428614985197783
704.0,0.002122138626873493
768.0,0.0012439192505553365
832.0,0.0005677934386767447
896.0,0.0004016527091152966
960.0,-0.0006448675994761288
1024.0,-0.001492678071372211
1152.0,-0.0007752193487249315
1280.0,0.0015309201553463936
1408.0,0.0006500367890112102
1536.0,0.0007138068322092295
1664.0,0.0009404053562320769
1792.0,0.0014740712940692902
1920.0,0.0026893839240074158
2048.0,0.0024363654665648937
2304.0,0.0016284034354612231
2560.0,0.003070212434977293
2816.0,7.330266817007214e-05
3072.0,-0.001647456083446741
3328.0,-0.0036509179044514894
3584.0,-0.007227449212223291
3840.0,-0.008009239099919796
4096.0,-0.006662138272076845
4608.0,-0.003723501693457365
5120.0,-0.0012367155868560076
5632.0,-0.0024558864533901215
6144.0,-0.009165531024336815
6656.0,-0.002388231921941042
7168.0,0.005324259400367737
7680.0,0.001652705017477274
8192.0,0.0019909387920051813
end
