version,3.0
numOfCh,1
type,point
parent_name,34a6d_0dot2-0dot01
ch_type,1_1
kcount,1
numberNandB,1
brightnessNandB,1
carpet pos,0
pc,0
Time (ms),CH1 Auto-Correlation
1.0,0.036639224737882614
2.0,0.03604508191347122
3.0,0.03547203913331032
4.0,0.034927669912576675
5.0,0.034388501197099686
6.0,0.03384963423013687
7.0,0.033314239233732224
8.0,0.032787568867206573
9.0,0.03228292241692543
10.0,0.031791288405656815
11.0,0.0313202328979969
12.0,0.03087223507463932
13.0,0.030411532148718834
14.0,0.02997836098074913
15.0,0.029560476541519165
16.0,0.029151735827326775
18.0,0.028320327401161194
20.0,0.027531884610652924
22.0,0.026752972975373268
24.0,0.025997579097747803
26.0,0.025315208360552788
28.0,0.024706203490495682
30.0,0.024153849110007286
32.0,0.023676278069615364
36.0,0.022757787257432938
40.0,0.02188170701265335
44.0,0.02107403427362442
48.0,0.020410392433404922
52.0,0.019855806604027748
56.0,0.019335826858878136
60.0,0.01881662756204605
64.0,0.01841583475470543
72.0,0.01778949797153473
80.0,0.017370302230119705
88.0,0.01685020700097084
96.0,0.01612871326506138
104.0,0.015517097897827625
112.0,0.015050925314426422
120.0,0.014493812806904316
128.0,0.013802769593894482
144.0,0.012234851717948914
160.0,0.011092619970440865
176.0,0.010444396175444126
192.0,0.009712009690701962
208.0,0.008987205103039742
224.0,0.00794780533760786
240.0,0.006638021674007177
256.0,0.005372241605073214
288.0,0.00396536011248827
320.0,0.0022451288532465696
352.0,0.0012796253431588411
384.0,0.0003728615411091596
416.0,-7.325164187932387e-05
448.0,-0.0007684054435230792
480.0,-0.0009574148571118712
512.0,-0.001501215621829033
576.0,-0.003287677653133869
640.0,-0.002094295108690858
704.0,-0.0027851525228470564
768.0,-0.0033886374440044165
832.0,-0.001482093590311706
896.0,0.001668888027779758
960.0,0.0026056505739688873
1024.0,0.004059734288603067
1152.0,0.004541162401437759
1280.0,0.003588179126381874
1408.0,0.0011097147362306714
1536.0,-0.0015270879957824945
1664.0,-0.004310141783207655
1792.0,-0.004443448036909103
1920.0,-0.003924512770026922
2048.0,-0.0033059739507734776
2304.0,-0.000457467685919255
2560.0,0.0037752341013401747
2816.0,0.000245441566221416
3072.0,-0.0039042197167873383
3328.0,-0.0036532972007989883
3584.0,0.0021185241639614105
3840.0,0.00602263119071722
4096.0,-7.088026904966682e-05
4608.0,-0.00362667185254395
5120.0,0.0002581969602033496
5632.0,-0.008759181015193462
6144.0,7.212144555523992e-05
6656.0,-0.0036671296693384647
7168.0,0.004648758564144373
7680.0,0.00675713736563921
8192.0,-0.006620184518396854
end
