version,3.0
numOfCh,1
type,point
parent_name,34a6d_0dot2-0dot01
ch_type,1_1
kcount,1
numberNandB,1
brightnessNandB,1
carpet pos,0
pc,0
Time (ms),CH1 Auto-Correlation
1.0,0.03672216087579727
2.0,0.03615187481045723
3.0,0.03559839352965355
4.0,0.035062480717897415
5.0,0.03453899547457695
6.0,0.0340174175798893
7.0,0.033517997711896896
8.0,0.03303619846701622
9.0,0.03257395327091217
10.0,0.03212308883666992
11.0,0.03168259561061859
12.0,0.03125016763806343
13.0,0.03083765134215355
14.0,0.030437486246228218
15.0,0.030071722343564034
16.0,0.029721662402153015
18.0,0.029065418988466263
20.0,0.02843678742647171
22.0,0.027833158150315285
24.0,0.02725222520530224
26.0,0.026690799742937088
28.0,0.02613363042473793
30.0,0.025591593235731125
32.0,0.025055116042494774
36.0,0.02417011745274067
40.0,0.023429300636053085
44.0,0.022766437381505966
48.0,0.022125568240880966
52.0,0.02150840498507023
56.0,0.020972486585378647
60.0,0.020366964861750603
64.0,0.01977965608239174
72.0,0.01853814721107483
80.0,0.017448047176003456
88.0,0.016526885330677032
96.0,0.01592215709388256
104.0,0.015630459412932396
112.0,0.015303343534469604
120.0,0.01493393536657095
128.0,0.014315662905573845
144.0,0.012848700396716595
160.0,0.011830957606434822
176.0,0.011360296979546547
192.0,0.011157919652760029
208.0,0.011301159858703613
224.0,0.011571929790079594
240.0,0.01190988440066576
256.0,0.011745959520339966
288.0,0.010944738984107971
320.0,0.010138691402971745
352.0,0.009251904673874378
384.0,0.008317092433571815
416.0,0.008000456728041172
448.0,0.0074710603803396225
480.0,0.006835247855633497
512.0,0.007255538832396269
576.0,0.007246386259794235
640.0,0.005179255269467831
704.0,0.0030230486299842596
768.0,0.0016179844969883561
832.0,0.001591151230968535
896.0,0.0018501743907108903
960.0,0.0014078596141189337
1024.0,0.0014990856871008873
1152.0,0.0030053623486310244
1280.0,0.0035499529913067818
1408.0,0.002582092070952058
1536.0,-0.00019593146862462163
1664.0,0.0004930488648824394
1792.0,0.0014461226528510451
1920.0,0.0009646242833696306
2048.0,-0.0005689482786692679
2304.0,0.0006357639213092625
2560.0,-0.0008229680242948234
2816.0,-0.0036972793750464916
3072.0,-0.004195214249193668
3328.0,-0.004415913484990597
3584.0,-0.0028774451930075884
3840.0,-0.0012643561931326985
4096.0,-0.0025831570383161306
4608.0,-0.002211582148447633
5120.0,-0.003566493047401309
5632.0,-0.0006824071169830859
6144.0,-0.002950645750388503
6656.0,-0.0020448830910027027
7168.0,-0.006067358888685703
7680.0,-0.003428312251344323
8192.0,-0.0006770219188183546
end
