version,3.0
numOfCh,1
type,point
parent_name,34a6d_0dot2-0dot01
ch_type,1_1
kcount,1
numberNandB,1
brightnessNandB,1
carpet pos,0
pc,0
Time (ms),CH1 Auto-Correlation
1.0,0.04741963744163513
2.0,0.04680705443024635
3.0,0.04621013626456261
4.0,0.04560055583715439
5.0,0.04501975700259209
6.0,0.044475190341472626
7.0,0.04394937679171562
8.0,0.04343753680586815
9.0,0.042947299778461456
10.0,0.04247168079018593
11.0,0.04200347512960434
12.0,0.04154229909181595
13.0,0.04108007997274399
14.0,0.04062602296471596
15.0,0.04018014669418335
16.0,0.03976079821586609
18.0,0.03893585130572319
20.0,0.038117825984954834
22.0,0.0373176634311676
24.0,0.03653702884912491
26.0,0.03576992452144623
28.0,0.035098906606435776
30.0,0.03447096794843674
32.0,0.03384488821029663
36.0,0.032622069120407104
40.0,0.03152008354663849
44.0,0.03046734817326069
48.0,0.02947608195245266
52.0,0.02852201648056507
56.0,0.027638738974928856
60.0,0.026857823133468628
64.0,0.02618342638015747
72.0,0.025057943537831306
80.0,0.024139879271388054
88.0,0.02343951165676117
96.0,0.02276463620364666
104.0,0.022028973326086998
112.0,0.021457374095916748
120.0,0.0209825299680233
128.0,0.0202653668820858
144.0,0.018709927797317505
160.0,0.017730943858623505
176.0,0.016369260847568512
192.0,0.015362055040895939
208.0,0.014030605554580688
224.0,0.01259421743452549
240.0,0.011525050736963749
256.0,0.010366467759013176
288.0,0.008835085667669773
320.0,0.008978446945548058
352.0,0.009032140485942364
384.0,0.00834990106523037
416.0,0.008162479847669601
448.0,0.00825225654989481
480.0,0.008833633735775948
512.0,0.010002898052334785
576.0,0.010681511834263802
640.0,0.008565310388803482
704.0,0.006437627132982016
768.0,0.004811213817447424
832.0,0.0023032736498862505
896.0,0.0012672394514083862
960.0,0.0010781311430037022
1024.0,-0.0008935816586017609
1152.0,0.0006241208757273853
1280.0,0.002993200905621052
1408.0,0.0020944916177541018
1536.0,-0.0003317970549687743
1664.0,-0.0011004798579961061
1792.0,-0.0010558223584666848
1920.0,-0.004605451133102179
2048.0,-0.006652609445154667
2304.0,-0.008737705647945404
2560.0,-0.0015314340125769377
2816.0,-0.0027642203494906425
3072.0,0.0008408183930441737
3328.0,-0.003522775834426284
3584.0,-0.006136452779173851
3840.0,-0.0021607803646475077
4096.0,-0.0031361766159534454
4608.0,0.004364863038063049
5120.0,-0.0041819978505373
5632.0,-0.0007968720165081322
6144.0,0.002689506858587265
6656.0,-0.008625362068414688
7168.0,-0.0038235080428421497
7680.0,0.009013612754642963
8192.0,0.00455470522865653
end
