version,3.0
numOfCh,1
type,point
parent_name,34a6d_0dot2-0dot01
ch_type,1_1
kcount,1
numberNandB,1
brightnessNandB,1
carpet pos,0
pc,0
Time (ms),CH1 Auto-Correlation
1.0,0.051140882074832916
2.0,0.05045381188392639
3.0,0.049746040254831314
4.0,0.049139734357595444
5.0,0.048550285398960114
6.0,0.04798773676156998
7.0,0.04740661010146141
8.0,0.04682900011539459
9.0,0.0462324433028698
10.0,0.04572250321507454
11.0,0.045172110199928284
12.0,0.044634655117988586
13.0,0.04414575546979904
14.0,0.04367402568459511
15.0,0.04307950288057327
16.0,0.04253557324409485
18.0,0.041585225611925125
20.0,0.04050637409090996
22.0,0.039521895349025726
24.0,0.03856762498617172
26.0,0.037682391703128815
28.0,0.03683338686823845
30.0,0.03599238023161888
32.0,0.03520338982343674
36.0,0.03370703011751175
40.0,0.03218575939536095
44.0,0.030811702832579613
48.0,0.029500333592295647
52.0,0.02832108736038208
56.0,0.02706952765583992
60.0,0.025824900716543198
64.0,0.024673445150256157
72.0,0.022739795967936516
80.0,0.0210119616240263
88.0,0.020023971796035767
96.0,0.019449636340141296
104.0,0.018862824887037277
112.0,0.01813524030148983
120.0,0.017256448045372963
128.0,0.016593262553215027
144.0,0.014905987307429314
160.0,0.013217738829553127
176.0,0.011268045753240585
192.0,0.00847629550844431
208.0,0.005999409593641758
224.0,0.004105867352336645
240.0,0.0028051051776856184
256.0,0.0015200204215943813
288.0,0.0009997050510719419
320.0,0.001237067743204534
352.0,0.000325112632708624
384.0,0.0006013379315845668
416.0,0.0010028021642938256
448.0,0.001562820398248732
480.0,0.003148772055283189
512.0,0.004749495070427656
576.0,0.005658400245010853
640.0,0.0048375679180026054
704.0,-0.0007953639724291861
768.0,-0.0016869440441951156
832.0,0.0002625496999826282
896.0,0.0014859106158837676
960.0,0.002536642597988248
1024.0,0.0016378354048356414
1152.0,-0.0049711368046700954
1280.0,-0.007302508689463139
1408.0,-0.0005179127329029143
1536.0,0.003842724487185478
1664.0,-0.0026654854882508516
1792.0,-0.003839576616883278
1920.0,0.0014613966923207045
2048.0,0.0031201427336782217
2304.0,0.0007717812550254166
2560.0,0.0012244961690157652
2816.0,-0.002020206768065691
3072.0,0.00031834118999540806
3328.0,-0.005463788285851479
3584.0,-0.0045956773683428764
3840.0,-3.332147389301099e-05
4096.0,0.0003097629814874381
4608.0,-0.0022258341778069735
5120.0,0.0007641695556230843
5632.0,0.004094844218343496
6144.0,0.0008025638526305556
6656.0,-0.003966587129980326
7168.0,0.0008266623481176794
7680.0,0.0003596859460230917
8192.0,0.021349439397454262
end
