version,3.0
numOfCh,1
type,point
parent_name,34a6d_0dot2-0dot01
ch_type,1_1
kcount,1
numberNandB,1
brightnessNandB,1
carpet pos,0
pc,0
Time (ms),CH1 Auto-Correlation
1.0,0.03248395770788193
2.0,0.03189166262745857
3.0,0.03131137788295746
4.0,0.030748523771762848
5.0,0.030172986909747124
6.0,0.02961757406592369
7.0,0.029072238132357597
8.0,0.028534434735774994
9.0,0.028001653030514717
10.0,0.027498824521899223
11.0,0.02702627144753933
12.0,0.026561569422483444
13.0,0.026111848652362823
14.0,0.025695109739899635
15.0,0.025278333574533463
16.0,0.024878114461898804
18.0,0.02410692721605301
20.0,0.023361269384622574
22.0,0.02261521853506565
24.0,0.02191862277686596
26.0,0.021275753155350685
28.0,0.020701097324490547
30.0,0.0201778095215559
32.0,0.01973920688033104
36.0,0.018911680206656456
40.0,0.01810363121330738
44.0,0.01732940599322319
48.0,0.016660446301102638
52.0,0.016105124726891518
56.0,0.015645230188965797
60.0,0.015171734616160393
64.0,0.014645993709564209
72.0,0.013455444015562534
80.0,0.012304156087338924
88.0,0.01117485761642456
96.0,0.009988288395106792
104.0,0.009089075960218906
112.0,0.008476754650473595
120.0,0.00803438015282154
128.0,0.0076944539323449135
144.0,0.007581514772027731
160.0,0.007302598096430302
176.0,0.006762934848666191
192.0,0.00624556140974164
208.0,0.005967233795672655
224.0,0.00572206312790513
240.0,0.005675627384334803
256.0,0.005444669630378485
288.0,0.005175185855478048
320.0,0.006001300644129515
352.0,0.006280900444835424
384.0,0.005708259996026754
416.0,0.005267862230539322
448.0,0.004468831699341536
480.0,0.0035502577666193247
512.0,0.0011181568261235952
576.0,9.715501073515043e-05
640.0,0.0007001156336627901
704.0,0.0004542240349110216
768.0,0.00015505704504903406
832.0,-0.0021154580172151327
896.0,-0.0028018990997225046
960.0,-0.0019388154614716768
1024.0,-0.00140197086147964
1152.0,-0.0011658819857984781
1280.0,-0.001256971969269216
1408.0,-0.002900597406551242
1536.0,-0.0034105705562978983
1664.0,-0.000292043638182804
1792.0,0.0007224933942779899
1920.0,0.0003238630888517946
2048.0,0.0016573210014030337
2304.0,0.005715126637369394
2560.0,0.004512273706495762
2816.0,0.0009078034199774265
3072.0,-0.002002107445150614
3328.0,-0.00046479300362989306
3584.0,-0.0012236081529408693
3840.0,-0.0020569064654409885
4096.0,-0.0010740059660747647
4608.0,0.0038309479132294655
5120.0,0.004064610227942467
5632.0,-0.002265314804390073
6144.0,-0.003138155909255147
6656.0,-0.001292066415771842
7168.0,0.0022550239227712154
7680.0,0.00030364838312380016
8192.0,-0.00302672665566206
end
