version,3.0
numOfCh,1
type,point
parent_name,34a6d_0dot2-0dot01
ch_type,1_1
kcount,1
numberNandB,1
brightnessNandB,1
carpet pos,0
pc,0
Time (ms),CH1 Auto-Correlation
1.0,0.03410177305340767
2.0,0.03353672847151756
3.0,0.03298172354698181
4.0,0.032431550323963165
5.0,0.03189796581864357
6.0,0.031382594257593155
7.0,0.030883418396115303
8.0,0.03038698434829712
9.0,0.02988646924495697
10.0,0.02938687987625599
11.0,0.02890034019947052
12.0,0.02842455357313156
13.0,0.02795318327844143
14.0,0.027497773990035057
15.0,0.027058415114879608
16.0,0.026644684374332428
18.0,0.025846263393759727
20.0,0.025085557252168655
22.0,0.02435462176799774
24.0,0.023628216236829758
26.0,0.022958867251873016
28.0,0.022333968430757523
30.0,0.02174164354801178
32.0,0.021142996847629547
36.0,0.020063335075974464
40.0,0.019070778042078018
44.0,0.0181314367800951
48.0,0.017254289239645004
52.0,0.01642400212585926
56.0,0.015599739737808704
60.0,0.014863096177577972
64.0,0.014227377250790596
72.0,0.013354138471186161
80.0,0.012763725593686104
88.0,0.012055634520947933
96.0,0.011406765319406986
104.0,0.010721481405198574
112.0,0.009909644722938538
120.0,0.00927769299596548
128.0,0.008811291307210922
144.0,0.008393466472625732
160.0,0.007811977062374353
176.0,0.0077921198680996895
192.0,0.007607124280184507
208.0,0.006984808016568422
224.0,0.006479988805949688
240.0,0.005982126109302044
256.0,0.005326040089130402
288.0,0.0050352890975773335
320.0,0.004487842321395874
352.0,0.0029476170893758535
384.0,0.0015953019028529525
416.0,0.001264667371287942
448.0,0.0007882553618401289
480.0,0.0002299316693097353
512.0,-0.0002533416554797441
576.0,-0.0011012171162292361
640.0,-0.0003478650760371238
704.0,-0.0014268150553107262
768.0,-0.004047381691634655
832.0,-0.004375699907541275
896.0,-0.00323385838419199
960.0,-0.002419068245217204
1024.0,-0.003013769630342722
1152.0,-0.004391124472022057
1280.0,-0.003232185263186693
1408.0,-0.001224543317221105
1536.0,-0.00018933459068648517
1664.0,-0.0014096900122240186
1792.0,-8.142596925608814e-05
1920.0,0.0023397556506097317
2048.0,0.003172783413901925
2304.0,0.0018826966406777501
2560.0,0.0011775435414165258
2816.0,-0.0022484883666038513
3072.0,-0.005484689027070999
3328.0,-0.005755800288170576
3584.0,-0.0034226905554533005
3840.0,-0.0024133704137057066
4096.0,-0.0041000815108418465
4608.0,0.0023993419017642736
5120.0,0.0003183517255820334
5632.0,-0.00411294586956501
6144.0,0.0018520245794206858
6656.0,0.006958238314837217
7168.0,0.0012090246891602874
7680.0,-0.00041696097468957305
8192.0,0.0008604242466390133
end
