version,3.0
numOfCh,1
type,point
parent_name,ff67b_0dot08-0dot1
ch_type,1_1
kcount,1
numberNandB,1
brightnessNandB,1
carpet pos,0
pc,0
Time (ms),CH1 Auto-Correlation
1.0,0.0713072270154953
2.0,0.07066863775253296
3.0,0.07003291696310043
4.0,0.0694333165884018
5.0,0.06882460415363312
6.0,0.06823862344026566
7.0,0.06767567992210388
8.0,0.0671110600233078
9.0,0.06656995415687561
10.0,0.06605935096740723
11.0,0.06556160002946854
12.0,0.06506641209125519
13.0,0.06460659950971603
14.0,0.06416195631027222
15.0,0.06373201310634613
16.0,0.06332142651081085
18.0,0.06244935095310211
20.0,0.061589647084474564
22.0,0.06073548272252083
24.0,0.0599420964717865
26.0,0.05918530747294426
28.0,0.05843367800116539
30.0,0.05772574245929718
32.0,0.05705755576491356
36.0,0.05575774237513542
40.0,0.054456986486911774
44.0,0.053200311958789825
48.0,0.05192744731903076
52.0,0.05061383172869682
56.0,0.04936685413122177
60.0,0.04818426072597504
64.0,0.04709206521511078
72.0,0.0449337400496006
80.0,0.04281451925635338
88.0,0.04089109227061272
96.0,0.039131950587034225
104.0,0.037676263600587845
112.0,0.03636028990149498
120.0,0.03531833365559578
128.0,0.0341121181845665
144.0,0.03107643686234951
160.0,0.02810593694448471
176.0,0.025488847866654396
192.0,0.023050330579280853
208.0,0.021639620885252953
224.0,0.0205574631690979
240.0,0.019414830952882767
256.0,0.01779326982796192
288.0,0.015547579154372215
320.0,0.013812480494379997
352.0,0.012305185198783875
384.0,0.011465172283351421
416.0,0.01130601391196251
448.0,0.011680344119668007
480.0,0.011176158674061298
512.0,0.010402324609458447
576.0,0.006936635356396437
640.0,0.0028978935442864895
704.0,-0.0007138573564589024
768.0,-0.0017279080348089337
832.0,-0.0010638270759955049
896.0,0.0024504184257239103
960.0,0.00825048703700304
1024.0,0.010070242919027805
1152.0,0.005263044033199549
1280.0,0.003987620119005442
1408.0,0.007843390107154846
1536.0,0.011538257822394371
1664.0,0.010569305159151554
1792.0,0.005499027203768492
1920.0,0.008355752564966679
2048.0,0.011502910405397415
2304.0,0.00534483976662159
2560.0,0.002637899946421385
2816.0,-0.0034735563676804304
3072.0,0.002268064534291625
3328.0,-0.000390462955692783
3584.0,-0.0023345714434981346
3840.0,-0.010125378146767616
4096.0,-0.004134758375585079
4608.0,-0.0012693529715761542
5120.0,-0.010182813741266727
5632.0,-0.00576934264972806
6144.0,-0.012940958142280579
6656.0,-0.011478067375719547
7168.0,-0.011350223794579506
7680.0,-0.0036785234697163105
8192.0,-0.012401295825839043
end
