version,3.0
numOfCh,1
type,point
parent_name,ff67b_0dot08-0dot1
ch_type,1_1
kcount,1
numberNandB,1
brightnessNandB,1
carpet pos,0
pc,0
Time (ms),CH1 Auto-Correlation
1.0,0.0621546134352684
2.0,0.061661072075366974
3.0,0.061182018369436264
4.0,0.06069159880280495
5.0,0.0602354034781456
6.0,0.05978742986917496
7.0,0.059339236468076706
8.0,0.05891502648591995
9.0,0.058498479425907135
10.0,0.05808798596262932
11.0,0.05767232924699783
12.0,0.05727977678179741
13.0,0.05685216933488846
14.0,0.05645519867539406
15.0,0.056072138249874115
16.0,0.055676963180303574
18.0,0.054901931434869766
20.0,0.05413427576422691
22.0,0.05342512205243111
24.0,0.05272241681814194
26.0,0.052076537162065506
28.0,0.0514625608921051
30.0,0.0508679524064064
32.0,0.05030834674835205
36.0,0.04923287779092789
40.0,0.04819792881608009
44.0,0.04729427769780159
48.0,0.04640433192253113
52.0,0.04547968879342079
56.0,0.04460429027676582
60.0,0.04385160654783249
64.0,0.04308212175965309
72.0,0.04136485978960991
80.0,0.039793308824300766
88.0,0.03825439512729645
96.0,0.03658492863178253
104.0,0.035008370876312256
112.0,0.03347312659025192
120.0,0.032201994210481644
128.0,0.031037477776408195
144.0,0.02852392941713333
160.0,0.02606586180627346
176.0,0.023795485496520996
192.0,0.021938851103186607
208.0,0.020283373072743416
224.0,0.019086699932813644
240.0,0.01785675249993801
256.0,0.016739923506975174
288.0,0.01564842276275158
320.0,0.014544877223670483
352.0,0.01345761027187109
384.0,0.012666504830121994
416.0,0.010745236650109291
448.0,0.008265855722129345
480.0,0.007012945134192705
512.0,0.006705242209136486
576.0,0.007438118569552898
640.0,0.009438789449632168
704.0,0.011188711039721966
768.0,0.01142042689025402
832.0,0.011060903780162334
896.0,0.010591679252684116
960.0,0.01144684012979269
1024.0,0.010637687519192696
1152.0,0.00939499493688345
1280.0,0.008597485721111298
1408.0,0.005454109515994787
1536.0,0.002768126782029867
1664.0,0.0022735008969902992
1792.0,-0.00023892498575150967
1920.0,0.003314322791993618
2048.0,0.0077499267645180225
2304.0,0.013159278780221939
2560.0,0.011232534423470497
2816.0,0.007291663438081741
3072.0,0.004129263572394848
3328.0,0.00136423553340137
3584.0,0.0005045480211265385
3840.0,-0.007907967083156109
4096.0,-0.007190288510173559
4608.0,0.00192914844956249
5120.0,0.001604793593287468
5632.0,-0.0023938710801303387
6144.0,-0.0079012680798769
6656.0,-0.008872097358107567
7168.0,-0.003977813757956028
7680.0,-0.0005975846434012055
8192.0,-0.00315998587757349
end
