version,3.0
numOfCh,1
type,point
parent_name,ff67b_0dot08-0dot1
ch_type,1_1
kcount,1
numberNandB,1
brightnessNandB,1
carpet pos,0
pc,0
Time (ms),CH1 Auto-Correlation
1.0,0.06422070413827896
2.0,0.06353352218866348
3.0,0.06286739557981491
4.0,0.06221196427941322
5.0,0.06159696355462074
6.0,0.06098536401987076
7.0,0.060408107936382294
8.0,0.05986914783716202
9.0,0.05936997011303902
10.0,0.05887927860021591
11.0,0.05839910730719566
12.0,0.057920027524232864
13.0,0.05746718496084213
14.0,0.057000961154699326
15.0,0.056556105613708496
16.0,0.05608436092734337
18.0,0.05512409657239914
20.0,0.05414756014943123
22.0,0.05320648476481438
24.0,0.05232083424925804
26.0,0.05147259309887886
28.0,0.05063870921730995
30.0,0.0497962161898613
32.0,0.04900914803147316
36.0,0.04755689203739166
40.0,0.04618431255221367
44.0,0.044690974056720734
48.0,0.043270137161016464
52.0,0.04195316508412361
56.0,0.040760595351457596
60.0,0.03968645632266998
64.0,0.038658034056425095
72.0,0.03657625615596771
80.0,0.03452864661812782
88.0,0.03257051482796669
96.0,0.030647266656160355
104.0,0.029034124687314034
112.0,0.027493881061673164
120.0,0.026053359732031822
128.0,0.02492029406130314
144.0,0.02306748367846012
160.0,0.02141582779586315
176.0,0.020029982551932335
192.0,0.01917140744626522
208.0,0.018938787281513214
224.0,0.019038395956158638
240.0,0.019051900133490562
256.0,0.01900593377649784
288.0,0.018171746283769608
320.0,0.01696871593594551
352.0,0.014709747396409512
384.0,0.0118007967248559
416.0,0.008714433759450912
448.0,0.006451952736824751
480.0,0.0046128700487315655
512.0,0.0033066405449062586
576.0,0.0021362670231610537
640.0,-0.0010337295243516564
704.0,-0.004455470480024815
768.0,-0.004629719071090221
832.0,-0.003890414722263813
896.0,-0.004647804889827967
960.0,-0.005339911673218012
1024.0,-0.007450449280440807
1152.0,-0.004036630038172007
1280.0,-0.0020023323595523834
1408.0,-0.0015257723862305284
1536.0,-0.0010712757939472795
1664.0,0.001142302411608398
1792.0,-0.0014616972766816616
1920.0,-0.001569409971125424
2048.0,-0.00010298239794792607
2304.0,0.0010435761651024222
2560.0,0.00019138320931233466
2816.0,-0.005457291845232248
3072.0,-0.010280651040375233
3328.0,-0.008127648383378983
3584.0,-8.970902126748115e-05
3840.0,0.004356954246759415
4096.0,0.0016119488282129169
4608.0,-0.0057626208290457726
5120.0,0.003389595076441765
5632.0,0.006661216728389263
6144.0,0.006669144611805677
6656.0,0.004066794645041227
7168.0,-0.0049963826313614845
7680.0,0.002706943778321147
8192.0,-0.00877835787832737
end
