version,3.0
numOfCh,1
type,point
parent_name,ff67b_0dot08-0dot1
ch_type,1_1
kcount,1
numberNandB,1
brightnessNandB,1
carpet pos,0
pc,0
Time (ms),CH1 Auto-Correlation
1.0,0.0588824562728405
2.0,0.058357395231723785
3.0,0.05785001441836357
4.0,0.057366546243429184
5.0,0.056904762983322144
6.0,0.05644870549440384
7.0,0.05600615218281746
8.0,0.05556103214621544
9.0,0.05512484908103943
10.0,0.05469164252281189
11.0,0.05427129194140434
12.0,0.053866270929574966
13.0,0.053455840796232224
14.0,0.05305160582065582
15.0,0.05267088860273361
16.0,0.05230046436190605
18.0,0.05159078538417816
20.0,0.050889212638139725
22.0,0.050239913165569305
24.0,0.049613725394010544
26.0,0.04903163015842438
28.0,0.04844076931476593
30.0,0.047865450382232666
32.0,0.04729532077908516
36.0,0.04618462547659874
40.0,0.04515017941594124
44.0,0.04416225850582123
48.0,0.043169960379600525
52.0,0.04212857037782669
56.0,0.04111746326088905
60.0,0.04010505601763725
64.0,0.03911817818880081
72.0,0.03703046590089798
80.0,0.03527103736996651
88.0,0.03371512517333031
96.0,0.03234022855758667
104.0,0.031003953889012337
112.0,0.0297420434653759
120.0,0.028468748554587364
128.0,0.027138371020555496
144.0,0.024798749014735222
160.0,0.023015372455120087
176.0,0.021556682884693146
192.0,0.02111183851957321
208.0,0.020981624722480774
224.0,0.02089795097708702
240.0,0.02046830765902996
256.0,0.019602522253990173
288.0,0.017346590757369995
320.0,0.015062734484672546
352.0,0.012430143542587757
384.0,0.010195374488830566
416.0,0.008017299696803093
448.0,0.006302309688180685
480.0,0.0049758427776396275
512.0,0.004267529584467411
576.0,0.004588861484080553
640.0,0.004288066178560257
704.0,0.004833105951547623
768.0,0.005575831048190594
832.0,0.0045628719963133335
896.0,0.003455257276073098
960.0,0.00405043363571167
1024.0,0.0051456112414598465
1152.0,0.0028624071273952723
1280.0,0.002668259432539344
1408.0,0.0012246273690834641
1536.0,-0.0014423929387703538
1664.0,-0.0083213085308671
1792.0,-0.007736673578619957
1920.0,-0.006261841859668493
2048.0,-0.006763501092791557
2304.0,-0.0050198351964354515
2560.0,-0.00786079652607441
2816.0,-0.010128648020327091
3072.0,-0.008979907259345055
3328.0,-0.0030753889586776495
3584.0,0.000442301417933777
3840.0,-0.0004869535332545638
4096.0,-0.0010202283738180995
4608.0,-0.0014245144557207823
5120.0,-0.0035926578566432
5632.0,-0.0018493629759177566
6144.0,-0.0026527673471719027
6656.0,-0.0028824498876929283
7168.0,-0.0005998568376526237
7680.0,0.0012398837134242058
8192.0,-0.0002788125420920551
end
