version,3.0
numOfCh,1
type,point
parent_name,ff67b_0dot08-0dot1
ch_type,1_1
kcount,1
numberNandB,1
brightnessNandB,1
carpet pos,0
pc,0
Time (ms),CH1 Auto-Correlation
1.0,0.06393653154373169
2.0,0.06282428652048111
3.0,0.061786748468875885
4.0,0.060812126845121384
5.0,0.05982528626918793
6.0,0.0589374378323555
7.0,0.05807774141430855
8.0,0.05729685723781586
9.0,0.05653422325849533
10.0,0.05579181760549545
11.0,0.055069733411073685
12.0,0.05438663437962532
13.0,0.05367526412010193
14.0,0.0529671274125576
15.0,0.0522664375603199
16.0,0.05156213045120239
18.0,0.05033531412482262
20.0,0.04925885796546936
22.0,0.048353683203458786
24.0,0.04757511243224144
26.0,0.04690169543027878
28.0,0.04619912430644035
30.0,0.04548266902565956
32.0,0.04473854601383209
36.0,0.04350539296865463
40.0,0.04228484630584717
44.0,0.04104568809270859
48.0,0.039854515343904495
52.0,0.038430746644735336
56.0,0.037099819630384445
60.0,0.035540737211704254
64.0,0.03402259200811386
72.0,0.03163810446858406
80.0,0.029785696417093277
88.0,0.02800293266773224
96.0,0.0262683667242527
104.0,0.024899406358599663
112.0,0.023657990619540215
120.0,0.0226969625800848
128.0,0.021632207557559013
144.0,0.01972123794257641
160.0,0.018572095781564713
176.0,0.018018286675214767
192.0,0.017633680254220963
208.0,0.018250847235322
224.0,0.017920153215527534
240.0,0.017236707732081413
256.0,0.016686223447322845
288.0,0.01593463309109211
320.0,0.015724454075098038
352.0,0.014989014714956284
384.0,0.011710003018379211
416.0,0.010802211239933968
448.0,0.010139718651771545
480.0,0.010131829418241978
512.0,0.011409656144678593
576.0,0.009792310185730457
640.0,0.006968257017433643
704.0,0.00194132374599576
768.0,-0.0020000848453491926
832.0,-0.001978483749553561
896.0,-8.8347471319139e-05
960.0,0.000690471671987325
1024.0,-0.0005653215921483934
1152.0,0.004141600802540779
1280.0,-0.0024636948946863413
1408.0,-0.005532911513000727
1536.0,-0.01055853720754385
1664.0,-0.00669668847694993
1792.0,-0.0031859581358730793
1920.0,-0.008802684023976326
2048.0,-0.0010846095392480493
2304.0,-0.0020786377135664225
2560.0,-0.0036443269345909357
2816.0,0.0003258235810790211
3072.0,-0.00015321135288104415
3328.0,-0.0051470184698700905
3584.0,-0.006673548836261034
3840.0,-0.008702161721885204
4096.0,-0.010143294930458069
4608.0,-0.009148625656962395
5120.0,0.0042875600047409534
5632.0,0.0005444434937089682
6144.0,-0.0031346380710601807
6656.0,-0.011538263410329819
7168.0,0.008076297119259834
7680.0,0.003986656200140715
8192.0,0.014083744958043098
end
