version,3.0
numOfCh,1
type,point
parent_name,ff67b_0dot08-0dot1
ch_type,1_1
kcount,1
numberNandB,1
brightnessNandB,1
carpet pos,0
pc,0
Time (ms),CH1 Auto-Correlation
1.0,0.07444192469120026
2.0,0.07368548959493637
3.0,0.07293111085891724
4.0,0.07217911630868912
5.0,0.07143189758062363
6.0,0.07068994641304016
7.0,0.06996072083711624
8.0,0.06929033249616623
9.0,0.06863661110401154
10.0,0.06801804900169373
11.0,0.06741510331630707
12.0,0.06682045012712479
13.0,0.06624821573495865
14.0,0.06567514687776566
15.0,0.06510517001152039
16.0,0.0645601749420166
18.0,0.06345252692699432
20.0,0.06236943602561951
22.0,0.06131316348910332
24.0,0.06032327562570572
26.0,0.05936165899038315
28.0,0.058373115956783295
30.0,0.057398471981287
32.0,0.05639105290174484
36.0,0.05434722080826759
40.0,0.05236927047371864
44.0,0.05057043582201004
48.0,0.04886240139603615
52.0,0.047288861125707626
56.0,0.04573969170451164
60.0,0.04431503638625145
64.0,0.042866453528404236
72.0,0.04036122187972069
80.0,0.0382218137383461
88.0,0.03618127107620239
96.0,0.034387245774269104
104.0,0.03258635103702545
112.0,0.03076094575226307
120.0,0.029079321771860123
128.0,0.02740849182009697
144.0,0.024698279798030853
160.0,0.021990790963172913
176.0,0.019836967810988426
192.0,0.017754418775439262
208.0,0.015940355136990547
224.0,0.014869904145598412
240.0,0.0136260986328125
256.0,0.01300432626157999
288.0,0.011669938452541828
320.0,0.010214950889348984
352.0,0.008480418473482132
384.0,0.006707145832479
416.0,0.0055365972220897675
448.0,0.004390050657093525
480.0,0.003053068881854415
512.0,0.0010063437512144446
576.0,-0.006263022311031818
640.0,-0.011515947990119457
704.0,-0.011907143518328667
768.0,-0.011174017563462257
832.0,-0.012144450098276138
896.0,-0.013426205143332481
960.0,-0.013545858673751354
1024.0,-0.013496391475200653
1152.0,-0.009695915505290031
1280.0,-0.008024119772017002
1408.0,-0.003974908031523228
1536.0,-0.005589264910668135
1664.0,-0.0027816782239824533
1792.0,0.00402878038585186
1920.0,0.006094346288591623
2048.0,0.005312519147992134
2304.0,-0.010894161649048328
2560.0,-0.016890479251742363
2816.0,-0.011894071474671364
3072.0,0.0044525559060275555
3328.0,0.015150011517107487
3584.0,0.013453781604766846
3840.0,0.011230578646063805
4096.0,0.0032948043663054705
4608.0,0.0017640881706029177
5120.0,0.005379822105169296
5632.0,-0.014051670208573341
6144.0,-0.008422198705375195
6656.0,-0.002339975442737341
7168.0,0.007665620651096106
7680.0,1.7403506717528217e-05
8192.0,0.015885839238762856
end
