version,3.0
numOfCh,1
type,point
parent_name,ff67b_0dot08-0dot1
ch_type,1_1
kcount,1
numberNandB,1
brightnessNandB,1
carpet pos,0
pc,0
Time (ms),CH1 Auto-Correlation
1.0,0.057281527668237686
2.0,0.05647218972444534
3.0,0.05572247877717018
4.0,0.0549800731241703
5.0,0.05426779016852379
6.0,0.053553108125925064
7.0,0.05288960412144661
8.0,0.05226193740963936
9.0,0.05166570469737053
10.0,0.051085464656353
11.0,0.05051717162132263
12.0,0.049981001764535904
13.0,0.04943821206688881
14.0,0.04890308156609535
15.0,0.04839019477367401
16.0,0.047921985387802124
18.0,0.04694715887308121
20.0,0.04601201042532921
22.0,0.04513063654303551
24.0,0.044298868626356125
26.0,0.043523624539375305
28.0,0.042832694947719574
30.0,0.042208217084407806
32.0,0.041617702692747116
36.0,0.04050595313310623
40.0,0.03938966616988182
44.0,0.038225673139095306
48.0,0.03714224696159363
52.0,0.03612969443202019
56.0,0.0351388081908226
60.0,0.03423663601279259
64.0,0.0332634337246418
72.0,0.031394921243190765
80.0,0.029306717216968536
88.0,0.02753756195306778
96.0,0.026272879913449287
104.0,0.025152049958705902
112.0,0.024022111669182777
120.0,0.023224618285894394
128.0,0.022448599338531494
144.0,0.02111685834825039
160.0,0.020337088033556938
176.0,0.01967300847172737
192.0,0.018963154405355453
208.0,0.018280040472745895
224.0,0.01684616692364216
240.0,0.015543399378657341
256.0,0.014505389146506786
288.0,0.011859120801091194
320.0,0.01025948952883482
352.0,0.009076898917555809
384.0,0.008198573254048824
416.0,0.0069419690407812595
448.0,0.0060994285158813
480.0,0.00535203330218792
512.0,0.004257507156580687
576.0,0.0020764784421771765
640.0,0.0027761999517679214
704.0,0.0016471013659611344
768.0,-0.00045204072375781834
832.0,-0.0003965521464124322
896.0,0.0003259710210841149
960.0,-0.00043817516416311264
1024.0,-0.0014597326517105103
1152.0,-0.005458582192659378
1280.0,-0.008516055531799793
1408.0,-0.008405263535678387
1536.0,-0.0055291131138801575
1664.0,-0.0008569782949052751
1792.0,0.003461085259914398
1920.0,0.0006496546557173133
2048.0,-4.995241033611819e-05
2304.0,0.002233294304460287
2560.0,0.0005374850006774068
2816.0,-0.0002712843706831336
3072.0,-0.005689457058906555
3328.0,-0.00877405796200037
3584.0,-0.012073037214577198
3840.0,-0.010827559046447277
4096.0,-0.003944207914173603
4608.0,0.008779533207416534
5120.0,0.007690428756177425
5632.0,-0.0018673429731279612
6144.0,0.0008171957451850176
6656.0,0.012330499477684498
7168.0,0.005902088712900877
7680.0,-0.005703437142074108
8192.0,-0.010835950262844563
end
