version,3.0
numOfCh,1
type,point
parent_name,ff67b_0dot08-0dot1
ch_type,1_1
kcount,1
numberNandB,1
brightnessNandB,1
carpet pos,0
pc,0
Time (ms),CH1 Auto-Correlation
1.0,0.06349849700927734
2.0,0.06281452625989914
3.0,0.06216132640838623
4.0,0.061545632779598236
5.0,0.060957737267017365
6.0,0.06038464233279228
7.0,0.05982044339179993
8.0,0.059298399835824966
9.0,0.058802053332328796
10.0,0.058340370655059814
11.0,0.057875651866197586
12.0,0.057418342679739
13.0,0.05695550516247749
14.0,0.05651246756315231
15.0,0.056077975779771805
16.0,0.05568034574389458
18.0,0.054878804832696915
20.0,0.05413215234875679
22.0,0.05338776484131813
24.0,0.05265284329652786
26.0,0.05200251191854477
28.0,0.05136515572667122
30.0,0.050721656531095505
32.0,0.05010596662759781
36.0,0.0489768385887146
40.0,0.047893088310956955
44.0,0.046982310712337494
48.0,0.046029917895793915
52.0,0.04498701170086861
56.0,0.04386439174413681
60.0,0.04272138327360153
64.0,0.04163777828216553
72.0,0.039504118263721466
80.0,0.03756324201822281
88.0,0.03557765111327171
96.0,0.033649992197752
104.0,0.0317591056227684
112.0,0.03021852858364582
120.0,0.028843853622674942
128.0,0.027294259518384933
144.0,0.024132682010531425
160.0,0.021144619211554527
176.0,0.01861586421728134
192.0,0.016243135556578636
208.0,0.014185909181833267
224.0,0.012802861630916595
240.0,0.011751019395887852
256.0,0.010708683170378208
288.0,0.008799703791737556
320.0,0.006431700196117163
352.0,0.0036225796211510897
384.0,0.0006286650313995779
416.0,-0.0022393870167434216
448.0,-0.004645131062716246
480.0,-0.006669687572866678
512.0,-0.007506272755563259
576.0,-0.0064508672803640366
640.0,-0.005368925631046295
704.0,-0.0025092288851737976
768.0,0.0014445730485022068
832.0,0.005166964139789343
896.0,0.0026690280064940453
960.0,-0.0017066507134586573
1024.0,-0.00559048168361187
1152.0,-0.008833292871713638
1280.0,-0.0080812256783247
1408.0,-0.006633127573877573
1536.0,-0.004725944250822067
1664.0,-0.000870048999786377
1792.0,-0.00399650726467371
1920.0,-0.004450884647667408
2048.0,-0.004620402120053768
2304.0,-0.0057907565496861935
2560.0,-0.001417033956386149
2816.0,-0.0007467258255928755
3072.0,0.002920197555795312
3328.0,0.0042112767696380615
3584.0,0.006092197261750698
3840.0,0.007899756543338299
4096.0,0.00046277637011371553
4608.0,-0.0014297212474048138
5120.0,-0.008257229812443256
5632.0,-0.006717695854604244
6144.0,-0.003771265735849738
6656.0,0.008222362026572227
7168.0,0.009261447936296463
7680.0,-0.006322119385004044
8192.0,-0.004117228556424379
end
