version,3.0
numOfCh,1
type,point
parent_name,ff67b_0dot08-0dot1
ch_type,1_1
kcount,1
numberNandB,1
brightnessNandB,1
carpet pos,0
pc,0
Time (ms),CH1 Auto-Correlation
1.0,0.06520853191614151
2.0,0.06468842923641205
3.0,0.06419312953948975
4.0,0.06369967013597488
5.0,0.06321659684181213
6.0,0.06273752450942993
7.0,0.062263380736112595
8.0,0.06180107966065407
9.0,0.061343349516391754
10.0,0.06087443232536316
11.0,0.060420017689466476
12.0,0.05999036878347397
13.0,0.05955585092306137
14.0,0.05913422629237175
15.0,0.05872397497296333
16.0,0.05829587206244469
18.0,0.057456184178590775
20.0,0.05666161701083183
22.0,0.055895645171403885
24.0,0.05514419078826904
26.0,0.0544450618326664
28.0,0.053789690136909485
30.0,0.053148578852415085
32.0,0.052537474781274796
36.0,0.051387276500463486
40.0,0.05030401423573494
44.0,0.04926631227135658
48.0,0.048263538628816605
52.0,0.04729088023304939
56.0,0.046256162226200104
60.0,0.045207373797893524
64.0,0.04410284012556076
72.0,0.041999172419309616
80.0,0.03999479115009308
88.0,0.03806939721107483
96.0,0.03638391196727753
104.0,0.03487526997923851
112.0,0.03355342522263527
120.0,0.03244475647807121
128.0,0.031433504074811935
144.0,0.0295717716217041
160.0,0.028099486604332924
176.0,0.02695636637508869
192.0,0.025686541572213173
208.0,0.02454962022602558
224.0,0.023794054985046387
240.0,0.022870691493153572
256.0,0.021295364946126938
288.0,0.017763271927833557
320.0,0.014059622772037983
352.0,0.01083539891988039
384.0,0.009002144448459148
416.0,0.007754164282232523
448.0,0.007576885167509317
480.0,0.008973995223641396
512.0,0.010374180972576141
576.0,0.014740380458533764
640.0,0.017994733527302742
704.0,0.018894623965024948
768.0,0.01869090460240841
832.0,0.016642779111862183
896.0,0.012890320271253586
960.0,0.008457593619823456
1024.0,0.004353812430053949
1152.0,0.0010827980004251003
1280.0,0.004946096800267696
1408.0,0.01206858642399311
1536.0,0.0160038024187088
1664.0,0.01306900940835476
1792.0,0.006171252578496933
1920.0,0.006108725443482399
2048.0,0.009415430948138237
2304.0,0.013909367844462395
2560.0,0.004654585383832455
2816.0,0.0075748334638774395
3072.0,0.009020722471177578
3328.0,-0.00529332272708416
3584.0,0.0012663728557527065
3840.0,0.008826267905533314
4096.0,-0.0019334392854943871
4608.0,-0.0031195697374641895
5120.0,-0.012727922759950161
5632.0,-0.008839339017868042
6144.0,-0.012951342388987541
6656.0,-0.012234283611178398
7168.0,-0.01858195848762989
7680.0,-0.010328141041100025
8192.0,-0.01097960490733385
end
