version,3.0
numOfCh,1
type,point
parent_name,ff67b_0dot08-0dot1
ch_type,1_1
kcount,1
numberNandB,1
brightnessNandB,1
carpet pos,0
pc,0
Time (ms),CH1 Auto-Correlation
1.0,0.0659744068980217
2.0,0.06534288078546524
3.0,0.06473921239376068
4.0,0.06413546204566956
5.0,0.06353045254945755
6.0,0.06295280903577805
7.0,0.062378983944654465
8.0,0.06181178241968155
9.0,0.06126737967133522
10.0,0.06074364855885506
11.0,0.06024288758635521
12.0,0.059764862060546875
13.0,0.05928720906376839
14.0,0.0588378980755806
15.0,0.058384496718645096
16.0,0.05794277414679527
18.0,0.057142000645399094
20.0,0.05639801546931267
22.0,0.05565418303012848
24.0,0.05492034927010536
26.0,0.054204314947128296
28.0,0.05349084734916687
30.0,0.05277695506811142
32.0,0.052045371383428574
36.0,0.050471801310777664
40.0,0.04889983683824539
44.0,0.04737241938710213
48.0,0.04605022817850113
52.0,0.04491167142987251
56.0,0.04373067989945412
60.0,0.042492613196372986
64.0,0.04118204116821289
72.0,0.038659851998090744
80.0,0.03625421226024628
88.0,0.034167058765888214
96.0,0.0324268601834774
104.0,0.030903952196240425
112.0,0.029452132061123848
120.0,0.027840927243232727
128.0,0.026454633101820946
144.0,0.02429247833788395
160.0,0.022311527281999588
176.0,0.020451011136174202
192.0,0.018498728051781654
208.0,0.016644004732370377
224.0,0.015124971978366375
240.0,0.013934077695012093
256.0,0.013602998107671738
288.0,0.012696393765509129
320.0,0.012189184315502644
352.0,0.011113105341792107
384.0,0.009987075813114643
416.0,0.008493853732943535
448.0,0.008238300681114197
480.0,0.008410672657191753
512.0,0.008666078560054302
576.0,0.005912229418754578
640.0,0.003499553771689534
704.0,-0.0001875344751169905
768.0,-0.003935398068279028
832.0,-0.006562037393450737
896.0,-0.010165981017053127
960.0,-0.012693483382463455
1024.0,-0.010182313621044159
1152.0,-0.008395877666771412
1280.0,-0.008023390546441078
1408.0,-0.011165879666805267
1536.0,-0.0060995351523160934
1664.0,-0.009299981407821178
1792.0,-0.004605026450008154
1920.0,0.0004403339698910713
2048.0,0.0036876907106488943
2304.0,0.0029022626113146544
2560.0,0.002818451728671789
2816.0,0.0025985809043049812
3072.0,-0.0002594415855128318
3328.0,-0.0030644272919744253
3584.0,-0.0044944011606276035
3840.0,-0.004992655944079161
4096.0,-0.004419246222823858
4608.0,-0.0016581651289016008
5120.0,-0.0016946530668064952
5632.0,0.0022553098388016224
6144.0,0.010492932982742786
6656.0,0.0028388281352818012
7168.0,-0.00615161145105958
7680.0,0.0037471940740942955
8192.0,0.009575510397553444
end
