version,3.0
numOfCh,1
type,point
parent_name,ff67b_0dot08-0dot1
ch_type,1_1
kcount,1
numberNandB,1
brightnessNandB,1
carpet pos,0
pc,0
Time (ms),CH1 Auto-Correlation
1.0,0.06480308622121811
2.0,0.0643017590045929
3.0,0.06382444500923157
4.0,0.06334728002548218
5.0,0.06287466734647751
6.0,0.062417495995759964
7.0,0.06196880340576172
8.0,0.06152810528874397
9.0,0.06109648570418358
10.0,0.06067794933915138
11.0,0.06026696413755417
12.0,0.059868223965168
13.0,0.059476662427186966
14.0,0.05907745659351349
15.0,0.058687400072813034
16.0,0.05831010267138481
18.0,0.05757182464003563
20.0,0.056846734136343
22.0,0.05611744150519371
24.0,0.05539470538496971
26.0,0.05470407381653786
28.0,0.05404471978545189
30.0,0.05342638120055199
32.0,0.05281047523021698
36.0,0.051638443022966385
40.0,0.05057065933942795
44.0,0.049573346972465515
48.0,0.04857007414102554
52.0,0.04762249439954758
56.0,0.04680229350924492
60.0,0.046018071472644806
64.0,0.04521137848496437
72.0,0.043538887053728104
80.0,0.041905175894498825
88.0,0.04029916599392891
96.0,0.038920026272535324
104.0,0.03756105527281761
112.0,0.03629758208990097
120.0,0.03509091958403587
128.0,0.033854953944683075
144.0,0.03130311891436577
160.0,0.02859884686768055
176.0,0.02629830315709114
192.0,0.02429228648543358
208.0,0.02241908572614193
224.0,0.02051215060055256
240.0,0.018930310383439064
256.0,0.017478950321674347
288.0,0.013960707001388073
320.0,0.012098473496735096
352.0,0.01070146169513464
384.0,0.00850231759250164
416.0,0.006223076023161411
448.0,0.0053434246219694614
480.0,0.0052332086488604546
512.0,0.005881711840629578
576.0,0.0062873950228095055
640.0,0.007394593209028244
704.0,0.007751074153929949
768.0,0.006446064915508032
832.0,0.0071893660351634026
896.0,0.011845137923955917
960.0,0.014388609677553177
1024.0,0.015266758389770985
1152.0,0.013075791299343109
1280.0,0.010113074444234371
1408.0,0.008283001370728016
1536.0,0.006947854068130255
1664.0,0.005481215193867683
1792.0,-0.0011447856668382883
1920.0,-0.0004923399537801743
2048.0,0.004425230901688337
2304.0,0.0007090373546816409
2560.0,-0.000703014840837568
2816.0,-0.007365054450929165
3072.0,-0.007119372487068176
3328.0,-0.007733055390417576
3584.0,0.0036118405405431986
3840.0,0.0016346907941624522
4096.0,-0.0004875502490904182
4608.0,-0.008271947503089905
5120.0,-0.004408343229442835
5632.0,0.006958697456866503
6144.0,-0.015406928025186062
6656.0,-0.009217899292707443
7168.0,-0.012277030386030674
7680.0,-0.013375172391533852
8192.0,-0.01683545857667923
end
