version,3.0
numOfCh,1
type,point
parent_name,ff67b_0dot08-0dot1
ch_type,1_1
kcount,1
numberNandB,1
brightnessNandB,1
carpet pos,0
pc,0
Time (ms),CH1 Auto-Correlation
1.0,0.10495815426111221
2.0,0.10438031703233719
3.0,0.10381392389535904
4.0,0.10325108468532562
5.0,0.10269218683242798
6.0,0.10215393453836441
7.0,0.10161988437175751
8.0,0.1010761559009552
9.0,0.10054626315832138
10.0,0.10001511871814728
11.0,0.09950608760118484
12.0,0.09899124503135681
13.0,0.09848888218402863
14.0,0.09800346195697784
15.0,0.09751176089048386
16.0,0.09702751040458679
18.0,0.09613800048828125
20.0,0.09527576714754105
22.0,0.09444594383239746
24.0,0.09363916516304016
26.0,0.09284219890832901
28.0,0.0920550599694252
30.0,0.09130068868398666
32.0,0.0905938670039177
36.0,0.08923618495464325
40.0,0.08798092603683472
44.0,0.08675239235162735
48.0,0.08547627925872803
52.0,0.08424444496631622
56.0,0.08310875296592712
60.0,0.08207277208566666
64.0,0.08105059713125229
72.0,0.07923910021781921
80.0,0.07760828733444214
88.0,0.07602763175964355
96.0,0.07457423210144043
104.0,0.07313140481710434
112.0,0.07175121456384659
120.0,0.07076714932918549
128.0,0.06996238976716995
144.0,0.0686107724905014
160.0,0.06788691133260727
176.0,0.06730276346206665
192.0,0.06667759269475937
208.0,0.06594150513410568
224.0,0.06493135541677475
240.0,0.06375807523727417
256.0,0.06241530925035477
288.0,0.059317272156476974
320.0,0.05596313253045082
352.0,0.05306447669863701
384.0,0.050630878657102585
416.0,0.050019387155771255
448.0,0.049004703760147095
480.0,0.0478951558470726
512.0,0.045000914484262466
576.0,0.042255982756614685
640.0,0.0406726598739624
704.0,0.03759554401040077
768.0,0.034290771931409836
832.0,0.030077550560235977
896.0,0.02844592183828354
960.0,0.02777240239083767
1024.0,0.02535550482571125
1152.0,0.021294785663485527
1280.0,0.019849635660648346
1408.0,0.016949785873293877
1536.0,0.012504585087299347
1664.0,0.010418767109513283
1792.0,0.007731068413704634
1920.0,0.008180612698197365
2048.0,0.007446691393852234
2304.0,-0.0005721812485717237
2560.0,-0.008437883108854294
2816.0,-0.015247014351189137
3072.0,-0.013695761561393738
3328.0,-0.016339201480150223
3584.0,-0.020339014008641243
3840.0,-0.023008614778518677
4096.0,-0.027396008372306824
4608.0,-0.03151522949337959
5120.0,-0.04201636463403702
5632.0,-0.04655258730053902
6144.0,-0.036971572786569595
6656.0,-0.026902738958597183
7168.0,-0.014295186847448349
7680.0,0.0008630522061139345
8192.0,0.00849017035216093
end
