version,3.0
numOfCh,1
type,point
parent_name,ff67b_0dot08-0dot1
ch_type,1_1
kcount,1
numberNandB,1
brightnessNandB,1
carpet pos,0
pc,0
Time (ms),CH1 Auto-Correlation
1.0,0.06142415478825569
2.0,0.06088056042790413
3.0,0.060348838567733765
4.0,0.05982821434736252
5.0,0.05931258201599121
6.0,0.058792147785425186
7.0,0.05826893821358681
8.0,0.05777500942349434
9.0,0.05729212239384651
10.0,0.05681965872645378
11.0,0.05632835999131203
12.0,0.055833157151937485
13.0,0.055349551141262054
14.0,0.05486585199832916
15.0,0.05438629910349846
16.0,0.0539076067507267
18.0,0.05297356843948364
20.0,0.052056387066841125
22.0,0.05117858201265335
24.0,0.05034466087818146
26.0,0.049599047750234604
28.0,0.04885260388255119
30.0,0.04809314012527466
32.0,0.047370001673698425
36.0,0.04601595178246498
40.0,0.04472281411290169
44.0,0.04353726655244827
48.0,0.042421482503414154
52.0,0.04135200381278992
56.0,0.04027510806918144
60.0,0.03926803171634674
64.0,0.03825394809246063
72.0,0.036374595016241074
80.0,0.034845467656850815
88.0,0.033417120575904846
96.0,0.031782958656549454
104.0,0.030034728348255157
112.0,0.028477691113948822
120.0,0.027147255837917328
128.0,0.026083573698997498
144.0,0.02449977584183216
160.0,0.02341734804213047
176.0,0.0229051411151886
192.0,0.022228090092539787
208.0,0.021363714709877968
224.0,0.020531844347715378
240.0,0.01951257325708866
256.0,0.017888948321342468
288.0,0.015170418657362461
320.0,0.013572262600064278
352.0,0.012369572184979916
384.0,0.012068044394254684
416.0,0.01229300070554018
448.0,0.011303686536848545
480.0,0.009767691604793072
512.0,0.008204061537981033
576.0,0.005704105366021395
640.0,0.006173812318593264
704.0,0.005436518229544163
768.0,0.004282200243324041
832.0,0.0024835034273564816
896.0,0.002209674334153533
960.0,0.0027106418274343014
1024.0,0.0008808627026155591
1152.0,0.00036990150692872703
1280.0,0.0024026010651141405
1408.0,0.004258560016751289
1536.0,0.005567410495132208
1664.0,0.00378266628831625
1792.0,0.0004562767571769655
1920.0,0.0011370754800736904
2048.0,0.0013036204036325216
2304.0,0.003315668785944581
2560.0,-0.001034582150168717
2816.0,-0.005448464769870043
3072.0,0.0022812201641499996
3328.0,0.0060859136283397675
3584.0,0.005160427652299404
3840.0,0.005340445786714554
4096.0,0.00047283119056373835
4608.0,-0.0043927752412855625
5120.0,-0.002820231718942523
5632.0,-0.00018160334730055183
6144.0,0.00020110915647819638
6656.0,-0.0004906245158053935
7168.0,-0.0005909384344704449
7680.0,-0.008459505625069141
8192.0,-0.013831564225256443
end
