version,3.0
numOfCh,1
type,point
parent_name,ff67b_0dot08-0dot1
ch_type,1_1
kcount,1
numberNandB,1
brightnessNandB,1
carpet pos,0
pc,0
Time (ms),CH1 Auto-Correlation
1.0,0.07842067629098892
2.0,0.07748563587665558
3.0,0.07658448815345764
4.0,0.07575759291648865
5.0,0.075013168156147
6.0,0.07427209615707397
7.0,0.07356828451156616
8.0,0.0728655755519867
9.0,0.0721651166677475
10.0,0.07148537784814835
11.0,0.07086952030658722
12.0,0.07029934972524643
13.0,0.06975238025188446
14.0,0.06923014670610428
15.0,0.06869073957204819
16.0,0.06820038706064224
18.0,0.06723088771104813
20.0,0.06618469953536987
22.0,0.06520368903875351
24.0,0.06431008130311966
26.0,0.06335486471652985
28.0,0.06236379221081734
30.0,0.061349667608737946
32.0,0.060321297496557236
36.0,0.058326657861471176
40.0,0.05653409659862518
44.0,0.05481977015733719
48.0,0.05329939350485802
52.0,0.05188827961683273
56.0,0.05059879273176193
60.0,0.04934166371822357
64.0,0.04819624871015549
72.0,0.04572281613945961
80.0,0.043362535536289215
88.0,0.04112923890352249
96.0,0.038937412202358246
104.0,0.03666091337800026
112.0,0.0345023050904274
120.0,0.032639142125844955
128.0,0.03148858994245529
144.0,0.030275072902441025
160.0,0.029749302193522453
176.0,0.030181124806404114
192.0,0.03009852021932602
208.0,0.02942514419555664
224.0,0.028619199991226196
240.0,0.027303418144583702
256.0,0.02585473656654358
288.0,0.02392471581697464
320.0,0.02363702841103077
352.0,0.02390957623720169
384.0,0.023941684514284134
416.0,0.02444751188158989
448.0,0.023398544639348984
480.0,0.020143885165452957
512.0,0.01975415274500847
576.0,0.021454807370901108
640.0,0.018223974853754044
704.0,0.010891243815422058
768.0,0.009304610081017017
832.0,0.011596793308854103
896.0,0.010525695979595184
960.0,0.008596491068601608
1024.0,0.009955444373190403
1152.0,0.007328792940825224
1280.0,0.010096421465277672
1408.0,0.007929458282887936
1536.0,0.009091248735785484
1664.0,0.008101253770291805
1792.0,0.006304589100182056
1920.0,0.00635356642305851
2048.0,0.001029545092023909
2304.0,-0.0059302793815732
2560.0,-0.010926059447228909
2816.0,-0.014963868074119091
3072.0,-0.015318120829761028
3328.0,-0.014098319225013256
3584.0,-0.019888009876012802
3840.0,-0.013687114231288433
4096.0,-0.020870059728622437
4608.0,-0.016885392367839813
5120.0,-0.014281884767115116
5632.0,-0.007783028297126293
6144.0,0.006111348979175091
6656.0,0.012475717812776566
7168.0,-0.00020406984549481422
7680.0,0.005478619132190943
8192.0,0.014325792901217937
end
