version,3.0
numOfCh,1
type,point
parent_name,ff67b_0dot08-0dot1
ch_type,1_1
kcount,1
numberNandB,1
brightnessNandB,1
carpet pos,0
pc,0
Time (ms),CH1 Auto-Correlation
1.0,0.07128454744815826
2.0,0.07053973525762558
3.0,0.0698218122124672
4.0,0.06910212337970734
5.0,0.06844274699687958
6.0,0.06782656162977219
7.0,0.06720519810914993
8.0,0.06662530452013016
9.0,0.0660766139626503
10.0,0.06549223512411118
11.0,0.06492413580417633
12.0,0.0643937736749649
13.0,0.0638352707028389
14.0,0.06327074766159058
15.0,0.0627196803689003
16.0,0.06221156194806099
18.0,0.061225272715091705
20.0,0.06028059124946594
22.0,0.05926847830414772
24.0,0.05824625492095947
26.0,0.0572514683008194
28.0,0.05621878802776337
30.0,0.055290043354034424
32.0,0.05439122021198273
36.0,0.052694983780384064
40.0,0.051241498440504074
44.0,0.04993462190032005
48.0,0.04845808446407318
52.0,0.047057416290044785
56.0,0.04575476050376892
60.0,0.04449283331632614
64.0,0.04338071495294571
72.0,0.04137754440307617
80.0,0.039575569331645966
88.0,0.03773223236203194
96.0,0.035977158695459366
104.0,0.03461170569062233
112.0,0.03341091051697731
120.0,0.03201137110590935
128.0,0.030544809997081757
144.0,0.027352286502718925
160.0,0.02497115358710289
176.0,0.02262374386191368
192.0,0.020209088921546936
208.0,0.018506431952118874
224.0,0.01705475151538849
240.0,0.01572955958545208
256.0,0.01454679761081934
288.0,0.012958726845681667
320.0,0.011531475000083447
352.0,0.010172870010137558
384.0,0.010293555445969105
416.0,0.008947143331170082
448.0,0.009102356620132923
480.0,0.009891696274280548
512.0,0.009380079805850983
576.0,0.003595508635044098
640.0,0.001198778161779046
704.0,-0.002677043667063117
768.0,-0.004643087275326252
832.0,-0.006642223801463842
896.0,-0.00942979659885168
960.0,-0.0072684092447161674
1024.0,-0.0051988172344863415
1152.0,-0.0028201944660395384
1280.0,-0.0012358891544863582
1408.0,0.0006764133577235043
1536.0,-0.0005332963191904128
1664.0,-0.0006385883316397667
1792.0,0.0013382795732468367
1920.0,-0.002427771920338273
2048.0,-0.008156588301062584
2304.0,-0.0006052226526662707
2560.0,0.0016024071956053376
2816.0,0.00569247966632247
3072.0,1.8223552160634426e-06
3328.0,0.0031597125343978405
3584.0,-0.0024832789786159992
3840.0,0.0036996484268456697
4096.0,0.004942787811160088
4608.0,-0.007573170121759176
5120.0,-0.004948033485561609
5632.0,0.006851816084235907
6144.0,-0.014216111972928047
6656.0,-0.012731199152767658
7168.0,0.0022707763127982616
7680.0,0.0009923194302245975
8192.0,0.006654451135545969
end
