version,3.0
numOfCh,1
type,point
parent_name,ff67b_0dot08-0dot1
ch_type,1_1
kcount,1
numberNandB,1
brightnessNandB,1
carpet pos,0
pc,0
Time (ms),CH1 Auto-Correlation
1.0,0.12895219027996063
2.0,0.12425561994314194
3.0,0.11999734491109848
4.0,0.11537455767393112
5.0,0.11067467927932739
6.0,0.10627333074808121
7.0,0.10223513096570969
8.0,0.09798558056354523
9.0,0.0935596451163292
10.0,0.08932308852672577
11.0,0.08550745993852615
12.0,0.08111794292926788
13.0,0.07665692269802094
14.0,0.0760151743888855
15.0,0.0755378007888794
16.0,0.07511075586080551
18.0,0.07423841953277588
20.0,0.07320886105298996
22.0,0.07230954617261887
24.0,0.07156538218259811
26.0,0.07083627581596375
28.0,0.07014820724725723
30.0,0.06942586600780487
32.0,0.06859304010868073
36.0,0.06668587028980255
40.0,0.06501305103302002
44.0,0.06347082555294037
48.0,0.06226692721247673
52.0,0.06118210032582283
56.0,0.05998973548412323
60.0,0.05888115614652634
64.0,0.05818325653672218
72.0,0.05600464716553688
80.0,0.053845081478357315
88.0,0.05184169486165047
96.0,0.0505085289478302
104.0,0.048974595963954926
112.0,0.04746131971478462
120.0,0.045791491866111755
128.0,0.04529190436005592
144.0,0.04293859377503395
160.0,0.04140615090727806
176.0,0.039381664246320724
192.0,0.037357982248067856
208.0,0.035197995603084564
224.0,0.033466141670942307
240.0,0.03255125507712364
256.0,0.0313396230340004
288.0,0.030136290937662125
320.0,0.029824448749423027
352.0,0.030398216098546982
384.0,0.02911711484193802
416.0,0.03071223758161068
448.0,0.028266478329896927
480.0,0.025744276121258736
512.0,0.024685928598046303
576.0,0.020248860120773315
640.0,0.019151577726006508
704.0,0.019701479002833366
768.0,0.019548920914530754
832.0,0.01634085923433304
896.0,0.012681004591286182
960.0,0.011391439475119114
1024.0,0.011132451705634594
1152.0,0.011278781108558178
1280.0,0.011406265199184418
1408.0,0.014659479260444641
1536.0,0.015067913569509983
1664.0,0.007032005116343498
1792.0,0.0019580572843551636
1920.0,0.003536598989740014
2048.0,0.0021050209179520607
2304.0,-0.012913139536976814
2560.0,-0.013651436194777489
2816.0,-0.021875688806176186
3072.0,-0.01095019094645977
3328.0,-0.007823308929800987
3584.0,-0.012477594427764416
3840.0,-0.019326770678162575
4096.0,-0.021500399336218834
4608.0,-0.009627929888665676
5120.0,0.004169494844973087
5632.0,0.01233496330678463
6144.0,0.018726538866758347
6656.0,0.02503654733300209
7168.0,0.022790612652897835
7680.0,0.01250197272747755
8192.0,-0.0054586646147072315
end
