version,3.0
numOfCh,1
type,point
parent_name,ff67b_0dot08-0dot1
ch_type,1_1
kcount,1
numberNandB,1
brightnessNandB,1
carpet pos,0
pc,0
Time (ms),CH1 Auto-Correlation
1.0,0.11694562435150146
2.0,0.11258237808942795
3.0,0.10830836743116379
4.0,0.1039162427186966
5.0,0.09931376576423645
6.0,0.09421277791261673
7.0,0.08895685523748398
8.0,0.08405724912881851
9.0,0.07926587015390396
10.0,0.07434037327766418
11.0,0.06957816332578659
12.0,0.06545267254114151
13.0,0.061413247138261795
14.0,0.057723551988601685
15.0,0.0545637421309948
16.0,0.051656365394592285
18.0,0.05068435147404671
20.0,0.04949736222624779
22.0,0.04839131981134415
24.0,0.04726322367787361
26.0,0.04594371095299721
28.0,0.044481366872787476
30.0,0.04296822100877762
32.0,0.041757795959711075
36.0,0.039857495576143265
40.0,0.038343269377946854
44.0,0.03698496147990227
48.0,0.03586810082197189
52.0,0.03472069278359413
56.0,0.03346598520874977
60.0,0.032095447182655334
64.0,0.031018471345305443
72.0,0.02933952957391739
80.0,0.028063105419278145
88.0,0.026876449584960938
96.0,0.025379318743944168
104.0,0.023851390928030014
112.0,0.02275729551911354
120.0,0.021845394745469093
128.0,0.02130688726902008
144.0,0.020599190145730972
160.0,0.018999416381120682
176.0,0.017499595880508423
192.0,0.016283415257930756
208.0,0.01576310396194458
224.0,0.014669944532215595
240.0,0.013360652141273022
256.0,0.01252923533320427
288.0,0.013620187528431416
320.0,0.013589692302048206
352.0,0.013782639987766743
384.0,0.013984940946102142
416.0,0.015296204946935177
448.0,0.014996503479778767
480.0,0.013931039720773697
512.0,0.013054640032351017
576.0,0.013420719653367996
640.0,0.011196711100637913
704.0,0.008937259204685688
768.0,0.006972106173634529
832.0,0.005798984784632921
896.0,0.0032237067352980375
960.0,0.0016285850433632731
1024.0,0.0016833788249641657
1152.0,-0.001847598236054182
1280.0,-0.008528340607881546
1408.0,-0.0035933461040258408
1536.0,-0.0044233831577003
1664.0,-0.008724993094801903
1792.0,-0.007239092141389847
1920.0,-0.0026246625930070877
2048.0,0.0007642396376468241
2304.0,0.0018723885295912623
2560.0,0.005926625337451696
2816.0,0.00659590307623148
3072.0,0.006856117397546768
3328.0,0.0011159376008436084
3584.0,-0.0011567544424906373
3840.0,-0.003105898154899478
4096.0,-0.0008086636662483215
4608.0,-0.0025297575630247593
5120.0,-0.003471733070909977
5632.0,-0.004106814041733742
6144.0,-0.00785534456372261
6656.0,-0.01501607894897461
7168.0,-0.014895226806402206
7680.0,-0.010714896023273468
8192.0,0.005705682095140219
end
