version,3.0
numOfCh,1
type,point
parent_name,ff67b_0dot08-0dot1
ch_type,1_1
kcount,1
numberNandB,1
brightnessNandB,1
carpet pos,0
pc,0
Time (ms),CH1 Auto-Correlation
1.0,0.06724569946527481
2.0,0.06632377207279205
3.0,0.06549479067325592
4.0,0.06474548578262329
5.0,0.06402774900197983
6.0,0.06328252702951431
7.0,0.06254749745130539
8.0,0.06181476265192032
9.0,0.061092156916856766
10.0,0.06037129461765289
11.0,0.05969374254345894
12.0,0.059076305478811264
13.0,0.058412015438079834
14.0,0.057781968265771866
15.0,0.057229530066251755
16.0,0.05663395673036575
18.0,0.05544157326221466
20.0,0.054219819605350494
22.0,0.0530131459236145
24.0,0.051903609186410904
26.0,0.050798337906599045
28.0,0.04975159466266632
30.0,0.04870472475886345
32.0,0.04773716628551483
36.0,0.04589465633034706
40.0,0.04426449164748192
44.0,0.0427403524518013
48.0,0.04116556793451309
52.0,0.03959793597459793
56.0,0.03811462223529816
60.0,0.03672043979167938
64.0,0.035270027816295624
72.0,0.03211278095841408
80.0,0.02985486015677452
88.0,0.028171485289931297
96.0,0.026913246139883995
104.0,0.02614014782011509
112.0,0.025452665984630585
120.0,0.024684147909283638
128.0,0.023821480572223663
144.0,0.022155210375785828
160.0,0.019989315420389175
176.0,0.017618883401155472
192.0,0.015171530656516552
208.0,0.013428771868348122
224.0,0.01171877607703209
240.0,0.009622783400118351
256.0,0.007743841502815485
288.0,0.005024896468967199
320.0,0.0031882862094789743
352.0,0.0019484095973894
384.0,0.0009643638622947037
416.0,-0.0009888838976621628
448.0,-0.002952126320451498
480.0,-0.003575359471142292
512.0,-0.002486670855432749
576.0,-0.0007471705321222544
640.0,0.0006932250689715147
704.0,0.005128119606524706
768.0,0.010472007095813751
832.0,0.00922350212931633
896.0,0.007259605918079615
960.0,0.0029954458586871624
1024.0,-0.002090874593704939
1152.0,-0.00883750431239605
1280.0,-0.012881393544375896
1408.0,-0.016002099961042404
1536.0,-0.011068209074437618
1664.0,-0.004790163598954678
1792.0,0.0030652352143079042
1920.0,0.0029434459283947945
2048.0,-0.003961098380386829
2304.0,-0.008631885051727295
2560.0,0.004430827219039202
2816.0,0.000506090116687119
3072.0,-0.01082022674381733
3328.0,-0.0051229484379291534
3584.0,-0.004986349493265152
3840.0,-0.003049845341593027
4096.0,-0.005051522050052881
4608.0,0.0061561428010463715
5120.0,-0.0012850241037085652
5632.0,0.007375911809504032
6144.0,0.006753106601536274
6656.0,0.011205392889678478
7168.0,-0.0014899881789460778
7680.0,-0.01811561919748783
8192.0,-0.0048819854855537415
end
