version,3.0
numOfCh,1
type,point
parent_name,ff67b_0dot08-0dot1
ch_type,1_1
kcount,1
numberNandB,1
brightnessNandB,1
carpet pos,0
pc,0
Time (ms),CH1 Auto-Correlation
1.0,0.0625721737742424
2.0,0.061877354979515076
3.0,0.061219509690999985
4.0,0.06057233735918999
5.0,0.059984635561704636
6.0,0.059412192553281784
7.0,0.058825474232435226
8.0,0.058240558952093124
9.0,0.05767136439681053
10.0,0.05712180957198143
11.0,0.056620314717292786
12.0,0.05611478164792061
13.0,0.05561281368136406
14.0,0.055128712207078934
15.0,0.05461316928267479
16.0,0.05410382151603699
18.0,0.053205981850624084
20.0,0.052368078380823135
22.0,0.051570940762758255
24.0,0.05081624537706375
26.0,0.050065699964761734
28.0,0.049375154078006744
30.0,0.04871436208486557
32.0,0.04801260679960251
36.0,0.04662466049194336
40.0,0.04528848081827164
44.0,0.04402259737253189
48.0,0.042777031660079956
52.0,0.04157252609729767
56.0,0.0405215285718441
60.0,0.03954518586397171
64.0,0.03862804174423218
72.0,0.036854758858680725
80.0,0.03508702665567398
88.0,0.03341800346970558
96.0,0.03199824318289757
104.0,0.030880821868777275
112.0,0.03003660775721073
120.0,0.02942623198032379
128.0,0.02923012711107731
144.0,0.028694085776805878
160.0,0.02815622091293335
176.0,0.027414165437221527
192.0,0.02629372663795948
208.0,0.025297902524471283
224.0,0.024579662829637527
240.0,0.02434864640235901
256.0,0.02474258653819561
288.0,0.024726945906877518
320.0,0.023949481546878815
352.0,0.023705482482910156
384.0,0.024259883910417557
416.0,0.02566317468881607
448.0,0.026758156716823578
480.0,0.02585623972117901
512.0,0.02469920739531517
576.0,0.021956531330943108
640.0,0.020094186067581177
704.0,0.017725247889757156
768.0,0.01620149426162243
832.0,0.01578129455447197
896.0,0.015325467102229595
960.0,0.013232971541583538
1024.0,0.010209213010966778
1152.0,0.006983245722949505
1280.0,0.0011449853191152215
1408.0,-0.0004135159542784095
1536.0,-0.001275477698072791
1664.0,-0.005082884803414345
1792.0,-0.0033036251552402973
1920.0,-0.003859680611640215
2048.0,-0.005528495647013187
2304.0,-0.0018729468574747443
2560.0,-0.0014241625322028995
2816.0,0.0015242289518937469
3072.0,-0.0003067940124310553
3328.0,-0.0009839258855208755
3584.0,-0.0026220805011689663
3840.0,-0.007977708242833614
4096.0,-0.01284400187432766
4608.0,-0.020174218341708183
5120.0,-0.020989611744880676
5632.0,-0.01294642873108387
6144.0,-0.002479473128914833
6656.0,0.002570883370935917
7168.0,0.004225549753755331
7680.0,0.004462223034352064
8192.0,0.00580863282084465
end
