version,3.0
numOfCh,1
type,point
parent_name,ff67b_0dot08-0dot1
ch_type,1_1
kcount,1
numberNandB,1
brightnessNandB,1
carpet pos,0
pc,0
Time (ms),CH1 Auto-Correlation
1.0,0.07051152735948563
2.0,0.0697607547044754
3.0,0.06904669851064682
4.0,0.06835497915744781
5.0,0.06772249191999435
6.0,0.06706889718770981
7.0,0.06643538922071457
8.0,0.06582560390233994
9.0,0.06524358689785004
10.0,0.06467317789793015
11.0,0.06412430852651596
12.0,0.06358920782804489
13.0,0.0630832090973854
14.0,0.06257709115743637
15.0,0.06207428127527237
16.0,0.06159049645066261
18.0,0.060624998062849045
20.0,0.059646084904670715
22.0,0.05869090557098389
24.0,0.057834185659885406
26.0,0.05705783888697624
28.0,0.0563543476164341
30.0,0.0556817464530468
32.0,0.055085279047489166
36.0,0.053997740149497986
40.0,0.053065888583660126
44.0,0.052191779017448425
48.0,0.051148440688848495
52.0,0.049978941679000854
56.0,0.0489061214029789
60.0,0.04800849407911301
64.0,0.04713519290089607
72.0,0.04556133598089218
80.0,0.04427555948495865
88.0,0.04327420890331268
96.0,0.04221782460808754
104.0,0.04096723720431328
112.0,0.039785999804735184
120.0,0.03859347477555275
128.0,0.03711298853158951
144.0,0.03489967808127403
160.0,0.03231328725814819
176.0,0.029845338314771652
192.0,0.02810407057404518
208.0,0.02623111382126808
224.0,0.024460306391119957
240.0,0.023708920925855637
256.0,0.022672496736049652
288.0,0.020618736743927002
320.0,0.01981404237449169
352.0,0.020073365420103073
384.0,0.019597698003053665
416.0,0.019266678020358086
448.0,0.019211484119296074
480.0,0.019579725340008736
512.0,0.01849059760570526
576.0,0.01557205617427826
640.0,0.006856852676719427
704.0,0.0005122035508975387
768.0,-0.001952465157955885
832.0,-0.002752054249867797
896.0,-0.0036333531606942415
960.0,-0.0052868640050292015
1024.0,-0.004559914581477642
1152.0,-0.0021335154306143522
1280.0,-0.006225417833775282
1408.0,-0.005789502058178186
1536.0,-0.002314826473593712
1664.0,0.006577180698513985
1792.0,0.005518054589629173
1920.0,0.0028347354382276535
2048.0,0.003677692962810397
2304.0,0.0074445041827857494
2560.0,0.008052184246480465
2816.0,0.012074285186827183
3072.0,0.010935917496681213
3328.0,0.005001744255423546
3584.0,-0.004433100111782551
3840.0,-0.008549298159778118
4096.0,-0.004275388550013304
4608.0,0.0019401556346565485
5120.0,-0.0006982858176343143
5632.0,-0.005401757080107927
6144.0,-0.0015120224561542273
6656.0,0.0020227129571139812
7168.0,0.004944903310388327
7680.0,0.0014023573603481054
8192.0,-0.015119119547307491
end
