version,3.0
numOfCh,1
type,point
parent_name,ff67b_0dot08-0dot1
ch_type,1_1
kcount,1
numberNandB,1
brightnessNandB,1
carpet pos,0
pc,0
Time (ms),CH1 Auto-Correlation
1.0,0.06553547829389572
2.0,0.06483172625303268
3.0,0.06418222934007645
4.0,0.06355028599500656
5.0,0.06291691213846207
6.0,0.062288567423820496
7.0,0.061678431928157806
8.0,0.061060111969709396
9.0,0.06047113239765167
10.0,0.05990288779139519
11.0,0.05935512110590935
12.0,0.058805111795663834
13.0,0.05824606493115425
14.0,0.057724397629499435
15.0,0.05722634121775627
16.0,0.05671184882521629
18.0,0.055733904242515564
20.0,0.054844409227371216
22.0,0.05393535643815994
24.0,0.05297747254371643
26.0,0.05204932391643524
28.0,0.05113489553332329
30.0,0.05025181546807289
32.0,0.04941911995410919
36.0,0.04784097895026207
40.0,0.04638226330280304
44.0,0.045060183852910995
48.0,0.043796781450510025
52.0,0.04252469912171364
56.0,0.04129582270979881
60.0,0.04010642692446709
64.0,0.03898680955171585
72.0,0.03714577853679657
80.0,0.03551611304283142
88.0,0.03406074643135071
96.0,0.03256244584918022
104.0,0.031018557026982307
112.0,0.02956671454012394
120.0,0.028101380914449692
128.0,0.026369433850049973
144.0,0.023154819384217262
160.0,0.020291881635785103
176.0,0.017882298678159714
192.0,0.01659444160759449
208.0,0.016260728240013123
224.0,0.01574954390525818
240.0,0.01504974253475666
256.0,0.0140920989215374
288.0,0.012733453884720802
320.0,0.009953412227332592
352.0,0.007394043728709221
384.0,0.005886571481823921
416.0,0.005501837469637394
448.0,0.004881084896624088
480.0,0.004533579107373953
512.0,0.0035422598011791706
576.0,0.0031061461195349693
640.0,0.004573817364871502
704.0,0.007075164467096329
768.0,0.007166545372456312
832.0,0.004524062387645245
896.0,0.004096088465303183
960.0,0.003497381927445531
1024.0,0.0009367931052111089
1152.0,-0.0010960231302306056
1280.0,0.00034506397787481546
1408.0,0.0008738535107113421
1536.0,0.0030870833434164524
1664.0,0.004435522481799126
1792.0,0.004456595052033663
1920.0,0.0011232144897803664
2048.0,0.004267949145287275
2304.0,0.003756694495677948
2560.0,-0.0028025631327182055
2816.0,-0.011104144155979156
3072.0,-0.006978521589189768
3328.0,0.00016598626098129898
3584.0,-0.004834687802940607
3840.0,-0.01087065041065216
4096.0,-0.012299997732043266
4608.0,-0.007107687182724476
5120.0,-0.00784764438867569
5632.0,-0.0061059631407260895
6144.0,-1.0487635336176027e-05
6656.0,-0.001234177267178893
7168.0,-0.006247759331017733
7680.0,0.0006254220497794449
8192.0,0.011749807745218277
end
