version,3.0
numOfCh,1
type,point
parent_name,ff67b_0dot08-0dot1
ch_type,1_1
kcount,1
numberNandB,1
brightnessNandB,1
carpet pos,0
pc,0
Time (ms),CH1 Auto-Correlation
1.0,0.05560652166604996
2.0,0.054829906672239304
3.0,0.054116226732730865
4.0,0.05346868187189102
5.0,0.052795059978961945
6.0,0.05210653319954872
7.0,0.051425665616989136
8.0,0.05078966170549393
9.0,0.05012527480721474
10.0,0.049435943365097046
11.0,0.048814691603183746
12.0,0.04823223873972893
13.0,0.047640763223171234
14.0,0.047060661017894745
15.0,0.04640139266848564
16.0,0.04579026997089386
18.0,0.04470376670360565
20.0,0.043643053621053696
22.0,0.04269867390394211
24.0,0.04186420142650604
26.0,0.04104958847165108
28.0,0.04024345800280571
30.0,0.03947359696030617
32.0,0.038731276988983154
36.0,0.03734743222594261
40.0,0.03612035885453224
44.0,0.0348091721534729
48.0,0.033541079610586166
52.0,0.032256439328193665
56.0,0.031023137271404266
60.0,0.029850415885448456
64.0,0.028911137953400612
72.0,0.02728046104311943
80.0,0.02560175210237503
88.0,0.023947792127728462
96.0,0.02228402905166149
104.0,0.02073032222688198
112.0,0.019242456182837486
120.0,0.017864860594272614
128.0,0.01664593443274498
144.0,0.015092353336513042
160.0,0.013699153438210487
176.0,0.012827967293560505
192.0,0.012507939711213112
208.0,0.012149985879659653
224.0,0.011300106532871723
240.0,0.00987617764621973
256.0,0.008358268067240715
288.0,0.005500006955116987
320.0,0.004579999018460512
352.0,0.005225104279816151
384.0,0.005516353528946638
416.0,0.005409323610365391
448.0,0.005169309210032225
480.0,0.0049347239546477795
512.0,0.004701627884060144
576.0,0.006289570592343807
640.0,0.007304450962692499
704.0,0.009501547552645206
768.0,0.010583346709609032
832.0,0.00974200014024973
896.0,0.01007157377898693
960.0,0.01090096216648817
1024.0,0.010055998340249062
1152.0,0.005031220614910126
1280.0,0.0014903860865160823
1408.0,-0.0020569448824971914
1536.0,-0.005829267669469118
1664.0,-0.0018399927066639066
1792.0,-0.0013819325249642134
1920.0,0.0014322532806545496
2048.0,0.00648199487477541
2304.0,-0.00531168794259429
2560.0,-0.0015381822595372796
2816.0,0.009838082827627659
3072.0,0.006712454836815596
3328.0,-0.00019963193335570395
3584.0,-0.0031744178850203753
3840.0,0.0066995625384151936
4096.0,0.005913460627198219
4608.0,-0.0052173687145113945
5120.0,0.005122894421219826
5632.0,-0.0006455109687522054
6144.0,-0.00012943461479153484
6656.0,-0.007962414063513279
7168.0,-0.011357712559401989
7680.0,-0.013793829828500748
8192.0,-0.004394098185002804
end
