version,3.0
numOfCh,1
type,point
parent_name,ff67b_0dot08-0dot1
ch_type,1_1
kcount,1
numberNandB,1
brightnessNandB,1
carpet pos,0
pc,0
Time (ms),CH1 Auto-Correlation
1.0,0.0896376222372055
2.0,0.08901715278625488
3.0,0.0884178951382637
4.0,0.08785407245159149
5.0,0.0873078778386116
6.0,0.08680467307567596
7.0,0.08631706982851028
8.0,0.08577847480773926
9.0,0.08528552949428558
10.0,0.08478884398937225
11.0,0.08432256430387497
12.0,0.08385191112756729
13.0,0.08342821896076202
14.0,0.08297517150640488
15.0,0.08252033591270447
16.0,0.08207312226295471
18.0,0.08116978406906128
20.0,0.08029760420322418
22.0,0.0794643685221672
24.0,0.07864230126142502
26.0,0.07781476527452469
28.0,0.07700274139642715
30.0,0.07617165893316269
32.0,0.0753629133105278
36.0,0.07386329770088196
40.0,0.07241251319646835
44.0,0.07103069126605988
48.0,0.0696706548333168
52.0,0.06835274398326874
56.0,0.0670822262763977
60.0,0.0659051239490509
64.0,0.06476476788520813
72.0,0.06252247840166092
80.0,0.060401059687137604
88.0,0.05815849453210831
96.0,0.055964257568120956
104.0,0.053888849914073944
112.0,0.052238065749406815
120.0,0.05104479193687439
128.0,0.05014369636774063
144.0,0.048228852450847626
160.0,0.046032752841711044
176.0,0.043683286756277084
192.0,0.041804444044828415
208.0,0.04082481563091278
224.0,0.04000761732459068
240.0,0.03872866556048393
256.0,0.037246134132146835
288.0,0.03575520217418671
320.0,0.032531268894672394
352.0,0.02981588803231716
384.0,0.0281742662191391
416.0,0.027734436094760895
448.0,0.02837572991847992
480.0,0.028631092980504036
512.0,0.027615180239081383
576.0,0.0234609954059124
640.0,0.019910365343093872
704.0,0.018556958064436913
768.0,0.0178690142929554
832.0,0.016989901661872864
896.0,0.013784305192530155
960.0,0.009995762258768082
1024.0,0.009062681347131729
1152.0,0.0045229909010231495
1280.0,0.0017714484129101038
1408.0,-1.907186560856644e-05
1536.0,0.0035882978700101376
1664.0,0.009329646825790405
1792.0,0.016402816399931908
1920.0,0.016335023567080498
2048.0,0.018863631412386894
2304.0,0.02247365191578865
2560.0,0.020665353164076805
2816.0,0.015885036438703537
3072.0,0.012789027765393257
3328.0,0.009727926924824715
3584.0,0.008762362413108349
3840.0,-0.0006602607318200171
4096.0,-0.008066044189035892
4608.0,-0.006420385558158159
5120.0,-0.004529550205916166
5632.0,0.0020190321374684572
6144.0,-0.01521981693804264
6656.0,-0.034427572041749954
7168.0,-0.018145455047488213
7680.0,-0.02339344657957554
8192.0,-0.01821441575884819
end
