version,3.0
numOfCh,1
type,point
parent_name,ff67b_0dot08-0dot1
ch_type,1_1
kcount,1
numberNandB,1
brightnessNandB,1
carpet pos,0
pc,0
Time (ms),CH1 Auto-Correlation
1.0,0.05680370330810547
2.0,0.055961571633815765
3.0,0.055163830518722534
4.0,0.05440683290362358
5.0,0.05366140231490135
6.0,0.05297994613647461
7.0,0.05230702832341194
8.0,0.05162466689944267
9.0,0.05096474662423134
10.0,0.0503670871257782
11.0,0.04977291077375412
12.0,0.049178190529346466
13.0,0.04861782491207123
14.0,0.04802096262574196
15.0,0.04743839055299759
16.0,0.04690298065543175
18.0,0.045846182852983475
20.0,0.044886909425258636
22.0,0.04400181025266647
24.0,0.04313034936785698
26.0,0.04232579097151756
28.0,0.04158346354961395
30.0,0.04085429012775421
32.0,0.040141087025403976
36.0,0.03881043940782547
40.0,0.037529051303863525
44.0,0.03622106462717056
48.0,0.03490093722939491
52.0,0.033536411821842194
56.0,0.032148975878953934
60.0,0.031010817736387253
64.0,0.029988812282681465
72.0,0.028020529076457024
80.0,0.025970494374632835
88.0,0.02412334270775318
96.0,0.022438473999500275
104.0,0.021135374903678894
112.0,0.019975341856479645
120.0,0.018733376637101173
128.0,0.017798416316509247
144.0,0.01673109084367752
160.0,0.015116621740162373
176.0,0.01345714833587408
192.0,0.012350534088909626
208.0,0.011149760335683823
224.0,0.010163750499486923
240.0,0.0092811593785882
256.0,0.008166678249835968
288.0,0.00588397728279233
320.0,0.004825299605727196
352.0,0.0034896202851086855
384.0,0.0026216357946395874
416.0,0.0022095728199929
448.0,0.001982110319659114
480.0,0.0020128909964114428
512.0,0.001312545035034418
576.0,0.000369710149243474
640.0,-0.0037271296605467796
704.0,-0.005141096189618111
768.0,-0.005663645453751087
832.0,-0.007270901929587126
896.0,-0.00909162312746048
960.0,-0.008058366365730762
1024.0,-0.0064828949980437756
1152.0,-0.0002801643859129399
1280.0,0.003475947305560112
1408.0,-0.0015160406474024057
1536.0,0.0021360537502914667
1664.0,0.0024953384418040514
1792.0,0.0043830955401062965
1920.0,0.007561808452010155
2048.0,0.005383368581533432
2304.0,0.004230504389852285
2560.0,0.0016335606342181563
2816.0,0.002235932508483529
3072.0,-0.0006545938085764647
3328.0,-0.0070061651058495045
3584.0,-0.007215563207864761
3840.0,-0.002343087922781706
4096.0,0.006067299749702215
4608.0,-0.002533387392759323
5120.0,-0.008018872700631618
5632.0,0.00011061601981054991
6144.0,-0.0009683841490186751
6656.0,-0.008390011265873909
7168.0,-0.0007252654177136719
7680.0,-0.007255639880895615
8192.0,-0.0015226294053718448
end
