version,3.0
numOfCh,1
type,point
parent_name,ff67b_0dot08-0dot1
ch_type,1_1
kcount,1
numberNandB,1
brightnessNandB,1
carpet pos,0
pc,0
Time (ms),CH1 Auto-Correlation
1.0,0.0775541439652443
2.0,0.07675061374902725
3.0,0.07596604526042938
4.0,0.07522696256637573
5.0,0.07452204078435898
6.0,0.07382832467556
7.0,0.07315218448638916
8.0,0.07247999310493469
9.0,0.07183274626731873
10.0,0.0712209939956665
11.0,0.07058196514844894
12.0,0.06998607516288757
13.0,0.06941758096218109
14.0,0.06885477900505066
15.0,0.06828666478395462
16.0,0.06776807457208633
18.0,0.06668412685394287
20.0,0.06563287228345871
22.0,0.06459059566259384
24.0,0.06355037540197372
26.0,0.0625414326786995
28.0,0.06154530495405197
30.0,0.06051763519644737
32.0,0.05953371897339821
36.0,0.057576391845941544
40.0,0.05579450726509094
44.0,0.05405300483107567
48.0,0.052312083542346954
52.0,0.050696443766355515
56.0,0.04907779395580292
60.0,0.047469671815633774
64.0,0.04596871882677078
72.0,0.04332231730222702
80.0,0.04110247641801834
88.0,0.03909355774521828
96.0,0.03728214278817177
104.0,0.035735491663217545
112.0,0.034243322908878326
120.0,0.03260541334748268
128.0,0.03057931736111641
144.0,0.026564612984657288
160.0,0.022336499765515327
176.0,0.018933266401290894
192.0,0.016362018883228302
208.0,0.015350264497101307
224.0,0.014775741845369339
240.0,0.014471805654466152
256.0,0.01381010189652443
288.0,0.013554132543504238
320.0,0.012804371304810047
352.0,0.010818954557180405
384.0,0.008905945345759392
416.0,0.008627393282949924
448.0,0.008235881105065346
480.0,0.007585528306663036
512.0,0.006147801876068115
576.0,0.0033903196454048157
640.0,0.002825601724907756
704.0,-0.00027306831907480955
768.0,-0.0016567609272897243
832.0,-0.002811343176290393
896.0,-0.003158463165163994
960.0,-0.003787931054830551
1024.0,-0.006174858193844557
1152.0,-0.004806562326848507
1280.0,-0.0017336952732875943
1408.0,0.0020997689571231604
1536.0,-0.003201302606612444
1664.0,-0.008682033978402615
1792.0,-0.007515318226069212
1920.0,0.0012036487460136414
2048.0,0.0027882049325853586
2304.0,-0.009268143214285374
2560.0,-0.0031092027202248573
2816.0,0.0012398067628964782
3072.0,0.010579852387309074
3328.0,0.0015667083207517862
3584.0,0.004720728844404221
3840.0,-0.0004646338347811252
4096.0,-0.004289282485842705
4608.0,-0.0006094899144954979
5120.0,-0.00691216392442584
5632.0,-0.0056940773501992226
6144.0,-0.006293154321610928
6656.0,0.004251336213201284
7168.0,-0.0072010355070233345
7680.0,0.003956842701882124
8192.0,-0.009581628255546093
end
