version,3.0
numOfCh,1
type,point
parent_name,ff67b_0dot08-0dot1
ch_type,1_1
kcount,1
numberNandB,1
brightnessNandB,1
carpet pos,0
pc,0
Time (ms),CH1 Auto-Correlation
1.0,0.08562033623456955
2.0,0.0847434252500534
3.0,0.08391793817281723
4.0,0.08311907202005386
5.0,0.0823790580034256
6.0,0.08164563775062561
7.0,0.08092767745256424
8.0,0.08020950108766556
9.0,0.07948581874370575
10.0,0.07879719883203506
11.0,0.07817059010267258
12.0,0.07758522778749466
13.0,0.0770244151353836
14.0,0.07647088170051575
15.0,0.07594367116689682
16.0,0.07539726048707962
18.0,0.07439680397510529
20.0,0.07346535474061966
22.0,0.07258288562297821
24.0,0.07174267619848251
26.0,0.0709395781159401
28.0,0.0701548159122467
30.0,0.06944458931684494
32.0,0.06876471638679504
36.0,0.06751205027103424
40.0,0.0660526305437088
44.0,0.06462762504816055
48.0,0.06321932375431061
52.0,0.0618111789226532
56.0,0.060356512665748596
60.0,0.05902033671736717
64.0,0.057849980890750885
72.0,0.055854521691799164
80.0,0.054198604077100754
88.0,0.05298608914017677
96.0,0.05192670226097107
104.0,0.05062621086835861
112.0,0.04901969060301781
120.0,0.04740612953901291
128.0,0.045957233756780624
144.0,0.04282005503773689
160.0,0.039760492742061615
176.0,0.03696194291114807
192.0,0.03477778285741806
208.0,0.03301714360713959
224.0,0.03213713690638542
240.0,0.03104366362094879
256.0,0.029402049258351326
288.0,0.02600436843931675
320.0,0.022827232256531715
352.0,0.02025899663567543
384.0,0.017850477248430252
416.0,0.016283724457025528
448.0,0.014268774539232254
480.0,0.014382836408913136
512.0,0.014515814371407032
576.0,0.013713737949728966
640.0,0.015589729882776737
704.0,0.015123443678021431
768.0,0.01167479157447815
832.0,0.004407055675983429
896.0,0.0038409121334552765
960.0,0.0029986961744725704
1024.0,0.0011326026869937778
1152.0,-0.004659124184399843
1280.0,-0.006654256954789162
1408.0,-0.010357695631682873
1536.0,-0.01340186782181263
1664.0,-0.010876709595322609
1792.0,-0.014098742045462132
1920.0,-0.004397110547870398
2048.0,0.007564342115074396
2304.0,0.003027014434337616
2560.0,-0.010800404474139214
2816.0,-0.012520081363618374
3072.0,-0.005485972389578819
3328.0,-0.007048078812658787
3584.0,-0.005342113319784403
3840.0,-0.0012188636464998126
4096.0,0.008587660267949104
4608.0,0.014038177207112312
5120.0,-0.005636231973767281
5632.0,-0.01722373254597187
6144.0,-0.02169150486588478
6656.0,-0.017556792125105858
7168.0,-0.02247334085404873
7680.0,-0.008268686942756176
8192.0,0.006042879074811935
end
