version,3.0
numOfCh,1
type,point
parent_name,ff67b_0dot08-0dot1
ch_type,1_1
kcount,1
numberNandB,1
brightnessNandB,1
carpet pos,0
pc,0
Time (ms),CH1 Auto-Correlation
1.0,0.09696374833583832
2.0,0.09609851986169815
3.0,0.09530270844697952
4.0,0.09458505362272263
5.0,0.09389504790306091
6.0,0.09320826828479767
7.0,0.09254620969295502
8.0,0.09192071855068207
9.0,0.09130176156759262
10.0,0.09068439900875092
11.0,0.09007686376571655
12.0,0.08948192745447159
13.0,0.08890280872583389
14.0,0.08834933489561081
15.0,0.08780736476182938
16.0,0.08725685626268387
18.0,0.08623306453227997
20.0,0.08521891385316849
22.0,0.08422268182039261
24.0,0.08326367288827896
26.0,0.08227469772100449
28.0,0.08132798224687576
30.0,0.08043748140335083
32.0,0.07956915348768234
36.0,0.07780083268880844
40.0,0.07598056644201279
44.0,0.07419315725564957
48.0,0.07261231541633606
52.0,0.07125035673379898
56.0,0.0697462409734726
60.0,0.06827683746814728
64.0,0.06676404178142548
72.0,0.06370239704847336
80.0,0.06091861054301262
88.0,0.0585893839597702
96.0,0.05623757094144821
104.0,0.053791649639606476
112.0,0.051301416009664536
120.0,0.049050893634557724
128.0,0.04702548310160637
144.0,0.0427568256855011
160.0,0.0387006551027298
176.0,0.03493082895874977
192.0,0.031871333718299866
208.0,0.029423421248793602
224.0,0.027568435296416283
240.0,0.025867275893688202
256.0,0.024288717657327652
288.0,0.020498797297477722
320.0,0.017301147803664207
352.0,0.014889578334987164
384.0,0.01203530840575695
416.0,0.009762078523635864
448.0,0.008118091151118279
480.0,0.007956805638968945
512.0,0.008197399787604809
576.0,0.008964015170931816
640.0,0.010655942372977734
704.0,0.014410250820219517
768.0,0.01836233027279377
832.0,0.02131318859755993
896.0,0.022583067417144775
960.0,0.02181175723671913
1024.0,0.019667616114020348
1152.0,0.01485165860503912
1280.0,0.00916259828954935
1408.0,0.0018455438548699021
1536.0,-0.003313749097287655
1664.0,-0.006314508616924286
1792.0,-0.007577391806989908
1920.0,-0.01423797570168972
2048.0,-0.017285281792283058
2304.0,-0.00909078773111105
2560.0,-0.007809653412550688
2816.0,-0.0182648953050375
3072.0,-0.01395433396100998
3328.0,-0.003168120514601469
3584.0,-0.008766341023147106
3840.0,-0.0008393427124246955
4096.0,0.012309331446886063
4608.0,0.009077691473066807
5120.0,0.009816518984735012
5632.0,0.007567602209746838
6144.0,-0.015864035114645958
6656.0,-0.01116853952407837
7168.0,-0.0279999952763319
7680.0,-0.018257256597280502
8192.0,-0.018175045028328896
end
