version,3.0
numOfCh,1
type,point
parent_name,200-cuts
ch_type,1_1
kcount,1
numberNandB,1
brightnessNandB,1
carpet pos,0
pc,0
Time (ms),CH1 Auto-Correlation
1.0,0.01574578508734703
2.0,0.01257309876382351
3.0,0.010331472381949425
4.0,0.008769199252128601
5.0,0.007516817655414343
6.0,0.006624812260270119
7.0,0.005876660346984863
8.0,0.005281705409288406
9.0,0.004727133084088564
10.0,0.004295847378671169
11.0,0.003920509479939938
12.0,0.0035028804559260607
13.0,0.003172299824655056
14.0,0.0029843170195817947
15.0,0.002872292883694172
16.0,0.0028226186987012625
18.0,0.002430844819173217
20.0,0.0021273703314363956
22.0,0.0018302996177226305
24.0,0.0015553822740912437
26.0,0.0013134580804035068
28.0,0.0012247178237885237
30.0,0.0010788339423015714
32.0,0.0009696951019577682
36.0,0.0006025608163326979
40.0,0.00038034070166759193
44.0,0.00018444002489559352
48.0,0.00012197563046356663
52.0,0.00020297596347518265
56.0,0.00013973822933621705
60.0,0.00036963316961191595
64.0,0.00022305315360426903
72.0,0.00014172066585160792
80.0,-1.2901038644486107e-05
88.0,-7.263153383973986e-05
96.0,-0.00012802645505871624
104.0,-6.699022924294695e-05
112.0,-0.00015659062773920596
120.0,-0.0002556508406996727
128.0,-0.0002446086145937443
144.0,0.0004010746197309345
160.0,4.0682843973627314e-05
176.0,-0.00021406309679150581
192.0,-0.00018027948681265116
208.0,-9.282132668886334e-05
224.0,0.00021861391724087298
240.0,-0.00020489076268859208
256.0,-0.000326485896948725
288.0,-0.0003727264702320099
320.0,-0.0005006533465348184
352.0,4.3666164856404066e-05
384.0,-0.0006292637553997338
416.0,-0.00014298970927484334
448.0,0.0006272655446082354
480.0,0.00027080634026788175
512.0,-0.0002578863932285458
576.0,0.00033520281431265175
640.0,8.338937914231792e-05
704.0,-0.0003726179711520672
768.0,0.0001385865471092984
832.0,-0.00033565814374014735
896.0,-0.00036785847623832524
960.0,-7.319248106796294e-05
1024.0,0.0004088255809620023
1152.0,1.872707434813492e-05
1280.0,-1.7583688531885855e-06
1408.0,0.0002055048244073987
1536.0,0.00020316975133027881
1664.0,-0.00022018904564902186
1792.0,1.8319720766157843e-05
1920.0,0.00022006957442499697
2048.0,7.474019366782159e-05
2304.0,-3.539029057719745e-05
2560.0,0.0001311915402766317
2816.0,-0.00015598708705510944
3072.0,-9.508343282504939e-06
3328.0,-4.8961894208332524e-05
3584.0,0.00015649304259568453
3840.0,8.317666652146727e-05
4096.0,0.0001221845595864579
4608.0,-4.428913143783575e-06
5120.0,5.606636477750726e-05
5632.0,-9.837218385655433e-05
6144.0,6.395506352419034e-05
6656.0,9.396709356224164e-05
7168.0,-0.0001591858163010329
7680.0,-9.238718484994024e-05
8192.0,-2.6253545001964085e-05
9216.0,-6.082645268179476e-05
10240.0,-8.899277599994093e-05
11264.0,-4.71285056846682e-05
12288.0,-5.31499863427598e-05
13312.0,-0.0001972565514734015
14336.0,1.4161862964101601e-05
end
