version,3.0
numOfCh,1
type,point
parent_name,200-cuts
ch_type,1_1
kcount,1
numberNandB,1
brightnessNandB,1
carpet pos,0
pc,0
Time (ms),CH1 Auto-Correlation
1.0,0.01659524068236351
2.0,0.013608518056571484
3.0,0.011465671472251415
4.0,0.009883563034236431
5.0,0.008668617345392704
6.0,0.007653919979929924
7.0,0.00685797818005085
8.0,0.0061722868122160435
9.0,0.005679786205291748
10.0,0.0052257380448281765
11.0,0.004727838095277548
12.0,0.004336310550570488
13.0,0.004028759431093931
14.0,0.003826803294941783
15.0,0.0036902884021401405
16.0,0.0034286798909306526
18.0,0.0027920189313590527
20.0,0.0023788383696228266
22.0,0.0020081978291273117
24.0,0.001883332384750247
26.0,0.0017194917891174555
28.0,0.0015170699916779995
30.0,0.0013807590585201979
32.0,0.001297007780522108
36.0,0.0008138339035212994
40.0,0.0005711854319088161
44.0,0.00047307086060754955
48.0,0.00047203758731484413
52.0,0.00034217225038446486
56.0,0.0004637310921680182
60.0,0.00043717457447201014
64.0,0.0003785531735047698
72.0,-8.090159826679155e-05
80.0,-1.9787672499660403e-05
88.0,-0.0004952606977894902
96.0,-0.0006046866765245795
104.0,-0.0005130146746523678
112.0,-0.0002515976957511157
120.0,-0.00021678039047401398
128.0,-0.00017533214122522622
144.0,0.00022854661801829934
160.0,0.00015427205653395504
176.0,0.00014321245544124395
192.0,-0.00028238253435119987
208.0,-0.0003667071578092873
224.0,-0.00011257050937274471
240.0,-7.430890400428325e-05
256.0,0.00019447840168140829
288.0,0.00021177908638492227
320.0,-0.0001449058181606233
352.0,0.00019334537500981241
384.0,-0.0005565833998844028
416.0,-0.0003528986999299377
448.0,-0.0006507825455628335
480.0,-4.555170744424686e-05
512.0,-0.0002568453492131084
576.0,0.00020324009528849274
640.0,-0.00025759925483725965
704.0,-0.00010583393304841593
768.0,-0.00030576513381674886
832.0,-8.755779708735645e-05
896.0,0.00026064462144859135
960.0,-0.0005861567333340645
1024.0,-0.00046902973554097116
1152.0,0.0003657144552562386
1280.0,-5.6683329603401944e-05
1408.0,0.0001946439006133005
1536.0,-0.00021448176994454116
1664.0,-5.246398723102175e-05
1792.0,4.3052772525697947e-05
1920.0,1.0627181836753152e-05
2048.0,0.0004372432013042271
2304.0,0.00020603042503353208
2560.0,3.3651755074970424e-05
2816.0,-0.00016237591626122594
3072.0,-0.00013503532682079822
3328.0,0.00018526024359744042
3584.0,6.093469710322097e-05
3840.0,-0.00025583122624084353
4096.0,0.0002267243544338271
4608.0,2.0700317691080272e-05
5120.0,1.5413661458296701e-06
5632.0,-1.4787348845857196e-05
6144.0,3.5050125006819144e-05
6656.0,-0.00011677972361212596
7168.0,-0.00011642493336694315
7680.0,0.00022685699514113367
8192.0,6.775862857466564e-05
9216.0,-0.00010447601380292326
10240.0,2.1083149476908147e-05
11264.0,-3.537217708071694e-05
12288.0,-8.292122947750613e-05
13312.0,-0.0001514696778031066
14336.0,-0.00012423767475411296
end
