version,3.0
numOfCh,1
type,point
parent_name,200-cuts
ch_type,1_1
kcount,1
numberNandB,1
brightnessNandB,1
carpet pos,0
pc,0
Time (ms),CH1 Auto-Correlation
1.0,0.026623528450727463
2.0,0.021626152098178864
3.0,0.018149027600884438
4.0,0.015590667724609375
5.0,0.01357264444231987
6.0,0.011936409398913383
7.0,0.010730719193816185
8.0,0.009624212980270386
9.0,0.008774074725806713
10.0,0.007952832616865635
11.0,0.007282420992851257
12.0,0.0066389646381139755
13.0,0.006150916218757629
14.0,0.005849333014339209
15.0,0.005484163295477629
16.0,0.005244619678705931
18.0,0.004766672383993864
20.0,0.004249261226505041
22.0,0.003675012616440654
24.0,0.0030847482848912477
26.0,0.00265184766612947
28.0,0.00247400114312768
30.0,0.0022183817345649004
32.0,0.0019240237306803465
36.0,0.0017581682186573744
40.0,0.0019180710660293698
44.0,0.001801103469915688
48.0,0.0017060936661437154
52.0,0.0015874950913712382
56.0,0.0012986205983906984
60.0,0.00111143640242517
64.0,0.0012576397275552154
72.0,0.0006198271294124424
80.0,0.0003104869101662189
88.0,-2.5696683223941363e-05
96.0,0.00030354587943293154
104.0,0.0006700033554807305
112.0,0.0011142836883664131
120.0,0.0006825187592767179
128.0,0.0002809751022141427
144.0,0.0006109812529757619
160.0,0.0005840149824507535
176.0,0.0001081024092854932
192.0,-0.000491056009195745
208.0,-1.9096838514087722e-05
224.0,-0.00031727380701340735
240.0,-0.0012796365190297365
256.0,-0.0014245071215555072
288.0,-0.0007834489806555212
320.0,-0.00022601881937589496
352.0,-0.0006068258080631495
384.0,-0.00023683588369749486
416.0,-0.0007628250168636441
448.0,-0.0004155045608058572
480.0,-0.0004891924909316003
512.0,0.00021086180640850216
576.0,-0.0006922415341250598
640.0,-0.0003523135092109442
704.0,-0.0005573986563831568
768.0,-0.0005507820751518011
832.0,-0.00039301469223573804
896.0,-0.0008905681897886097
960.0,-0.000488558376673609
1024.0,-0.0004981780657544732
1152.0,0.0003352743515279144
1280.0,0.0008623834000900388
1408.0,-6.857708285679109e-06
1536.0,0.00011922418343601748
1664.0,0.00048278598114848137
1792.0,-0.00047736475244164467
1920.0,-0.0005796591867692769
2048.0,8.59611391206272e-05
2304.0,0.00021193322027102113
2560.0,0.00030773881007917225
2816.0,-9.109170059673488e-05
3072.0,-0.0003592318680603057
3328.0,-0.00023175014939624816
3584.0,0.00043548658140935004
3840.0,0.000258408923400566
4096.0,-7.139833178371191e-05
4608.0,-0.00034489890094846487
5120.0,0.00014415892655961215
5632.0,-0.00011703568452503532
6144.0,0.00018909864593297243
6656.0,-0.00011590380745474249
7168.0,-0.00022546898981090635
7680.0,0.00034130303538404405
8192.0,0.00021347137226257473
9216.0,-0.0002496053930372
10240.0,0.00024912552908062935
11264.0,-0.0002137826959369704
12288.0,0.00012064302427461371
13312.0,-0.00014528997417073697
14336.0,-0.00015808959142304957
end
