version,3.0
numOfCh,1
type,point
parent_name,200-cuts
ch_type,1_1
kcount,1
numberNandB,1
brightnessNandB,1
carpet pos,0
pc,0
Time (ms),CH1 Auto-Correlation
1.0,0.016513671725988388
2.0,0.01335265301167965
3.0,0.011168454773724079
4.0,0.009530334733426571
5.0,0.008294389583170414
6.0,0.007233679760247469
7.0,0.006480701733380556
8.0,0.005951928906142712
9.0,0.005412852857261896
10.0,0.004831194411963224
11.0,0.0043153841979801655
12.0,0.0038628913462162018
13.0,0.003622635267674923
14.0,0.00342231965623796
15.0,0.0031928145326673985
16.0,0.0029747590888291597
18.0,0.0027254014275968075
20.0,0.0023803547956049442
22.0,0.0021332651376724243
24.0,0.002143653342500329
26.0,0.0020682476460933685
28.0,0.002003356348723173
30.0,0.0018630786798894405
32.0,0.0016849308740347624
36.0,0.0014637188287451863
40.0,0.0013781997840851545
44.0,0.001372156897559762
48.0,0.0013547108974307775
52.0,0.0012563132913783193
56.0,0.0010419039754197001
60.0,0.0006268208380788565
64.0,0.0002968022308778018
72.0,0.00018139842723030597
80.0,0.00027710976428352296
88.0,0.00024217661120928824
96.0,0.0002022411354118958
104.0,0.00042136170668527484
112.0,0.0006586596136912704
120.0,0.0005673674750141799
128.0,0.0007385369972325861
144.0,0.0004260788264218718
160.0,-0.00016756524564698339
176.0,0.00019177061039954424
192.0,7.548604480689391e-05
208.0,5.555099778575823e-05
224.0,0.00012461068399716169
240.0,0.0007806684589013457
256.0,6.047714487067424e-05
288.0,1.95976590475766e-05
320.0,0.0001818406890379265
352.0,0.00021904076857026666
384.0,0.00010667162132449448
416.0,2.285343907715287e-05
448.0,0.00017082132399082184
480.0,-0.00017382462101522833
512.0,0.00012490640801843256
576.0,0.0003386711759958416
640.0,0.00021826312877237797
704.0,0.0002058085083262995
768.0,-0.00011799498315667734
832.0,0.00045977221452631056
896.0,0.0005405278061516583
960.0,0.00013861252227798104
1024.0,-5.1188821089453995e-05
1152.0,4.5797449274687096e-05
1280.0,0.00010880605987040326
1408.0,2.9474911571014673e-05
1536.0,0.0003362296847626567
1664.0,0.00022980570793151855
1792.0,7.702765287831426e-05
1920.0,-8.048191375564784e-05
2048.0,0.00010438746539875865
2304.0,4.452421489986591e-05
2560.0,0.0001677094551268965
2816.0,6.516643043141812e-05
3072.0,-0.00014726101653650403
3328.0,0.0001660286943661049
3584.0,0.000319746439345181
3840.0,9.002049773698673e-05
4096.0,-0.0002542477159295231
4608.0,0.00014225530321709812
5120.0,0.0003014390531461686
5632.0,-0.0004058493650518358
6144.0,-7.917478069430217e-05
6656.0,-0.00040768581675365567
7168.0,-0.00028879137244075537
7680.0,-0.0002162280579796061
8192.0,-0.0003567244275473058
9216.0,5.830455620525754e-07
10240.0,-0.00024425380979664624
11264.0,-0.00010111032315762714
12288.0,-0.00019937384058721364
13312.0,-0.0002698076714295894
14336.0,0.00019582222739700228
end
