version,3.0
numOfCh,1
type,point
parent_name,200-cuts
ch_type,1_1
kcount,1
numberNandB,1
brightnessNandB,1
carpet pos,0
pc,0
Time (ms),CH1 Auto-Correlation
1.0,0.017086973413825035
2.0,0.01415643934160471
3.0,0.012045064009726048
4.0,0.010514948517084122
5.0,0.009238296188414097
6.0,0.008299051783978939
7.0,0.007433869410306215
8.0,0.006748812273144722
9.0,0.006180469878017902
10.0,0.005640079732984304
11.0,0.005131591577082872
12.0,0.004735506605356932
13.0,0.004391140304505825
14.0,0.0040698060765862465
15.0,0.003832168411463499
16.0,0.0035711624659597874
18.0,0.003191900672391057
20.0,0.0028833551332354546
22.0,0.0027060583233833313
24.0,0.0024848838802427053
26.0,0.0023255362175405025
28.0,0.002279120497405529
30.0,0.002015436068177223
32.0,0.0017429805593565106
36.0,0.0015396150993183255
40.0,0.0012548171216621995
44.0,0.0011089331237599254
48.0,0.0011223347391933203
52.0,0.0010108435526490211
56.0,0.00099473656155169
60.0,0.0008948979084379971
64.0,0.0007321738521568477
72.0,0.0009847484761849046
80.0,0.0005737330648116767
88.0,0.00023473860346712172
96.0,-0.0001279768330277875
104.0,-0.0001824800274334848
112.0,-0.0003630822175182402
120.0,-0.00035407644463703036
128.0,-0.0002383708779234439
144.0,5.6253418733831495e-05
160.0,0.0005171446246095002
176.0,0.000469367514597252
192.0,0.00013047993707004935
208.0,-0.00017986790044233203
224.0,0.00010873220162466168
240.0,0.0002483737771399319
256.0,-1.7823726011556573e-05
288.0,0.0001401162735419348
320.0,-0.000365778396371752
352.0,-0.00016880454495549202
384.0,-0.00018377472588326782
416.0,-0.00029835975146852434
448.0,9.888185741147026e-05
480.0,-0.00011724681098712608
512.0,-2.4036051399889402e-05
576.0,-5.579657954513095e-05
640.0,0.00018607130914460868
704.0,-1.0917970939772204e-05
768.0,0.00018105194612871855
832.0,0.0004488661652430892
896.0,-0.00036753970198333263
960.0,-0.0003130090772174299
1024.0,5.244515341473743e-05
1152.0,-0.00047440515481866896
1280.0,-0.00015194692241493613
1408.0,-2.8687611120403744e-05
1536.0,8.868289296515286e-05
1664.0,5.730094198952429e-05
1792.0,-8.672563126310706e-05
1920.0,0.00019624631386250257
2048.0,0.00021460189600475132
2304.0,0.0002256339357700199
2560.0,-0.0004901799256913364
2816.0,0.00022461671323981136
3072.0,0.0002864661510102451
3328.0,-0.00042149805813096464
3584.0,6.6857191995950416e-06
3840.0,0.00032421568175777793
4096.0,-0.0003894222027156502
4608.0,-0.00010107791604241356
5120.0,0.00012792246707249433
5632.0,0.0003334863868076354
6144.0,-2.858983862097375e-05
6656.0,-0.0002580179716460407
7168.0,2.7384514396544546e-05
7680.0,0.00010762077727122232
8192.0,-0.00021126946376170963
9216.0,1.8677435946301557e-05
10240.0,5.265630898065865e-05
11264.0,1.2592427992785815e-05
12288.0,-0.00032792825368233025
13312.0,6.559918256243691e-05
14336.0,-0.00032403800287283957
end
