version,3.0
numOfCh,1
type,point
parent_name,200-cuts
ch_type,1_1
kcount,1
numberNandB,1
brightnessNandB,1
carpet pos,0
pc,0
Time (ms),CH1 Auto-Correlation
1.0,0.01714423857629299
2.0,0.014050065539777279
3.0,0.011833454482257366
4.0,0.010059116408228874
5.0,0.008573695085942745
6.0,0.007484873291105032
7.0,0.006649272982031107
8.0,0.006082950159907341
9.0,0.0055082738399505615
10.0,0.005083118565380573
11.0,0.0047017792239785194
12.0,0.004359577316790819
13.0,0.004077446181327105
14.0,0.003708799369633198
15.0,0.0034242519177496433
16.0,0.0032642693258821964
18.0,0.002941626124083996
20.0,0.002781681017950177
22.0,0.002550841774791479
24.0,0.002197867026552558
26.0,0.001836764276959002
28.0,0.0016628116136416793
30.0,0.001583573641255498
32.0,0.001494192867539823
36.0,0.0013643150450661778
40.0,0.0010530662257224321
44.0,0.0012927150819450617
48.0,0.0012255884939804673
52.0,0.0010011871345341206
56.0,0.0008510502520948648
60.0,0.0007609401363879442
64.0,0.0006937003927305341
72.0,0.00022128842829260975
80.0,-4.3266802094876766e-05
88.0,-9.129174577537924e-05
96.0,-6.78939395584166e-05
104.0,0.0002135690301656723
112.0,2.9705732231377624e-05
120.0,-8.41405926621519e-05
128.0,-0.00014465302228927612
144.0,-0.0008253696141764522
160.0,-0.0004945582477375865
176.0,-0.00014798948541283607
192.0,-0.0001653437939239666
208.0,-0.0002522571012377739
224.0,0.00015906384214758873
240.0,-0.00038886076072230935
256.0,-0.0005957211251370609
288.0,3.247321001254022e-05
320.0,0.00037778052501380444
352.0,0.0006536756409332156
384.0,0.0009567394736222923
416.0,0.00039786327397450805
448.0,0.00025227078003808856
480.0,-0.000187989542610012
512.0,0.00018692301819100976
576.0,-0.0004496934125199914
640.0,-0.0005605865153484046
704.0,0.00048150186194106936
768.0,0.00034288238384760916
832.0,-0.00031383149325847626
896.0,-0.0004892850993201137
960.0,-0.00029171648202463984
1024.0,3.712787292897701e-05
1152.0,0.0002373447932768613
1280.0,-2.8032507543684915e-05
1408.0,7.678032852709293e-05
1536.0,-9.075286652659997e-05
1664.0,0.00017801584908738732
1792.0,-0.00019829034863505512
1920.0,-0.0003504935884848237
2048.0,-4.8446247092215344e-05
2304.0,-0.00022423049085773528
2560.0,-6.465089245466515e-05
2816.0,0.00041794104618020356
3072.0,-0.00022480604820884764
3328.0,-0.00025460522738285363
3584.0,-0.00021964589541312307
3840.0,-0.00013064342783764005
4096.0,0.00018244763487018645
4608.0,-5.3074265451868996e-05
5120.0,-0.0001524870895082131
5632.0,9.018391574500129e-05
6144.0,-0.0003498333680909127
6656.0,0.00013303657760843635
7168.0,0.0001346917124465108
7680.0,-5.5349479225696996e-05
8192.0,0.0001643799914745614
9216.0,0.00019491191778797656
10240.0,4.815508145838976e-05
11264.0,-8.395362237934023e-05
12288.0,-7.088057463988662e-05
13312.0,-0.00010637735977070406
14336.0,6.48095810902305e-05
end
