version,3.0
numOfCh,1
type,point
parent_name,200-cuts
ch_type,1_1
kcount,1
numberNandB,1
brightnessNandB,1
carpet pos,0
pc,0
Time (ms),CH1 Auto-Correlation
1.0,0.016498709097504616
2.0,0.013423379510641098
3.0,0.011316347867250443
4.0,0.009811267256736755
5.0,0.008626301772892475
6.0,0.007610779255628586
7.0,0.006735237780958414
8.0,0.005937159527093172
9.0,0.005445162300020456
10.0,0.00508233904838562
11.0,0.004605699796229601
12.0,0.004205974284559488
13.0,0.00395927345380187
14.0,0.0036588008515536785
15.0,0.0034440846648067236
16.0,0.0032281375024467707
18.0,0.002871595323085785
20.0,0.0025466654915362597
22.0,0.0024639565963298082
24.0,0.0022453577257692814
26.0,0.0021961135789752007
28.0,0.002230213023722172
30.0,0.0020112055353820324
32.0,0.001926335971802473
36.0,0.0019324771128594875
40.0,0.0017477094661444426
44.0,0.0015192435821518302
48.0,0.0010816312860697508
52.0,0.0005540541606023908
56.0,0.00023128707834985107
60.0,0.00018105666094925255
64.0,0.0003267251595389098
72.0,0.00039850195753388107
80.0,0.00021350228053051978
88.0,4.5925917220301926e-05
96.0,0.00010291723447153345
104.0,0.00033968157367780805
112.0,0.0005820941878482699
120.0,0.00034584515378810465
128.0,0.0002807496057357639
144.0,9.913733811117709e-05
160.0,0.00020731704717036337
176.0,-0.0004356972931418568
192.0,-0.0005585855105891824
208.0,-0.00034335238160565495
224.0,-0.0003483665350358933
240.0,-0.0005610992666333914
256.0,-2.522418071748689e-06
288.0,0.00032377534080296755
320.0,-0.0002208004443673417
352.0,-0.0004330110386945307
384.0,1.7898973965202458e-05
416.0,0.00020313017012085766
448.0,-0.00023962919658515602
480.0,-0.0003801349375862628
512.0,-0.0003303238481748849
576.0,-0.00029595274827443063
640.0,-7.437190561176976e-06
704.0,4.9496215069666505e-05
768.0,0.0003125299699604511
832.0,-0.00028365658363327384
896.0,1.3898394172429107e-05
960.0,-9.627258987165987e-05
1024.0,-0.00023062239051796496
1152.0,-0.0006012484082020819
1280.0,-0.00015702552627772093
1408.0,0.00040304448339156806
1536.0,0.0002287940151290968
1664.0,2.6824129236047156e-05
1792.0,0.0006769518367946148
1920.0,0.0002653630799613893
2048.0,-6.68698048684746e-05
2304.0,-4.2527972254902124e-06
2560.0,-0.00015983176126610488
2816.0,-0.00011751927377190441
3072.0,-0.00014896897482685745
3328.0,0.00023407193657476455
3584.0,-9.670237341197208e-05
3840.0,0.00013197057705838233
4096.0,0.00015270191943272948
4608.0,-4.9960388423642144e-05
5120.0,6.295354978647083e-05
5632.0,-0.00010348000068916008
6144.0,-4.809168603969738e-05
6656.0,8.578024426242337e-05
7168.0,-0.0002539407287258655
7680.0,-9.240848157787696e-05
8192.0,-0.00017471604223828763
9216.0,-3.9461152482545e-05
10240.0,-1.0443209248478524e-05
11264.0,3.0293600502773188e-05
12288.0,-0.0003556259034667164
13312.0,-0.00019098681514151394
14336.0,0.0005404564435593784
end
