version,3.0
numOfCh,1
type,point
parent_name,200-cuts
ch_type,1_1
kcount,1
numberNandB,1
brightnessNandB,1
carpet pos,0
pc,0
Time (ms),CH1 Auto-Correlation
1.0,0.017705542966723442
2.0,0.014558189548552036
3.0,0.012241547927260399
4.0,0.010479563847184181
5.0,0.009112532250583172
6.0,0.00800071656703949
7.0,0.0070169963873922825
8.0,0.00619517220184207
9.0,0.005460921674966812
10.0,0.004900370258837938
11.0,0.004475285764783621
12.0,0.004050776362419128
13.0,0.003671674756333232
14.0,0.0033905578311532736
15.0,0.0031650871969759464
16.0,0.002917104633525014
18.0,0.0024432819336652756
20.0,0.0020763790234923363
22.0,0.0018643047660589218
24.0,0.0017771351849660277
26.0,0.0017809334676712751
28.0,0.0018432701472193003
30.0,0.001642225426621735
32.0,0.0014092455385252833
36.0,0.0009975602151826024
40.0,0.0010871418053284287
44.0,0.0009549319511279464
48.0,0.0007025957456789911
52.0,0.00039284941158257425
56.0,-0.00021357416699174792
60.0,-0.00029628368793055415
64.0,-3.5652426504384493e-06
72.0,-1.3749575373367406e-05
80.0,-0.0003423757152631879
88.0,-0.00020590164058376104
96.0,-0.00034101217170245945
104.0,-0.0004088679561391473
112.0,-0.0006046165362931788
120.0,-0.0004161414981354028
128.0,-0.00046238352661021054
144.0,-2.8869939342257567e-05
160.0,-0.00022014534624759108
176.0,-3.9606155041838065e-05
192.0,-0.0001948005665326491
208.0,0.00017342834325972944
224.0,0.0004064998356625438
240.0,0.00025043226196430624
256.0,-4.167510269326158e-05
288.0,0.000392175221350044
320.0,0.00029939645901322365
352.0,0.0008312551071867347
384.0,0.0004000365734100342
416.0,0.00036868624738417566
448.0,-0.00012032977247145027
480.0,-0.0001753278193064034
512.0,-0.0001335141423624009
576.0,-0.00015068026550579816
640.0,6.460186705226079e-05
704.0,-0.0005563246086239815
768.0,4.644220825866796e-05
832.0,0.00013443951320368797
896.0,0.00011011939204763621
960.0,-1.3131837476976216e-05
1024.0,7.950948929646984e-05
1152.0,-0.00018474325770512223
1280.0,0.0002145491016563028
1408.0,-0.00015779101522639394
1536.0,-0.00032432746957056224
1664.0,0.00023741365293972194
1792.0,-0.00021560561435762793
1920.0,0.0003929342783521861
2048.0,-0.0002430607273709029
2304.0,0.00021864226437173784
2560.0,4.5441145630320534e-05
2816.0,-0.00019197521032765508
3072.0,-4.499824717640877e-05
3328.0,-0.0003161776112392545
3584.0,4.82699078929727e-06
3840.0,-0.00023981384583748877
4096.0,-0.0001548259606352076
4608.0,0.00014775381714571267
5120.0,-2.907613179559121e-06
5632.0,-0.00021076991106383502
6144.0,-0.00016024555952753872
6656.0,4.530487422016449e-05
7168.0,0.00012055356637574732
7680.0,-5.204480476095341e-05
8192.0,-0.0002330829738639295
9216.0,7.284781895577908e-05
10240.0,-2.854351987480186e-05
11264.0,0.00011016623466275632
12288.0,3.913045293302275e-05
13312.0,-0.0001136688151746057
14336.0,0.0001642480492591858
end
