version,3.0
numOfCh,1
type,point
parent_name,200-cuts
ch_type,1_1
kcount,1
numberNandB,1
brightnessNandB,1
carpet pos,0
pc,0
Time (ms),CH1 Auto-Correlation
1.0,0.015783367678523064
2.0,0.012700351886451244
3.0,0.010597039945423603
4.0,0.009090607985854149
5.0,0.007979203015565872
6.0,0.00715161906555295
7.0,0.006386544089764357
8.0,0.005724980495870113
9.0,0.00520141888409853
10.0,0.004739554598927498
11.0,0.004374188371002674
12.0,0.003941444680094719
13.0,0.0035413855221122503
14.0,0.0032064304687082767
15.0,0.002826233394443989
16.0,0.0024739461950957775
18.0,0.0019102185033261776
20.0,0.0017878249054774642
22.0,0.0016633401392027736
24.0,0.0016218868549913168
26.0,0.0016051013953983784
28.0,0.0017093272181227803
30.0,0.001685974420979619
32.0,0.0015956192510202527
36.0,0.0015149525133892894
40.0,0.0012991299154236913
44.0,0.0009592296555638313
48.0,0.0007283067679964006
52.0,0.0005460959509946406
56.0,0.0004117894859518856
60.0,0.0005377052584663033
64.0,0.0006701897946186364
72.0,0.00026546287699602544
80.0,0.00024168928212020546
88.0,0.00018633635772857815
96.0,0.0002500806876923889
104.0,0.0005328166298568249
112.0,0.00063620152650401
120.0,0.0006221106741577387
128.0,0.00059127202257514
144.0,0.0005979705019854009
160.0,0.0005072238855063915
176.0,0.00015371438348665833
192.0,-1.8015896785072982e-05
208.0,5.192094704398187e-06
224.0,-0.00034968610270880163
240.0,-7.420939073199406e-05
256.0,-5.4513977374881506e-05
288.0,-0.0005377666093409061
320.0,-0.0003033387183677405
352.0,0.00014067204028833658
384.0,8.564422387280501e-06
416.0,1.0867553100979421e-05
448.0,0.0005800428334623575
480.0,1.682173206063453e-05
512.0,7.79572146711871e-05
576.0,0.00020086263248231262
640.0,2.62292378465645e-05
704.0,-0.0004605487047228962
768.0,-7.742008165223524e-05
832.0,-0.00039372112951241434
896.0,-1.7931484762812033e-05
960.0,0.00028826596098951995
1024.0,0.00041816086741164327
1152.0,-0.00020415624021552503
1280.0,-0.00031621541711501777
1408.0,-8.497985982103273e-05
1536.0,-5.4918506066314876e-05
1664.0,-0.0003696658241096884
1792.0,-0.00020810637215618044
1920.0,-0.00024385655706282705
2048.0,-0.00024989608209580183
2304.0,3.779484177357517e-05
2560.0,-1.0533242857491132e-05
2816.0,-0.00014358559565152973
3072.0,3.424430906306952e-05
3328.0,-0.0002574368263594806
3584.0,0.0002796537009999156
3840.0,-0.00012583937495946884
4096.0,0.00026288183289580047
4608.0,0.00018158067541662604
5120.0,9.282721293857321e-05
5632.0,-0.00023734675778541714
6144.0,-0.00030224668444134295
6656.0,-5.900126416236162e-05
7168.0,-8.254584827227518e-05
7680.0,0.00011404959514038637
8192.0,-5.067481106380001e-05
9216.0,2.625188062665984e-05
10240.0,6.578212196473032e-05
11264.0,-0.00015813222853466868
12288.0,0.0003288312000222504
13312.0,-0.00012599614274222404
14336.0,3.520420068525709e-05
end
