version,3.0
numOfCh,1
type,point
parent_name,200-cuts
ch_type,1_1
kcount,1
numberNandB,1
brightnessNandB,1
carpet pos,0
pc,0
Time (ms),CH1 Auto-Correlation
1.0,0.01754089817404747
2.0,0.014449650421738625
3.0,0.012274082750082016
4.0,0.010513199493288994
5.0,0.009120997972786427
6.0,0.008021706715226173
7.0,0.007191780023276806
8.0,0.006508121266961098
9.0,0.005968828219920397
10.0,0.005495886318385601
11.0,0.005101571325212717
12.0,0.0047016022726893425
13.0,0.004424293525516987
14.0,0.004107220564037561
15.0,0.0038994401693344116
16.0,0.0037261422257870436
18.0,0.0035593516658991575
20.0,0.003274337388575077
22.0,0.002942876424640417
24.0,0.002578835003077984
26.0,0.0023732874542474747
28.0,0.0020914936903864145
30.0,0.0018847637111321092
32.0,0.0017091688932850957
36.0,0.0014958246611058712
40.0,0.0013912704307585955
44.0,0.0010583322728052735
48.0,0.000717796094249934
52.0,0.0004350357048679143
56.0,0.0004414823779370636
60.0,0.0004341220483183861
64.0,0.000305427034618333
72.0,-5.0332131650066e-05
80.0,-7.208097667898983e-05
88.0,-3.347132951603271e-05
96.0,2.3845519535825588e-05
104.0,-2.886762194975745e-05
112.0,-0.00022256099327933043
120.0,4.957161581842229e-05
128.0,0.0002932444040197879
144.0,-6.182368088047951e-05
160.0,-0.00032285155612044036
176.0,0.0003283819241914898
192.0,0.0004158870433457196
208.0,0.00015482243907172233
224.0,-0.0008749824482947588
240.0,-0.00043537936289794743
256.0,-3.3507501939311624e-05
288.0,0.00018428721523378044
320.0,0.0002424686390440911
352.0,-0.0003966549120377749
384.0,-0.00040997276664711535
416.0,-0.0004498559283092618
448.0,8.829669241094962e-05
480.0,7.069852290442213e-05
512.0,0.0003120732435490936
576.0,-2.703709833440371e-05
640.0,-8.384098327951506e-05
704.0,-0.000165665551321581
768.0,-0.00015152912237681448
832.0,0.0004030312120448798
896.0,-0.00021273216407280415
960.0,0.0002401639794697985
1024.0,5.349484126782045e-05
1152.0,-0.00024322501849383116
1280.0,-0.00020683826005551964
1408.0,0.00041558133671060205
1536.0,4.1769126255530864e-05
1664.0,-0.00015196703316178173
1792.0,-0.0001248486223630607
1920.0,-0.00028456776635721326
2048.0,0.00010227460006717592
2304.0,-9.702946408651769e-05
2560.0,-7.37244772608392e-05
2816.0,0.00016358289576601237
3072.0,-2.055311415460892e-05
3328.0,-0.00033792280009947717
3584.0,-0.000172449741512537
3840.0,2.2218984668143094e-05
4096.0,-6.889718497404829e-05
4608.0,-5.8227753470418975e-05
5120.0,1.4077109881327488e-05
5632.0,-8.126942702801898e-05
6144.0,-2.0421766748768277e-05
6656.0,0.00011694941349560395
7168.0,-4.88042387587484e-05
7680.0,0.00017642065358813852
8192.0,0.00013480513007380068
9216.0,1.1089479812653735e-05
10240.0,-9.631014836486429e-05
11264.0,4.5102402509655803e-05
12288.0,-0.00044314569095149636
13312.0,9.820840205065906e-05
14336.0,0.00016096800391096622
end
