version,3.0
numOfCh,1
type,point
parent_name,200-cuts
ch_type,1_1
kcount,1
numberNandB,1
brightnessNandB,1
carpet pos,0
pc,0
Time (ms),CH1 Auto-Correlation
1.0,0.027012592181563377
2.0,0.022116485983133316
3.0,0.018823089078068733
4.0,0.01616295427083969
5.0,0.013989459723234177
6.0,0.012529782019555569
7.0,0.011410371400415897
8.0,0.010191351175308228
9.0,0.009324324317276478
10.0,0.008725723251700401
11.0,0.007911351509392262
12.0,0.007132657803595066
13.0,0.006489405408501625
14.0,0.005891431588679552
15.0,0.00533793680369854
16.0,0.0049696085043251514
18.0,0.004583930131047964
20.0,0.003876956645399332
22.0,0.003441446227952838
24.0,0.00311150960624218
26.0,0.00269152969121933
28.0,0.0023450579028576612
30.0,0.0019418796291574836
32.0,0.0016995053738355637
36.0,0.0010419315658509731
40.0,0.0006869250210002065
44.0,0.0007753133540973067
48.0,0.0007123560644686222
52.0,0.00028195229242555797
56.0,0.0003542604681570083
60.0,0.00038034762837924063
64.0,0.0001695871033007279
72.0,0.0005869222804903984
80.0,0.000910812639631331
88.0,0.0003703035181388259
96.0,0.0001464538654545322
104.0,-1.1398223250580486e-05
112.0,-0.0002226724027423188
120.0,-0.00024058972485363483
128.0,-0.00013326040061656386
144.0,-0.0004031898861285299
160.0,-6.101785402279347e-05
176.0,0.00036648823879659176
192.0,-0.00025815979461185634
208.0,-0.0002901391708292067
224.0,-0.0002722958743106574
240.0,-6.622990622418001e-05
256.0,-0.00050673185614869
288.0,0.0009913305984809995
320.0,-0.00032440261566080153
352.0,0.00023192315711639822
384.0,-0.0003538685559760779
416.0,-6.634882447542623e-05
448.0,0.0003060080634895712
480.0,6.105438660597429e-05
512.0,0.0006076897261664271
576.0,0.00038250733632594347
640.0,-0.00020005875558126718
704.0,0.0007035043672658503
768.0,0.00014592341904062778
832.0,-0.0004052321892231703
896.0,0.0004759410803671926
960.0,-0.00014490532339550555
1024.0,0.0006353626376949251
1152.0,-2.8823986212955788e-05
1280.0,0.0004430436238180846
1408.0,0.0001899497292470187
1536.0,-3.5878188100468833e-06
1664.0,0.00010339127766201273
1792.0,0.00034294271608814597
1920.0,-0.0001331629027845338
2048.0,0.0004177890077698976
2304.0,-3.581589044188149e-05
2560.0,-4.093849929631688e-05
2816.0,-0.0001891722495201975
3072.0,2.2176185666467063e-05
3328.0,-0.00032081667450256646
3584.0,0.00028185249539092183
3840.0,-0.00018652893777471036
4096.0,-0.0003135032020509243
4608.0,-0.00033775344491004944
5120.0,0.00015743535186629742
5632.0,-0.0001622138370294124
6144.0,0.00011285035725450143
6656.0,5.233239062363282e-05
7168.0,0.0004477298352867365
7680.0,4.469303894438781e-05
8192.0,0.0002903548302128911
9216.0,-9.039028373081237e-05
10240.0,-0.00039149116491898894
11264.0,-0.0006762139964848757
12288.0,-0.0005209778319112957
13312.0,-0.00039782788371667266
14336.0,-8.797174086794257e-05
end
