version,3.0
numOfCh,1
type,point
parent_name,200-cuts
ch_type,1_1
kcount,1
numberNandB,1
brightnessNandB,1
carpet pos,0
pc,0
Time (ms),CH1 Auto-Correlation
1.0,0.01537632942199707
2.0,0.01223013922572136
3.0,0.010124420747160912
4.0,0.008593438193202019
5.0,0.007365914061665535
6.0,0.006462526973336935
7.0,0.00588696263730526
8.0,0.005225272849202156
9.0,0.004706515930593014
10.0,0.004267706535756588
11.0,0.003864939557388425
12.0,0.003570726839825511
13.0,0.003206112189218402
14.0,0.0028189565055072308
15.0,0.002488979371264577
16.0,0.0021966220811009407
18.0,0.0015980391763150692
20.0,0.001197279430925846
22.0,0.0009421412833034992
24.0,0.0006697906064800918
26.0,0.0007428349927067757
28.0,0.0008159057470038533
30.0,0.0007919613854028285
32.0,0.0006308477022685111
36.0,0.0006258788052946329
40.0,0.0008653206750750542
44.0,0.0008648930815979838
48.0,0.00048577686538919806
52.0,0.0002329211711185053
56.0,0.0002269975666422397
60.0,0.00010639306856319308
64.0,-9.020914876600727e-05
72.0,-0.00029605982126668096
80.0,-0.0007805344648659229
88.0,-0.001224151230417192
96.0,-0.0007467159884981811
104.0,-1.0251257663185243e-05
112.0,9.664538811193779e-05
120.0,-0.000560364976990968
128.0,-0.0007186298607848585
144.0,-0.00011700334289344028
160.0,0.00022750289645045996
176.0,2.8785099857486784e-05
192.0,-0.0003387440519873053
208.0,2.5927520255208947e-05
224.0,4.513577005127445e-05
240.0,-0.0004908517003059387
256.0,-0.00047055326285772026
288.0,0.0002564900496508926
320.0,-5.1200204325141385e-05
352.0,-8.362461085198447e-05
384.0,-4.79810951219406e-05
416.0,-0.000485896656755358
448.0,-9.212945587933064e-05
480.0,-9.100950410356745e-05
512.0,0.00041541969403624535
576.0,-0.0002764425880741328
640.0,-2.8632161956920754e-06
704.0,0.00016291312931571156
768.0,-0.0001405250368406996
832.0,-0.00017083683633245528
896.0,9.60725883487612e-05
960.0,-0.00036593194818124175
1024.0,7.254508818732575e-05
1152.0,0.0002205018827226013
1280.0,0.00041875854367390275
1408.0,0.00010560941882431507
1536.0,7.583007572975475e-06
1664.0,-0.0004518952628131956
1792.0,-0.00014145042223390192
1920.0,-0.00024338538059964776
2048.0,6.136586307547987e-05
2304.0,0.0001844367361627519
2560.0,7.26755170035176e-05
2816.0,-0.00012127172522014007
3072.0,-0.00019431329565122724
3328.0,0.00018893188098445535
3584.0,0.00022247024753596634
3840.0,-8.090224582701921e-05
4096.0,-7.658846152480692e-05
4608.0,4.849756805924699e-05
5120.0,-5.315534508554265e-05
5632.0,5.136611798661761e-05
6144.0,-8.253832493210211e-05
6656.0,1.323300602962263e-05
7168.0,-0.00018037809059023857
7680.0,-7.242435094667599e-05
8192.0,7.452821591868997e-05
9216.0,-5.399229848990217e-05
10240.0,-7.832223491277546e-05
11264.0,1.730629628582392e-05
12288.0,-2.374407631577924e-05
13312.0,-7.473733421647921e-05
14336.0,0.00015598980826325715
end
