version,3.0
numOfCh,1
type,point
parent_name,200-cuts
ch_type,1_1
kcount,1
numberNandB,1
brightnessNandB,1
carpet pos,0
pc,0
Time (ms),CH1 Auto-Correlation
1.0,0.01719588227570057
2.0,0.014037183485925198
3.0,0.011803773231804371
4.0,0.010216445662081242
5.0,0.009074653498828411
6.0,0.008105706423521042
7.0,0.007305217441171408
8.0,0.00663446169346571
9.0,0.00616353889927268
10.0,0.005709491670131683
11.0,0.005335473921149969
12.0,0.0050079599022865295
13.0,0.0046728067100048065
14.0,0.0043930052779614925
15.0,0.004024914465844631
16.0,0.003685128642246127
18.0,0.003043075790628791
20.0,0.0028161348309367895
22.0,0.0024874480441212654
24.0,0.0023510882165282965
26.0,0.0023758516181260347
28.0,0.002242850139737129
30.0,0.002183957025408745
32.0,0.0020485185086727142
36.0,0.0018510518129915
40.0,0.0017652396345511079
44.0,0.0013534112367779016
48.0,0.0010113543830811977
52.0,0.0008723661885596812
56.0,0.0008206349448300898
60.0,0.0011747911339625716
64.0,0.0011675908463075757
72.0,0.001080899266526103
80.0,0.0003836058313027024
88.0,0.0005117632681503892
96.0,0.0006669644499197602
104.0,0.0007899164338596165
112.0,0.0011115835513919592
120.0,0.0009799186373129487
128.0,0.0010920466156676412
144.0,0.0008759308257140219
160.0,0.0004792604595422745
176.0,0.0003599623451009393
192.0,0.00012113297270843759
208.0,-0.0001030611019814387
224.0,-0.0003254527982790023
240.0,0.0001532750902697444
256.0,0.00030042356229387224
288.0,-0.00017152151849586517
320.0,-0.0009595680166967213
352.0,-0.000535837491042912
384.0,-0.0002515928936190903
416.0,-0.0004457370669115335
448.0,-0.0002931450726464391
480.0,-9.507370850769803e-05
512.0,-0.00021860835840925574
576.0,0.00017535702500026673
640.0,-0.00014946484589017928
704.0,0.00011565520253498107
768.0,0.0003702621615957469
832.0,0.00012515437265392393
896.0,0.00038187409518286586
960.0,0.0001942115486599505
1024.0,0.0002333621960133314
1152.0,-0.0001855760783655569
1280.0,-0.0001731630472932011
1408.0,-0.00032605009619146585
1536.0,-0.00041219155536964536
1664.0,0.00016815465642139316
1792.0,0.00025300378911197186
1920.0,-0.0003255867341067642
2048.0,-0.0004906901158392429
2304.0,-0.0001811449765227735
2560.0,0.00022937970061320812
2816.0,0.00014880867092870176
3072.0,-0.00013759592548012733
3328.0,-0.00011898704542545602
3584.0,1.9196775610907935e-05
3840.0,0.0003260732628405094
4096.0,-0.0006658526253886521
4608.0,-0.00021638943871948868
5120.0,0.00025988955167122185
5632.0,-7.97733518993482e-05
6144.0,-4.1451283323112875e-05
6656.0,-0.00011612950038397685
7168.0,1.8452574295224622e-05
7680.0,0.00021636667952407151
8192.0,0.00013052602298557758
9216.0,-0.00026537696248851717
10240.0,7.94943334767595e-05
11264.0,0.00018051052757073194
12288.0,4.364894994068891e-05
13312.0,-6.276623025769368e-05
14336.0,-0.0003491495444905013
end
