version,3.0
numOfCh,1
type,point
parent_name,200-cuts
ch_type,1_1
kcount,1
numberNandB,1
brightnessNandB,1
carpet pos,0
pc,0
Time (ms),CH1 Auto-Correlation
1.0,0.0272967629134655
2.0,0.022260893136262894
3.0,0.018598604947328568
4.0,0.015925392508506775
5.0,0.01389235444366932
6.0,0.012311063706874847
7.0,0.01108119823038578
8.0,0.010047633200883865
9.0,0.009338793344795704
10.0,0.008573443628847599
11.0,0.007947457022964954
12.0,0.007320275064557791
13.0,0.006870914716273546
14.0,0.0064922203309834
15.0,0.006154469680041075
16.0,0.005901246797293425
18.0,0.005441483575850725
20.0,0.005025504156947136
22.0,0.004503521136939526
24.0,0.003963283263146877
26.0,0.0029582770075649023
28.0,0.0025456903968006372
30.0,0.0022474711295217276
32.0,0.0022976764012128115
36.0,0.002155377995222807
40.0,0.0017364746890962124
44.0,0.0016857265727594495
48.0,0.0015864736633375287
52.0,0.0016107481205835938
56.0,0.0016640903195366263
60.0,0.0013155220076441765
64.0,0.0007436308078467846
72.0,0.0010064580710604787
80.0,0.001146575785242021
88.0,0.001277690171264112
96.0,0.001462407992221415
104.0,0.0013244212605059147
112.0,0.0010301301954314113
120.0,0.0005853448528796434
128.0,0.00010546977136982605
144.0,-0.00035358156310394406
160.0,-0.00016074557788670063
176.0,-6.873071470181458e-06
192.0,0.00023366139794234186
208.0,-1.6761503502493724e-05
224.0,0.0006657526828348637
240.0,0.0002871195029001683
256.0,0.00036333725438453257
288.0,-0.0002736996684689075
320.0,-0.00040586068644188344
352.0,-0.000690420507453382
384.0,-0.0005960390553809702
416.0,-0.0005120977875776589
448.0,-3.911957173841074e-05
480.0,4.950461152475327e-05
512.0,0.00013083974772598594
576.0,-0.00020934041822329164
640.0,-0.0001198079771711491
704.0,-0.0007563395774923265
768.0,-0.00036451214691624045
832.0,-0.00014823873061686754
896.0,0.0003481522435322404
960.0,-0.0005444310954771936
1024.0,0.00019263090507593006
1152.0,0.0004108275461476296
1280.0,-0.00031998357735574245
1408.0,0.00010224149446003139
1536.0,-0.0002173224784201011
1664.0,-0.0003941014874726534
1792.0,-0.0005095976521261036
1920.0,-0.00027876553940586746
2048.0,-0.0006371976342052221
2304.0,0.0002449765452183783
2560.0,0.0006862090085633099
2816.0,0.00032903606188483536
3072.0,-0.00042781297815963626
3328.0,-0.0001315888948738575
3584.0,-1.5899582649581134e-05
3840.0,-0.00018488989735487849
4096.0,5.1847557188011706e-05
4608.0,-7.289648056030273e-05
5120.0,0.00044271216029301286
5632.0,-0.0005779326893389225
6144.0,0.0002697392483241856
6656.0,-0.0001343087205896154
7168.0,-8.774540037848055e-05
7680.0,0.0005548049812205136
8192.0,-0.0007457563770003617
9216.0,1.6861115000210702e-05
10240.0,-9.135481377597898e-06
11264.0,-0.0006651991279795766
12288.0,0.00019143748795613647
13312.0,-1.1169753406647942e-06
14336.0,-4.4114778575021774e-05
end
