version,3.0
numOfCh,1
type,point
parent_name,200-cuts
ch_type,1_1
kcount,1
numberNandB,1
brightnessNandB,1
carpet pos,0
pc,0
Time (ms),CH1 Auto-Correlation
1.0,0.015583384782075882
2.0,0.012585990130901337
3.0,0.01051612664014101
4.0,0.008972269482910633
5.0,0.007883838377892971
6.0,0.007033986505120993
7.0,0.00629710778594017
8.0,0.005517612677067518
9.0,0.004973311442881823
10.0,0.004461980890482664
11.0,0.004072087351232767
12.0,0.003811294212937355
13.0,0.003563011297956109
14.0,0.003303136210888624
15.0,0.0031020441092550755
16.0,0.002945445477962494
18.0,0.0026218905113637447
20.0,0.002327021909877658
22.0,0.0021337727084755898
24.0,0.0019027600064873695
26.0,0.0016703439177945256
28.0,0.0015443499432876706
30.0,0.0013709109043702483
32.0,0.0012958308216184378
36.0,0.0010977326892316341
40.0,0.0009011366637423635
44.0,0.0010435659205541015
48.0,0.0011087461607530713
52.0,0.0007146843126975
56.0,0.0004106542910449207
60.0,0.0004353024996817112
64.0,0.0007003785576671362
72.0,0.0006897898274473846
80.0,0.000622374820522964
88.0,0.0003455221012700349
96.0,0.00022522738436236978
104.0,0.00024690592545084655
112.0,0.00028888630913570523
120.0,0.0004012713907286525
128.0,0.0005785768735222518
144.0,0.00022827846987638623
160.0,0.00012992740084882826
176.0,0.0003497528377920389
192.0,0.00030234653968364
208.0,0.00019914386211894453
224.0,0.00014936794468667358
240.0,-0.00011846738198073581
256.0,0.00033980378066189587
288.0,0.0001706689945422113
320.0,-0.0001940128131536767
352.0,-0.00018444456509314477
384.0,-0.00031698099337518215
416.0,-0.00029277082649059594
448.0,-0.00046192132867872715
480.0,-0.0006031350931152701
512.0,-0.00041393665014766157
576.0,-9.147144737653434e-05
640.0,7.456797175109386e-05
704.0,-0.00024960024165920913
768.0,-0.0002427340077701956
832.0,0.00020850321743637323
896.0,-3.10678624373395e-05
960.0,0.00015419644478242844
1024.0,8.930113835958764e-05
1152.0,-2.77919079962885e-05
1280.0,-0.00022958846238907427
1408.0,0.00037534255534410477
1536.0,-0.00010229343024548143
1664.0,7.716904656263068e-05
1792.0,5.883557605557144e-05
1920.0,-0.00015859038103371859
2048.0,-0.0002575104299467057
2304.0,0.00021537611610256135
2560.0,0.0002558018604759127
2816.0,0.0004263984155841172
3072.0,0.00024327797291334718
3328.0,-0.0005241500330157578
3584.0,-0.00014632788952440023
3840.0,-2.5248935344279744e-05
4096.0,0.0002456206129863858
4608.0,-9.907141793519258e-05
5120.0,0.00010440849291626364
5632.0,0.00016555801266804338
6144.0,-8.016415813472122e-05
6656.0,-2.3133847207645886e-05
7168.0,-0.00014925707364454865
7680.0,-0.0001721254229778424
8192.0,0.0001830706896726042
9216.0,-0.00020373523875605315
10240.0,-0.00013386437785811722
11264.0,0.00012962731125298887
12288.0,-0.0003534905263222754
13312.0,7.383850606856868e-05
14336.0,-0.0003278890217188746
end
