version,3.0
numOfCh,1
type,point
parent_name,200-cuts
ch_type,1_1
kcount,1
numberNandB,1
brightnessNandB,1
carpet pos,0
pc,0
Time (ms),CH1 Auto-Correlation
1.0,0.015392549335956573
2.0,0.012330707162618637
3.0,0.01014332938939333
4.0,0.008556252345442772
5.0,0.007264271378517151
6.0,0.006271508987993002
7.0,0.005606967955827713
8.0,0.0049843681044876575
9.0,0.004515711218118668
10.0,0.004083695355802774
11.0,0.003658574540168047
12.0,0.0033078049309551716
13.0,0.0030571946408599615
14.0,0.002864654641598463
15.0,0.002652296330779791
16.0,0.0024224661756306887
18.0,0.0021850094199180603
20.0,0.002029591938480735
22.0,0.0017972913337871432
24.0,0.0016448615351691842
26.0,0.0016174062620848417
28.0,0.00159432680811733
30.0,0.001539160031825304
32.0,0.0013975338079035282
36.0,0.0010577430948615074
40.0,0.001056553446687758
44.0,0.0008035319624468684
48.0,0.0005251268157735467
52.0,0.00021399566321633756
56.0,-9.43617123994045e-05
60.0,2.9083292247378267e-05
64.0,0.0003437629493419081
72.0,0.00022364500910043716
80.0,0.00033748531132005155
88.0,0.0004743022145703435
96.0,0.00038828124525025487
104.0,0.0003557213640306145
112.0,0.00042860215762630105
120.0,0.0004355502314865589
128.0,0.00030436072847805917
144.0,8.921500557335094e-05
160.0,0.00017263791232835501
176.0,0.00024052098160609603
192.0,0.00029508359148167074
208.0,0.0003423216112423688
224.0,3.948338780901395e-05
240.0,-0.00015294628974515945
256.0,-0.0001910604041768238
288.0,-0.00033594807609915733
320.0,0.0001818754681153223
352.0,0.00015445689496118575
384.0,9.547780064167455e-05
416.0,-0.00024687129189260304
448.0,-0.000493318191729486
480.0,-0.00016192145994864404
512.0,-0.0004065627290401608
576.0,0.00025128599372692406
640.0,-3.5984747228212655e-05
704.0,0.0002201120660174638
768.0,-0.00035988257150165737
832.0,-0.0004155335482209921
896.0,9.567890629114117e-06
960.0,-4.930678551318124e-05
1024.0,-0.00044246952165849507
1152.0,-0.0001870431296993047
1280.0,0.00017843308160081506
1408.0,-0.00010949250281555578
1536.0,-0.0001433699653716758
1664.0,0.0002984246239066124
1792.0,5.256883378024213e-05
1920.0,0.00010271172504872084
2048.0,0.0002569819043856114
2304.0,-0.00015597006131429225
2560.0,-0.00016122066881507635
2816.0,-0.00026832916773855686
3072.0,-0.00019477006571833044
3328.0,-0.00037291611079126596
3584.0,6.811196362832561e-05
3840.0,0.00012516915739979595
4096.0,-0.000261173234321177
4608.0,0.00024169337120838463
5120.0,0.00014087895397096872
5632.0,0.0001474202872486785
6144.0,-0.00016414954734500498
6656.0,0.00010827996447915211
7168.0,0.00025591993471607566
7680.0,1.7200947695528157e-05
8192.0,-0.00025214621564373374
9216.0,0.00016737313126213849
10240.0,-0.000190177554031834
11264.0,8.443157275905833e-05
12288.0,1.8927165001514368e-05
13312.0,-3.2481809739692835e-06
14336.0,3.5670145734911785e-05
end
