version,3.0
numOfCh,1
type,point
parent_name,200-cuts
ch_type,1_1
kcount,1
numberNandB,1
brightnessNandB,1
carpet pos,0
pc,0
Time (ms),CH1 Auto-Correlation
1.0,0.015886271372437477
2.0,0.012858033180236816
3.0,0.01074343454092741
4.0,0.009176843799650669
5.0,0.007898302748799324
6.0,0.006980083882808685
7.0,0.006289268843829632
8.0,0.00568270031362772
9.0,0.005091003607958555
10.0,0.004477526061236858
11.0,0.003967881202697754
12.0,0.0036557407584041357
13.0,0.0033041448332369328
14.0,0.0030053057707846165
15.0,0.002732790308073163
16.0,0.0025473791174590588
18.0,0.0022073581349104643
20.0,0.0021031906362622976
22.0,0.001772507093846798
24.0,0.0014208396896719933
26.0,0.0010739207500591874
28.0,0.0009672126034274697
30.0,0.0009992783889174461
32.0,0.0009473907994106412
36.0,0.0009496702114120126
40.0,0.0009537168662063777
44.0,0.0009319729870185256
48.0,0.0010345467599108815
52.0,0.0009338046656921506
56.0,0.001077336841262877
60.0,0.0010427864035591483
64.0,0.0009897047420963645
72.0,0.000671582471113652
80.0,0.00020934897474944592
88.0,-0.00021500243747141212
96.0,-8.600114233558998e-05
104.0,-0.0001656928943702951
112.0,1.537432035547681e-05
120.0,-7.993241888470948e-05
128.0,-0.00030244936351664364
144.0,-0.0006449498469009995
160.0,-0.000937937293201685
176.0,-0.0008952408679760993
192.0,-0.0010658795945346355
208.0,-0.0008899938547983766
224.0,-0.0007043397636152804
240.0,-0.0004341172461863607
256.0,-0.0007022434147074819
288.0,-0.00021528825163841248
320.0,-8.915504440665245e-05
352.0,4.961319064022973e-05
384.0,0.00011104217992397025
416.0,-0.00019708939362317324
448.0,0.00043826669570989907
480.0,0.00028208960429765284
512.0,0.0007856672164052725
576.0,-8.830496517475694e-05
640.0,0.000251955323619768
704.0,0.00012144167703809217
768.0,-7.885401282692328e-05
832.0,-0.0002514836669433862
896.0,-0.00016552602755837142
960.0,-0.00013305403990671039
1024.0,6.598312029382214e-05
1152.0,0.00021265710529405624
1280.0,2.9536806323449127e-05
1408.0,-6.289169505180325e-06
1536.0,-0.0003058051224797964
1664.0,0.00012869951024185866
1792.0,1.2347742085694335e-05
1920.0,4.025438101962209e-05
2048.0,-1.4388553609023802e-05
2304.0,0.00012541477917693555
2560.0,6.383919389918447e-05
2816.0,2.1330599338398315e-05
3072.0,-0.00010632829798851162
3328.0,0.00010027977987192571
3584.0,-0.0002001038519665599
3840.0,0.00014952776837162673
4096.0,-0.00022579991491511464
4608.0,-5.703837450710125e-05
5120.0,6.397808465408161e-05
5632.0,-0.0001020988347590901
6144.0,-6.917902624081762e-07
6656.0,-0.00011797838669735938
7168.0,-9.035757830133662e-05
7680.0,-0.00018528678629081696
8192.0,1.5414725567097776e-05
9216.0,-1.4918455235601868e-05
10240.0,-2.732212124101352e-05
11264.0,0.0001658573601162061
12288.0,3.397178807063028e-05
13312.0,0.0001369289675494656
14336.0,-8.840875671012327e-05
end
