version,3.0
numOfCh,1
type,point
parent_name,200-cuts
ch_type,1_1
kcount,1
numberNandB,1
brightnessNandB,1
carpet pos,0
pc,0
Time (ms),CH1 Auto-Correlation
1.0,0.02614171802997589
2.0,0.021133989095687866
3.0,0.017657171934843063
4.0,0.01492647547274828
5.0,0.01295282132923603
6.0,0.011298198252916336
7.0,0.009990408085286617
8.0,0.008880983106791973
9.0,0.0078070578165352345
10.0,0.007054549641907215
11.0,0.006247787736356258
12.0,0.005736487451940775
13.0,0.005294971168041229
14.0,0.004753075540065765
15.0,0.004340002778917551
16.0,0.003884778590872884
18.0,0.0033765356056392193
20.0,0.002708332147449255
22.0,0.00234985095448792
24.0,0.002093905583024025
26.0,0.0019059596816077828
28.0,0.0017440280644223094
30.0,0.001728553674183786
32.0,0.001808416098356247
36.0,0.001540320343337953
40.0,0.0010562504176050425
44.0,0.0008536636596545577
48.0,0.0009822731371968985
52.0,0.001040894421748817
56.0,0.0007068875129334629
60.0,0.000703750061802566
64.0,0.0010965984547510743
72.0,0.0010006672237068415
80.0,0.000704307749401778
88.0,0.000407415529480204
96.0,0.0006409785128198564
104.0,-9.173416765406728e-05
112.0,-0.0001472250878578052
120.0,-7.910725253168494e-05
128.0,0.000116217095637694
144.0,0.001010156818665564
160.0,0.0014095973456278443
176.0,0.0004794699198100716
192.0,0.0007232273928821087
208.0,0.000821826106403023
224.0,0.0003365454904269427
240.0,-7.4105337262153625e-06
256.0,-0.00030096256523393095
288.0,9.757779480423778e-05
320.0,-0.0001744083419907838
352.0,-0.00010778151772683486
384.0,0.00010438346362207085
416.0,-0.0010267178295180202
448.0,-0.0005753739969804883
480.0,-4.0177990740630776e-05
512.0,0.0004387330845929682
576.0,-0.00017813057638704777
640.0,-0.0002210276434198022
704.0,0.0003210900176782161
768.0,0.000401906028855592
832.0,-3.918067886843346e-05
896.0,0.0004281474102754146
960.0,0.00036381222889758646
1024.0,0.0006698598153889179
1152.0,0.0001852332497946918
1280.0,0.00044541177339851856
1408.0,-0.00023688748478889465
1536.0,-0.00035591679625213146
1664.0,-0.00021301313245203346
1792.0,-0.0003982400521636009
1920.0,-0.00024206105445045978
2048.0,0.00024155061691999435
2304.0,-0.00030373127083294094
2560.0,-0.0005928463069722056
2816.0,-0.0003141275083180517
3072.0,1.3327568012755364e-05
3328.0,-0.0007620939868502319
3584.0,4.211105624563061e-05
3840.0,-3.693512553581968e-05
4096.0,0.0002013594494201243
4608.0,-0.00011130596976727247
5120.0,0.00018037694098893553
5632.0,0.00015478198474738747
6144.0,0.00015916387201286852
6656.0,0.0002630760718602687
7168.0,1.561831777507905e-05
7680.0,0.00013936785398982465
8192.0,-0.0003965682990383357
9216.0,-0.0004802385519724339
10240.0,-0.00020321985357441008
11264.0,0.0004115595656912774
12288.0,0.0006162802455946803
13312.0,-0.000582644366659224
14336.0,4.1276245610788465e-05
end
