version,3.0
numOfCh,1
type,point
parent_name,200-cuts
ch_type,1_1
kcount,1
numberNandB,1
brightnessNandB,1
carpet pos,0
pc,0
Time (ms),CH1 Auto-Correlation
1.0,0.016847876831889153
2.0,0.01375663559883833
3.0,0.011506893672049046
4.0,0.00982199888676405
5.0,0.008647329173982143
6.0,0.007727429736405611
7.0,0.006906835362315178
8.0,0.006130612455308437
9.0,0.005491022951900959
10.0,0.004978499840945005
11.0,0.004466985817998648
12.0,0.004073541145771742
13.0,0.003747159382328391
14.0,0.0034045863430947065
15.0,0.003186390735208988
16.0,0.0029664747416973114
18.0,0.002613713964819908
20.0,0.0023629332426935434
22.0,0.002343610627576709
24.0,0.0024081477895379066
26.0,0.002259856788441539
28.0,0.00195797486230731
30.0,0.0016158559592440724
32.0,0.0013789337826892734
36.0,0.0011980447452515364
40.0,0.0008135280222631991
44.0,0.0003642106312327087
48.0,0.0002467720478307456
52.0,0.0004768873914144933
56.0,0.000546719238627702
60.0,0.0006083229673095047
64.0,0.000949056469835341
72.0,0.0002574316458776593
80.0,0.00018280945369042456
88.0,1.4009521692059934e-05
96.0,-0.0003709943557623774
104.0,-0.0006671641604043543
112.0,-0.0004436138260643929
120.0,-0.0003348474274389446
128.0,-0.00024008560285437852
144.0,-8.129284105962142e-05
160.0,-0.00012448246707208455
176.0,7.830141839804128e-05
192.0,-7.592338079120964e-05
208.0,0.00019647560839075595
224.0,0.0002731505664996803
240.0,0.00030673426226712763
256.0,-0.00014744061627425253
288.0,-0.00042870340985246
320.0,0.0003725832502823323
352.0,-0.0001417497987858951
384.0,-0.00019119148782920092
416.0,-0.0006269178120419383
448.0,-0.00034480818430893123
480.0,-0.00031279679387807846
512.0,0.0001560951059218496
576.0,0.00017495131760369986
640.0,-0.00016952925943769515
704.0,0.00016938660701271147
768.0,-3.294765701866709e-05
832.0,-0.00021587694936897606
896.0,0.0002870681928470731
960.0,-1.2469931789382827e-05
1024.0,0.000170483865076676
1152.0,-0.0001931618171511218
1280.0,0.0002140241558663547
1408.0,-0.0006501154857687652
1536.0,-6.253535684663802e-05
1664.0,1.7882741758512566e-06
1792.0,0.00033006008015945554
1920.0,0.00018857282702811062
2048.0,0.00021000787091907114
2304.0,-0.00022969279962126166
2560.0,-4.4762455218005925e-05
2816.0,-6.369664333760738e-05
3072.0,-4.475690730032511e-05
3328.0,-1.3988878890813794e-05
3584.0,-0.00012294673069845885
3840.0,1.2009473948637606e-06
4096.0,-0.00016431538097094744
4608.0,3.625004683271982e-05
5120.0,-5.2437833801377565e-05
5632.0,-3.264523547841236e-05
6144.0,9.892552770907059e-05
6656.0,-0.00016563734970986843
7168.0,7.810770330252126e-05
7680.0,-0.00015529127267654985
8192.0,6.780590047128499e-05
9216.0,-6.262301030801609e-05
10240.0,0.00035292949178256094
11264.0,-0.00010301866859663278
12288.0,-0.0001143054905696772
13312.0,-0.0003007059858646244
14336.0,0.00019072717987000942
end
