version,3.0
numOfCh,1
type,point
parent_name,200-cuts
ch_type,1_1
kcount,1
numberNandB,1
brightnessNandB,1
carpet pos,0
pc,0
Time (ms),CH1 Auto-Correlation
1.0,0.016484256833791733
2.0,0.013438381254673004
3.0,0.011166057549417019
4.0,0.009543212130665779
5.0,0.008318398147821426
6.0,0.007324527483433485
7.0,0.006487211212515831
8.0,0.005862429738044739
9.0,0.005329003557562828
10.0,0.004923857748508453
11.0,0.004555455408990383
12.0,0.00417345529422164
13.0,0.0038534151390194893
14.0,0.003441626438871026
15.0,0.003143192967399955
16.0,0.002994811162352562
18.0,0.0025669136084616184
20.0,0.0022981083020567894
22.0,0.0020282843615859747
24.0,0.0017872318858280778
26.0,0.0014981527347117662
28.0,0.0013074405724182725
30.0,0.001242681872099638
32.0,0.001112593337893486
36.0,0.0008657278958708048
40.0,0.0005843499675393105
44.0,0.00035469495924189687
48.0,0.0002172301319660619
52.0,-7.778694271109998e-05
56.0,-0.00016241073899436742
60.0,6.68397915433161e-05
64.0,-5.030502870795317e-05
72.0,0.00031692301854491234
80.0,0.0006091296672821045
88.0,0.0006094588898122311
96.0,0.0005056183435954154
104.0,0.0006315748323686421
112.0,0.00034524689544923604
120.0,0.0003652652958407998
128.0,0.000770923332311213
144.0,0.0007754572434350848
160.0,0.00030251179123297334
176.0,0.0001566763676237315
192.0,0.0005386730772443116
208.0,0.0002556510444264859
224.0,-0.00022825479391030967
240.0,-0.00011804059613496065
256.0,0.0004093911265954375
288.0,0.0005259235622361302
320.0,0.00015392825298476964
352.0,-0.0001566477003507316
384.0,-0.0001645620504859835
416.0,-0.00034290269832126796
448.0,-0.0001896288013085723
480.0,-0.00013684369332622737
512.0,-2.5337820261484012e-05
576.0,-0.00021455665410030633
640.0,-3.5584307624958456e-05
704.0,3.988602838944644e-05
768.0,-2.843691618181765e-05
832.0,-9.351030894322321e-05
896.0,-0.0005411973688751459
960.0,8.400487422477454e-05
1024.0,7.54613647586666e-05
1152.0,-2.680463330761995e-05
1280.0,0.00039713000296615064
1408.0,-9.524999040877447e-05
1536.0,-0.00010266069148201495
1664.0,-5.545950261875987e-05
1792.0,-0.00013783545000478625
1920.0,-3.214555908925831e-05
2048.0,3.9864451537141576e-05
2304.0,0.00012350556789897382
2560.0,6.70294466544874e-05
2816.0,4.708291271526832e-06
3072.0,-0.00012626773968804628
3328.0,-0.00025432725669816136
3584.0,0.00025252459454350173
3840.0,5.203303226153366e-05
4096.0,-0.00013442746421787888
4608.0,5.1479230023687705e-05
5120.0,-7.756020204396918e-05
5632.0,-3.698661021189764e-05
6144.0,-2.057344318018295e-05
6656.0,-0.00029966115835122764
7168.0,-7.252901559695601e-05
7680.0,5.9825015341630206e-05
8192.0,-0.00020197189587634057
9216.0,0.0001434778532711789
10240.0,-0.0002398158103460446
11264.0,7.837130397092551e-05
12288.0,-9.448935452383012e-05
13312.0,1.7298036254942417e-05
14336.0,-9.549209607939702e-06
end
