version,3.0
numOfCh,1
type,point
parent_name,200-cuts
ch_type,1_1
kcount,1
numberNandB,1
brightnessNandB,1
carpet pos,0
pc,0
Time (ms),CH1 Auto-Correlation
1.0,0.016812177374958992
2.0,0.01374043244868517
3.0,0.01159488782286644
4.0,0.00995675940066576
5.0,0.00878448598086834
6.0,0.008006417192518711
7.0,0.007293119560927153
8.0,0.0067217107862234116
9.0,0.006244037766009569
10.0,0.005763956345617771
11.0,0.005416214931756258
12.0,0.005045079160481691
13.0,0.004800616297870874
14.0,0.00464604003354907
15.0,0.004380729515105486
16.0,0.004166111815720797
18.0,0.0038586335722357035
20.0,0.0035869458224624395
22.0,0.003352023661136627
24.0,0.0029871759470552206
26.0,0.0027304021641612053
28.0,0.0025736705865710974
30.0,0.0023143114522099495
32.0,0.0022666866425424814
36.0,0.0016633379273116589
40.0,0.0010638490784913301
44.0,0.0009470264776609838
48.0,0.0009130407124757767
52.0,0.0009442032896913588
56.0,0.0008103337604552507
60.0,0.00054594234097749
64.0,0.0004744634497910738
72.0,0.00047111845924519
80.0,0.0002571511431597173
88.0,0.00018929365614894778
96.0,-2.4756947823334485e-05
104.0,0.0001880147901829332
112.0,0.000390629778848961
120.0,0.0001332564279437065
128.0,-0.00015536643331870437
144.0,0.00014797071344219148
160.0,0.00019641184189822525
176.0,0.0004406498046591878
192.0,0.00031497213058173656
208.0,0.00013387875515036285
224.0,-0.00013098093040753156
240.0,-0.0002191606763517484
256.0,0.00025860933237709105
288.0,-1.687087569735013e-05
320.0,-0.00014879443915560842
352.0,0.0001581847172928974
384.0,-4.601391628966667e-05
416.0,-4.6523560740752146e-05
448.0,-1.3005781511310488e-05
480.0,-0.0004689621855504811
512.0,-0.0003087241784669459
576.0,-0.00038684578612446785
640.0,0.00042319594649598
704.0,0.0006421093130484223
768.0,-9.484329348197207e-05
832.0,0.00022036462905816734
896.0,-0.0003514056443236768
960.0,-0.00011406717385398224
1024.0,0.00020157631661277264
1152.0,1.8754858501779381e-06
1280.0,0.0002845671260729432
1408.0,0.000542845344170928
1536.0,0.0006070689996704459
1664.0,-0.00011839203216368333
1792.0,-0.00047199177788570523
1920.0,1.966393710972625e-06
2048.0,-0.00020852811576332897
2304.0,-4.42031296188361e-06
2560.0,-1.7913993360707536e-05
2816.0,0.0002995941322296858
3072.0,-0.00038534801569767296
3328.0,-0.00023348184186033905
3584.0,-1.057602003129432e-05
3840.0,3.404921153560281e-05
4096.0,0.0004403234052006155
4608.0,-0.0003774014476221055
5120.0,5.6957749620778486e-05
5632.0,4.788297155755572e-05
6144.0,-0.000426582497311756
6656.0,0.0002036545774899423
7168.0,-0.0004557464853860438
7680.0,-0.0003017399285454303
8192.0,8.818902279017493e-05
9216.0,-0.00022982386872172356
10240.0,7.284014282049611e-05
11264.0,0.00017469732847530395
12288.0,0.00010369471419835463
13312.0,2.0275554561521858e-05
14336.0,-3.107700831606053e-05
end
