version,3.0
numOfCh,1
type,point
parent_name,200-cuts
ch_type,1_1
kcount,1
numberNandB,1
brightnessNandB,1
carpet pos,0
pc,0
Time (ms),CH1 Auto-Correlation
1.0,0.016756558790802956
2.0,0.013638104312121868
3.0,0.011503930203616619
4.0,0.009809864684939384
5.0,0.008502138778567314
6.0,0.007492629811167717
7.0,0.00672532944008708
8.0,0.006114655639976263
9.0,0.0055979350581765175
10.0,0.00507321348413825
11.0,0.004724330268800259
12.0,0.004391179885715246
13.0,0.00407569482922554
14.0,0.00382165121845901
15.0,0.0035449624992907047
16.0,0.0033539857249706984
18.0,0.002991640940308571
20.0,0.0026680571027100086
22.0,0.002412523375824094
24.0,0.0020109054166823626
26.0,0.0018105135532096028
28.0,0.0018828109605237842
30.0,0.0018299451330676675
32.0,0.0015935298288241029
36.0,0.0014224171172827482
40.0,0.0013075040187686682
44.0,0.0009329015156254172
48.0,0.0006506642675958574
52.0,0.0004045883833896369
56.0,0.00013063469668850303
60.0,0.0002520098933018744
64.0,0.0003753936034627259
72.0,0.0001793280680431053
80.0,0.00011010438174707815
88.0,0.00015915538824629039
96.0,-0.0001606863079359755
104.0,-0.00025913683930411935
112.0,-0.0003673722967505455
120.0,-0.00027933373348787427
128.0,0.0001590778847457841
144.0,0.00035770219983533025
160.0,0.0001922690134961158
176.0,0.0005434543709270656
192.0,0.000239940665778704
208.0,-0.00014821597142145038
224.0,-0.0004042099753860384
240.0,-0.0003555651055648923
256.0,-0.0005232146359048784
288.0,-0.0005421718233264983
320.0,0.00018422151333652437
352.0,0.0001435022131772712
384.0,-0.00014010049926582724
416.0,-0.0004609610477928072
448.0,-0.00026057835202664137
480.0,9.082676842808723e-05
512.0,0.00018468698544893414
576.0,8.469991007586941e-05
640.0,0.00013523138477467
704.0,-2.6211996555502992e-06
768.0,-0.00040107526001520455
832.0,-0.00021754314366262406
896.0,0.0005059701506979764
960.0,6.9301066105254e-05
1024.0,-4.221392373437993e-05
1152.0,-0.00012520168093033135
1280.0,0.00018231487774755806
1408.0,0.00023658518330194056
1536.0,1.3220536857261322e-05
1664.0,-0.0005489055765792727
1792.0,-0.00011447988072177395
1920.0,-0.00020710838725790381
2048.0,-0.0001512630406068638
2304.0,0.0006619017221964896
2560.0,-0.00025136381736956537
2816.0,0.000162618700414896
3072.0,-0.00015144194185268134
3328.0,0.0002651606046129018
3584.0,8.325325325131416e-05
3840.0,-0.0003037812712136656
4096.0,-0.00017659786681178957
4608.0,0.00011957350216107443
5120.0,-6.633125303778797e-05
5632.0,-0.00011401186202419922
6144.0,-0.0003298398805782199
6656.0,-0.00023832637816667557
7168.0,4.633707067114301e-05
7680.0,0.00016331515507772565
8192.0,0.00010705823660828173
9216.0,-0.00014416211342904717
10240.0,-4.9326379667036235e-05
11264.0,8.000616617209744e-06
12288.0,6.266360287554562e-05
13312.0,-6.377071986207739e-05
14336.0,-6.403020233847201e-05
end
