version,3.0
numOfCh,1
type,point
parent_name,200-cuts
ch_type,1_1
kcount,1
numberNandB,1
brightnessNandB,1
carpet pos,0
pc,0
Time (ms),CH1 Auto-Correlation
1.0,0.018555201590061188
2.0,0.015492935664951801
3.0,0.013239625841379166
4.0,0.011448589153587818
5.0,0.010241569951176643
6.0,0.009266774170100689
7.0,0.008453215472400188
8.0,0.007820011116564274
9.0,0.0073113813996315
10.0,0.006812693551182747
11.0,0.006405631545931101
12.0,0.006038570310920477
13.0,0.00574173079803586
14.0,0.005418170243501663
15.0,0.0050691887736320496
16.0,0.004812286235392094
18.0,0.004223274998366833
20.0,0.004028096329420805
22.0,0.0038164514116942883
24.0,0.003504854626953602
26.0,0.00309415883384645
28.0,0.002663543913513422
30.0,0.002387473126873374
32.0,0.0020586729515343904
36.0,0.0014449330046772957
40.0,0.0013357822317630053
44.0,0.0012050890363752842
48.0,0.0012252605520188808
52.0,0.001200112048536539
56.0,0.001035777386277914
60.0,0.0010240087285637856
64.0,0.0011845242697745562
72.0,0.0012733062030747533
80.0,0.0009615253657102585
88.0,0.0006759540410712361
96.0,0.0006911547970958054
104.0,0.0003687413700390607
112.0,0.000356996082700789
120.0,0.00026379895280115306
128.0,0.00014717246813233942
144.0,3.924427801393904e-05
160.0,0.0003975577128585428
176.0,6.229778955457732e-05
192.0,-0.00012649642303586006
208.0,-0.00032684460165910423
224.0,-0.0004262134898453951
240.0,8.50794167490676e-05
256.0,0.00046284994459711015
288.0,0.00015588387032039464
320.0,0.00042492407374083996
352.0,0.0002227868972113356
384.0,0.0005245429929345846
416.0,-2.6189031814283226e-06
448.0,-0.00018447039474267513
480.0,0.0003403040172997862
512.0,0.0002165235491702333
576.0,-1.2148640053055715e-05
640.0,0.00038943401887081563
704.0,0.00010763658065116033
768.0,-0.00011029572488041595
832.0,-0.00017347252287436277
896.0,-0.0004758448339998722
960.0,-0.0008061867556534708
1024.0,-0.0003723035042639822
1152.0,-7.847720553399995e-05
1280.0,-0.00014222045138012618
1408.0,-8.949099719757214e-05
1536.0,9.767170922714286e-06
1664.0,0.00026284027262590826
1792.0,0.000284054025541991
1920.0,-0.00013043319631833583
2048.0,0.0004554791084956378
2304.0,-1.867234277597163e-05
2560.0,-0.00034953426802530885
2816.0,-0.0008646638016216457
3072.0,-0.00040385182364843786
3328.0,-0.00041069541475735605
3584.0,-0.00020616872643586248
3840.0,8.457178046228364e-05
4096.0,-3.2776810257928446e-05
4608.0,0.00018553607515059412
5120.0,-5.0174690841231495e-05
5632.0,0.00010238730465061963
6144.0,0.000756834982894361
6656.0,-1.3704384400625713e-05
7168.0,-0.00026255878037773073
7680.0,-7.573702168883756e-05
8192.0,1.2323945156822447e-05
9216.0,-0.0002013117918977514
10240.0,-7.136080239433795e-05
11264.0,6.956634751986712e-05
12288.0,0.0001261527359019965
13312.0,2.3968546884134412e-05
14336.0,-6.9634079409297556e-06
end
