version,3.0
numOfCh,1
type,point
parent_name,200-cuts
ch_type,1_1
kcount,1
numberNandB,1
brightnessNandB,1
carpet pos,0
pc,0
Time (ms),CH1 Auto-Correlation
1.0,0.0264419075101614
2.0,0.021419448778033257
3.0,0.01795230805873871
4.0,0.015196387656033039
5.0,0.013016226701438427
6.0,0.0113426074385643
7.0,0.010204866528511047
8.0,0.009222033433616161
9.0,0.00822369009256363
10.0,0.007427702657878399
11.0,0.0066573419608175755
12.0,0.0060958657413721085
13.0,0.005671911407262087
14.0,0.005148524418473244
15.0,0.004860950168222189
16.0,0.004532638471573591
18.0,0.0042408909648656845
20.0,0.0038780183531343937
22.0,0.003424088703468442
24.0,0.0030808330047875643
26.0,0.003029914340004325
28.0,0.0029886073898524046
30.0,0.002833571517840028
32.0,0.002750554122030735
36.0,0.002446360420435667
40.0,0.0019502704963088036
44.0,0.0018648875411599874
48.0,0.0017898071091622114
52.0,0.001374676707200706
56.0,0.0009130366379395127
60.0,0.00025251402985304594
64.0,0.0003182911314070225
72.0,0.000438973365817219
80.0,0.000798095716163516
88.0,0.0007356033311225474
96.0,0.00043844347237609327
104.0,0.00024582853075116873
112.0,0.0002625019697006792
120.0,0.0005023133708164096
128.0,0.00094200688181445
144.0,0.001255142968147993
160.0,0.0006440359284169972
176.0,-0.0001601035037310794
192.0,-0.00035126321017742157
208.0,6.687517270620447e-06
224.0,-0.000153501532622613
240.0,-0.0003349074686411768
256.0,-1.1126233403047081e-05
288.0,-0.00012979442544747144
320.0,-0.0005832027527503669
352.0,-0.00038612744538113475
384.0,-5.5165419325931e-05
416.0,-0.00047401018673554063
448.0,0.0003850474313367158
480.0,0.0013098951894789934
512.0,-0.000270067248493433
576.0,0.0004971030866727233
640.0,5.197208884055726e-05
704.0,0.0002693275746423751
768.0,0.0003361513663548976
832.0,0.00043124734656885266
896.0,2.5593224563635886e-05
960.0,-2.996621560669155e-06
1024.0,0.0003458243445493281
1152.0,-0.0005168646457605064
1280.0,7.724194438196719e-05
1408.0,-5.034132846049033e-05
1536.0,-8.710658585187048e-05
1664.0,-0.0005651512183248997
1792.0,6.092238982091658e-05
1920.0,0.0002504403528291732
2048.0,0.00025660143001005054
2304.0,-0.00014144202577881515
2560.0,0.00035561464028432965
2816.0,-0.00023456319468095899
3072.0,1.2709920156339649e-05
3328.0,-3.257619755459018e-05
3584.0,-0.00044699449790641665
3840.0,-0.00027948376373387873
4096.0,5.256362101135892e-07
4608.0,-0.0002493687206879258
5120.0,-0.0004921214422211051
5632.0,-0.0006177230388857424
6144.0,3.042566640942823e-05
6656.0,7.095363980624825e-05
7168.0,8.022381371119991e-05
7680.0,-0.00018098988221026957
8192.0,0.00011887881555594504
9216.0,0.00023154000518843532
10240.0,-0.00014125087182037532
11264.0,0.00043739931425079703
12288.0,-0.0005856267525814474
13312.0,0.0005082089337520301
14336.0,-0.0004989912849850953
end
