version,3.0
numOfCh,1
type,point
parent_name,200-cuts
ch_type,1_1
kcount,1
numberNandB,1
brightnessNandB,1
carpet pos,0
pc,0
Time (ms),CH1 Auto-Correlation
1.0,0.026446200907230377
2.0,0.021480433642864227
3.0,0.017934681847691536
4.0,0.015470691956579685
5.0,0.013566819950938225
6.0,0.01198438461869955
7.0,0.010700421407818794
8.0,0.009715649299323559
9.0,0.00886703934520483
10.0,0.008124726824462414
11.0,0.007324404548853636
12.0,0.006536918226629496
13.0,0.005684685427695513
14.0,0.005200452636927366
15.0,0.004728465341031551
16.0,0.004422309808433056
18.0,0.0038582165725529194
20.0,0.0033214432187378407
22.0,0.0030932840891182423
24.0,0.003016312839463353
26.0,0.002922645304352045
28.0,0.002640424994751811
30.0,0.0022047236561775208
32.0,0.0020573155488818884
36.0,0.001754376688040793
40.0,0.0015043149469420314
44.0,0.0008703492349013686
48.0,0.0003584087244234979
52.0,9.834846423473209e-05
56.0,0.00020050490275025368
60.0,0.00020394541206769645
64.0,0.00012440368300303817
72.0,-3.789462425629608e-05
80.0,-0.0006349716568365693
88.0,-0.00030817309743724763
96.0,0.0003854391979984939
104.0,0.00021590906544588506
112.0,-0.0001227835164172575
120.0,-6.075717828935012e-05
128.0,0.0002334912569494918
144.0,0.000171375329955481
160.0,0.0004259362758602947
176.0,0.00011263204214628786
192.0,-0.00035037551424466074
208.0,0.00023209056234918535
224.0,0.0005057840025983751
240.0,-0.00022940101916901767
256.0,-0.00036071057547815144
288.0,-0.0007314838585443795
320.0,1.83460142579861e-05
352.0,0.000367707951227203
384.0,-0.000615431519690901
416.0,-0.0003786615561693907
448.0,-0.0012992526171728969
480.0,-0.0007612166809849441
512.0,-0.0003169267438352108
576.0,-0.0008496576338075101
640.0,-0.0005806006956845522
704.0,2.6807954782270826e-05
768.0,-0.0005747575778514147
832.0,-0.0012408524053171277
896.0,0.0004885270609520376
960.0,-2.968333865283057e-05
1024.0,0.0001330377272097394
1152.0,0.0002481093106325716
1280.0,-0.00019071104179602116
1408.0,0.00043921341421082616
1536.0,0.0009231426520273089
1664.0,0.000538797932676971
1792.0,-0.0001237379910890013
1920.0,-0.00019078832701779902
2048.0,-0.0002648616209626198
2304.0,-0.0006650276482105255
2560.0,5.324359881342389e-05
2816.0,0.0001885366509668529
3072.0,0.00044190287007950246
3328.0,5.945035081822425e-05
3584.0,-8.727676322450861e-05
3840.0,-0.00022995594190433621
4096.0,-1.797849290596787e-05
4608.0,0.00010470770939718932
5120.0,-1.0511168511584401e-05
5632.0,-4.4318544496491086e-06
6144.0,-0.00021961427410133183
6656.0,0.00017399246280547231
7168.0,-0.00025037286104634404
7680.0,-0.0001892443688120693
8192.0,0.0004282455483917147
9216.0,8.12078287708573e-05
10240.0,-0.0003251012531109154
11264.0,-4.372936382424086e-05
12288.0,0.00028963672230020165
13312.0,-0.0001936154585564509
14336.0,-0.000294049852527678
end
