version,3.0
numOfCh,1
type,point
parent_name,200-cuts
ch_type,1_1
kcount,1
numberNandB,1
brightnessNandB,1
carpet pos,0
pc,0
Time (ms),CH1 Auto-Correlation
1.0,0.01576533541083336
2.0,0.012715059332549572
3.0,0.01054970920085907
4.0,0.00897160079330206
5.0,0.0077361902222037315
6.0,0.006781477481126785
7.0,0.0060316831804811954
8.0,0.0055040535517036915
9.0,0.004983097314834595
10.0,0.0045726061798632145
11.0,0.004256722051650286
12.0,0.003850375534966588
13.0,0.00347895291633904
14.0,0.0032484708353877068
15.0,0.003017852548509836
16.0,0.0026913173496723175
18.0,0.0021347817964851856
20.0,0.0017077929805964231
22.0,0.0012073414400219917
24.0,0.0009717921493574977
26.0,0.0006917677237652242
28.0,0.0005128765478730202
30.0,0.0003977589076384902
32.0,0.00039105943869799376
36.0,0.0001942871604114771
40.0,0.00022754269593860954
44.0,8.201433229260147e-05
48.0,-0.00010341878078179434
52.0,-0.00021332970936782658
56.0,-0.000501233444083482
60.0,-0.0005173829849809408
64.0,-0.00031513284193351865
72.0,7.367729267571121e-05
80.0,0.00012689494178630412
88.0,0.00019784067990258336
96.0,0.000221159280044958
104.0,9.178077016258612e-05
112.0,0.0003993861610069871
120.0,2.2386537239071913e-05
128.0,0.000129702893900685
144.0,0.00026425093528814614
160.0,0.00019362728926353157
176.0,0.00024303612008225173
192.0,0.0007691631326451898
208.0,0.0007742157322354615
224.0,0.0006073646363802254
240.0,0.0005603351164609194
256.0,-0.00015517887368332595
288.0,0.00023976191005203873
320.0,-8.799311763141304e-05
352.0,-0.00012142509513068944
384.0,-0.00022791211085859686
416.0,-0.00012508836516644806
448.0,0.00048761890502646565
480.0,-4.351273673819378e-05
512.0,-0.0005072017083875835
576.0,-0.0005534761003218591
640.0,-0.00039818527875468135
704.0,-0.00026209562201984227
768.0,0.0001170906689367257
832.0,-0.00033831046312116086
896.0,5.929910912527703e-06
960.0,0.0004708224441856146
1024.0,0.00022140319924801588
1152.0,0.0001334507978754118
1280.0,-0.00012854064698331058
1408.0,-0.00014201035082805902
1536.0,-0.0003690524317789823
1664.0,-0.00022564191021956503
1792.0,2.699853212106973e-05
1920.0,-7.343466131715104e-05
2048.0,9.520574531052262e-05
2304.0,6.906320777488872e-05
2560.0,-6.170715641928837e-05
2816.0,-0.00015246652765199542
3072.0,8.840468217385933e-05
3328.0,0.0002331348805455491
3584.0,0.0001251646172022447
3840.0,-0.00011743014329113066
4096.0,8.618542779004201e-05
4608.0,-4.671174338000128e-06
5120.0,-9.82768542598933e-05
5632.0,8.383092790609226e-05
6144.0,6.610311538679525e-05
6656.0,-5.4237403674051166e-05
7168.0,-0.00010704558371799067
7680.0,-2.3766657250234857e-05
8192.0,-0.000139982599648647
9216.0,4.865536175202578e-05
10240.0,7.581029058201239e-05
11264.0,-6.025299444445409e-05
12288.0,-0.00010948601993732154
13312.0,-6.861637666588649e-05
14336.0,0.0001339159207418561
end
