version,3.0
numOfCh,1
type,point
parent_name,200-cuts
ch_type,1_1
kcount,1
numberNandB,1
brightnessNandB,1
carpet pos,0
pc,0
Time (ms),CH1 Auto-Correlation
1.0,0.015987399965524673
2.0,0.012899892404675484
3.0,0.010733583010733128
4.0,0.009240927174687386
5.0,0.00806968193501234
6.0,0.007165492512285709
7.0,0.006438765674829483
8.0,0.005764384288340807
9.0,0.005181551910936832
10.0,0.0046782237477600574
11.0,0.004234721418470144
12.0,0.0038696243427693844
13.0,0.003589636879041791
14.0,0.0034233068581670523
15.0,0.003125589806586504
16.0,0.002777133136987686
18.0,0.0024501269217580557
20.0,0.0021291475277394056
22.0,0.0018885297467932105
24.0,0.0017396402545273304
26.0,0.0014006937853991985
28.0,0.001261899946257472
30.0,0.0011665704660117626
32.0,0.001064973184838891
36.0,0.0009138386812992394
40.0,0.0010585988638922572
44.0,0.0011186542687937617
48.0,0.001147930626757443
52.0,0.001108887023292482
56.0,0.0007667104946449399
60.0,0.00036204434582032263
64.0,0.00020525482250377536
72.0,0.000396257993998006
80.0,0.0002582856686785817
88.0,-6.920064333826303e-05
96.0,-0.00023361702915281057
104.0,-0.000298858096357435
112.0,-0.00011294613068457693
120.0,0.00036811415338888764
128.0,0.0006120147882029414
144.0,-2.757213769655209e-05
160.0,-0.0005101226270198822
176.0,-0.0004095648182556033
192.0,-0.0004245597228873521
208.0,-0.0004623967397492379
224.0,-0.0006325324648059905
240.0,-0.0007314409012906253
256.0,-0.00046306365402415395
288.0,-0.0005906638107262552
320.0,-0.000158357695909217
352.0,-0.0005324481171555817
384.0,-0.00042217547888867557
416.0,1.7888523871079087e-05
448.0,9.247650450561196e-05
480.0,0.00044897315092384815
512.0,0.0005219363956712186
576.0,0.0004350428353063762
640.0,-5.745456519434811e-07
704.0,6.200136340339668e-06
768.0,9.413361840415746e-05
832.0,0.00040082549094222486
896.0,0.00012082546891178936
960.0,7.184634159784764e-05
1024.0,-0.0002745423116721213
1152.0,-0.000297816121019423
1280.0,0.00013863449566997588
1408.0,-3.7846788472961634e-05
1536.0,-0.0004721290315501392
1664.0,0.00029489948065020144
1792.0,-4.62203606730327e-05
1920.0,-4.182781412964687e-05
2048.0,-0.00021351741452235729
2304.0,1.5614874428138137e-05
2560.0,0.00027821550611406565
2816.0,-9.548733214614913e-05
3072.0,-7.08371153450571e-05
3328.0,-4.326832277001813e-05
3584.0,-9.075813431991264e-05
3840.0,0.00015964913472998887
4096.0,-0.00020950406906194985
4608.0,-0.00013914542796555907
5120.0,0.00017311156261712313
5632.0,0.00012720610538963228
6144.0,-4.304169488023035e-05
6656.0,-0.0002080432022921741
7168.0,-0.00011241059110034257
7680.0,0.00015186588279902935
8192.0,0.00019861070904880762
9216.0,-0.0003477028221823275
10240.0,-4.994779374101199e-05
11264.0,-3.82030411856249e-05
12288.0,6.330916221486405e-05
13312.0,0.000157465910888277
14336.0,-0.00012798764510080218
end
