version,3.0
numOfCh,1
type,point
parent_name,200-cuts
ch_type,1_1
kcount,1
numberNandB,1
brightnessNandB,1
carpet pos,0
pc,0
Time (ms),CH1 Auto-Correlation
1.0,0.025017909705638885
2.0,0.020034927874803543
3.0,0.0166920255869627
4.0,0.014377214945852757
5.0,0.012618638575077057
6.0,0.011117500253021717
7.0,0.009689729660749435
8.0,0.008460674434900284
9.0,0.007437446620315313
10.0,0.006624055560678244
11.0,0.006064755376428366
12.0,0.0056954300962388515
13.0,0.00533795403316617
14.0,0.004761862102895975
15.0,0.004256511572748423
16.0,0.003733688034117222
18.0,0.0030826060101389885
20.0,0.002659511985257268
22.0,0.0023555289953947067
24.0,0.0021701573859900236
26.0,0.0019758304115384817
28.0,0.0017962571000680327
30.0,0.0016714229714125395
32.0,0.001536578289233148
36.0,0.0014703954802826047
40.0,0.0008602469461038709
44.0,0.0005082485149614513
48.0,0.0003119927423540503
52.0,-0.0002385238476563245
56.0,-0.00037827997584827244
60.0,-0.0004985567065887153
64.0,-0.0007412181585095823
72.0,-0.0009723707335069776
80.0,-0.0006011571385897696
88.0,-0.00010546844714554027
96.0,-0.0003887952771037817
104.0,-0.0005657431902363896
112.0,-0.0008428282453678548
120.0,-0.00040758849354460835
128.0,-5.269448956823908e-05
144.0,-4.668500696425326e-05
160.0,0.0002934647782240063
176.0,0.00048659893218427896
192.0,0.0004124613187741488
208.0,0.00031415466219186783
224.0,-0.0008889632299542427
240.0,-0.0008672678959555924
256.0,-0.0010890301782637835
288.0,-0.00102427345700562
320.0,-0.0004337775462772697
352.0,0.00028470277902670205
384.0,0.00017134772497229278
416.0,-0.0004249492194503546
448.0,-0.0007231930503621697
480.0,-8.664085908094421e-05
512.0,0.0002021090913331136
576.0,0.00019654595234896988
640.0,-0.00017795737949199975
704.0,0.00041587313171476126
768.0,5.620762021862902e-05
832.0,-0.0004083903622813523
896.0,-0.00016256335948128253
960.0,0.0003125309303868562
1024.0,-0.000650978647172451
1152.0,-0.00028096846654079854
1280.0,-0.00023235668777488172
1408.0,0.00024968176148831844
1536.0,0.00038016526377759874
1664.0,-0.00021395624207798392
1792.0,-0.00010538548667682335
1920.0,0.0001648678007768467
2048.0,0.00024268412380479276
2304.0,5.305679951561615e-05
2560.0,0.00013844534987583756
2816.0,5.5870128562673926e-05
3072.0,-0.0004887842806056142
3328.0,-0.00010399193706689402
3584.0,3.7573190638795495e-05
3840.0,6.730650784447789e-05
4096.0,0.00017046525317709893
4608.0,-7.882544196036179e-06
5120.0,-0.00013635828508995473
5632.0,-0.00022144083050079644
6144.0,0.00016873882850632071
6656.0,5.081287235952914e-05
7168.0,-6.210977153386921e-05
7680.0,-3.595213274820708e-05
8192.0,0.00014678116713184863
9216.0,-0.00011419857764849439
10240.0,0.00018117620493285358
11264.0,-0.00031407983624376357
12288.0,0.0003007702762261033
13312.0,-0.00044170982437208295
14336.0,0.0004254342056810856
end
