version,3.0
numOfCh,1
type,point
parent_name,200-cuts
ch_type,1_1
kcount,1
numberNandB,1
brightnessNandB,1
carpet pos,0
pc,0
Time (ms),CH1 Auto-Correlation
1.0,0.015522554516792297
2.0,0.012559294700622559
3.0,0.010396207682788372
4.0,0.00882141012698412
5.0,0.0074979220516979694
6.0,0.0066021583043038845
7.0,0.005831235554069281
8.0,0.005233600735664368
9.0,0.004755231086164713
10.0,0.004186010919511318
11.0,0.0038005239330232143
12.0,0.003476656274870038
13.0,0.003060654504224658
14.0,0.0027070220094174147
15.0,0.0025119290221482515
16.0,0.002396895084530115
18.0,0.0020513897761702538
20.0,0.0017145003657788038
22.0,0.0014991660136729479
24.0,0.0012113751145079732
26.0,0.0009075783309526742
28.0,0.0007632756605744362
30.0,0.0006325790309347212
32.0,0.0006333168130367994
36.0,0.0004062751540914178
40.0,0.0003153738798573613
44.0,0.0003501972241792828
48.0,0.00025431523681618273
52.0,0.00022124989482108504
56.0,0.00028387430938892066
60.0,0.0001018486509565264
64.0,-7.963943789945915e-05
72.0,0.00024559086887165904
80.0,0.00037575149326585233
88.0,0.0006268325378187001
96.0,0.0005756490281783044
104.0,0.0006611208664253354
112.0,0.0007142720278352499
120.0,0.000558113562874496
128.0,0.00029860041104257107
144.0,0.00011158866254845634
160.0,0.00010528186976443976
176.0,9.595545998308808e-05
192.0,9.637259063310921e-05
208.0,-0.0001358114677714184
224.0,-0.00015920583973638713
240.0,-0.00024034934176597744
256.0,-0.0005673261475749314
288.0,-0.000428582017775625
320.0,1.393507955071982e-05
352.0,-7.286205800483003e-05
384.0,-0.0002847186697181314
416.0,-0.00011201680899830535
448.0,0.00014094238576944917
480.0,-2.8188303986098617e-05
512.0,-0.00022993376478552818
576.0,-3.245661901019048e-06
640.0,4.3881635065190494e-05
704.0,7.878277392592281e-05
768.0,0.00012086624337825924
832.0,0.0003742391709238291
896.0,1.8654851373867132e-05
960.0,-0.00024514016695320606
1024.0,-0.00012969579256605357
1152.0,-0.0002485925506334752
1280.0,-0.000266182265477255
1408.0,-0.00025271426420658827
1536.0,-5.122959191794507e-05
1664.0,-0.00019092150614596903
1792.0,9.451132791582495e-05
1920.0,-0.00030921376310288906
2048.0,-0.00024344492703676224
2304.0,0.00020501251856330782
2560.0,-5.6106226111296564e-05
2816.0,-0.00010500187636353076
3072.0,0.0004420140467118472
3328.0,7.276511314557865e-05
3584.0,2.6438216082169674e-05
3840.0,-0.0003068865626119077
4096.0,2.370438596699387e-05
4608.0,2.2278216420090757e-05
5120.0,-4.931006969854934e-06
5632.0,0.000139513926114887
6144.0,2.8899097742396407e-05
6656.0,-0.00021130850655026734
7168.0,3.2456257031299174e-05
7680.0,-2.939912519650534e-06
8192.0,0.0001878176990430802
9216.0,-6.391121132764965e-05
10240.0,-5.4558171541430056e-05
11264.0,4.184017961961217e-05
12288.0,-1.3023163774050772e-05
13312.0,3.8892852899152786e-05
14336.0,-1.210487971547991e-05
end
