version,3.0
numOfCh,1
type,point
parent_name,200-cuts
ch_type,1_1
kcount,1
numberNandB,1
brightnessNandB,1
carpet pos,0
pc,0
Time (ms),CH1 Auto-Correlation
1.0,0.015399955213069916
2.0,0.012260554358363152
3.0,0.010093947872519493
4.0,0.008485538884997368
5.0,0.007218825630843639
6.0,0.006285133771598339
7.0,0.005457052495330572
8.0,0.0048774052411317825
9.0,0.004536180756986141
10.0,0.004207671619951725
11.0,0.0038273611571639776
12.0,0.0034885979257524014
13.0,0.003194856457412243
14.0,0.0029027387499809265
15.0,0.002623677020892501
16.0,0.0023046708665788174
18.0,0.0021823453716933727
20.0,0.0019921776838600636
22.0,0.0017745641525834799
24.0,0.001824498176574707
26.0,0.0017682831967249513
28.0,0.0016135702608153224
30.0,0.0013942793011665344
32.0,0.0012190383858978748
36.0,0.0008850644808262587
40.0,0.0008894726634025574
44.0,0.0006017945124767721
48.0,0.00047659443225711584
52.0,0.0007081010262481868
56.0,0.0007157346117310226
60.0,0.0006053163087926805
64.0,0.00039065902819857
72.0,0.00029854424064978957
80.0,0.00024606837541796267
88.0,0.0007358646253123879
96.0,0.00021051635849289596
104.0,-0.00010168312292080373
112.0,-2.5958663172787055e-05
120.0,-0.00010415846918476745
128.0,-0.00016032642452046275
144.0,0.00033028790494427085
160.0,0.000608551490586251
176.0,0.000596859201323241
192.0,0.00045755261089652777
208.0,0.0004543040704447776
224.0,0.0002323729859199375
240.0,-0.00010810895764734596
256.0,4.589693162415642e-06
288.0,-2.8183681934024207e-05
320.0,0.00016320811118930578
352.0,0.00047419476322829723
384.0,0.0005878939991816878
416.0,0.00039071956416592
448.0,0.00028371860389597714
480.0,0.00022753320808988065
512.0,0.0002787263656500727
576.0,0.00013537908671423793
640.0,-0.00038798220339231193
704.0,0.0003778254031203687
768.0,-2.8288177418289706e-05
832.0,0.0003281854442320764
896.0,0.00035422848304733634
960.0,-0.0003851712099276483
1024.0,-0.00026464054826647043
1152.0,-0.0005113670486025512
1280.0,9.414499800186604e-05
1408.0,4.04659440391697e-05
1536.0,-0.0003466712078079581
1664.0,-0.00021712052694056183
1792.0,0.00037334198714233935
1920.0,3.2014893804444e-05
2048.0,-6.207267142599449e-05
2304.0,1.0388766895630397e-05
2560.0,-5.023719495511614e-05
2816.0,0.00010032890713773668
3072.0,-0.0001528123684693128
3328.0,-0.0001360970491077751
3584.0,8.937474922277033e-05
3840.0,-0.00030660367337986827
4096.0,-9.6690739155747e-05
4608.0,-9.337207302451134e-06
5120.0,-7.87077660788782e-05
5632.0,-0.00012590535334311426
6144.0,-7.655991066712886e-05
6656.0,6.480243882833747e-06
7168.0,-0.00018596788868308067
7680.0,-0.00038121905527077615
8192.0,-0.00013146481069270521
9216.0,0.00010003413626691326
10240.0,0.00013207794108893722
11264.0,0.00029429025016725063
12288.0,-0.0002949566696770489
13312.0,-3.353675492689945e-05
14336.0,2.800816946546547e-05
end
