version,3.0
numOfCh,1
type,point
parent_name,200-cuts
ch_type,1_1
kcount,1
numberNandB,1
brightnessNandB,1
carpet pos,0
pc,0
Time (ms),CH1 Auto-Correlation
1.0,0.02786840870976448
2.0,0.022661518305540085
3.0,0.01912534609436989
4.0,0.01658308319747448
5.0,0.014584646560251713
6.0,0.013069418258965015
7.0,0.011643876321613789
8.0,0.010378808714449406
9.0,0.009251924231648445
10.0,0.008444201201200485
11.0,0.00785675086081028
12.0,0.007230553310364485
13.0,0.006809184793382883
14.0,0.006381325423717499
15.0,0.006001401226967573
16.0,0.005745000671595335
18.0,0.004965498112142086
20.0,0.004394866526126862
22.0,0.00400912668555975
24.0,0.003690596204251051
26.0,0.0030606635846197605
28.0,0.0027345544658601284
30.0,0.0026802727952599525
32.0,0.002387237036600709
36.0,0.0017048998270183802
40.0,0.0010507646948099136
44.0,0.0007145168492570519
48.0,0.00019208507728762925
52.0,-0.00037407572381198406
56.0,-0.00041921521187759936
60.0,-0.0006108556408435106
64.0,-0.0003585816593840718
72.0,-6.617710459977388e-05
80.0,-0.0005523316212929785
88.0,-0.0006000769790261984
96.0,-0.0004374610143713653
104.0,7.754282705718651e-05
112.0,0.0003041804302483797
120.0,0.00046312189078889787
128.0,0.0003852513909805566
144.0,2.6190402422798797e-05
160.0,-0.0010263064177706838
176.0,-0.001464123954065144
192.0,-0.000981951947323978
208.0,-0.0011017711367458105
224.0,-0.0001625866862013936
240.0,-0.0006307061994448304
256.0,-0.00010437215678393841
288.0,-6.502510223072022e-05
320.0,-0.0012032377999275923
352.0,0.0005490347975865006
384.0,0.00029524488491006196
416.0,0.0002037039666902274
448.0,-0.0003287717991042882
480.0,-0.00022519170306622982
512.0,-2.8694274078588933e-05
576.0,-0.00014900702808517963
640.0,-0.00015779616660438478
704.0,-0.00024883687729015946
768.0,-6.710361049044877e-05
832.0,0.00018250933499075472
896.0,-3.8252866943366826e-05
960.0,-6.656724872300401e-05
1024.0,-0.00023956179211381823
1152.0,5.6563003454357386e-05
1280.0,-0.0003583082288969308
1408.0,-0.0002597467682790011
1536.0,0.00013880680489819497
1664.0,-0.0003260119119659066
1792.0,0.0004186694568488747
1920.0,-0.0005459008389152586
2048.0,-2.0365094314911403e-05
2304.0,-0.0001641713606659323
2560.0,0.00017740765179041773
2816.0,0.0003170454583596438
3072.0,-5.8066274505108595e-05
3328.0,-0.0005135968094691634
3584.0,0.00026704539777711034
3840.0,-0.00048014475032687187
4096.0,-0.00014126094174571335
4608.0,6.312231562333182e-05
5120.0,0.00012036816769978032
5632.0,0.00022957235341891646
6144.0,-0.00010036079765995964
6656.0,-9.376266098115593e-05
7168.0,0.00014647918578702956
7680.0,-0.00011245586938457564
8192.0,-0.00010362811735831201
9216.0,2.554126149334479e-05
10240.0,3.46956767316442e-05
11264.0,2.8504637157311663e-05
12288.0,6.853167724329978e-05
13312.0,-0.00014294210996013135
14336.0,1.22817018564092e-05
end
