version,3.0
numOfCh,1
type,point
parent_name,200-cuts
ch_type,1_1
kcount,1
numberNandB,1
brightnessNandB,1
carpet pos,0
pc,0
Time (ms),CH1 Auto-Correlation
1.0,0.025687888264656067
2.0,0.021031538024544716
3.0,0.017505010589957237
4.0,0.015039310790598392
5.0,0.01294697169214487
6.0,0.011679067276418209
7.0,0.010677661746740341
8.0,0.009772514924407005
9.0,0.009050784632563591
10.0,0.00821277592331171
11.0,0.007706331554800272
12.0,0.0073076835833489895
13.0,0.006952572613954544
14.0,0.006568170618265867
15.0,0.006259620655328035
16.0,0.00591658242046833
18.0,0.0051171984523534775
20.0,0.0044875843450427055
22.0,0.004029751289635897
24.0,0.0035540126264095306
26.0,0.002969275461509824
28.0,0.0027481692377477884
30.0,0.0027985700871795416
32.0,0.002635627519339323
36.0,0.0022026626393198967
40.0,0.001828740700148046
44.0,0.0008583773160353303
48.0,0.0003829754132311791
52.0,0.0004053972661495209
56.0,0.0004929391434416175
60.0,0.0009293417679145932
64.0,0.0006597031024284661
72.0,0.00018571695545688272
80.0,-0.0006474453839473426
88.0,-0.0006264893454499543
96.0,-0.00026387543766759336
104.0,0.00034636465716175735
112.0,0.000164449869771488
120.0,5.252950359135866e-05
128.0,-0.0002471866609994322
144.0,-0.00024459391715936363
160.0,0.00015498624998144805
176.0,0.0008866540156304836
192.0,0.0004495744942687452
208.0,0.0003358155954629183
224.0,0.00042592562385834754
240.0,-3.217279663658701e-05
256.0,0.00015687468112446368
288.0,-0.00029669899959117174
320.0,-0.00035034670145250857
352.0,-1.6775949916336685e-05
384.0,-0.0007663257420063019
416.0,-0.00011284098582109436
448.0,-1.365925527352374e-06
480.0,-0.00042731844587251544
512.0,-0.0003137630701530725
576.0,-0.0001550635788589716
640.0,-0.0011133826337754726
704.0,-0.00020169763593003154
768.0,0.0002707260427996516
832.0,-0.00040483844350092113
896.0,0.0001787787623470649
960.0,-0.0003846035397145897
1024.0,0.0004963125684298575
1152.0,0.00036036985693499446
1280.0,0.00026208869530819356
1408.0,0.0003398341068532318
1536.0,-9.000401041703299e-05
1664.0,-0.00042607393697835505
1792.0,-0.00024246430257335305
1920.0,-0.0002516169042792171
2048.0,-0.0002894884382840246
2304.0,0.00011931169865420088
2560.0,1.3209534699853975e-05
2816.0,-0.0003486896166577935
3072.0,-2.1715552065870725e-05
3328.0,0.00029315456049516797
3584.0,-0.00048181123565882444
3840.0,1.0555212611507159e-05
4096.0,-0.0001813682756619528
4608.0,0.00015039514983072877
5120.0,-0.0002615075500216335
5632.0,0.00031187612330541015
6144.0,-0.00012685971159953624
6656.0,0.00031695590587332845
7168.0,9.380171104567125e-05
7680.0,-0.00030876201344653964
8192.0,-9.040651639224961e-05
9216.0,-2.613032302178908e-05
10240.0,0.00016844100900925696
11264.0,-0.0001478143676649779
12288.0,4.733923196909018e-05
13312.0,-0.0002365939290029928
14336.0,0.00012721019447781146
end
