version,3.0
numOfCh,1
type,point
parent_name,200-cuts
ch_type,1_1
kcount,1
numberNandB,1
brightnessNandB,1
carpet pos,0
pc,0
Time (ms),CH1 Auto-Correlation
1.0,0.01629876345396042
2.0,0.013142090290784836
3.0,0.010908772237598896
4.0,0.009248675778508186
5.0,0.00798538327217102
6.0,0.007028910331428051
7.0,0.0063751377165317535
8.0,0.005809716880321503
9.0,0.005248963832855225
10.0,0.004717736970633268
11.0,0.004293821752071381
12.0,0.003952153492718935
13.0,0.003700649831444025
14.0,0.003569389693439007
15.0,0.0034260351676493883
16.0,0.003190813586115837
18.0,0.0028233833145350218
20.0,0.0025455846916884184
22.0,0.0023753114510327578
24.0,0.0022178797516971827
26.0,0.0020725997164845467
28.0,0.0017977386014536023
30.0,0.0014811578439548612
32.0,0.0011573152150958776
36.0,0.0009220442734658718
40.0,0.0009899087017402053
44.0,0.000982880126684904
48.0,0.0008568036137148738
52.0,0.000563282985240221
56.0,0.0006222092197276652
60.0,0.0006391580682247877
64.0,0.0003987311210948974
72.0,0.0002230327227152884
80.0,0.0001939932262757793
88.0,-2.2178650397108868e-05
96.0,-0.0003029836225323379
104.0,-0.0003081626200582832
112.0,-0.00030862956191413105
120.0,-0.0008471959736198187
128.0,-0.0010538307251408696
144.0,-0.0005440697423182428
160.0,-0.00013612104521598667
176.0,-0.0004886894021183252
192.0,-0.0002259853936266154
208.0,-0.0004061440995428711
224.0,-0.0005121285212226212
240.0,0.0001782613544492051
256.0,-0.00014546667807735503
288.0,-0.00024740799563005567
320.0,8.370576688321307e-05
352.0,0.00025746910250745714
384.0,0.0005166897899471223
416.0,0.0011230240343138576
448.0,0.0004944472457282245
480.0,0.0002665953361429274
512.0,5.6959652283694595e-05
576.0,0.0003214410971850157
640.0,-0.000110993831185624
704.0,-0.0006173591245897114
768.0,0.00026055407943204045
832.0,4.857972453464754e-05
896.0,1.053623236657586e-05
960.0,1.9042961866944097e-05
1024.0,-0.0002669380628503859
1152.0,-6.133972783572972e-05
1280.0,-6.365963781718165e-05
1408.0,-0.00016941341164056212
1536.0,-2.9535871362895705e-05
1664.0,0.00012526361388154328
1792.0,6.263385876081884e-05
1920.0,-0.00012070107186445966
2048.0,-2.727860010054428e-05
2304.0,-6.55970725347288e-05
2560.0,-1.0716188626247458e-05
2816.0,8.950268966145813e-05
3072.0,-0.0002900912950281054
3328.0,4.571759563987143e-05
3584.0,-0.00020581840362865478
3840.0,-0.00010355003905715421
4096.0,-7.104442920535803e-05
4608.0,-5.8507477660896257e-05
5120.0,-3.546924563124776e-05
5632.0,0.00011764506052713841
6144.0,-1.1240612366236746e-05
6656.0,0.00010980256774928421
7168.0,0.00012038084241794422
7680.0,7.774465484544635e-05
8192.0,-1.8243503291159868e-05
9216.0,2.7893590868188767e-06
10240.0,-0.00023140653502196074
11264.0,-0.00017826056864578277
12288.0,-3.632354491855949e-05
13312.0,0.0002077629615087062
14336.0,-0.0001689274504315108
end
