version,3.0
numOfCh,1
type,point
parent_name,200-cuts
ch_type,1_1
kcount,1
numberNandB,1
brightnessNandB,1
carpet pos,0
pc,0
Time (ms),CH1 Auto-Correlation
1.0,0.016506889835000038
2.0,0.01357080228626728
3.0,0.01135940384119749
4.0,0.009811967611312866
5.0,0.00859764777123928
6.0,0.007622836623340845
7.0,0.006761840078979731
8.0,0.005990325007587671
9.0,0.0053795152343809605
10.0,0.004851028323173523
11.0,0.0044729989022016525
12.0,0.004165494814515114
13.0,0.0037941420450806618
14.0,0.0034482500050216913
15.0,0.0030611136462539434
16.0,0.0027418136596679688
18.0,0.002199760405346751
20.0,0.0018107633804902434
22.0,0.0015034498646855354
24.0,0.0011704146163538098
26.0,0.0009045120095834136
28.0,0.0008187048952095211
30.0,0.0008279563626274467
32.0,0.0008101483690552413
36.0,0.0006042168824933469
40.0,0.0003879210271406919
44.0,0.00025302203721366823
48.0,0.0003199433849658817
52.0,9.3869908596389e-05
56.0,9.474346734350547e-05
60.0,0.0002882381668314338
64.0,0.0004204761644359678
72.0,0.000662821636069566
80.0,0.000624567037448287
88.0,0.0005155003746040165
96.0,0.00034589701681397855
104.0,-7.5733863923233e-05
112.0,-0.00010402876068837941
120.0,-0.00041279036668129265
128.0,-0.0006766964797861874
144.0,-0.0003676681953947991
160.0,-0.0005188995273783803
176.0,-0.00027934371610172093
192.0,7.004082726780325e-05
208.0,0.00018971379904542118
224.0,-0.00011262065527262166
240.0,-0.00028986341203562915
256.0,0.0002480200200807303
288.0,0.0003987995733041316
320.0,2.7455094823380932e-05
352.0,6.805812881793827e-05
384.0,0.00047433111467398703
416.0,2.7056814360548742e-05
448.0,-9.723077528178692e-05
480.0,7.156237552408129e-05
512.0,-0.00026928348233923316
576.0,0.0003477887366898358
640.0,4.546595300780609e-05
704.0,-0.0004109008295927197
768.0,-2.8859037684014766e-06
832.0,0.0005304506630636752
896.0,0.0002417140785837546
960.0,-0.00023861686349846423
1024.0,-0.00018632214050740004
1152.0,-0.00027787647559307516
1280.0,0.0002068856410915032
1408.0,0.0002867834991775453
1536.0,-0.00024091973318718374
1664.0,-6.602623761864379e-05
1792.0,0.0003582779027055949
1920.0,-5.345746467355639e-05
2048.0,-0.00026528030866757035
2304.0,-0.00014846405247226357
2560.0,-8.67495036800392e-05
2816.0,-0.00019760294526349753
3072.0,-5.754339144914411e-05
3328.0,0.00012556288857012987
3584.0,0.00029695569537580013
3840.0,-1.2481644262152258e-05
4096.0,8.096741657936946e-05
4608.0,-0.00010913627920672297
5120.0,1.7803305354391341e-06
5632.0,-1.737990533001721e-05
6144.0,-6.456313712988049e-05
6656.0,6.680791557300836e-06
7168.0,-0.00014429647126235068
7680.0,-0.00016431589028798044
8192.0,-0.0001308014034293592
9216.0,9.675081673776731e-05
10240.0,5.892308763577603e-05
11264.0,-8.539309783373028e-05
12288.0,-0.00011657868162728846
13312.0,7.852534326957539e-05
14336.0,-3.542728882166557e-05
end
