version,3.0
numOfCh,1
type,point
parent_name,200-cuts
ch_type,1_1
kcount,1
numberNandB,1
brightnessNandB,1
carpet pos,0
pc,0
Time (ms),CH1 Auto-Correlation
1.0,0.015810616314411163
2.0,0.012714095413684845
3.0,0.01058518048375845
4.0,0.008963183499872684
5.0,0.0076812985353171825
6.0,0.006708003114908934
7.0,0.00605044374242425
8.0,0.0055375113151967525
9.0,0.0050371200777590275
10.0,0.0045579965226352215
11.0,0.0041322787292301655
12.0,0.003753966186195612
13.0,0.0033656060695648193
14.0,0.0032630693167448044
15.0,0.003027107799425721
16.0,0.0027849487960338593
18.0,0.0021751716267317533
20.0,0.001899726688861847
22.0,0.0018019498093053699
24.0,0.0018015665700659156
26.0,0.001938768196851015
28.0,0.0018498802091926336
30.0,0.0017919467063620687
32.0,0.00162020162679255
36.0,0.0012543079210445285
40.0,0.0007944608223624527
44.0,0.0005720885237678885
48.0,0.00040086021181195974
52.0,0.0005623720353469253
56.0,0.0005706461961381137
60.0,0.0002911937772296369
64.0,0.00043843526509590447
72.0,0.0003376683162059635
80.0,0.00038011869764886796
88.0,0.0004956641932949424
96.0,0.000299322244245559
104.0,-0.00010216464579571038
112.0,0.00011482313857413828
120.0,4.1337276343256235e-05
128.0,0.00018487674242351204
144.0,8.630666707176715e-05
160.0,-6.72990718157962e-05
176.0,-3.4700995456660166e-05
192.0,-9.843087173067033e-05
208.0,-0.00011303390056127682
224.0,0.00038434850284829736
240.0,0.00011257609003223479
256.0,-0.00019024309585802257
288.0,-8.854757470544428e-05
320.0,3.661069422378205e-05
352.0,-0.0003056935383938253
384.0,-6.963292980799451e-05
416.0,0.00039093734812922776
448.0,0.0004142002435401082
480.0,1.4311586710391566e-05
512.0,0.00045721864444203675
576.0,0.0004146376741118729
640.0,-3.884568650391884e-05
704.0,-2.474750181136187e-05
768.0,-0.00015740509843453765
832.0,8.48141498863697e-05
896.0,-0.00019396077550482005
960.0,0.0003462099703028798
1024.0,0.0005523749277926981
1152.0,3.3603631891310215e-05
1280.0,-1.168835751741426e-05
1408.0,-0.00012933330435771495
1536.0,0.0001384650095133111
1664.0,-0.00046164722880348563
1792.0,-0.00048860750393942
1920.0,0.00010318394924979657
2048.0,-0.0001435753656551242
2304.0,-0.00037647385033778846
2560.0,-0.00036310110590420663
2816.0,0.0001399654138367623
3072.0,8.171607623808086e-05
3328.0,8.257141598733142e-05
3584.0,0.0001558264484629035
3840.0,0.00011665247438941151
4096.0,7.064008968882263e-05
4608.0,0.00020722841145470738
5120.0,-8.573494415031746e-05
5632.0,-4.612358316080645e-05
6144.0,-0.00027865133597515523
6656.0,-0.000180580114829354
7168.0,-2.2379505537628575e-07
7680.0,-0.0001930540893226862
8192.0,-0.00014638027641922235
9216.0,0.00016972761659417301
10240.0,-1.9625671484391205e-05
11264.0,-7.417108281515539e-05
12288.0,3.867720351991011e-06
13312.0,5.136292747920379e-05
14336.0,0.0001278371491935104
end
