version,3.0
numOfCh,1
type,point
parent_name,200-cuts
ch_type,1_1
kcount,1
numberNandB,1
brightnessNandB,1
carpet pos,0
pc,0
Time (ms),CH1 Auto-Correlation
1.0,0.01681581884622574
2.0,0.013828408904373646
3.0,0.011705000884830952
4.0,0.010170966386795044
5.0,0.008999447338283062
6.0,0.008078747428953648
7.0,0.007265010382980108
8.0,0.006534834858030081
9.0,0.005985649302601814
10.0,0.005456018261611462
11.0,0.004916344303637743
12.0,0.004542162641882896
13.0,0.004178279545158148
14.0,0.003942220006138086
15.0,0.0037531235720962286
16.0,0.00350774428807199
18.0,0.00316951354034245
20.0,0.0029146657325327396
22.0,0.0028266196604818106
24.0,0.002699155593290925
26.0,0.0026300083845853806
28.0,0.0023460860829800367
30.0,0.0021667054388672113
32.0,0.001976154977455735
36.0,0.00204258831217885
40.0,0.0022846038918942213
44.0,0.0021991487592458725
48.0,0.002183804986998439
52.0,0.0020242296159267426
56.0,0.0017239099834114313
60.0,0.0013880812330171466
64.0,0.001256665331311524
72.0,0.0012241178192198277
80.0,0.0012825671583414078
88.0,0.0008601152221672237
96.0,0.00033940665889531374
104.0,0.0006588770193047822
112.0,0.0007058417540974915
120.0,0.00042724196100607514
128.0,0.0004225669545121491
144.0,0.00021660927450284362
160.0,0.00024180591572076082
176.0,8.952042844612151e-05
192.0,0.00015207914111670107
208.0,-5.071940540801734e-05
224.0,-0.00018837000243365765
240.0,-0.0002195788110839203
256.0,2.744591074588243e-05
288.0,1.776938916009385e-05
320.0,-0.0002816702763084322
352.0,-0.0003380988782737404
384.0,-8.835474000079557e-05
416.0,-0.0005070405313745141
448.0,-0.00034295767545700073
480.0,-0.00010355136328143999
512.0,0.00010996421769959852
576.0,0.000530750141479075
640.0,0.0011252604890614748
704.0,0.00121354463044554
768.0,0.0007922792574390769
832.0,0.0004347971989773214
896.0,-0.00018570877728052437
960.0,-0.0004931851872242987
1024.0,-0.0005702058551833034
1152.0,-0.0004856211016885936
1280.0,0.00048348476411774755
1408.0,0.0006032510427758098
1536.0,0.00034904381027445197
1664.0,-9.004175808513537e-05
1792.0,-0.0009374963119626045
1920.0,-0.0004429092223290354
2048.0,0.000358664634404704
2304.0,-1.0767368621600326e-05
2560.0,-0.00016068950935732573
2816.0,0.0005699983448721468
3072.0,9.887144187814556e-06
3328.0,-1.774307747837156e-05
3584.0,0.0002071989729302004
3840.0,-0.0001529852015664801
4096.0,-0.00019579273066483438
4608.0,-0.00029875157633796334
5120.0,-0.00014864416152704507
5632.0,-0.00011531437485245988
6144.0,0.0001307069614995271
6656.0,0.00010434512660140172
7168.0,-0.00014724193897563964
7680.0,-0.00016206425789278
8192.0,-0.0004252017824910581
9216.0,-0.00028750617639161646
10240.0,-0.00018846752936951816
11264.0,-0.0001103648537537083
12288.0,0.0002386186388321221
13312.0,0.00043905898928642273
14336.0,-4.6382898290175945e-05
end
