version,3.0
numOfCh,1
type,point
parent_name,200-cuts
ch_type,1_1
kcount,1
numberNandB,1
brightnessNandB,1
carpet pos,0
pc,0
Time (ms),CH1 Auto-Correlation
1.0,0.02684698812663555
2.0,0.021760808303952217
3.0,0.018075954169034958
4.0,0.015267866663634777
5.0,0.013175361789762974
6.0,0.01123630441725254
7.0,0.00993285421282053
8.0,0.008850306272506714
9.0,0.007809546776115894
10.0,0.007226268295198679
11.0,0.0067968848161399364
12.0,0.006457093171775341
13.0,0.006105383392423391
14.0,0.005861890502274036
15.0,0.005498129408806562
16.0,0.005004062782973051
18.0,0.004199168644845486
20.0,0.003699798136949539
22.0,0.003082169685512781
24.0,0.0028124689124524593
26.0,0.002999529941007495
28.0,0.0029288725927472115
30.0,0.0026417565532028675
32.0,0.002600759034976363
36.0,0.0023060664534568787
40.0,0.0017151222564280033
44.0,0.0011828237911686301
48.0,0.0008074662764556706
52.0,0.0005164230242371559
56.0,0.00056579610100016
60.0,0.0005950865452177823
64.0,0.0006259251968003809
72.0,0.0004928853595629334
80.0,0.00013711291830986738
88.0,0.000323494867188856
96.0,0.0005706331576220691
104.0,0.0009431946673430502
112.0,0.0005569498753175139
120.0,0.0003925718192476779
128.0,0.0006555629661306739
144.0,0.0005026541766710579
160.0,-0.00012115051504224539
176.0,-0.0002927306341007352
192.0,4.9533842684468254e-05
208.0,-0.00017842138186097145
224.0,0.00019325371249578893
240.0,0.0005223100888542831
256.0,0.00042217777809128165
288.0,0.0005681824986822903
320.0,0.0005093098734505475
352.0,0.0008202792960219085
384.0,0.0001917998888529837
416.0,-3.242573802708648e-05
448.0,3.788300455198623e-05
480.0,0.0005581371951848269
512.0,0.00012468248314689845
576.0,0.00029483222169801593
640.0,-0.00041859742486849427
704.0,-0.001010326435789466
768.0,-0.0006152502028271556
832.0,-0.00014743293286301196
896.0,0.0007530925213359296
960.0,2.5094770535361022e-05
1024.0,-0.0004333038814365864
1152.0,0.0001328000653302297
1280.0,-2.0914727429044433e-05
1408.0,0.00018215716409031302
1536.0,-0.00018095679115504026
1664.0,-0.00021017220569774508
1792.0,-0.00029406510293483734
1920.0,-0.000494116626214236
2048.0,-0.0003836556861642748
2304.0,0.0001483676169300452
2560.0,0.0004983553080819547
2816.0,-0.00012432501534931362
3072.0,-0.00025845019263215363
3328.0,-0.000555995968170464
3584.0,-0.00021361385006457567
3840.0,-0.00010806826321640983
4096.0,-0.00020158861298114061
4608.0,-1.6203053746721707e-05
5120.0,1.487749887019163e-05
5632.0,4.2379964725114405e-05
6144.0,0.0003388046461623162
6656.0,0.0004232357314322144
7168.0,-0.0001217745229951106
7680.0,-0.0004420169861987233
8192.0,-0.00049738644156605
9216.0,-0.00010177675721934065
10240.0,7.6032220022170804e-06
11264.0,-4.303983223508112e-05
12288.0,0.00030218399479053915
13312.0,0.0003376348759047687
14336.0,-0.0003376933455001563
end
