version,3.0
numOfCh,1
type,point
parent_name,200-cuts
ch_type,1_1
kcount,1
numberNandB,1
brightnessNandB,1
carpet pos,0
pc,0
Time (ms),CH1 Auto-Correlation
1.0,0.028884634375572205
2.0,0.023804476484656334
3.0,0.020259885117411613
4.0,0.01768322102725506
5.0,0.015481479465961456
6.0,0.013724896125495434
7.0,0.012287070043385029
8.0,0.011208616197109222
9.0,0.010114491917192936
10.0,0.009151119738817215
11.0,0.008592999540269375
12.0,0.00786182377487421
13.0,0.007208074443042278
14.0,0.006494948640465736
15.0,0.006284236442297697
16.0,0.005992927122861147
18.0,0.0056948293931782246
20.0,0.00539301848039031
22.0,0.0049424790777266026
24.0,0.004230152349919081
26.0,0.0039018376264721155
28.0,0.0035516037605702877
30.0,0.0028986623510718346
32.0,0.002506796270608902
36.0,0.00215718150138855
40.0,0.001797751523554325
44.0,0.0018049093196168542
48.0,0.0016273962100967765
52.0,0.0013987970305606723
56.0,0.0008541123825125396
60.0,0.000549080956261605
64.0,0.0008157057454809546
72.0,0.0011896629584953189
80.0,0.0013752010418102145
88.0,0.0012819438707083464
96.0,0.0012222644872963428
104.0,0.0016044301446527243
112.0,0.001158007769845426
120.0,0.0012347069568932056
128.0,0.0009272143361158669
144.0,-0.0004402966005727649
160.0,-0.001142515568062663
176.0,-0.0013551561860367656
192.0,-0.0012140984181314707
208.0,-0.0009724428527988493
224.0,0.0012064456241205335
240.0,0.001938618253916502
256.0,0.0013763767201453447
288.0,-2.3686548956902698e-05
320.0,0.0002524155715946108
352.0,0.0007000176119618118
384.0,0.000508704746607691
416.0,8.1783757195808e-05
448.0,0.0008109672926366329
480.0,0.0013919647317379713
512.0,0.0013058612821623683
576.0,-5.351226354832761e-05
640.0,-0.0013801445020362735
704.0,-0.0009646025137044489
768.0,0.00034577897167764604
832.0,0.0002381048834649846
896.0,-2.566604052844923e-06
960.0,-0.000465626479126513
1024.0,-0.00031192120513878763
1152.0,0.00021533257677219808
1280.0,0.0002672766277100891
1408.0,0.00017148135520983487
1536.0,0.0002868495066650212
1664.0,0.0002699626493267715
1792.0,-3.815426316577941e-05
1920.0,-0.00010533933527767658
2048.0,-0.00018687575357034802
2304.0,-0.0003038214344996959
2560.0,-0.0004121478123124689
2816.0,-6.29023925284855e-05
3072.0,-0.00013391548418439925
3328.0,0.0002746891987044364
3584.0,5.101037459098734e-05
3840.0,3.5243529055151157e-06
4096.0,-0.0005492354976013303
4608.0,-0.00019139563664793968
5120.0,-6.424389721360058e-05
5632.0,-0.00017054294585250318
6144.0,-0.00021895887039136142
6656.0,0.0007244549342431128
7168.0,0.0002577893319539726
7680.0,-0.0006965370266698301
8192.0,-0.000281966058537364
9216.0,-0.0005059734685346484
10240.0,0.0003528384550008923
11264.0,0.00018541095778346062
12288.0,0.0004609967290889472
13312.0,0.001074178726412356
14336.0,-0.0008982585277408361
end
