version,3.0
numOfCh,1
type,point
parent_name,200-cuts
ch_type,1_1
kcount,1
numberNandB,1
brightnessNandB,1
carpet pos,0
pc,0
Time (ms),CH1 Auto-Correlation
1.0,0.027091458439826965
2.0,0.0218820683658123
3.0,0.01830652542412281
4.0,0.015454350039362907
5.0,0.013558612205088139
6.0,0.01180613785982132
7.0,0.0104008037596941
8.0,0.009276865981519222
9.0,0.008308738470077515
10.0,0.007659461349248886
11.0,0.007176751736551523
12.0,0.006794069427996874
13.0,0.006314118392765522
14.0,0.005955170374363661
15.0,0.005589643027633429
16.0,0.0052947308868169785
18.0,0.004386427346616983
20.0,0.0037209501024335623
22.0,0.003372577019035816
24.0,0.0031187438871711493
26.0,0.0030685821548104286
28.0,0.0027519650757312775
30.0,0.0025721637066453695
32.0,0.002170519670471549
36.0,0.002008611336350441
40.0,0.0019107850966975093
44.0,0.0019789307843893766
48.0,0.001460733124986291
52.0,0.0006051613599993289
56.0,0.0006484187906607985
60.0,0.00084670603973791
64.0,0.0009039994329214096
72.0,0.0011478064116090536
80.0,0.001135084661655128
88.0,0.00025289400946348906
96.0,-0.0004189647443126887
104.0,-0.000878832652233541
112.0,-0.0005677439039573073
120.0,-0.0009351126500405371
128.0,-0.0007934985333122313
144.0,-0.00039116168045438826
160.0,0.0002287188108311966
176.0,-0.00046410338836722076
192.0,3.421344081289135e-05
208.0,0.00012927128409501165
224.0,0.00031182856764644384
240.0,0.001002090866677463
256.0,0.0010028204414993525
288.0,0.00019905477529391646
320.0,-0.0002854987105820328
352.0,0.0003771462070289999
384.0,0.0009693377651274204
416.0,0.0006194126908667386
448.0,0.00023544726718682796
480.0,-1.3602484614239074e-05
512.0,-0.00022997218184173107
576.0,-0.0008762895595282316
640.0,-0.000482491945149377
704.0,3.7521691410802305e-05
768.0,0.0004217984969727695
832.0,0.00011668045044643804
896.0,0.00041334429988637567
960.0,0.0004722465528175235
1024.0,-0.0004404514911584556
1152.0,9.79149917839095e-05
1280.0,-0.0009672042797319591
1408.0,-0.00024510634830221534
1536.0,-0.0004044726665597409
1664.0,-0.00030638990574516356
1792.0,-0.0006682531093247235
1920.0,9.321532706962898e-05
2048.0,-3.546274820109829e-05
2304.0,-0.0004127038118895143
2560.0,-9.351343805974466e-07
2816.0,0.000268049247097224
3072.0,0.00038019655039533973
3328.0,8.744013030081987e-05
3584.0,0.00014311177073977888
3840.0,7.287166954483837e-05
4096.0,-0.00010264893353451043
4608.0,7.305209874175489e-05
5120.0,-0.00022286853345576674
5632.0,1.9811534002656117e-05
6144.0,-2.4983330149552785e-05
6656.0,-0.00030791343306191266
7168.0,3.440848377067596e-05
7680.0,-0.00023890544252935797
8192.0,0.00014294745051302016
9216.0,0.0006629027193412185
10240.0,-8.399406942771748e-05
11264.0,-0.0007285018218681216
12288.0,0.0003992603160440922
13312.0,0.00044433516450226307
14336.0,-0.0011923403944820166
end
