version,3.0
numOfCh,1
type,point
parent_name,200-cuts
ch_type,1_1
kcount,1
numberNandB,1
brightnessNandB,1
carpet pos,0
pc,0
Time (ms),CH1 Auto-Correlation
1.0,0.026245655491948128
2.0,0.021108951419591904
3.0,0.017614560201764107
4.0,0.01504021417349577
5.0,0.012953371740877628
6.0,0.011066494509577751
7.0,0.009434778243303299
8.0,0.008280044421553612
9.0,0.007604758720844984
10.0,0.006886109244078398
11.0,0.006118040066212416
12.0,0.0056533776223659515
13.0,0.005311630666255951
14.0,0.004956240765750408
15.0,0.004626087844371796
16.0,0.004343870095908642
18.0,0.0037216292694211006
20.0,0.003358032088726759
22.0,0.003050402272492647
24.0,0.0026343928184360266
26.0,0.002226815093308687
28.0,0.002279863925650716
30.0,0.0021704656537622213
32.0,0.001946470350958407
36.0,0.0016237400704994798
40.0,0.0013967636041343212
44.0,0.0014631038065999746
48.0,0.0018438147380948067
52.0,0.0014271473046392202
56.0,0.0012859823182225227
60.0,0.0011987722245976329
64.0,0.001225516083650291
72.0,0.0009809986222535372
80.0,0.0009804150322452188
88.0,0.000599341990891844
96.0,-0.00010019313776865602
104.0,0.00024255618336610496
112.0,5.600127224170137e-06
120.0,-9.440282883588225e-05
128.0,-0.0007763085886836052
144.0,-0.0009364705765619874
160.0,-0.0009685613331384957
176.0,0.0003314735076855868
192.0,0.0004805054923053831
208.0,0.0006744671845808625
224.0,0.0010161693207919598
240.0,4.369678208604455e-05
256.0,-0.00033655608422122896
288.0,0.0002719943877309561
320.0,-1.2980962083020131e-06
352.0,-0.00027257142937742174
384.0,0.00021138718875590712
416.0,-0.00030197983141988516
448.0,-0.0003782522981055081
480.0,-0.0003742169647011906
512.0,-0.00040863180765882134
576.0,-0.0001660527050262317
640.0,-0.0009180332999676466
704.0,8.777469338383526e-05
768.0,-4.271935176802799e-05
832.0,-0.00022179464576765895
896.0,0.00021275591279845685
960.0,-0.00025270978221669793
1024.0,-0.00026346385129727423
1152.0,-6.565460353158414e-05
1280.0,-0.0002912429627031088
1408.0,0.00023794536537025124
1536.0,0.00037134927697479725
1664.0,0.00029645441100001335
1792.0,-0.00025122679653577507
1920.0,0.0005524175940081477
2048.0,-0.00018524788902141154
2304.0,-0.0005119001725688577
2560.0,-0.000628555309958756
2816.0,-5.369014979805797e-05
3072.0,8.205894118873402e-06
3328.0,0.0003473095130175352
3584.0,0.0001153146440628916
3840.0,0.00018119825108442456
4096.0,-0.00035296796704642475
4608.0,0.0003764831926673651
5120.0,-0.00011655494017759338
5632.0,8.034547136048786e-06
6144.0,0.00010977577767334878
6656.0,-0.0004141646495554596
7168.0,0.000330937938997522
7680.0,0.0002251320256618783
8192.0,-0.0002374595496803522
9216.0,-0.00010926945105893537
10240.0,-0.00023174613306764513
11264.0,-4.235118831275031e-05
12288.0,-9.598010365152732e-06
13312.0,5.866470019100234e-05
14336.0,2.9384165827650577e-05
end
