version,3.0
numOfCh,1
type,point
parent_name,200-cuts
ch_type,1_1
kcount,1
numberNandB,1
brightnessNandB,1
carpet pos,0
pc,0
Time (ms),CH1 Auto-Correlation
1.0,0.01599612645804882
2.0,0.012997242622077465
3.0,0.010955183766782284
4.0,0.009439763613045216
5.0,0.008241256698966026
6.0,0.0073167127557098866
7.0,0.0065342155285179615
8.0,0.005930732935667038
9.0,0.005213807336986065
10.0,0.004621680825948715
11.0,0.004179120063781738
12.0,0.0038523622788488865
13.0,0.0035538342781364918
14.0,0.0033494052477180958
15.0,0.003078649053350091
16.0,0.0028192149475216866
18.0,0.0024118321016430855
20.0,0.0021328693255782127
22.0,0.0019201907562091947
24.0,0.0017226864583790302
26.0,0.0015204553492367268
28.0,0.0013729039346799254
30.0,0.0012523356126621366
32.0,0.0009890504879876971
36.0,0.0005947505705989897
40.0,0.00044958016951568425
44.0,0.0003163450164720416
48.0,0.00015571351104881614
52.0,9.914793190546334e-05
56.0,0.00038918713107705116
60.0,0.0008578951237723231
64.0,0.001032229163683951
72.0,0.0005318968906067312
80.0,0.00043826503679156303
88.0,0.0004453989677131176
96.0,0.00034843417233787477
104.0,0.0003524043713696301
112.0,0.00043795735109597445
120.0,0.00034859339939430356
128.0,0.00025935331359505653
144.0,0.0009139770991168916
160.0,0.00023699294251855463
176.0,9.023771417560056e-05
192.0,-5.0254870984645095e-06
208.0,0.00013539983774535358
224.0,5.3403666242957115e-05
240.0,-0.00018917406850960106
256.0,-6.117329030530527e-05
288.0,-0.0003281109966337681
320.0,6.597896572202444e-05
352.0,3.738814120879397e-05
384.0,-0.00011777710460592061
416.0,0.0001899970229715109
448.0,-1.1393271051929332e-05
480.0,8.869412340573035e-06
512.0,-0.00039949940401129425
576.0,1.1730922778951935e-05
640.0,0.00016661486006341875
704.0,0.0001338646688964218
768.0,-9.381431300425902e-05
832.0,-0.0002930433547589928
896.0,0.0002267284580739215
960.0,0.00022066416568122804
1024.0,0.0004080614889971912
1152.0,-0.00014297361485660076
1280.0,-1.2543254342745058e-05
1408.0,0.00035619913251139224
1536.0,0.00014098614337854087
1664.0,-0.00016151841555256397
1792.0,-0.00045631665852852166
1920.0,-7.129368896130472e-05
2048.0,0.00020573321671690792
2304.0,5.316350870998576e-05
2560.0,-0.00017449837469030172
2816.0,-4.3768239265773445e-05
3072.0,-0.00010833383566932753
3328.0,-0.0002199813025072217
3584.0,-3.053441832889803e-05
3840.0,-0.00028051098342984915
4096.0,-0.00012199403863633052
4608.0,-3.0489951313938946e-05
5120.0,-7.200219988590106e-05
5632.0,7.285755418706685e-05
6144.0,2.8460255634854548e-05
6656.0,2.979234886879567e-05
7168.0,9.174057049676776e-05
7680.0,-0.0004232953651808202
8192.0,-0.0001460578787373379
9216.0,-9.802589192986488e-05
10240.0,5.363972741179168e-05
11264.0,0.00026853158487938344
12288.0,3.165255475323647e-05
13312.0,-6.78260184940882e-05
14336.0,-7.80091795604676e-05
end
