version,3.0
numOfCh,1
type,point
parent_name,200-cuts
ch_type,1_1
kcount,1
numberNandB,1
brightnessNandB,1
carpet pos,0
pc,0
Time (ms),CH1 Auto-Correlation
1.0,0.0277809239923954
2.0,0.022776078432798386
3.0,0.019328759983181953
4.0,0.016713613644242287
5.0,0.014670846983790398
6.0,0.012957701459527016
7.0,0.011475871317088604
8.0,0.010336468927562237
9.0,0.009329280816018581
10.0,0.008336427621543407
11.0,0.00759438332170248
12.0,0.007039926014840603
13.0,0.006563493981957436
14.0,0.006067529786378145
15.0,0.005857323762029409
16.0,0.005867618136107922
18.0,0.005312647204846144
20.0,0.004923742264509201
22.0,0.004731612280011177
24.0,0.004467034712433815
26.0,0.004044980742037296
28.0,0.0035868932027369738
30.0,0.00316760060377419
32.0,0.0027563355397433043
36.0,0.002266871277242899
40.0,0.0022555498871952295
44.0,0.0018742037937045097
48.0,0.0017962527927011251
52.0,0.0011540768900886178
56.0,0.000760953756980598
60.0,0.0008203790057450533
64.0,0.0008670418756082654
72.0,0.0011251909891143441
80.0,0.0012278207577764988
88.0,0.0007418316090479493
96.0,0.0007145434501580894
104.0,0.001222618855535984
112.0,0.0012235509930178523
120.0,0.0010909942211583257
128.0,0.0007175464415922761
144.0,0.0002764110977295786
160.0,5.001536464988021e-06
176.0,-0.0003707364376168698
192.0,-0.0010520982323214412
208.0,-0.00031891153776086867
224.0,-0.00018964185437653214
240.0,-6.089330781833269e-05
256.0,-0.00013667128223460168
288.0,0.0001967476709978655
320.0,-0.0005126592586748302
352.0,-0.00032660880242474377
384.0,0.0008739382028579712
416.0,0.000652135000564158
448.0,0.00010275918612023816
480.0,-0.0001991636963794008
512.0,-0.00041600834811106324
576.0,-0.0003483851032797247
640.0,9.893801325233653e-05
704.0,0.00025934880250133574
768.0,-0.00036025166627950966
832.0,-0.00022058270405977964
896.0,-8.158855962392408e-06
960.0,-3.923472104361281e-05
1024.0,-0.0001715190155664459
1152.0,0.0004533162573352456
1280.0,-0.00024298339849337935
1408.0,-0.0002710798871703446
1536.0,0.00038682238664478064
1664.0,-0.0005776694742962718
1792.0,-0.0005760326748713851
1920.0,-0.00039335861220024526
2048.0,5.719299224438146e-06
2304.0,-0.0005041158874519169
2560.0,0.0002472457999829203
2816.0,0.0001263590675080195
3072.0,-0.0008001468377187848
3328.0,-0.0009396816603839397
3584.0,0.0005566971958614886
3840.0,0.0005082018906250596
4096.0,0.00018759508384391665
4608.0,0.0003047149511985481
5120.0,0.00066052854526788
5632.0,-0.00018752660253085196
6144.0,-4.890537093160674e-05
6656.0,2.745977144513745e-05
7168.0,-0.0004517430788837373
7680.0,-0.00020844470418523997
8192.0,-0.0005585258477367461
9216.0,9.931850945577025e-05
10240.0,0.00018135369464289397
11264.0,0.00022924657969269902
12288.0,-0.00021952112729195505
13312.0,-0.00013467161625158042
14336.0,-0.00028290535556152463
end
