version,3.0
numOfCh,1
type,point
parent_name,200-cuts
ch_type,1_1
kcount,1
numberNandB,1
brightnessNandB,1
carpet pos,0
pc,0
Time (ms),CH1 Auto-Correlation
1.0,0.016725575551390648
2.0,0.013652130030095577
3.0,0.011341755278408527
4.0,0.009732806123793125
5.0,0.008452849462628365
6.0,0.007424466777592897
7.0,0.0066346158273518085
8.0,0.005960289854556322
9.0,0.005576783791184425
10.0,0.005157315172255039
11.0,0.004826972261071205
12.0,0.004533101338893175
13.0,0.004271622281521559
14.0,0.003947168122977018
15.0,0.0036359592340886593
16.0,0.0034339537378400564
18.0,0.00318925897590816
20.0,0.0030048734042793512
22.0,0.00269940122961998
24.0,0.002520223380997777
26.0,0.0023883210960775614
28.0,0.0022703497670590878
30.0,0.002283548703417182
32.0,0.002237002830952406
36.0,0.001886991667561233
40.0,0.0016353614628314972
44.0,0.0014560696436092257
48.0,0.0014722280902788043
52.0,0.0013723202282562852
56.0,0.0012537839356809855
60.0,0.0011624398175626993
64.0,0.001097862608730793
72.0,0.0008796242182143033
80.0,0.0007857158780097961
88.0,0.0006419957499019802
96.0,0.0003671392914839089
104.0,0.00014892265608068556
112.0,0.00012999330647289753
120.0,3.20821964123752e-05
128.0,0.0003750952600967139
144.0,8.399661965086125e-06
160.0,-0.00021622086933348328
176.0,-0.00011298808385618031
192.0,-0.00010189715248998255
208.0,-0.00016182393301278353
224.0,-0.00011978118709521368
240.0,-0.00013435274013318121
256.0,-6.492106331279501e-05
288.0,0.0001706710463622585
320.0,-6.748271971446229e-06
352.0,0.00026381315547041595
384.0,0.00037404426257126033
416.0,-0.00022341826115734875
448.0,-0.00040724786231294274
480.0,-0.00025105656823143363
512.0,0.00039579762960784137
576.0,0.00010998982179444283
640.0,-0.0006473001558333635
704.0,0.00017563016444910318
768.0,4.5384676923276857e-05
832.0,0.00031788021442480385
896.0,-0.00012525584315881133
960.0,-0.00016820273594930768
1024.0,-0.0007506203837692738
1152.0,-0.0004338062717579305
1280.0,-0.0004820860340259969
1408.0,0.00023847243573982269
1536.0,7.250326598295942e-05
1664.0,-6.949670932954177e-05
1792.0,2.127279367414303e-05
1920.0,-5.539062840398401e-06
2048.0,-0.00023508058802690357
2304.0,0.00022361708397511393
2560.0,0.00016116094775497913
2816.0,0.0001854211004683748
3072.0,8.56312908581458e-06
3328.0,-0.0005298866308294237
3584.0,-2.1953937903163023e-05
3840.0,-0.0003387582255527377
4096.0,-5.555069037654903e-06
4608.0,-5.3016825404483825e-05
5120.0,-8.937445090850815e-05
5632.0,0.00010954513709293678
6144.0,-3.435420512687415e-05
6656.0,-0.00029500931850634515
7168.0,-0.00016240327386185527
7680.0,-3.768595706787892e-05
8192.0,0.00039019715040922165
9216.0,-5.584693280979991e-05
10240.0,0.0002563444140832871
11264.0,-0.00021001858112867922
12288.0,2.2882721168571152e-05
13312.0,2.762599706329638e-06
14336.0,-1.8119055312126875e-05
end
