version,3.0
numOfCh,1
type,point
parent_name,200-cuts
ch_type,1_1
kcount,1
numberNandB,1
brightnessNandB,1
carpet pos,0
pc,0
Time (ms),CH1 Auto-Correlation
1.0,0.017879284918308258
2.0,0.014641567133367062
3.0,0.01245784666389227
4.0,0.01083738636225462
5.0,0.009496436454355717
6.0,0.008428382687270641
7.0,0.007601480931043625
8.0,0.006927518639713526
9.0,0.006189560052007437
10.0,0.005626298021525145
11.0,0.005165453534573317
12.0,0.004727125633507967
13.0,0.0043038418516516685
14.0,0.004005441442131996
15.0,0.0037516443990170956
16.0,0.003474682103842497
18.0,0.0029771551489830017
20.0,0.0025757565163075924
22.0,0.0023672261741012335
24.0,0.002086167922243476
26.0,0.001963705522939563
28.0,0.0019258162938058376
30.0,0.001780291902832687
32.0,0.0017527343006804585
36.0,0.0016692933859303594
40.0,0.0011517653474584222
44.0,0.0008981710416264832
48.0,0.0006373247015289962
52.0,0.000482309638755396
56.0,0.00062813691329211
60.0,0.0003728742594830692
64.0,7.793348231643904e-06
72.0,-8.94276236067526e-05
80.0,-0.0002963253064081073
88.0,-0.0002683224156498909
96.0,-0.00020794698502868414
104.0,-0.000116710078145843
112.0,-0.00024719658540561795
120.0,-5.60576627322007e-05
128.0,-0.00010845522774616256
144.0,-0.00013029361434746534
160.0,-0.000330378272337839
176.0,-0.00044079395593144
192.0,-0.0003070271632168442
208.0,-0.0002358925703447312
224.0,-0.00018737890059128404
240.0,-0.00019928047549910843
256.0,-1.6611167666269466e-05
288.0,0.0005490811890922487
320.0,0.0006804183358326554
352.0,0.0003962079936172813
384.0,-0.00020138958643656224
416.0,0.00023314768623095006
448.0,9.645699174143374e-05
480.0,-7.852640555938706e-05
512.0,1.2713210708170664e-05
576.0,2.1298101273714565e-05
640.0,0.00030155666172504425
704.0,-0.0001663376169744879
768.0,-0.0002642704639583826
832.0,-0.0003024795441888273
896.0,-0.0002798968635033816
960.0,8.711173722986132e-05
1024.0,-0.00019673912902362645
1152.0,-0.0001943717070389539
1280.0,-0.00039769726572558284
1408.0,6.118498276919127e-05
1536.0,-0.00019860340398736298
1664.0,-0.00013959527132101357
1792.0,-2.399774530204013e-05
1920.0,0.00022925656230654567
2048.0,0.00034307604073546827
2304.0,-2.3614891688339412e-05
2560.0,9.432135993847623e-05
2816.0,-0.0001492245210101828
3072.0,-0.00022035889560356736
3328.0,-8.867818542057648e-05
3584.0,-0.0001547475258121267
3840.0,0.00029928487492725253
4096.0,-0.00011169953359058127
4608.0,-0.00021548636141233146
5120.0,-3.807845860137604e-05
5632.0,0.00011172339873155579
6144.0,-0.0001339826121693477
6656.0,-0.0003034026303794235
7168.0,0.0003887011553160846
7680.0,0.00043256362550891936
8192.0,-0.0002461387193761766
9216.0,7.739698776276782e-05
10240.0,2.259787288494408e-05
11264.0,0.0001371734542772174
12288.0,-0.00030132930260151625
13312.0,0.0001352525141555816
14336.0,-3.405585084692575e-05
end
