version,3.0
numOfCh,1
type,point
parent_name,200-cuts
ch_type,1_1
kcount,1
numberNandB,1
brightnessNandB,1
carpet pos,0
pc,0
Time (ms),CH1 Auto-Correlation
1.0,0.01622018776834011
2.0,0.013277660124003887
3.0,0.011018252931535244
4.0,0.009396406821906567
5.0,0.008172432892024517
6.0,0.007149344775825739
7.0,0.006395581178367138
8.0,0.005777750164270401
9.0,0.0054201846942305565
10.0,0.004928929265588522
11.0,0.0045228200033307076
12.0,0.004322791937738657
13.0,0.004062307067215443
14.0,0.003788057714700699
15.0,0.0037058712914586067
16.0,0.0035137184895575047
18.0,0.0030866339802742004
20.0,0.0025851449463516474
22.0,0.0023605753667652607
24.0,0.002288120798766613
26.0,0.0020481001120060682
28.0,0.0020193634554743767
30.0,0.00205755396746099
32.0,0.0019697363022714853
36.0,0.0014767100801691413
40.0,0.0010622777044773102
44.0,0.0009061340824700892
48.0,0.0008524465374648571
52.0,0.0007660161354579031
56.0,0.0007973340689204633
60.0,0.0007743686437606812
64.0,0.0005215277778916061
72.0,0.00018075747357215732
80.0,0.00010363259934820235
88.0,-0.00017889724404085428
96.0,-0.0005433559417724609
104.0,-0.0005938285030424595
112.0,-0.0005465224385261536
120.0,-0.00028863450279459357
128.0,-0.00027937398408539593
144.0,-0.0008347771945409477
160.0,-0.0010108824353665113
176.0,-0.0007339480216614902
192.0,-7.93047875049524e-05
208.0,-0.00013605838466901332
224.0,-0.00035388284595683217
240.0,-0.00020973831124138087
256.0,-0.00018838713003788143
288.0,-2.1473499145940877e-05
320.0,0.0005687641678377986
352.0,0.00041374724241904914
384.0,-0.00039147044299170375
416.0,-0.00026103705749846995
448.0,-0.00028945697704330087
480.0,-3.603496224968694e-05
512.0,0.00012748729204759002
576.0,0.00020949610916431993
640.0,0.0001111257734009996
704.0,-0.0001770952221704647
768.0,-0.0004308120405767113
832.0,-7.185340655269101e-05
896.0,-5.698339009541087e-05
960.0,5.668781159329228e-05
1024.0,-0.0005224748747423291
1152.0,-0.00028232805198058486
1280.0,7.367980288108811e-05
1408.0,1.9203189367544837e-05
1536.0,0.00022063737560529262
1664.0,7.068159175105393e-05
1792.0,0.0001958774373633787
1920.0,-0.0001326508936472237
2048.0,-0.00014800229109823704
2304.0,0.0002204058546340093
2560.0,3.0368160878424533e-05
2816.0,-7.569917943328619e-05
3072.0,0.00012481257726904005
3328.0,-0.0003177318722009659
3584.0,5.2313243941171095e-05
3840.0,-0.00010695624223444611
4096.0,0.00021435879170894623
4608.0,4.184767749393359e-05
5120.0,-4.682152939494699e-05
5632.0,-4.299949432606809e-05
6144.0,-8.004363189684227e-05
6656.0,0.00015675491886213422
7168.0,-9.72052730503492e-05
7680.0,-0.00016880618932191283
8192.0,-2.8768668926204555e-05
9216.0,9.615367889637128e-05
10240.0,-5.382333984016441e-05
11264.0,-0.00017787815886549652
12288.0,0.00014022132381796837
13312.0,7.488716073567048e-05
14336.0,-0.00020767768728546798
end
