version,3.0
numOfCh,1
type,point
parent_name,200-cuts
ch_type,1_1
kcount,1
numberNandB,1
brightnessNandB,1
carpet pos,0
pc,0
Time (ms),CH1 Auto-Correlation
1.0,0.01602902263402939
2.0,0.0130466865375638
3.0,0.010925192385911942
4.0,0.009370028041303158
5.0,0.008019570261240005
6.0,0.00702013960108161
7.0,0.0063018533401191235
8.0,0.005762334447354078
9.0,0.005372467916458845
10.0,0.005084757227450609
11.0,0.004715969320386648
12.0,0.004474331624805927
13.0,0.004251966718584299
14.0,0.004036536440253258
15.0,0.003744657151401043
16.0,0.0035073338076472282
18.0,0.0031166430562734604
20.0,0.002789801452308893
22.0,0.00239086733199656
24.0,0.0018426671158522367
26.0,0.0015052981907501817
28.0,0.0012752760667353868
30.0,0.0012489967048168182
32.0,0.0010408578673377633
36.0,0.0004631227639038116
40.0,0.0006002783193252981
44.0,0.0006936780991964042
48.0,0.0009503393666818738
52.0,0.0011420780792832375
56.0,0.0007720821886323392
60.0,0.0007041606586426497
64.0,0.0007296261610463262
72.0,0.00050727667985484
80.0,0.0003182735526934266
88.0,0.0006301390822045505
96.0,0.0005329774576239288
104.0,0.00023228643112815917
112.0,-0.0001436140009900555
120.0,-0.00024014552764128894
128.0,-0.00047816813457757235
144.0,-0.0002989775384776294
160.0,0.00013100792421028018
176.0,-6.580494664376602e-05
192.0,-0.00031963858054950833
208.0,-0.00012684059038292617
224.0,0.00026912280009128153
240.0,0.0006592828431166708
256.0,0.0006872239173389971
288.0,-3.316461152280681e-05
320.0,-0.0005340517382137477
352.0,-0.0005736902239732444
384.0,-0.000336374097969383
416.0,0.00046091750846244395
448.0,0.0003612319997046143
480.0,6.970630056457594e-05
512.0,0.00036110379733145237
576.0,-0.00019803526811301708
640.0,0.00018578488379716873
704.0,0.0004636563244275749
768.0,0.00019405229249969125
832.0,-0.00010455775918671861
896.0,-0.0003105633659288287
960.0,-0.0005193969700485468
1024.0,-0.0004995281342417002
1152.0,-0.0004540952213574201
1280.0,-4.7695804823888466e-05
1408.0,-5.181719097890891e-05
1536.0,5.208241782383993e-05
1664.0,-0.0002681897021830082
1792.0,-0.00037283729761838913
1920.0,-0.00012053545651724562
2048.0,-0.0001266944600502029
2304.0,-0.0002478992100805044
2560.0,-0.00010910138371400535
2816.0,-0.00012798828538507223
3072.0,0.0002364032989135012
3328.0,0.00014250780805014074
3584.0,0.00036240884219296277
3840.0,0.0002917360106948763
4096.0,-0.000261363253230229
4608.0,-5.566407344304025e-05
5120.0,6.579153705388308e-05
5632.0,-0.00032476417254656553
6144.0,-0.00013570627197623253
6656.0,0.0002140221477020532
7168.0,0.00011049659951822832
7680.0,5.1722607167903334e-05
8192.0,2.968465196317993e-05
9216.0,-0.00031990825664252043
10240.0,4.9881542508956045e-05
11264.0,0.0002375706535531208
12288.0,-0.00010479919001227245
13312.0,0.00027387510635890067
14336.0,-0.0005083485739305615
end
