version,3.0
numOfCh,1
type,point
parent_name,200-cuts
ch_type,1_1
kcount,1
numberNandB,1
brightnessNandB,1
carpet pos,0
pc,0
Time (ms),CH1 Auto-Correlation
1.0,0.025731069967150688
2.0,0.02057049050927162
3.0,0.01707863062620163
4.0,0.014371911063790321
5.0,0.012575054541230202
6.0,0.011048895306885242
7.0,0.009839733131229877
8.0,0.008810356259346008
9.0,0.007990658283233643
10.0,0.007338736206293106
11.0,0.006791981402784586
12.0,0.006450053304433823
13.0,0.006341010797768831
14.0,0.00604831101372838
15.0,0.005640940275043249
16.0,0.0051806322298944
18.0,0.004379442427307367
20.0,0.003463329980149865
22.0,0.0028091638814657927
24.0,0.0025754307862371206
26.0,0.0023639285936951637
28.0,0.002162985736504197
30.0,0.002136093331500888
32.0,0.002049875445663929
36.0,0.0018928298959508538
40.0,0.001449030707590282
44.0,0.0009326201980002224
48.0,0.0005891495384275913
52.0,0.00046335606020875275
56.0,-0.00011449325393186882
60.0,0.00015450084174517542
64.0,0.0005307137034833431
72.0,0.0003047054633498192
80.0,0.0006241269293241203
88.0,9.250282892026007e-05
96.0,-0.00024208622926380485
104.0,-0.0003583544457796961
112.0,-0.000672633817885071
120.0,2.212975414295215e-05
128.0,0.00035193399526178837
144.0,-7.699362868152093e-06
160.0,-0.00010266718891216442
176.0,0.0006936500431038439
192.0,6.192218279466033e-05
208.0,-8.968736437964253e-06
224.0,-1.271346536668716e-05
240.0,-0.0002457906084600836
256.0,0.00014531434862874448
288.0,0.00014494845527224243
320.0,0.0003830912755802274
352.0,0.0009723121183924377
384.0,0.0011562068248167634
416.0,0.00039025649311952293
448.0,-5.8829813497141004e-05
480.0,-0.00019079592311754823
512.0,0.0002468673337716609
576.0,-0.00036165746860206127
640.0,0.0006262461538426578
704.0,-0.00018659455236047506
768.0,-0.00012458664423320442
832.0,-0.0009814401855692267
896.0,0.0008351954747922719
960.0,0.000220772999455221
1024.0,-0.0006566693773493171
1152.0,-0.00037631375016644597
1280.0,-0.00049574178410694
1408.0,-0.00017604483582545072
1536.0,-4.55486006103456e-05
1664.0,-0.0004935597535222769
1792.0,-0.0004454276349861175
1920.0,-0.00047807313967496157
2048.0,1.9282635548734106e-05
2304.0,0.0003830170026049018
2560.0,0.00019640539539977908
2816.0,0.00022189045557752252
3072.0,3.7159919884288684e-05
3328.0,-0.0005508171743713319
3584.0,-0.000445681216660887
3840.0,-9.48914821492508e-05
4096.0,-0.00036261099739931524
4608.0,8.464566235488746e-06
5120.0,0.0005525611340999603
5632.0,0.00024641479831188917
6144.0,-0.0002236830332549289
6656.0,-7.069764978950843e-05
7168.0,1.2848047845182009e-05
7680.0,0.0002224046183982864
8192.0,-8.466607687296346e-05
9216.0,-0.00029981471016071737
10240.0,7.138886576285586e-05
11264.0,-0.00012816197704523802
12288.0,0.00016203903942368925
13312.0,0.00011340085620759055
14336.0,6.488680082838982e-05
end
