version,3.0
numOfCh,1
type,point
parent_name,200-cuts
ch_type,1_1
kcount,1
numberNandB,1
brightnessNandB,1
carpet pos,0
pc,0
Time (ms),CH1 Auto-Correlation
1.0,0.015418590977787971
2.0,0.012283220887184143
3.0,0.01019478589296341
4.0,0.008560700342059135
5.0,0.007372003048658371
6.0,0.006468388717621565
7.0,0.005785693414509296
8.0,0.005170063115656376
9.0,0.004801986739039421
10.0,0.004484488628804684
11.0,0.004230744671076536
12.0,0.003920319024473429
13.0,0.0036249905824661255
14.0,0.003475396428257227
15.0,0.003302542958408594
16.0,0.003126832190901041
18.0,0.002665909705683589
20.0,0.0023754178546369076
22.0,0.002077318262308836
24.0,0.0017135597299784422
26.0,0.001449934090487659
28.0,0.00135885551571846
30.0,0.001383831026032567
32.0,0.0014489275636151433
36.0,0.001300979987718165
40.0,0.001234388560988009
44.0,0.0011847473215311766
48.0,0.0011739579495042562
52.0,0.001297808950766921
56.0,0.0013406028738245368
60.0,0.0010334515245631337
64.0,0.0008715239237062633
72.0,0.0005918791284784675
80.0,0.0008818585774861276
88.0,0.0009397357353009284
96.0,0.0007739124703221023
104.0,0.0004520393558777869
112.0,0.00021231314167380333
120.0,4.0565744711784646e-05
128.0,-0.0001827973610488698
144.0,-0.00018438509141560644
160.0,-0.0004556970379780978
176.0,-0.0006585592636838555
192.0,-0.0002582957677077502
208.0,-0.00017246260540559888
224.0,-0.0006185768288560212
240.0,-0.0004902428481727839
256.0,-0.00028677366208285093
288.0,-0.00021356288925744593
320.0,2.20598576561315e-05
352.0,-0.0003326490696053952
384.0,8.05541731097037e-06
416.0,3.12157571897842e-05
448.0,-0.00010545556870056316
480.0,0.0004145880520809442
512.0,0.00028441063477657735
576.0,0.00027044766466133296
640.0,-0.00021758001821581274
704.0,-0.0007403703639283776
768.0,-0.0006660497165285051
832.0,-0.0004076389304827899
896.0,-1.9266039089416154e-05
960.0,6.0420745285227895e-05
1024.0,8.70891526574269e-05
1152.0,0.00016366803902201355
1280.0,0.00019805874035228044
1408.0,-2.8277743695070967e-05
1536.0,-1.2391204109007958e-05
1664.0,5.410437734099105e-05
1792.0,0.0004207889433018863
1920.0,-0.00043904499034397304
2048.0,-0.00016638913075439632
2304.0,-4.0416838601231575e-05
2560.0,-0.000202113194973208
2816.0,-2.8323502192506567e-05
3072.0,-1.0367147297074553e-05
3328.0,0.0001670283090788871
3584.0,-0.00029401949723251164
3840.0,-6.547943485202268e-05
4096.0,-0.0005003976402804255
4608.0,0.00011480848479550332
5120.0,-5.18591987201944e-05
5632.0,0.00013436749577522278
6144.0,-9.717967623146251e-05
6656.0,0.00014649050717707723
7168.0,-3.491098323138431e-05
7680.0,9.692585445009172e-05
8192.0,-7.353988621616736e-05
9216.0,-4.683843508246355e-05
10240.0,-2.909125578298699e-05
11264.0,-0.00014267265214584768
12288.0,-3.437657869653776e-05
13312.0,0.00017964378639589995
14336.0,0.00012706384586635977
end
