version,3.0
numOfCh,1
type,point
parent_name,200-cuts
ch_type,1_1
kcount,1
numberNandB,1
brightnessNandB,1
carpet pos,0
pc,0
Time (ms),CH1 Auto-Correlation
1.0,0.01666080206632614
2.0,0.013530968688428402
3.0,0.01133685652166605
4.0,0.009714998304843903
5.0,0.00837322510778904
6.0,0.007166451308876276
7.0,0.006189470645040274
8.0,0.0054874662309885025
9.0,0.00500058475881815
10.0,0.004592665005475283
11.0,0.004146652761846781
12.0,0.0038005097303539515
13.0,0.0034895625431090593
14.0,0.003235138952732086
15.0,0.002986966399475932
16.0,0.0027458600234240294
18.0,0.002224939875304699
20.0,0.001997114159166813
22.0,0.001785671105608344
24.0,0.0016014218563213944
26.0,0.0015316836070269346
28.0,0.001388238975778222
30.0,0.0012400385458022356
32.0,0.0012027723714709282
36.0,0.0013649456668645144
40.0,0.00143686484079808
44.0,0.0013506461400538683
48.0,0.0015282428357750177
52.0,0.0015920813893899322
56.0,0.0013018549652770162
60.0,0.0011052562622353435
64.0,0.0010853252606466413
72.0,0.0011366757098585367
80.0,0.0010695577366277575
88.0,0.001138898660428822
96.0,0.0007213151548057795
104.0,0.0007368930382654071
112.0,0.0007437607273459435
120.0,0.0006997957825660706
128.0,0.0007625957950949669
144.0,0.00020358245819807053
160.0,0.00034054252319037914
176.0,0.0003921851748600602
192.0,0.00029834601446054876
208.0,0.0005641067400574684
224.0,0.0004861332126893103
240.0,0.0007483877707272768
256.0,0.00036756982444785535
288.0,0.00013438450696412474
320.0,0.0003606552490964532
352.0,0.0003955128777306527
384.0,3.723199915839359e-05
416.0,0.00020942511036992073
448.0,-0.000286385155050084
480.0,0.0003337002999614924
512.0,5.307881656335667e-05
576.0,0.00039724784437566996
640.0,0.00030408971360884607
704.0,0.0005822531529702246
768.0,0.00039484479930251837
832.0,0.00037781085120514035
896.0,0.0003581349446903914
960.0,0.0004604880523402244
1024.0,0.0004975439514964819
1152.0,1.672747021075338e-05
1280.0,0.0004114547627978027
1408.0,0.0001794654381228611
1536.0,0.0005589347565546632
1664.0,0.0003748962772078812
1792.0,0.0002487822202965617
1920.0,0.00022032822016626596
2048.0,-0.00023307283117901534
2304.0,-0.00021970938541926444
2560.0,-7.321709563257173e-05
2816.0,0.00010524743993300945
3072.0,-0.00042726812534965575
3328.0,-0.00012667509145103395
3584.0,-0.00026690997765399516
3840.0,-0.00021586669026874006
4096.0,-0.00019930143025703728
4608.0,4.029248884762637e-05
5120.0,-2.369989306316711e-05
5632.0,0.00030520273139700294
6144.0,0.00010101054795086384
6656.0,0.00022902904311195016
7168.0,4.075857577845454e-05
7680.0,-2.7795458663604222e-05
8192.0,-0.0003179021878167987
9216.0,-0.0005689829122275114
10240.0,-0.0004926047404296696
11264.0,-0.00043774789082817733
12288.0,-5.3437117458088323e-05
13312.0,9.496607526671141e-05
14336.0,8.554306259611621e-05
end
