version,3.0
numOfCh,1
type,point
parent_name,200-cuts
ch_type,1_1
kcount,1
numberNandB,1
brightnessNandB,1
carpet pos,0
pc,0
Time (ms),CH1 Auto-Correlation
1.0,0.01629449985921383
2.0,0.013198952190577984
3.0,0.011055581271648407
4.0,0.00933853629976511
5.0,0.008099636994302273
6.0,0.007263549603521824
7.0,0.006493543274700642
8.0,0.005864075385034084
9.0,0.005227891728281975
10.0,0.004585940856486559
11.0,0.004044432193040848
12.0,0.0035926636774092913
13.0,0.00320622231811285
14.0,0.00296080787666142
15.0,0.0026763277128338814
16.0,0.002383530605584383
18.0,0.0018818833632394671
20.0,0.0016539215575903654
22.0,0.0014405831461772323
24.0,0.0013313046656548977
26.0,0.0011485088616609573
28.0,0.0010862377239391208
30.0,0.0010220811236649752
32.0,0.0009523214539512992
36.0,0.0008525119628757238
40.0,0.0007214219076558948
44.0,0.0005826893611811101
48.0,0.0003784052387345582
52.0,0.00016359222354367375
56.0,0.00012105738278478384
60.0,7.85562806413509e-05
64.0,0.00015500307199545205
72.0,0.00023574366059619933
80.0,-0.00034778009285219014
88.0,-0.0008934189681895077
96.0,-0.0005904034478589892
104.0,-0.00019538226479198784
112.0,0.0003316299698781222
120.0,0.0006490248488262296
128.0,7.731676305411384e-05
144.0,4.3206022382946685e-05
160.0,-9.18505756999366e-05
176.0,-9.153431165032089e-05
192.0,-0.000528667529579252
208.0,-0.0009751350153237581
224.0,-0.0007905724341981113
240.0,-0.0003835405223071575
256.0,-0.00026306387735530734
288.0,-0.00016730579955037683
320.0,-0.00010891650890698656
352.0,-3.381953501957469e-05
384.0,0.00010360425221733749
416.0,0.0007391934050247073
448.0,0.00041589487227611244
480.0,-3.251848102081567e-05
512.0,-0.00023936055367812514
576.0,-0.00033499192795716226
640.0,-0.0006060124724172056
704.0,-0.00029959058156237006
768.0,-0.0002432896289974451
832.0,0.0005420424859039485
896.0,2.8850499802501872e-05
960.0,0.00015053841343615204
1024.0,-0.0002651567629072815
1152.0,0.00030316374613903463
1280.0,3.650700091384351e-05
1408.0,-0.00010918509360635653
1536.0,5.513517407962354e-06
1664.0,-0.00027147389482706785
1792.0,7.593409100081772e-05
1920.0,4.266018731868826e-05
2048.0,0.00019382403115741909
2304.0,-2.399389268248342e-05
2560.0,-0.0001506627449998632
2816.0,-0.0001085583062376827
3072.0,-5.086079545435496e-05
3328.0,0.00017425694386474788
3584.0,-0.00024099326401483268
3840.0,-6.435634713852778e-05
4096.0,0.00011100868141511455
4608.0,2.544456219766289e-05
5120.0,-0.00010035753803094849
5632.0,7.269963680300862e-05
6144.0,-5.513296491699293e-05
6656.0,-1.950758814928122e-05
7168.0,3.948005905840546e-05
7680.0,-1.4095146980253048e-05
8192.0,4.847409581998363e-05
9216.0,6.175127782626078e-05
10240.0,1.969829327208572e-06
11264.0,1.7033707990776747e-05
12288.0,-9.230930299963802e-05
13312.0,4.1551116737537086e-05
14336.0,-4.431284833117388e-05
end
