version,3.0
numOfCh,1
type,point
parent_name,200-cuts
ch_type,1_1
kcount,1
numberNandB,1
brightnessNandB,1
carpet pos,0
pc,0
Time (ms),CH1 Auto-Correlation
1.0,0.02843414433300495
2.0,0.023478811606764793
3.0,0.02014283463358879
4.0,0.017508136108517647
5.0,0.015557469800114632
6.0,0.014068364165723324
7.0,0.012712896801531315
8.0,0.011701546609401703
9.0,0.010608496144413948
10.0,0.00965724978595972
11.0,0.008802386932075024
12.0,0.008029129356145859
13.0,0.007618344388902187
14.0,0.007203727029263973
15.0,0.006741020828485489
16.0,0.006217179354280233
18.0,0.005448589101433754
20.0,0.005131871905177832
22.0,0.004879186861217022
24.0,0.004608039278537035
26.0,0.0044484008103609085
28.0,0.00381277222186327
30.0,0.0036124642938375473
32.0,0.003388103097677231
36.0,0.0029955378267914057
40.0,0.0023146297316998243
44.0,0.002167024649679661
48.0,0.002251347526907921
52.0,0.0018907577032223344
56.0,0.001481362385675311
60.0,0.0007588423322886229
64.0,0.0005080195260234177
72.0,0.0007388578960672021
80.0,0.000979922479018569
88.0,0.0007519414648413658
96.0,0.0008113516378216445
104.0,0.0014530089683830738
112.0,0.0013680059928447008
120.0,0.0006366505986079574
128.0,-0.00016838048759382218
144.0,-0.0007715882966294885
160.0,-0.0002932505449280143
176.0,-0.0006824817392043769
192.0,-0.0003899717703461647
208.0,5.8436591643840075e-05
224.0,-0.0008980753482319415
240.0,-0.0010218407260254025
256.0,-0.0009853169322013855
288.0,0.00017269952513743192
320.0,-0.00020428029529284686
352.0,-7.348114013439044e-05
384.0,-0.0013738309498876333
416.0,-0.0008519988041371107
448.0,-0.0003855907416436821
480.0,-0.00021006174210924655
512.0,0.00048089964548125863
576.0,0.00022305158199742436
640.0,0.00018390087643638253
704.0,0.0008864040137268603
768.0,0.0007851773407310247
832.0,0.0008411029120907187
896.0,0.000531164463609457
960.0,0.0005365178221836686
1024.0,0.00012497165880631655
1152.0,-0.0007132216705940664
1280.0,-9.531780960969627e-05
1408.0,-2.7675123419612646e-05
1536.0,-0.00033528078347444534
1664.0,-0.0007105207187123597
1792.0,0.0004606405273079872
1920.0,7.379206363111734e-05
2048.0,-0.0009540978353470564
2304.0,-0.0003462679451331496
2560.0,8.598425483796746e-05
2816.0,-0.000250395416514948
3072.0,-0.00096036063041538
3328.0,0.0004360357706900686
3584.0,3.2563441436650464e-06
3840.0,8.747271203901619e-05
4096.0,-3.6581965105142444e-05
4608.0,0.00018441835709381849
5120.0,0.0001891209976747632
5632.0,0.0003734211786650121
6144.0,-0.00015721107774879783
6656.0,-6.759246025467291e-05
7168.0,-0.0004575223138090223
7680.0,-0.0002489864418748766
8192.0,6.990795372985303e-05
9216.0,6.414894596673548e-05
10240.0,0.00012382495333440602
11264.0,0.0001702404406387359
12288.0,0.0002874602796509862
13312.0,-0.00043008633656427264
14336.0,-0.0003552717680577189
end
