version,3.0
numOfCh,1
type,point
parent_name,200-cuts
ch_type,1_1
kcount,1
numberNandB,1
brightnessNandB,1
carpet pos,0
pc,0
Time (ms),CH1 Auto-Correlation
1.0,0.025743933394551277
2.0,0.02069581113755703
3.0,0.017123335972428322
4.0,0.014535014517605305
5.0,0.012597637251019478
6.0,0.010998050682246685
7.0,0.009488585405051708
8.0,0.008418034762144089
9.0,0.007596020121127367
10.0,0.006963388528674841
11.0,0.006383210886269808
12.0,0.005916130729019642
13.0,0.005529998801648617
14.0,0.005125148221850395
15.0,0.004731087014079094
16.0,0.004579657688736916
18.0,0.004150107502937317
20.0,0.003684200579300523
22.0,0.0035492810420691967
24.0,0.0033483614679425955
26.0,0.002991065615788102
28.0,0.002822739304974675
30.0,0.002394477603957057
32.0,0.002057631267234683
36.0,0.0016995577607303858
40.0,0.0014995093224570155
44.0,0.001536911353468895
48.0,0.0015019157435745
52.0,0.0013922268990427256
56.0,0.0006032456294633448
60.0,-5.28567070432473e-05
64.0,-3.0428725494857645e-06
72.0,0.0006223971722647548
80.0,0.0005672568222507834
88.0,0.0004423520003911108
96.0,4.731438457383774e-05
104.0,-5.6654145737411454e-05
112.0,-0.0004047757829539478
120.0,-0.0005556817632168531
128.0,-0.0006313292542472482
144.0,2.2449872631113976e-05
160.0,-8.233306289184839e-05
176.0,0.00025105246459133923
192.0,0.0003279810189269483
208.0,-0.0001327286590822041
224.0,0.0003062577161472291
240.0,0.0004725287144538015
256.0,6.966140063013881e-05
288.0,-0.00034067564411088824
320.0,-3.9606966311112046e-05
352.0,-0.00025127691333182156
384.0,-0.0002134812093572691
416.0,0.0003708310250658542
448.0,1.2610145859071054e-05
480.0,-3.0444818548858166e-05
512.0,-0.00041782535845413804
576.0,-0.0009045237675309181
640.0,0.00027894339291378856
704.0,0.000280884763924405
768.0,0.000542761292308569
832.0,0.00044100647210143507
896.0,7.701306458329782e-05
960.0,0.00014469903544522822
1024.0,0.0002376221673330292
1152.0,8.2703038060572e-05
1280.0,-1.945618168974761e-05
1408.0,-0.00018458356498740613
1536.0,0.0001403817004757002
1664.0,0.00010556345660006627
1792.0,-0.000425442325649783
1920.0,-0.0003805958549492061
2048.0,-0.0001761518942657858
2304.0,0.00014784367522224784
2560.0,-6.009310527588241e-05
2816.0,-2.880009742511902e-05
3072.0,0.00025904292124323547
3328.0,-5.223597327130847e-05
3584.0,0.00010555878543527797
3840.0,-2.8310110792517662e-05
4096.0,4.769731458509341e-05
4608.0,-0.00013109264546073973
5120.0,9.465110633755103e-05
5632.0,-0.0005397087661549449
6144.0,0.00045956240501254797
6656.0,-0.0006209962302818894
7168.0,-0.0002928611938841641
7680.0,5.897921437281184e-05
8192.0,-0.00043647605343721807
9216.0,9.054596011992544e-05
10240.0,8.223263284889981e-05
11264.0,-0.00017184777243528515
12288.0,4.368176087155007e-05
13312.0,0.000269728887360543
14336.0,-4.9965627113124356e-05
end
