version,3.0
numOfCh,1
type,point
parent_name,200-cuts
ch_type,1_1
kcount,1
numberNandB,1
brightnessNandB,1
carpet pos,0
pc,0
Time (ms),CH1 Auto-Correlation
1.0,0.015880828723311424
2.0,0.012857518158853054
3.0,0.010856084525585175
4.0,0.009224598295986652
5.0,0.007951653562486172
6.0,0.007033052854239941
7.0,0.006232257466763258
8.0,0.005612408742308617
9.0,0.0050582680851221085
10.0,0.004575655329972506
11.0,0.004106455948203802
12.0,0.003878766903653741
13.0,0.0036332043819129467
14.0,0.003203691216185689
15.0,0.0029674621764570475
16.0,0.002796267857775092
18.0,0.002328235190361738
20.0,0.0020689803641289473
22.0,0.0018390023615211248
24.0,0.0015131423715502024
26.0,0.0012134660501033068
28.0,0.001128372852690518
30.0,0.001049002748914063
32.0,0.0008998656994663179
36.0,0.0007563071558251977
40.0,0.0004210043407510966
44.0,0.0003464795008767396
48.0,0.0003731690812855959
52.0,0.00020275030692573637
56.0,0.0001646671153139323
60.0,0.000489493366330862
64.0,0.0005877459770999849
72.0,0.00039165039197541773
80.0,0.00040760767296887934
88.0,0.0006565331714227796
96.0,0.0002489687758497894
104.0,0.00028500985354185104
112.0,0.00013948194100521505
120.0,0.00024031713837757707
128.0,0.0003281425160821527
144.0,0.000598775630351156
160.0,0.0001116462517529726
176.0,-1.9805012925644405e-05
192.0,-7.006015948718414e-05
208.0,-3.6426185943128075e-06
224.0,0.00027455153758637607
240.0,0.0004814180138055235
256.0,0.00026980246184393764
288.0,8.93299511517398e-06
320.0,0.0003984073409810662
352.0,0.00014585776079911739
384.0,7.048639872664353e-06
416.0,-5.431309182313271e-05
448.0,-9.304324339609593e-05
480.0,0.000100465324067045
512.0,5.264533683657646e-05
576.0,-1.1297252058284357e-05
640.0,0.00013561111700255424
704.0,-0.0003982433117926121
768.0,-7.375223958661081e-06
832.0,-0.00018889494822360575
896.0,9.418761328561231e-05
960.0,-0.0002540375862736255
1024.0,-0.00025140182697214186
1152.0,-0.0003650123835541308
1280.0,-7.79334077378735e-05
1408.0,-0.0003550093388184905
1536.0,-0.0001469389389967546
1664.0,-0.0002352119772695005
1792.0,-0.0004956699558533728
1920.0,0.0002679944736883044
2048.0,-1.2338009582890663e-05
2304.0,0.000103777289041318
2560.0,3.588109029806219e-05
2816.0,6.033497993485071e-05
3072.0,8.055451326072216e-05
3328.0,9.763031994225457e-05
3584.0,-0.00015443908341694623
3840.0,-0.00021226481476332992
4096.0,-9.556514851283282e-05
4608.0,-4.1291867091786116e-05
5120.0,0.0001126025163102895
5632.0,0.00028807370108552277
6144.0,-0.00021545824711211026
6656.0,-0.0005063346470706165
7168.0,0.0002907018060795963
7680.0,-6.138505705166608e-05
8192.0,-0.0002727476821746677
9216.0,2.215811582573224e-05
10240.0,9.948105434887111e-05
11264.0,0.0001786934008123353
12288.0,-0.0002706988307181746
13312.0,0.00012682129454333335
14336.0,0.00042859860695898533
end
