version,3.0
numOfCh,1
type,point
parent_name,200-cuts
ch_type,1_1
kcount,1
numberNandB,1
brightnessNandB,1
carpet pos,0
pc,0
Time (ms),CH1 Auto-Correlation
1.0,0.015401586890220642
2.0,0.012497669085860252
3.0,0.010503620840609074
4.0,0.008901409804821014
5.0,0.007609266322106123
6.0,0.0066285328939557076
7.0,0.005876563489437103
8.0,0.005294909235090017
9.0,0.0047741420567035675
10.0,0.004405868239700794
11.0,0.004202136304229498
12.0,0.003979359287768602
13.0,0.0036977471318095922
14.0,0.0033911734353750944
15.0,0.003171860007569194
16.0,0.0028872666880488396
18.0,0.002493890468031168
20.0,0.002344115637242794
22.0,0.0022398740984499454
24.0,0.0020717615261673927
26.0,0.0018345192074775696
28.0,0.0017119023250415921
30.0,0.0015355712966993451
32.0,0.001485161599703133
36.0,0.0012142229825258255
40.0,0.0009940260788425803
44.0,0.0006020870059728622
48.0,0.0003691410820465535
52.0,0.0002804213436320424
56.0,0.00016287459584418684
60.0,0.00016262472490780056
64.0,7.61539995437488e-05
72.0,0.0001622340059839189
80.0,0.00021565312636084855
88.0,4.8596117267152295e-05
96.0,0.00046872967504896224
104.0,0.000903014384675771
112.0,0.0003982077760156244
120.0,9.852604125626385e-05
128.0,-4.928149428451434e-05
144.0,9.099953604163602e-05
160.0,0.00019472349958959967
176.0,9.60021570790559e-05
192.0,0.0004100136284250766
208.0,0.0005879948730580509
224.0,0.0006422257283702493
240.0,0.00035777169978246093
256.0,0.00025999901117756963
288.0,0.000216450949665159
320.0,0.00021791245671920478
352.0,-1.3965316611574963e-05
384.0,8.470705506624654e-05
416.0,-0.0001530529698356986
448.0,-3.861952427541837e-05
480.0,-8.41671135276556e-05
512.0,-0.00032156065572053194
576.0,-8.350249117938802e-05
640.0,9.232599404640496e-05
704.0,0.0002478545648045838
768.0,8.215024718083441e-05
832.0,-1.7465237760916352e-05
896.0,0.0004372073453851044
960.0,0.0002400803641648963
1024.0,-0.00010934432793874294
1152.0,-0.0001239903358509764
1280.0,-8.781558426562697e-05
1408.0,-4.7867521061562e-05
1536.0,-0.00012253427121322602
1664.0,0.00017872318858280778
1792.0,0.00017334407311864197
1920.0,-4.357007856015116e-05
2048.0,-0.00019363858154974878
2304.0,9.942650649463758e-06
2560.0,0.0003325259604025632
2816.0,0.0002097237593261525
3072.0,-0.00011333729344187304
3328.0,-0.00011312662536511198
3584.0,2.6934812922263518e-05
3840.0,-0.00010933864541584626
4096.0,3.884382385876961e-05
4608.0,6.398739787982777e-05
5120.0,0.00023951959155965596
5632.0,-0.00028196960920467973
6144.0,-5.460561169456923e-06
6656.0,-0.0003255173214711249
7168.0,0.00011288718815194443
7680.0,0.0002086669992422685
8192.0,-4.479870040086098e-05
9216.0,-0.0001308719365624711
10240.0,-0.00014270107203628868
11264.0,-0.00014935100625734776
12288.0,-5.542428698390722e-05
13312.0,-0.00040446731145493686
14336.0,-0.0007861367193982005
end
