version,3.0
numOfCh,1
type,point
parent_name,200-cuts
ch_type,1_1
kcount,1
numberNandB,1
brightnessNandB,1
carpet pos,0
pc,0
Time (ms),CH1 Auto-Correlation
1.0,0.015653975307941437
2.0,0.012684160843491554
3.0,0.010553045198321342
4.0,0.008976168930530548
5.0,0.007777368184179068
6.0,0.006775828544050455
7.0,0.006024773698300123
8.0,0.005361514165997505
9.0,0.004806921351701021
10.0,0.004390522371977568
11.0,0.004134757909923792
12.0,0.0038631742354482412
13.0,0.003522114362567663
14.0,0.003232617862522602
15.0,0.0029454913455992937
16.0,0.0026210909709334373
18.0,0.0022482953500002623
20.0,0.0020217387937009335
22.0,0.0017946959706023335
24.0,0.0015762347029522061
26.0,0.001327979494817555
28.0,0.0009752358892001212
30.0,0.0009534038254059851
32.0,0.0008796150214038789
36.0,0.0009349129977636039
40.0,0.0008753362344577909
44.0,0.000647154520265758
48.0,0.00029322996851988137
52.0,8.10407946119085e-05
56.0,9.087895887205377e-05
60.0,-0.0001428711839253083
64.0,4.987062311556656e-06
72.0,8.176250412361696e-05
80.0,-0.00014477719378191978
88.0,-0.0004158724332228303
96.0,-0.00026548467576503754
104.0,-0.00022349423670675606
112.0,-0.000225887619308196
120.0,-0.0002993037924170494
128.0,-0.00016575463814660907
144.0,8.424489351455122e-05
160.0,0.00033780105877667665
176.0,8.381599036511034e-05
192.0,-4.6293356717796996e-05
208.0,0.00023297182633541524
224.0,-0.00011260112660238519
240.0,-0.000274666614132002
256.0,-0.00017727937665767968
288.0,-0.00013220275286585093
320.0,6.2807637732476e-05
352.0,0.00011338516196701676
384.0,0.0005012151668779552
416.0,0.000517910229973495
448.0,0.00020925297576468438
480.0,0.00032584372092969716
512.0,7.556132914032787e-05
576.0,-0.00010641603876138106
640.0,-0.00024183686764445156
704.0,-4.369474481791258e-05
768.0,6.447720807045698e-05
832.0,-2.7786420105258003e-05
896.0,-0.00035596967791207135
960.0,-2.351782313780859e-05
1024.0,-4.85453856526874e-05
1152.0,1.3014531759836245e-05
1280.0,-0.00028385661426000297
1408.0,-0.0004198348324280232
1536.0,-3.441192166064866e-05
1664.0,-0.00022792119125369936
1792.0,-8.190202061086893e-05
1920.0,-0.00019661760597955436
2048.0,-8.823318057693541e-05
2304.0,0.00028749427292495966
2560.0,0.0001659159897826612
2816.0,0.00022266642190515995
3072.0,-0.0001568493462400511
3328.0,-0.0001546055864309892
3584.0,9.828494512476027e-05
3840.0,-0.00028819392900913954
4096.0,-0.00037850101944059134
4608.0,5.763913009104726e-07
5120.0,0.00023679379955865443
5632.0,0.0002479966206010431
6144.0,-0.00023766288359183818
6656.0,-0.0002750062558334321
7168.0,3.831065623671748e-05
7680.0,0.00015932875976432115
8192.0,3.893352914019488e-05
9216.0,-0.00020642273011617362
10240.0,6.297270010691136e-05
11264.0,-4.057576006744057e-05
12288.0,0.0001607290469110012
13312.0,-0.00013776752166450024
14336.0,-3.976550215156749e-05
end
