version,3.0
numOfCh,1
type,point
parent_name,200-cuts
ch_type,1_1
kcount,1
numberNandB,1
brightnessNandB,1
carpet pos,0
pc,0
Time (ms),CH1 Auto-Correlation
1.0,0.0157605092972517
2.0,0.012750586494803429
3.0,0.010663134045898914
4.0,0.00903325341641903
5.0,0.007763551082462072
6.0,0.006772629916667938
7.0,0.006017083767801523
8.0,0.005475216545164585
9.0,0.004904960282146931
10.0,0.004404417239129543
11.0,0.0039332653395831585
12.0,0.0035197611432522535
13.0,0.003174558049067855
14.0,0.002783426083624363
15.0,0.002440490759909153
16.0,0.0021155078429728746
18.0,0.001493149669840932
20.0,0.001055072876624763
22.0,0.0008023299160413444
24.0,0.0006531943799927831
26.0,0.0005888439482077956
28.0,0.0006585375522263348
30.0,0.0006457435083575547
32.0,0.0005183718749321997
36.0,0.00018644824740476906
40.0,0.0001789496891433373
44.0,0.00022789101058151573
48.0,0.00027156207943335176
52.0,0.00034506447263993323
56.0,0.0003043777833227068
60.0,0.00015193453873507679
64.0,0.00023613663506694138
72.0,7.520680082961917e-05
80.0,0.0001688162301434204
88.0,0.00021382997510954738
96.0,0.00010760262375697494
104.0,-3.162705252179876e-05
112.0,-9.37222721404396e-05
120.0,-4.769754013977945e-05
128.0,-0.00023274641716852784
144.0,-0.0002130956418113783
160.0,-0.00025641225511208177
176.0,-0.00019516420434229076
192.0,0.00022053776774555445
208.0,0.00016147892165463418
224.0,3.8588608731515706e-05
240.0,6.963026680750772e-05
256.0,0.00016504873929079622
288.0,-5.675571446772665e-05
320.0,2.7427042368799448e-05
352.0,7.14393172529526e-05
384.0,-0.00018510624067857862
416.0,0.0001548683358123526
448.0,0.0005067433230578899
480.0,-5.076317029306665e-05
512.0,9.343700367026031e-05
576.0,-0.0002593708341009915
640.0,5.659469934471417e-06
704.0,-0.00017937996017280966
768.0,-4.580878339766059e-06
832.0,-9.448818309465423e-05
896.0,-0.00024583106278441846
960.0,-4.537903078016825e-05
1024.0,-6.515220593428239e-05
1152.0,-3.9729504351271316e-05
1280.0,-0.0003514491254463792
1408.0,-0.0002776167239062488
1536.0,-0.00011848308349726722
1664.0,-0.00021972304966766387
1792.0,9.710814629215747e-05
1920.0,4.5743050577584654e-05
2048.0,-9.517651778878644e-05
2304.0,9.615710951038636e-06
2560.0,8.970683848019689e-05
2816.0,0.00016739712737035006
3072.0,-1.5867693946347572e-05
3328.0,9.924911864800379e-05
3584.0,-0.00010231743362965062
3840.0,0.0001957262575160712
4096.0,-0.00017625703185331076
4608.0,-5.924204378970899e-05
5120.0,1.2801544471585657e-05
5632.0,0.0001958958018803969
6144.0,-7.459465996362269e-05
6656.0,-0.00011069695028709248
7168.0,2.2146703486214392e-05
7680.0,5.705548755940981e-05
8192.0,-8.574025559937581e-05
9216.0,0.00018627842655405402
10240.0,-8.166575571522117e-05
11264.0,-0.00015197283937595785
12288.0,0.0002780649228952825
13312.0,-0.00015891539806034416
14336.0,-1.4070491488382686e-05
end
