version,3.0
numOfCh,1
type,point
parent_name,200-cuts
ch_type,1_1
kcount,1
numberNandB,1
brightnessNandB,1
carpet pos,0
pc,0
Time (ms),CH1 Auto-Correlation
1.0,0.015539956279098988
2.0,0.012604279443621635
3.0,0.010516506619751453
4.0,0.008960462175309658
5.0,0.007814045064151287
6.0,0.006793129723519087
7.0,0.006032867822796106
8.0,0.005429916549474001
9.0,0.0047913650050759315
10.0,0.004417054820805788
11.0,0.0040222774259746075
12.0,0.003659866750240326
13.0,0.0033302665688097477
14.0,0.003027862636372447
15.0,0.0028002632316201925
16.0,0.0025754831731319427
18.0,0.0021831602789461613
20.0,0.001819771365262568
22.0,0.0016392298275604844
24.0,0.0015774932689964771
26.0,0.0014871836174279451
28.0,0.0014963711146265268
30.0,0.0013957018963992596
32.0,0.0013725906610488892
36.0,0.0009724689298309386
40.0,0.0008842517854645848
44.0,0.0006126085063442588
48.0,0.0003255524788983166
52.0,8.610777877038345e-05
56.0,-0.00018583489872980863
60.0,-0.0003350596234668046
64.0,-0.0003852007503155619
72.0,-0.0002623718755785376
80.0,-1.5485524272662587e-05
88.0,4.188381353742443e-05
96.0,-0.00010051509161712602
104.0,-0.00010343351459596306
112.0,-0.0002954137453343719
120.0,-0.00033376269857399166
128.0,-0.0001250651548616588
144.0,-5.809193680761382e-05
160.0,-0.0002199710434069857
176.0,0.00021040519641246647
192.0,3.215056494809687e-05
208.0,0.0004484587407205254
224.0,0.000506326206959784
240.0,0.0002966464380733669
256.0,0.00030028761830180883
288.0,-0.00010090027353726327
320.0,-0.00014120580453891307
352.0,-0.00029621756402775645
384.0,-2.8868538720416836e-05
416.0,0.00039958179695531726
448.0,0.00012446481559891254
480.0,0.00038564091664738953
512.0,-8.713964052731171e-05
576.0,-0.0004778142611030489
640.0,-1.681987487245351e-05
704.0,-3.458339779172093e-05
768.0,-0.0005514806252904236
832.0,9.037538006850809e-07
896.0,-0.00016464345389977098
960.0,-0.00021420491975732148
1024.0,-0.00028041083714924753
1152.0,7.821693543519359e-06
1280.0,-0.00016763129679020494
1408.0,8.380079088965431e-05
1536.0,0.00016436395526397973
1664.0,0.0003035056870430708
1792.0,4.6761146222706884e-05
1920.0,-0.0002222247567260638
2048.0,0.0005213043186813593
2304.0,-0.00015428030746988952
2560.0,-0.00017437107453588396
2816.0,-0.00016004905046429485
3072.0,0.00021514768013730645
3328.0,-8.301619345729705e-06
3584.0,3.6685800296254456e-05
3840.0,0.00024604389909654856
4096.0,-0.0001849075051723048
4608.0,-0.00010432451381348073
5120.0,0.0002573826350271702
5632.0,-2.7665026209433563e-05
6144.0,-0.00031671783654019237
6656.0,0.0001408495445502922
7168.0,-0.0001339208974968642
7680.0,-0.00025833278778009117
8192.0,-4.503832315094769e-05
9216.0,-0.00011882635590154678
10240.0,0.00010445806401548907
11264.0,-1.1172595804964658e-05
12288.0,-0.00014367944095283747
13312.0,0.0001878118491731584
14336.0,-0.0002748697006609291
end
