version,3.0
numOfCh,1
type,point
parent_name,200-cuts
ch_type,1_1
kcount,1
numberNandB,1
brightnessNandB,1
carpet pos,0
pc,0
Time (ms),CH1 Auto-Correlation
1.0,0.016938967630267143
2.0,0.013794940896332264
3.0,0.011669657193124294
4.0,0.010053514502942562
5.0,0.008812814950942993
6.0,0.007841531187295914
7.0,0.006970280781388283
8.0,0.006524645257741213
9.0,0.006069713272154331
10.0,0.005590617656707764
11.0,0.005210538394749165
12.0,0.004776721820235252
13.0,0.0043776985257864
14.0,0.004089338704943657
15.0,0.003771429415792227
16.0,0.003492156509310007
18.0,0.0030476790852844715
20.0,0.002727682702243328
22.0,0.0023808195255696774
24.0,0.002179100876674056
26.0,0.0021555416751652956
28.0,0.0020930685568600893
30.0,0.0020473634358495474
32.0,0.0019006287911906838
36.0,0.0017743309726938605
40.0,0.001438370905816555
44.0,0.0014144729357212782
48.0,0.0013644337886944413
52.0,0.0011389257851988077
56.0,0.0010265245800837874
60.0,0.0010103568201884627
64.0,0.0007779781008139253
72.0,0.0007872335845604539
80.0,0.0005802701343782246
88.0,0.0002633887925185263
96.0,0.0002549485652707517
104.0,0.000427698454586789
112.0,0.00033150133094750345
120.0,6.201925134519115e-05
128.0,0.00036087000626139343
144.0,0.0006155448500066996
160.0,-0.0003581215569283813
176.0,-0.0009344071731902659
192.0,-0.0007959730573929846
208.0,-0.0003246744454372674
224.0,-0.0001366734941257164
240.0,-5.364952448871918e-05
256.0,-0.0001296621048822999
288.0,-0.00042637751903384924
320.0,-0.00038786965887993574
352.0,-0.00027283086092211306
384.0,0.0005677859880961478
416.0,0.00027891210629604757
448.0,0.00033912682556547225
480.0,0.0004133197362534702
512.0,0.0004220279515720904
576.0,0.00013673385547008365
640.0,-0.00016811957175377756
704.0,-9.178681648336351e-05
768.0,-0.0004143087426200509
832.0,-4.6128629037411883e-05
896.0,0.0002461621770635247
960.0,0.00012094959674868733
1024.0,-0.0002391351736150682
1152.0,6.188938277773559e-05
1280.0,5.2787672757403925e-06
1408.0,-7.951086445245892e-05
1536.0,0.0003297377552371472
1664.0,0.0002815046755131334
1792.0,-0.00013152221799828112
1920.0,-0.0003498123260214925
2048.0,0.0002091712667606771
2304.0,-3.860086144413799e-05
2560.0,-6.274198676692322e-05
2816.0,-4.637894744519144e-05
3072.0,-0.00024185917573049664
3328.0,-0.0003210163558833301
3584.0,-0.0003364115837030113
3840.0,-9.080713061848655e-05
4096.0,2.3135267838370055e-05
4608.0,-2.7823207346955314e-05
5120.0,-7.754753460176289e-05
5632.0,1.8540273231337778e-05
6144.0,1.9739800336537883e-05
6656.0,-0.00032048425055108964
7168.0,9.590305126039311e-06
7680.0,0.00011818534403573722
8192.0,-0.00012220159987919033
9216.0,0.00025936527526937425
10240.0,0.00019535589672159404
11264.0,9.62780904956162e-05
12288.0,-5.820445585413836e-05
13312.0,-0.00041393976425752044
14336.0,-0.00020495355420280248
end
