version,3.0
numOfCh,1
type,point
parent_name,200-cuts
ch_type,1_1
kcount,1
numberNandB,1
brightnessNandB,1
carpet pos,0
pc,0
Time (ms),CH1 Auto-Correlation
1.0,0.02594883181154728
2.0,0.020987993106245995
3.0,0.017446542158722878
4.0,0.014872703701257706
5.0,0.012932777404785156
6.0,0.011358625255525112
7.0,0.010022573173046112
8.0,0.008862383663654327
9.0,0.007938394322991371
10.0,0.007054983172565699
11.0,0.006396545562893152
12.0,0.0058684819377958775
13.0,0.00530577776953578
14.0,0.005007514264434576
15.0,0.004626670852303505
16.0,0.00434162188321352
18.0,0.0037340261042118073
20.0,0.0033220408950001
22.0,0.003192832227796316
24.0,0.0029034693725407124
26.0,0.0026607895269989967
28.0,0.0025906204245984554
30.0,0.0022595010232180357
32.0,0.001987443072721362
36.0,0.0016596801578998566
40.0,0.001657419721595943
44.0,0.0008029634482227266
48.0,7.980267400853336e-05
52.0,1.9590895590226864e-06
56.0,0.0004322718014009297
60.0,0.0006996619049459696
64.0,0.0005762777291238308
72.0,-0.0001515640615252778
80.0,-0.00022284046281129122
88.0,0.00017270380340050906
96.0,-0.0002465874422341585
104.0,-0.0007111690938472748
112.0,-0.001102703157812357
120.0,-0.0007095354958437383
128.0,-0.00023966787557583302
144.0,-0.0008536275709047914
160.0,-7.782563625369221e-05
176.0,-0.00034034138661809266
192.0,0.0002853653277270496
208.0,0.0011873934417963028
224.0,0.0012605664087459445
240.0,0.0009395011002197862
256.0,0.0010692162904888391
288.0,0.0001662880677031353
320.0,-0.000894366588909179
352.0,-0.0004010810807812959
384.0,0.00024323216348420829
416.0,-6.661795487161726e-05
448.0,-0.00018746002751868218
480.0,4.4813081331085414e-05
512.0,0.00015469430945813656
576.0,-0.0008833868778310716
640.0,-0.00010566323908278719
704.0,-0.00024275372561533004
768.0,-0.00016367861826438457
832.0,0.0002879319654311985
896.0,0.00037965341471135616
960.0,-0.00022864682250656188
1024.0,0.00015133585839066654
1152.0,-2.3186927137430757e-05
1280.0,0.00037043154588900506
1408.0,-0.0011705092620104551
1536.0,0.00019176970818080008
1664.0,-0.0004828795790672302
1792.0,-0.00015381448611151427
1920.0,-2.9227052436908707e-05
2048.0,7.346551137743518e-05
2304.0,-2.1810179532621987e-05
2560.0,-0.0003007219056598842
2816.0,0.00037324309232644737
3072.0,0.0003007651539519429
3328.0,-8.706640801392496e-05
3584.0,0.00023909124138299376
3840.0,0.0002147027844330296
4096.0,8.391987648792565e-05
4608.0,-0.00013956514885649085
5120.0,-0.00028963744989596307
5632.0,-0.00015891394286882132
6144.0,0.00018544093472883105
6656.0,0.0002591187076177448
7168.0,-0.00011438954970799387
7680.0,-0.000248165859375149
8192.0,-0.00045831274474039674
9216.0,0.00019837349827867
10240.0,0.00021683094382751733
11264.0,-0.0003757095546461642
12288.0,-3.116418520221487e-05
13312.0,0.0006545077776536345
14336.0,-0.0004831950063817203
end
