version,3.0
numOfCh,1
type,point
parent_name,200-cuts
ch_type,1_1
kcount,1
numberNandB,1
brightnessNandB,1
carpet pos,0
pc,0
Time (ms),CH1 Auto-Correlation
1.0,0.01609153114259243
2.0,0.012917217798531055
3.0,0.01075486559420824
4.0,0.009315666742622852
5.0,0.00826697051525116
6.0,0.0073441374115645885
7.0,0.006560358218848705
8.0,0.0059197526425123215
9.0,0.005335384979844093
10.0,0.004797340836375952
11.0,0.004285415634512901
12.0,0.0039803930558264256
13.0,0.0036125448532402515
14.0,0.0033461449202150106
15.0,0.0031149531714618206
16.0,0.0028666662983596325
18.0,0.0024689948186278343
20.0,0.002009660005569458
22.0,0.0018226918764412403
24.0,0.0016195244388654828
26.0,0.0013950506690889597
28.0,0.001345129101537168
30.0,0.0011256840080022812
32.0,0.0008638966246508062
36.0,0.0006802738644182682
40.0,0.0005814980831928551
44.0,0.0005756255704909563
48.0,0.000518954882863909
52.0,0.0002970552886836231
56.0,0.00025841116439551115
60.0,0.00031392776872962713
64.0,0.00019378795695956796
72.0,-0.00017271515389438719
80.0,-0.0002451431646477431
88.0,-0.0005754463491030037
96.0,-0.0004272108490113169
104.0,-0.00044703687308356166
112.0,-0.00042433638009242713
120.0,-0.0001308933278778568
128.0,-0.0002824030234478414
144.0,-0.0003044681216124445
160.0,-0.0006934393895789981
176.0,-4.7510708100162446e-05
192.0,-0.00015238785999827087
208.0,-0.00034175231121480465
224.0,-0.0003356754023116082
240.0,-6.655851029790938e-05
256.0,0.00027293467428535223
288.0,0.00018019993149209768
320.0,0.00020932898041792214
352.0,-6.738665979355574e-05
384.0,0.000176489120349288
416.0,5.416567000793293e-05
448.0,0.0001434526639059186
480.0,-0.00040833817911334336
512.0,-8.825213444652036e-05
576.0,0.0002296091988682747
640.0,-0.00046781133278273046
704.0,-0.0005409879377111793
768.0,-0.00011849260044982657
832.0,6.094657146604732e-05
896.0,0.000547385192476213
960.0,0.00023373310978058726
1024.0,-0.000760994735173881
1152.0,0.00026302121113985777
1280.0,-8.141006401274353e-05
1408.0,0.0002135328104486689
1536.0,0.00036001630360260606
1664.0,0.0002028838061960414
1792.0,0.0003324505523778498
1920.0,-6.042883251211606e-05
2048.0,0.00013061932986602187
2304.0,-0.0001375624560751021
2560.0,-0.00020533695351332426
2816.0,0.00010193951311521232
3072.0,0.00014854143955744803
3328.0,4.796864595846273e-05
3584.0,3.803886647801846e-05
3840.0,-4.9890575610334054e-05
4096.0,-0.0002640595193952322
4608.0,3.4466716897441074e-05
5120.0,-8.049669850151986e-05
5632.0,-0.00019193062325939536
6144.0,7.613378329551779e-06
6656.0,-0.00016636184591334313
7168.0,-6.288789154496044e-05
7680.0,1.1581627404666506e-05
8192.0,7.092844498401973e-06
9216.0,8.055584476096556e-05
10240.0,6.607510294998065e-05
11264.0,-2.1128122170921415e-05
12288.0,-9.63490401773015e-06
13312.0,-5.918115220993059e-06
14336.0,-0.0001339292648481205
end
