version,3.0
numOfCh,1
type,point
parent_name,200-cuts
ch_type,1_1
kcount,1
numberNandB,1
brightnessNandB,1
carpet pos,0
pc,0
Time (ms),CH1 Auto-Correlation
1.0,0.016816318035125732
2.0,0.013786005787551403
3.0,0.011531781405210495
4.0,0.009765952825546265
5.0,0.008458750322461128
6.0,0.007501606829464436
7.0,0.006688959430903196
8.0,0.006054350640624762
9.0,0.005465126596391201
10.0,0.004951243754476309
11.0,0.004647381603717804
12.0,0.004329611547291279
13.0,0.004092433024197817
14.0,0.003966998308897018
15.0,0.003712405450642109
16.0,0.0034788616467267275
18.0,0.0030968638602644205
20.0,0.0027203517965972424
22.0,0.002431352622807026
24.0,0.0021703157108277082
26.0,0.001986728049814701
28.0,0.00170553766656667
30.0,0.0014564398443326354
32.0,0.0014043387491255999
36.0,0.0009947955841198564
40.0,0.0006507124635390937
44.0,0.00039885021396912634
48.0,0.00019984476966783404
52.0,0.0003131193807348609
56.0,0.00046305565047077835
60.0,0.0005386502598412335
64.0,0.0007013631402514875
72.0,0.00046080377069301903
80.0,0.00016717048129066825
88.0,-0.0002065608132397756
96.0,-0.00027237003087066114
104.0,-0.000186114979442209
112.0,-0.00045227911323308945
120.0,-8.811119187157601e-05
128.0,-0.00016252991918008775
144.0,0.00022400285524781793
160.0,7.133265899028629e-05
176.0,0.0005895576905459166
192.0,0.0004788171499967575
208.0,0.00013352047244552523
224.0,-0.00016058387700468302
240.0,-0.00027661758940666914
256.0,-0.00026057573268190026
288.0,0.0003980358596891165
320.0,0.000531317840795964
352.0,0.0004431821289472282
384.0,0.0004014583246316761
416.0,-0.0003369622863829136
448.0,0.00020500447135418653
480.0,0.0003809921909123659
512.0,0.00023869058350101113
576.0,1.1774567610700615e-05
640.0,-2.3511570361733902e-06
704.0,0.0003810945199802518
768.0,-0.00030292707378976047
832.0,-0.00025818130234256387
896.0,0.00024461167049594223
960.0,-0.0001113134712795727
1024.0,-0.000305027118884027
1152.0,-3.463362008915283e-05
1280.0,-2.3634074750589207e-05
1408.0,-0.00020561175188049674
1536.0,2.9691733288927935e-05
1664.0,1.864668956841342e-05
1792.0,-0.0006447108462452888
1920.0,-9.083006443688646e-05
2048.0,-2.89945619442733e-05
2304.0,-0.00023269918165169656
2560.0,-8.626948692835867e-05
2816.0,0.00023570666962768883
3072.0,9.849027264863253e-05
3328.0,-2.6484027330297977e-05
3584.0,0.0003450461954344064
3840.0,-4.839812754653394e-05
4096.0,0.00016628429875709116
4608.0,-0.00023293777485378087
5120.0,-0.00028908823151141405
5632.0,9.593825961928815e-05
6144.0,2.1745314882082312e-07
6656.0,-5.4788724810350686e-05
7168.0,0.00024390117323491722
7680.0,0.0001212783099617809
8192.0,-1.4043682313058525e-05
9216.0,-0.0001865409140009433
10240.0,-6.37758057564497e-05
11264.0,-2.6413592422613874e-05
12288.0,-0.0004749917716253549
13312.0,0.0005081912386231124
14336.0,-0.0001560077362228185
end
