version,3.0
numOfCh,1
type,point
parent_name,200-cuts
ch_type,1_1
kcount,1
numberNandB,1
brightnessNandB,1
carpet pos,0
pc,0
Time (ms),CH1 Auto-Correlation
1.0,0.01559278555214405
2.0,0.012701049447059631
3.0,0.010625612922012806
4.0,0.009117553941905499
5.0,0.007836305536329746
6.0,0.00680433539673686
7.0,0.005938761867582798
8.0,0.005296728573739529
9.0,0.004760561510920525
10.0,0.004325413145124912
11.0,0.0040367236360907555
12.0,0.0037813668604940176
13.0,0.0035603127907961607
14.0,0.003351174760609865
15.0,0.0029906320851296186
16.0,0.0026781789492815733
18.0,0.0022277862299233675
20.0,0.0017235816922038794
22.0,0.0012347837910056114
24.0,0.0011346678948029876
26.0,0.0010502297664061189
28.0,0.0009344774880446494
30.0,0.000882850494235754
32.0,0.0007930975407361984
36.0,0.0004305265611037612
40.0,0.0002655919815879315
44.0,0.0003486390633042902
48.0,0.00042070753988809884
52.0,0.0004435309092514217
56.0,0.0003932931285817176
60.0,0.00047638785326853395
64.0,0.00041773266275413334
72.0,7.08431180100888e-05
80.0,-0.00026587650063447654
88.0,-0.000109603934106417
96.0,-0.00011755897867260501
104.0,-0.0004919359926134348
112.0,-0.0005436945939436555
120.0,-6.639969069510698e-05
128.0,-9.827072790358216e-05
144.0,2.3369950213236734e-05
160.0,-0.00014987507893238217
176.0,-0.00018951475794892758
192.0,-9.076392598217353e-05
208.0,6.883866444695741e-05
224.0,-0.00020058748486917466
240.0,-0.000288771087070927
256.0,9.199676424032077e-05
288.0,0.0003083845949731767
320.0,2.9821529096807353e-05
352.0,-0.0003708404256030917
384.0,0.00015183479990810156
416.0,-0.000499642570503056
448.0,-0.00022117893968243152
480.0,5.6020166084636e-05
512.0,-0.00014713754353579134
576.0,0.0001773443364072591
640.0,0.0001340886956313625
704.0,0.00018594623543322086
768.0,6.762506382074207e-05
832.0,-0.0003401029098313302
896.0,-0.0005715235020034015
960.0,-0.0006374760414473712
1024.0,6.165724335005507e-05
1152.0,-6.656452455899853e-07
1280.0,-9.048524952959269e-05
1408.0,-0.00034202347160317004
1536.0,4.686078682425432e-05
1664.0,-0.00014688058581668884
1792.0,0.00023393085575662553
1920.0,3.345137884025462e-05
2048.0,-9.002543811220676e-05
2304.0,0.00031874305568635464
2560.0,-8.567129407310858e-05
2816.0,7.3150599746441e-06
3072.0,-0.00012500442971941084
3328.0,-7.857939635869116e-05
3584.0,3.1675692298449576e-05
3840.0,-8.69743507792009e-06
4096.0,1.894366323540453e-05
4608.0,9.736233914736658e-05
5120.0,-0.00024983365437947214
5632.0,-5.5426411563530564e-05
6144.0,0.00021665054373443127
6656.0,4.346015884948429e-06
7168.0,-0.00014386966358870268
7680.0,-0.00014478068624157459
8192.0,0.00023148894251789898
9216.0,-8.530209015589207e-05
10240.0,-1.047980913426727e-05
11264.0,3.250550798838958e-05
12288.0,-6.591551937162876e-05
13312.0,4.660903869080357e-05
14336.0,-1.7508777091279626e-05
end
