version,3.0
numOfCh,1
type,point
parent_name,200-cuts
ch_type,1_1
kcount,1
numberNandB,1
brightnessNandB,1
carpet pos,0
pc,0
Time (ms),CH1 Auto-Correlation
1.0,0.0252988301217556
2.0,0.02027703821659088
3.0,0.016823409125208855
4.0,0.014221402816474438
5.0,0.012191246263682842
6.0,0.01065638568252325
7.0,0.0095372274518013
8.0,0.008700805716216564
9.0,0.0077570965513587
10.0,0.006854637525975704
11.0,0.006090191192924976
12.0,0.005605520214885473
13.0,0.0051339552737772465
14.0,0.004677518270909786
15.0,0.004146866966038942
16.0,0.0038391482084989548
18.0,0.0032716074492782354
20.0,0.0030025094747543335
22.0,0.0026234379038214684
24.0,0.002367330715060234
26.0,0.002123258076608181
28.0,0.0016890877159312367
30.0,0.0013907121028751135
32.0,0.001178093603812158
36.0,0.0004973644390702248
40.0,0.00022323336452245712
44.0,1.4869668120809365e-05
48.0,-0.0003323313721921295
52.0,-0.0003138601023238152
56.0,-0.00029400867060758173
60.0,-0.00028012096299789846
64.0,-0.0005257204174995422
72.0,-9.478697029408067e-05
80.0,-0.00030964380130171776
88.0,-0.00030504330061376095
96.0,-0.0005609814543277025
104.0,-0.0006437943666242063
112.0,-0.000985058955848217
120.0,-0.0008392702438868582
128.0,-0.0002667540102265775
144.0,6.848720659036189e-05
160.0,-0.00013586341810878366
176.0,8.921910193748772e-05
192.0,-0.00020217908604536206
208.0,0.0004945724504068494
224.0,0.0006384446751326323
240.0,0.0004081006918568164
256.0,0.00011569677735678852
288.0,-0.0005072422791272402
320.0,0.00015795075159985572
352.0,-9.623716323403642e-05
384.0,0.00030964132747612894
416.0,-0.00021027108596172184
448.0,0.0007737302221357822
480.0,0.00038160718395374715
512.0,-3.5062344977632165e-05
576.0,-1.190876810142072e-05
640.0,0.0006111612310633063
704.0,-0.00025017347070388496
768.0,-2.3315034923143685e-05
832.0,0.0004916033940389752
896.0,0.0008086132584139705
960.0,-0.0003312996122986078
1024.0,0.00033192496630363166
1152.0,5.243363557383418e-05
1280.0,-3.7780966522404924e-05
1408.0,-1.6746864275773987e-05
1536.0,2.0887177015538327e-05
1664.0,-0.00012110401439713314
1792.0,5.0126942369388416e-05
1920.0,0.00018104638729710132
2048.0,-0.0005334755987860262
2304.0,0.0003254594630561769
2560.0,-0.00011576362885534763
2816.0,-5.102578870719299e-05
3072.0,-0.0002528770128265023
3328.0,0.0002680345205590129
3584.0,-9.69627799349837e-05
3840.0,-0.00024337682407349348
4096.0,-0.00010778676369227469
4608.0,-0.00010016511077992618
5120.0,-0.0001480767095927149
5632.0,7.866817759349942e-05
6144.0,-8.707742381375283e-05
6656.0,-3.087738775775506e-07
7168.0,-0.0001692836231086403
7680.0,1.6367284842999652e-06
8192.0,-4.596785583999008e-05
9216.0,0.00022389173682313412
10240.0,3.421583824092522e-05
11264.0,-0.00027604997740127146
12288.0,-0.0004015978192910552
13312.0,-0.00016962504014372826
14336.0,6.0462261899374425e-05
end
