version,3.0
numOfCh,1
type,point
parent_name,200-cuts
ch_type,1_1
kcount,1
numberNandB,1
brightnessNandB,1
carpet pos,0
pc,0
Time (ms),CH1 Auto-Correlation
1.0,0.015661340206861496
2.0,0.012703344225883484
3.0,0.010771652683615685
4.0,0.009364740923047066
5.0,0.0082465885207057
6.0,0.007278434466570616
7.0,0.0064021204598248005
8.0,0.005631917621940374
9.0,0.00506817689165473
10.0,0.0045895627699792385
11.0,0.0041095488704741
12.0,0.003676419844850898
13.0,0.003309182357043028
14.0,0.003138833912089467
15.0,0.0030185889918357134
16.0,0.0028474261052906513
18.0,0.002486230805516243
20.0,0.002399059012532234
22.0,0.0023358548060059547
24.0,0.002336672740057111
26.0,0.0020872873719781637
28.0,0.0018037949921563268
30.0,0.0016044783405959606
32.0,0.0014928332529962063
36.0,0.0011972386855632067
40.0,0.000716989568900317
44.0,0.00036736170295625925
48.0,0.0002725577214732766
52.0,2.5076191377593204e-05
56.0,-9.643581870477647e-05
60.0,-0.00011577698023756966
64.0,-0.0004164586425758898
72.0,-0.00016988211427815259
80.0,0.00021440768614411354
88.0,0.0003509433881845325
96.0,6.347675025608623e-06
104.0,-0.00037886647623963654
112.0,-0.0003308436134830117
120.0,-4.816622458747588e-05
128.0,-2.7868562028743327e-05
144.0,-0.00020426904666237533
160.0,-0.0004164662095718086
176.0,-0.0004360398161225021
192.0,-0.0007195367943495512
208.0,-0.00041140191024169326
224.0,-0.00011683547199936584
240.0,-0.00019354914547875524
256.0,-0.000485398544697091
288.0,-0.00021740890224464238
320.0,-0.00025887397350743413
352.0,9.602901991456747e-05
384.0,5.93016593484208e-05
416.0,0.000247796589974314
448.0,-0.00018522911705076694
480.0,-0.00016819420852698386
512.0,-0.0002789400750771165
576.0,-0.00014841485244687647
640.0,7.470719720004126e-05
704.0,-0.00034402936580590904
768.0,4.213258216623217e-05
832.0,-5.376065246309736e-07
896.0,0.00011488006566651165
960.0,-9.901685552904382e-05
1024.0,0.00015280915249604732
1152.0,-3.798375473706983e-05
1280.0,-4.434647416928783e-05
1408.0,-9.336432412965223e-05
1536.0,-3.868732164846733e-06
1664.0,-0.00016065480303950608
1792.0,0.00014021623064763844
1920.0,-7.138079672586173e-05
2048.0,-0.00010380255844211206
2304.0,-6.832912185927853e-05
2560.0,-4.4124270061729476e-05
2816.0,0.00013454211875796318
3072.0,0.0001713069068500772
3328.0,-0.00016414120909757912
3584.0,3.995233419118449e-05
3840.0,-5.549220077227801e-05
4096.0,-1.3716610737901647e-05
4608.0,-4.460672789718956e-05
5120.0,5.512899224413559e-05
5632.0,-4.304887988837436e-05
6144.0,7.199191895779222e-05
6656.0,0.00010835882858373225
7168.0,-0.00015434561646543443
7680.0,-3.298202500445768e-05
8192.0,-7.349636871367693e-05
9216.0,8.805010111245792e-06
10240.0,-5.241041799308732e-05
11264.0,1.157568385679042e-05
12288.0,1.3503672562364955e-05
13312.0,-0.0002449045714456588
14336.0,0.00012928806245326996
end
