version,3.0
numOfCh,1
type,point
parent_name,200-cuts
ch_type,1_1
kcount,1
numberNandB,1
brightnessNandB,1
carpet pos,0
pc,0
Time (ms),CH1 Auto-Correlation
1.0,0.01532751601189375
2.0,0.01230122335255146
3.0,0.010290700010955334
4.0,0.008807210251688957
5.0,0.007694846484810114
6.0,0.006758145987987518
7.0,0.005960672628134489
8.0,0.005395412910729647
9.0,0.004803880583494902
10.0,0.004210886545479298
11.0,0.0036633010022342205
12.0,0.00327476323582232
13.0,0.00298523623496294
14.0,0.002790209837257862
15.0,0.0025852529797703028
16.0,0.0025130859576165676
18.0,0.0022473433054983616
20.0,0.0018536618445068598
22.0,0.0015486445045098662
24.0,0.001427012262865901
26.0,0.0013717225519940257
28.0,0.0011522597633302212
30.0,0.0009195519960485399
32.0,0.0007140842499211431
36.0,0.0005362737574614584
40.0,0.0003035601112060249
44.0,0.00017130091146100312
48.0,0.0001267490442842245
52.0,0.0002399282529950142
56.0,0.0003672546590678394
60.0,0.0004998525255359709
64.0,0.0004498444322962314
72.0,0.00023063289700075984
80.0,0.0003199154161848128
88.0,0.00024088213103823364
96.0,0.0004126878920942545
104.0,0.000505656935274601
112.0,0.00025186524726450443
120.0,0.000311436626361683
128.0,0.00012492849782574922
144.0,0.00011836371413664892
160.0,5.2349168981891125e-05
176.0,0.00018309312872588634
192.0,7.366044883383438e-05
208.0,0.00020368181867524981
224.0,0.00018938285938929766
240.0,9.8735727078747e-05
256.0,-2.6048845029436052e-05
288.0,-0.0003121203335467726
320.0,9.523337939754128e-05
352.0,0.00022308257757686079
384.0,0.00016422038606833667
416.0,8.017326035769656e-05
448.0,-0.0004686601459980011
480.0,-1.7873886463348754e-05
512.0,-0.00016569404397159815
576.0,-0.00023767839593347162
640.0,9.852751099970192e-05
704.0,7.432369602611288e-05
768.0,-0.00021884303714614362
832.0,0.0005823379033245146
896.0,-1.9228971723350696e-05
960.0,0.00027061853324994445
1024.0,0.0006146423402242362
1152.0,0.0002137834526365623
1280.0,8.190542575903237e-05
1408.0,-0.00031999926432035863
1536.0,-0.00019651901675388217
1664.0,4.017997343908064e-05
1792.0,-0.00012378915562294424
1920.0,0.00028898767777718604
2048.0,0.00022138326312415302
2304.0,3.5495155316311866e-05
2560.0,-0.0001278783311136067
2816.0,-6.0393864259822294e-05
3072.0,0.00013963169476483017
3328.0,-5.438477819552645e-05
3584.0,-0.00028923951322212815
3840.0,-2.3489357772632502e-05
4096.0,6.008235504850745e-05
4608.0,-0.00011975551024079323
5120.0,4.707760308519937e-05
5632.0,-0.00018986720533575863
6144.0,0.00013471441343426704
6656.0,-0.00019565856200642884
7168.0,0.00015998461458366364
7680.0,-4.3474814447108656e-05
8192.0,-1.1538242688402534e-05
9216.0,0.0001603670825716108
10240.0,0.0002518275287002325
11264.0,-0.00012746579886879772
12288.0,-0.00035690199001692235
13312.0,-0.0004926347173750401
14336.0,-0.000603033637162298
end
