version,3.0
numOfCh,1
type,point
parent_name,200-cuts
ch_type,1_1
kcount,1
numberNandB,1
brightnessNandB,1
carpet pos,0
pc,0
Time (ms),CH1 Auto-Correlation
1.0,0.015407565981149673
2.0,0.012201974168419838
3.0,0.00988082867115736
4.0,0.008267227560281754
5.0,0.007015759591013193
6.0,0.00603171531111002
7.0,0.00535251758992672
8.0,0.004831132013350725
9.0,0.0043668062426149845
10.0,0.004023339133709669
11.0,0.0037594197783619165
12.0,0.0034748699981719255
13.0,0.003121576039120555
14.0,0.0027409319300204515
15.0,0.0023705263156443834
16.0,0.0020445564296096563
18.0,0.0015898956917226315
20.0,0.0013178520603105426
22.0,0.001274367794394493
24.0,0.0012862291187047958
26.0,0.001109446631744504
28.0,0.0011378059862181544
30.0,0.001179759856313467
32.0,0.001075647072866559
36.0,0.0011411859886720777
40.0,0.0010440535843372345
44.0,0.0005505659501068294
48.0,0.000285450805677101
52.0,7.828818343114108e-05
56.0,-0.0002637558791320771
60.0,-8.616902778157964e-05
64.0,0.00023197618429549038
72.0,0.00030618178425356746
80.0,8.981064456747845e-05
88.0,-0.0001643747673369944
96.0,-3.370089325471781e-05
104.0,8.371376316063106e-05
112.0,-1.613325184735004e-05
120.0,-8.37194747873582e-05
128.0,-5.551318827201612e-05
144.0,0.0002849518205039203
160.0,-0.00023382004292216152
176.0,-3.634194581536576e-05
192.0,0.0006516454159282148
208.0,6.974128336878493e-05
224.0,0.00010332760575693101
240.0,-5.72504177398514e-05
256.0,5.0637248932616785e-05
288.0,0.0001322153548244387
320.0,0.00044097358477301896
352.0,0.0001750698866089806
384.0,-0.00016304204473271966
416.0,-0.000546079536434263
448.0,-0.00031867114012129605
480.0,-3.903423566953279e-05
512.0,1.1463854207249824e-05
576.0,-0.00041484253597445786
640.0,-7.997801731107756e-06
704.0,0.00015989401435945183
768.0,-2.1903728338656947e-05
832.0,0.00011127586185466498
896.0,8.229406375903636e-05
960.0,0.0003413188678678125
1024.0,0.0005047382437624037
1152.0,0.00032737365108914673
1280.0,7.740753790130839e-05
1408.0,-0.00042900408152490854
1536.0,-0.00018553600239101797
1664.0,-5.974123268970288e-05
1792.0,-4.739071755466284e-06
1920.0,0.00034935420262627304
2048.0,9.455841791350394e-05
2304.0,-0.00011521780106704682
2560.0,-0.00036797969369217753
2816.0,0.00027089135255664587
3072.0,0.0001521991507615894
3328.0,-0.00019741391588468105
3584.0,-0.00021972715330775827
3840.0,0.00012005673488602042
4096.0,0.00022130299475975335
4608.0,-5.111388600198552e-05
5120.0,-0.00020272613619454205
5632.0,6.280628440435976e-05
6144.0,-0.0001729424111545086
6656.0,7.317803465411998e-06
7168.0,-0.00011485508730402216
7680.0,-0.00011219931184314191
8192.0,-0.00013110259897075593
9216.0,8.07891774456948e-05
10240.0,0.00023183890152722597
11264.0,9.931847307598218e-05
12288.0,-8.60158761497587e-05
13312.0,-6.049394505680539e-05
14336.0,1.4554831068380736e-05
end
