version,3.0
numOfCh,1
type,point
parent_name,200-cuts
ch_type,1_1
kcount,1
numberNandB,1
brightnessNandB,1
carpet pos,0
pc,0
Time (ms),CH1 Auto-Correlation
1.0,0.015594853088259697
2.0,0.01266908273100853
3.0,0.01059003546833992
4.0,0.009008235298097134
5.0,0.007763130124658346
6.0,0.0068830037489533424
7.0,0.006121823564171791
8.0,0.005543163511902094
9.0,0.005042990669608116
10.0,0.0046763308346271515
11.0,0.0043264515697956085
12.0,0.003960795234888792
13.0,0.003640900831669569
14.0,0.0032167125027626753
15.0,0.0028493443969637156
16.0,0.002573554404079914
18.0,0.002291300566866994
20.0,0.0020261441823095083
22.0,0.0019107292173430324
24.0,0.0016478608595207334
26.0,0.0013966405531391501
28.0,0.0012593544088304043
30.0,0.0012338219676166773
32.0,0.001162096974439919
36.0,0.0009961382020264864
40.0,0.0010516252368688583
44.0,0.0009400350390933454
48.0,0.0007339096628129482
52.0,0.00045061702257953584
56.0,3.477841892163269e-05
60.0,-0.000163135991897434
64.0,1.5115273527044337e-05
72.0,9.918919386109337e-05
80.0,0.00015231450379360467
88.0,-5.1494353101588786e-05
96.0,-6.508388469228521e-05
104.0,-0.00018468550115358084
112.0,-0.0001802344195311889
120.0,-0.0004295337712392211
128.0,-0.00029069444281049073
144.0,-0.0005428591393865645
160.0,-0.0006058967555873096
176.0,-0.0003130167897325009
192.0,-0.0003925913479179144
208.0,0.0002722929639276117
224.0,0.00013298149860929698
240.0,-9.943173790816218e-05
256.0,-0.00014813507732469589
288.0,2.8783690140699036e-05
320.0,0.0003966428339481354
352.0,0.0002265794319100678
384.0,-0.0008692111587151885
416.0,-0.0002489185135345906
448.0,0.0003584876540116966
480.0,0.000113410729682073
512.0,-2.0295959984650835e-05
576.0,0.00019643937412183732
640.0,0.0002656404103618115
704.0,0.00011066518345614895
768.0,-0.00029684073524549603
832.0,-0.00042020168621093035
896.0,-6.577455496881157e-05
960.0,-0.00020946082076989114
1024.0,-0.00040031448588706553
1152.0,0.0002862381807062775
1280.0,-0.00010417908197268844
1408.0,-7.356233982136473e-05
1536.0,0.00015243257803376764
1664.0,0.00015361719124484807
1792.0,0.00031389607465825975
1920.0,-2.1313229808583856e-05
2048.0,-0.0002853484475053847
2304.0,-0.000172418964211829
2560.0,-0.00011732749408110976
2816.0,-6.797099194955081e-05
3072.0,-0.00010140762606170028
3328.0,-2.300622691109311e-05
3584.0,2.6222858650726266e-05
3840.0,2.174570909119211e-05
4096.0,0.00011674822599161416
4608.0,-0.00010820985335158184
5120.0,3.922623363905586e-05
5632.0,7.066570105962455e-05
6144.0,-6.469352229032665e-05
6656.0,0.00014749537513125688
7168.0,-2.528826917114202e-05
7680.0,-0.0001790016540326178
8192.0,0.00011676504072966054
9216.0,-4.932510637445375e-05
10240.0,-0.00010434381692903116
11264.0,-0.00013265768939163536
12288.0,0.0002985180472023785
13312.0,0.0003356031666044146
14336.0,-0.00021669952548108995
end
