version,3.0
numOfCh,1
type,point
parent_name,200-cuts
ch_type,1_1
kcount,1
numberNandB,1
brightnessNandB,1
carpet pos,0
pc,0
Time (ms),CH1 Auto-Correlation
1.0,0.016114328056573868
2.0,0.012996741570532322
3.0,0.010698611848056316
4.0,0.009028838947415352
5.0,0.007787162903696299
6.0,0.006872765254229307
7.0,0.006287008058279753
8.0,0.00568566657602787
9.0,0.005173103883862495
10.0,0.0047147502191364765
11.0,0.004338703118264675
12.0,0.004024198278784752
13.0,0.0036646800581365824
14.0,0.003339243121445179
15.0,0.0030065758619457483
16.0,0.0027125512715429068
18.0,0.0022230111062526703
20.0,0.001949113211594522
22.0,0.0017907412257045507
24.0,0.0015730946324765682
26.0,0.0013637541560456157
28.0,0.0013412421103566885
30.0,0.0010741883888840675
32.0,0.000747822574339807
36.0,0.0003187948605045676
40.0,0.000395796203520149
44.0,0.0006512004183605313
48.0,0.0007141306414268911
52.0,0.0008199803996831179
56.0,0.0006943967891857028
60.0,0.00021654547890648246
64.0,-2.5610363081796095e-05
72.0,0.00010148285946343094
80.0,0.0005362862139008939
88.0,0.0004949815338477492
96.0,3.749860843527131e-05
104.0,-0.0003675701154861599
112.0,-0.0002602202002890408
120.0,-0.0004305729235056788
128.0,-0.00010494954767636955
144.0,0.0002898753446061164
160.0,9.984818461816758e-05
176.0,-0.0003198336926288903
192.0,0.00016432837583124638
208.0,-0.0001412046403856948
224.0,-8.823360258247703e-05
240.0,-0.0005589398206211627
256.0,-0.00011042966798413545
288.0,0.00010397053847555071
320.0,-0.00015098262520041317
352.0,-0.00030287099070847034
384.0,0.00021409500914160162
416.0,-2.1903140805079602e-05
448.0,-0.00020991942437831312
480.0,-0.00026829956914298236
512.0,-2.724507567108958e-06
576.0,0.00020393331942614168
640.0,4.6703764382982627e-05
704.0,2.1798052330268547e-05
768.0,0.00016891294217202812
832.0,-3.105039650108665e-05
896.0,-0.00013371070963330567
960.0,3.3497755794087425e-05
1024.0,-0.00011756917956518009
1152.0,-0.00016479118494316936
1280.0,-0.0002409538283245638
1408.0,0.00024793954798951745
1536.0,0.00044221989810466766
1664.0,-0.00012113469711039215
1792.0,0.00016202186816371977
1920.0,-0.0002458944218233228
2048.0,-7.802661457390059e-06
2304.0,0.0001179961473098956
2560.0,4.252403959981166e-05
2816.0,-0.0001977509236894548
3072.0,0.0002781675138976425
3328.0,-0.00018263548554386944
3584.0,-0.00014478430966846645
3840.0,-1.5121454453037586e-05
4096.0,-8.982751023722813e-05
4608.0,3.654863030533306e-05
5120.0,-0.00010239549010293558
5632.0,-2.3876929844846018e-05
6144.0,0.00025302369613200426
6656.0,-1.396275547449477e-05
7168.0,-0.00020451113232411444
7680.0,0.00014377347542904317
8192.0,2.4801192921586335e-05
9216.0,0.00018983875634148717
10240.0,-0.00033439561957493424
11264.0,-0.00015273975441232324
12288.0,0.00018222801736555994
13312.0,-0.0003738967643585056
14336.0,0.0004227065364830196
end
