version,3.0
numOfCh,1
type,point
parent_name,200-cuts
ch_type,1_1
kcount,1
numberNandB,1
brightnessNandB,1
carpet pos,0
pc,0
Time (ms),CH1 Auto-Correlation
1.0,0.015557962469756603
2.0,0.012581625953316689
3.0,0.010522291995584965
4.0,0.00905063096433878
5.0,0.00782527681440115
6.0,0.006979603786021471
7.0,0.0062854234129190445
8.0,0.00567927211523056
9.0,0.005053267814218998
10.0,0.0045417300425469875
11.0,0.004088271409273148
12.0,0.0037833135575056076
13.0,0.0034540581982582808
14.0,0.0032863463275134563
15.0,0.003026999533176422
16.0,0.0028368039056658745
18.0,0.0023819152265787125
20.0,0.0021849859040230513
22.0,0.0018676742911338806
24.0,0.0015437182737514377
26.0,0.001295507769100368
28.0,0.0011339428601786494
30.0,0.0009633979061618447
32.0,0.0008063801215030253
36.0,0.0006408914341591299
40.0,0.00032811687560752034
44.0,9.284555562771857e-05
48.0,-6.216327892616391e-05
52.0,-5.603925819741562e-05
56.0,0.0001602712000021711
60.0,2.2592350433114916e-05
64.0,-4.1410105040995404e-05
72.0,0.00010553662286838517
80.0,-0.00014047822332940996
88.0,0.00015347888984251767
96.0,0.000283992470940575
104.0,-5.198494909564033e-05
112.0,-0.0006072905380278826
120.0,-0.0001642013667151332
128.0,0.00021168042439967394
144.0,0.0005172863020561635
160.0,0.00048562706797383726
176.0,0.00042958155972883105
192.0,4.02949126510066e-06
208.0,6.005668547004461e-05
224.0,0.00014623939932789654
240.0,0.0001232125941896811
256.0,0.0004572712059598416
288.0,9.57810552790761e-05
320.0,-3.066327917622402e-05
352.0,-0.00041348597733303905
384.0,-0.00020817798213101923
416.0,-0.0005485509755089879
448.0,-0.0006077433936297894
480.0,-0.0006021035951562226
512.0,-1.77321198862046e-05
576.0,-0.0001589304010849446
640.0,-0.0004244930751156062
704.0,0.0002983260783366859
768.0,0.00036530158831737936
832.0,9.635342576075345e-05
896.0,-0.0001574066700413823
960.0,-4.2911258788080886e-05
1024.0,-3.309416933916509e-05
1152.0,-0.0004057711048517376
1280.0,0.00012374011566862464
1408.0,5.420889283413999e-05
1536.0,0.000231322439503856
1664.0,-4.2610405216692016e-05
1792.0,0.0001059937130776234
1920.0,-4.509880454861559e-05
2048.0,-0.0001757298450684175
2304.0,-0.0002034129574894905
2560.0,5.220475941314362e-05
2816.0,6.291967292781919e-05
3072.0,-0.00035529068554751575
3328.0,8.085814624791965e-05
3584.0,9.167770622298121e-05
3840.0,1.9312081349198706e-05
4096.0,-5.630914893117733e-05
4608.0,-5.3794334235135466e-05
5120.0,-1.5654559319955297e-05
5632.0,0.00013694024528376758
6144.0,0.00014900247333571315
6656.0,-6.760191172361374e-05
7168.0,1.9671850168379024e-05
7680.0,-3.306930375401862e-05
8192.0,-0.0001576687500346452
9216.0,-0.00010069169366033748
10240.0,-5.2585302910301834e-05
11264.0,9.596495510777459e-05
12288.0,0.0001672129874350503
13312.0,-0.00023003091337159276
14336.0,-0.0002800687507260591
end
