version,3.0
numOfCh,1
type,point
parent_name,200-cuts
ch_type,1_1
kcount,1
numberNandB,1
brightnessNandB,1
carpet pos,0
pc,0
Time (ms),CH1 Auto-Correlation
1.0,0.016639001667499542
2.0,0.013571790419518948
3.0,0.011316611431539059
4.0,0.00961463525891304
5.0,0.008269461803138256
6.0,0.007140963338315487
7.0,0.006249390542507172
8.0,0.005464770831167698
9.0,0.0048511698842048645
10.0,0.0044265189208090305
11.0,0.0040616788901388645
12.0,0.003691048827022314
13.0,0.0034236744977533817
14.0,0.0031072034034878016
15.0,0.002785933669656515
16.0,0.002534299623221159
18.0,0.0021809209138154984
20.0,0.0019105764804407954
22.0,0.0016996553167700768
24.0,0.001503686886280775
26.0,0.0014507342129945755
28.0,0.0014389738207682967
30.0,0.0012750320602208376
32.0,0.0010151821188628674
36.0,0.0006731716566719115
40.0,0.0004654510412365198
44.0,0.0005394292529672384
48.0,0.0004403787897899747
52.0,0.0002512592473067343
56.0,-6.245150871109217e-05
60.0,-0.00015416790847666562
64.0,3.3887947211042047e-05
72.0,0.0001149410309153609
80.0,-1.2152158888056874e-05
88.0,5.562798833125271e-05
96.0,0.00030561117455363274
104.0,0.00021942103921901435
112.0,0.00035761683830060065
120.0,3.634358290582895e-05
128.0,8.44131936901249e-05
144.0,0.0002800818474497646
160.0,0.000212041093618609
176.0,-0.00025591140729375184
192.0,-0.00022814150725025684
208.0,0.00024393801868427545
224.0,0.0006149010150693357
240.0,0.0006099853781051934
256.0,0.00017695719725452363
288.0,-6.81848032400012e-05
320.0,-0.00013735155516769737
352.0,0.00011295738659100607
384.0,0.0006278492510318756
416.0,0.00045855811913497746
448.0,0.00015351170441135764
480.0,-0.00011669688683468848
512.0,-0.0001250480709131807
576.0,-0.00010662446584319696
640.0,0.0002862404508050531
704.0,0.00017392476729582995
768.0,-0.00014030827151145786
832.0,-0.00012540779425762594
896.0,-0.000478966161608696
960.0,-0.0002059625694528222
1024.0,0.00032085648854263127
1152.0,0.000507726042997092
1280.0,-0.0002517228131182492
1408.0,6.006105832057074e-05
1536.0,0.0004426217346917838
1664.0,-0.00028873176779598
1792.0,0.00018404235015623271
1920.0,-0.0003786954330280423
2048.0,-0.00022847372747492045
2304.0,-0.00012345331197138876
2560.0,0.0001479742059018463
2816.0,3.489127630018629e-05
3072.0,6.344052962958813e-05
3328.0,-7.688410551054403e-05
3584.0,2.584737740107812e-05
3840.0,0.00012047123163938522
4096.0,-4.952538074576296e-05
4608.0,4.5764150854665786e-05
5120.0,0.00028274787473492324
5632.0,-9.074333502212539e-05
6144.0,-0.0001015291636576876
6656.0,1.3081164979666937e-05
7168.0,-0.00010641993139870465
7680.0,-5.186563066672534e-05
8192.0,-8.800358773441985e-05
9216.0,-0.0001401930785505101
10240.0,-4.538129724096507e-05
11264.0,-4.279321001376957e-05
12288.0,-4.1143513954011723e-05
13312.0,-0.0004563700931612402
14336.0,-9.310126188211143e-05
end
