version,3.0
numOfCh,1
type,point
parent_name,200-cuts
ch_type,1_1
kcount,1
numberNandB,1
brightnessNandB,1
carpet pos,0
pc,0
Time (ms),CH1 Auto-Correlation
1.0,0.026093432679772377
2.0,0.021095987409353256
3.0,0.017699819058179855
4.0,0.015305526554584503
5.0,0.013401107862591743
6.0,0.011880391277372837
7.0,0.010602189227938652
8.0,0.009543013758957386
9.0,0.008525566197931767
10.0,0.007761949673295021
11.0,0.007231197785586119
12.0,0.006619875319302082
13.0,0.005992676597088575
14.0,0.005547393579035997
15.0,0.005175397265702486
16.0,0.004742281977087259
18.0,0.003888672450557351
20.0,0.0029308837838470936
22.0,0.0021274511236697435
24.0,0.001955637475475669
26.0,0.0018212356371805072
28.0,0.0015902029117569327
30.0,0.0013971704756841063
32.0,0.0012704170076176524
36.0,0.0009345874423161149
40.0,0.0008296085870824754
44.0,0.0004897213075309992
48.0,0.00031320471316576004
52.0,0.0005173558602109551
56.0,0.0005247390945442021
60.0,0.0005131857469677925
64.0,0.00034981724456883967
72.0,-6.954777200007811e-05
80.0,-0.0004966456908732653
88.0,-0.0002281198976561427
96.0,-3.150232441839762e-05
104.0,0.000525643234141171
112.0,0.0004265349416527897
120.0,0.0002866167633328587
128.0,0.0006504557095468044
144.0,0.0009686910780146718
160.0,0.0002952901413664222
176.0,-0.0005518359830603004
192.0,-0.0007160243112593889
208.0,-0.0008120129932649434
224.0,0.0005942682037129998
240.0,0.0007173914927989244
256.0,0.0006516554858535528
288.0,8.388666901737452e-05
320.0,4.2992094677174464e-05
352.0,-0.0004744057368952781
384.0,-0.0008722922648303211
416.0,-2.502706956875045e-05
448.0,5.318600597092882e-05
480.0,0.0001526841806480661
512.0,0.00012311538739595562
576.0,0.0004013452271465212
640.0,0.0003019776486326009
704.0,0.0006581585621461272
768.0,0.00037791626527905464
832.0,9.325133578386158e-05
896.0,-0.000534383172634989
960.0,-0.0005084087606519461
1024.0,6.74320399411954e-05
1152.0,0.00028212176403030753
1280.0,0.00039574303082190454
1408.0,0.0003957422450184822
1536.0,4.210539373161737e-06
1664.0,-0.0002996983821503818
1792.0,0.0010213665664196014
1920.0,-0.0006727593718096614
2048.0,0.0005786872934550047
2304.0,-0.00011682497279252857
2560.0,-0.0003771812189370394
2816.0,-0.00026959035312756896
3072.0,-0.0001323182077612728
3328.0,-0.0003372192441020161
3584.0,-3.641392322606407e-05
3840.0,1.932829945872072e-05
4096.0,-0.0005378988571465015
4608.0,-0.00030101105221547186
5120.0,5.507828245754354e-05
5632.0,-2.731850509007927e-05
6144.0,-0.00012350686301942915
6656.0,0.0004630744515452534
7168.0,0.00037643741234205663
7680.0,-2.0654482796089724e-05
8192.0,0.00011744158109650016
9216.0,-1.0557339919614606e-05
10240.0,8.104906009975821e-05
11264.0,-0.0005405977135524154
12288.0,-0.00041940691880881786
13312.0,-0.00011456831271061674
14336.0,-0.0008001525420695543
end
