version,3.0
numOfCh,1
type,point
parent_name,200-cuts
ch_type,1_1
kcount,1
numberNandB,1
brightnessNandB,1
carpet pos,0
pc,0
Time (ms),CH1 Auto-Correlation
1.0,0.017123878002166748
2.0,0.014021848328411579
3.0,0.011728798970580101
4.0,0.010081445798277855
5.0,0.008763249032199383
6.0,0.007829884998500347
7.0,0.007072374690324068
8.0,0.006469754036515951
9.0,0.0058667296543717384
10.0,0.005390650127083063
11.0,0.004759854171425104
12.0,0.004337688907980919
13.0,0.003986287862062454
14.0,0.003739941632375121
15.0,0.003405484836548567
16.0,0.0030935497488826513
18.0,0.0026593597140163183
20.0,0.002202840056270361
22.0,0.0020991095807403326
24.0,0.0020113473292440176
26.0,0.0017427175771445036
28.0,0.001562058343552053
30.0,0.0014481176622211933
32.0,0.0011700335890054703
36.0,0.0008558675181120634
40.0,0.0009163341019302607
44.0,0.0008140422869473696
48.0,0.0005377258639782667
52.0,0.00034687158768065274
56.0,0.0003561275952961296
60.0,0.0006541737238876522
64.0,0.0008749882108531892
72.0,0.00018385912699159235
80.0,4.5271921408129856e-05
88.0,7.076899782987311e-05
96.0,5.3911608119960874e-05
104.0,0.0004736240953207016
112.0,0.00041690218495205045
120.0,0.0002675926953088492
128.0,-0.00026269385125488043
144.0,-0.0002877390943467617
160.0,4.083157909917645e-05
176.0,0.0002528158656787127
192.0,-0.0001120687011280097
208.0,-0.0004565406125038862
224.0,-0.0003441516309976578
240.0,-0.00036380288656800985
256.0,-0.00039161412860266864
288.0,-5.7114037190331146e-05
320.0,-0.00013960232899989933
352.0,-4.82441573694814e-05
384.0,0.00017667948850430548
416.0,-0.00030687879188917577
448.0,-0.0005813641473650932
480.0,0.00021062197629362345
512.0,-0.0003090460959356278
576.0,-0.0002584241156000644
640.0,-0.00015494773106183857
704.0,-0.000379264063667506
768.0,7.39102833904326e-05
832.0,-0.00042631736141629517
896.0,-0.00021779081725981086
960.0,0.00020627002231776714
1024.0,0.00038088668952696025
1152.0,0.00031843982287682593
1280.0,0.00037836877163499594
1408.0,0.00034157518530264497
1536.0,0.00017735651636030525
1664.0,-0.00025043365894816816
1792.0,3.8516558561241254e-05
1920.0,-7.861480116844177e-05
2048.0,-0.0003912315587513149
2304.0,-6.699700315948576e-05
2560.0,0.0001765662746038288
2816.0,0.00017888892034534365
3072.0,-2.545946517784614e-05
3328.0,-0.00020804675295948982
3584.0,-0.00012927585339639336
3840.0,-1.8850405467674136e-05
4096.0,0.00010630485485307872
4608.0,6.489465158665553e-05
5120.0,-0.00017010587907861918
5632.0,0.00015745402197353542
6144.0,-0.00022033760615158826
6656.0,5.124754170537926e-05
7168.0,0.0001007583923637867
7680.0,-0.0004003324138466269
8192.0,2.281376328028273e-05
9216.0,-0.00013158265210222453
10240.0,-9.230517025571316e-05
11264.0,2.7457759642857127e-05
12288.0,3.877207564073615e-05
13312.0,0.00013434732682071626
14336.0,7.11620959918946e-05
end
