version,3.0
numOfCh,1
type,point
parent_name,200-cuts
ch_type,1_1
kcount,1
numberNandB,1
brightnessNandB,1
carpet pos,0
pc,0
Time (ms),CH1 Auto-Correlation
1.0,0.01541651226580143
2.0,0.012375744991004467
3.0,0.010372704826295376
4.0,0.008756950497627258
5.0,0.007537398021668196
6.0,0.0066808853298425674
7.0,0.005938665010035038
8.0,0.005345087964087725
9.0,0.004849022254347801
10.0,0.004414856433868408
11.0,0.003990341443568468
12.0,0.0036284083034843206
13.0,0.0034242807887494564
14.0,0.0032731767278164625
15.0,0.003031914820894599
16.0,0.0028893202543258667
18.0,0.002639046171680093
20.0,0.00241004372946918
22.0,0.0021670556161552668
24.0,0.0019409888191148639
26.0,0.0017814359162002802
28.0,0.001651099300943315
30.0,0.0014033055631443858
32.0,0.0012866363395005465
36.0,0.0010593782644718885
40.0,0.000990120111964643
44.0,0.0010544128017500043
48.0,0.0009088910301215947
52.0,0.0007602715631946921
56.0,0.0005562738515436649
60.0,0.0005888273590244353
64.0,0.0004919316270388663
72.0,0.0004923379747197032
80.0,0.00042222379124723375
88.0,0.0005334900924935937
96.0,0.0004120500816497952
104.0,7.852642011130229e-05
112.0,-0.00012352473277132958
120.0,-4.813218765775673e-05
128.0,-0.00023890040756668895
144.0,-0.0002135473769158125
160.0,-0.00010951622971333563
176.0,-0.00012105245696147904
192.0,-0.0004716995172202587
208.0,-2.9760154575342312e-05
224.0,0.00015980152238626033
240.0,0.00038804602809250355
256.0,-0.00012459421122912318
288.0,7.946615369291976e-05
320.0,0.00023213232634589076
352.0,0.00021980737801641226
384.0,0.00017685772036202252
416.0,9.928054350893945e-05
448.0,-0.0002883397974073887
480.0,-0.0006493343389593065
512.0,-0.0004201105621177703
576.0,-0.0006679922225885093
640.0,3.82018624804914e-05
704.0,0.00018361175898462534
768.0,0.00018809508765116334
832.0,-0.0006358821410685778
896.0,-0.0006288602598942816
960.0,-0.00043855622061528265
1024.0,-0.00023716758005321026
1152.0,-0.000170063620316796
1280.0,-0.0001387780357617885
1408.0,0.00022332504158839583
1536.0,-0.0002993853413499892
1664.0,-1.3792541722068563e-05
1792.0,0.00027118806610815227
1920.0,2.04790285351919e-05
2048.0,0.00016773772949818522
2304.0,0.0003246467385906726
2560.0,-0.000236497275182046
2816.0,-0.00025629193987697363
3072.0,-0.00013964922982268035
3328.0,-8.658740989631042e-05
3584.0,1.850031736694291e-07
3840.0,0.00031109806150197983
4096.0,0.000248039053985849
4608.0,-0.00017412900342606008
5120.0,-0.00011368667765054852
5632.0,-8.041219552978873e-05
6144.0,0.0003477533464320004
6656.0,-0.00021866080351173878
7168.0,-8.141762373270467e-05
7680.0,-3.628557863066817e-07
8192.0,0.00017846020637080073
9216.0,-0.00013678749382961541
10240.0,0.0001576995273353532
11264.0,-0.00016971105651464313
12288.0,0.00011508919851621613
13312.0,-0.00015474151587113738
14336.0,0.00018892213120125234
end
