version,3.0
numOfCh,1
type,point
parent_name,200-cuts
ch_type,1_1
kcount,1
numberNandB,1
brightnessNandB,1
carpet pos,0
pc,0
Time (ms),CH1 Auto-Correlation
1.0,0.027677325531840324
2.0,0.022535603493452072
3.0,0.019160741940140724
4.0,0.01669876091182232
5.0,0.014514787122607231
6.0,0.012800709344446659
7.0,0.011237209662795067
8.0,0.00998974684625864
9.0,0.009035558439791203
10.0,0.008106284774839878
11.0,0.0075906855054199696
12.0,0.006960698403418064
13.0,0.006482621654868126
14.0,0.0059266178868710995
15.0,0.005518002901226282
16.0,0.005164646077901125
18.0,0.004601721186190844
20.0,0.0040170662105083466
22.0,0.003517970209941268
24.0,0.0033750953152775764
26.0,0.003185672452673316
28.0,0.00289703207090497
30.0,0.0024931819643825293
32.0,0.002173087792471051
36.0,0.001638080459088087
40.0,0.0012791476910933852
44.0,0.0010221825214102864
48.0,0.000925253436435014
52.0,0.0008702707709744573
56.0,0.0008673343108966947
60.0,0.0012569220270961523
64.0,0.0017953439382836223
72.0,0.002212811028584838
80.0,0.0016724449815228581
88.0,0.0009172818390652537
96.0,0.0005060805706307292
104.0,0.00023015258193481714
112.0,0.00031991730793379247
120.0,0.00037975882878527045
128.0,0.00041783950291574
144.0,-0.00011014256597263739
160.0,-0.00023441266966983676
176.0,-0.0002703291829675436
192.0,-0.0009264921536669135
208.0,-0.0010690770577639341
224.0,-0.0005868668085895479
240.0,0.0003259190416429192
256.0,-1.4589561942557339e-05
288.0,-0.000605377892497927
320.0,0.0009889480425044894
352.0,-0.0004013224970549345
384.0,0.0007880017510615289
416.0,-0.00015214248560369015
448.0,-5.369100108509883e-05
480.0,-0.0002804547839332372
512.0,-0.0007658448303118348
576.0,-0.00018784182611852884
640.0,-0.0007990925805643201
704.0,-0.0007043509976938367
768.0,-0.0005475870566442609
832.0,-0.00022715709928888828
896.0,0.0007129020523279905
960.0,-9.480516018811613e-05
1024.0,-0.0010893626604229212
1152.0,8.119255653582513e-06
1280.0,0.0004088616115041077
1408.0,0.0002995166869368404
1536.0,-0.0004027118266094476
1664.0,-0.0005806902190670371
1792.0,0.00038929219590499997
1920.0,-0.0003772826457861811
2048.0,0.00018334106425754726
2304.0,-6.344384019030258e-05
2560.0,-0.00041153180063702166
2816.0,0.00018279755022376776
3072.0,-0.0005267731612548232
3328.0,0.000258333224337548
3584.0,-0.00011276571603957564
3840.0,0.000295956211630255
4096.0,0.0003586627426557243
4608.0,-0.00026578473625704646
5120.0,4.6091739932307974e-05
5632.0,0.00021389697212725878
6144.0,-0.00030859277467243373
6656.0,-0.00024307968851644546
7168.0,0.00012699831859208643
7680.0,1.3143860996933654e-05
8192.0,9.010326175484806e-05
9216.0,0.0002754339075181633
10240.0,-0.0002450485771987587
11264.0,-0.0003036342386621982
12288.0,0.00048309273552149534
13312.0,0.00013738515553995967
14336.0,-0.00040985277155414224
end
