version,3.0
numOfCh,1
type,point
parent_name,200-cuts
ch_type,1_1
kcount,1
numberNandB,1
brightnessNandB,1
carpet pos,0
pc,0
Time (ms),CH1 Auto-Correlation
1.0,0.015273702330887318
2.0,0.012302791699767113
3.0,0.010224818252027035
4.0,0.008612504228949547
5.0,0.007400768809020519
6.0,0.006465932819992304
7.0,0.005761454813182354
8.0,0.005318607669323683
9.0,0.004873426165431738
10.0,0.004490600898861885
11.0,0.004145692568272352
12.0,0.003821148769930005
13.0,0.003503568237647414
14.0,0.003207581117749214
15.0,0.003049233229830861
16.0,0.003022934775799513
18.0,0.002730799373239279
20.0,0.00247780280187726
22.0,0.0023902873508632183
24.0,0.002209755592048168
26.0,0.0019622831605374813
28.0,0.0018588717794045806
30.0,0.0018008315237239003
32.0,0.0019149836152791977
36.0,0.0017320873448625207
40.0,0.0013705461751669645
44.0,0.0011114755179733038
48.0,0.0009429774945601821
52.0,0.0007779143052175641
56.0,0.0007268594927154481
60.0,0.0004552010796032846
64.0,0.00018752522009890527
72.0,9.083016630029306e-05
80.0,-4.041949796373956e-05
88.0,8.360910214832984e-06
96.0,8.964742301031947e-05
104.0,1.9167591744917445e-05
112.0,7.799276500009e-05
120.0,8.474487549392506e-05
128.0,0.0002747038088273257
144.0,0.00012348002928774804
160.0,0.00019433899433352053
176.0,9.887277701636776e-05
192.0,-2.0405454051797278e-05
208.0,0.000131863504066132
224.0,0.00021740047668572515
240.0,1.9075940144830383e-05
256.0,0.0002373945462750271
288.0,0.0004441413620952517
320.0,0.00010302905866410583
352.0,-0.00010091862350236624
384.0,-0.00017856420890893787
416.0,-0.0004145462007727474
448.0,-0.00016863549535628408
480.0,0.000129718377138488
512.0,-7.002877100603655e-05
576.0,0.00013366734492592514
640.0,-5.5010885262163356e-05
704.0,-0.0005207137437537313
768.0,0.00027295161271467805
832.0,6.0101967392256483e-05
896.0,-0.00046831974759697914
960.0,-0.000359637284418568
1024.0,-3.588385516195558e-05
1152.0,0.0003726576396729797
1280.0,-0.00025063776411116123
1408.0,-7.048359839245677e-05
1536.0,-0.0001656151143833995
1664.0,3.985945659223944e-05
1792.0,-7.867954082030337e-06
1920.0,4.2022333218483254e-05
2048.0,1.5543830159003846e-05
2304.0,1.1750586281777942e-06
2560.0,-4.839756729779765e-05
2816.0,-0.0002142434095731005
3072.0,-2.482869240338914e-05
3328.0,-0.00018270383588969707
3584.0,-0.00019382812024559826
3840.0,-5.8375171647639945e-05
4096.0,-8.017647633096203e-05
4608.0,4.398017335915938e-05
5120.0,3.7540718039963394e-05
5632.0,-0.0001871978456620127
6144.0,0.0001588131272001192
6656.0,0.00015626226377207786
7168.0,-0.00013158969522919506
7680.0,1.7299584214924835e-05
8192.0,6.327855226118118e-05
9216.0,-0.00013125583063811064
10240.0,-4.853869540966116e-05
11264.0,0.00016960539505816996
12288.0,0.00018213153816759586
13312.0,2.702758865780197e-05
14336.0,-0.00018018700939137489
end
