version,3.0
numOfCh,1
type,point
parent_name,200-cuts
ch_type,1_1
kcount,1
numberNandB,1
brightnessNandB,1
carpet pos,0
pc,0
Time (ms),CH1 Auto-Correlation
1.0,0.015482503920793533
2.0,0.012502788566052914
3.0,0.010339558124542236
4.0,0.008715403266251087
5.0,0.007518631871789694
6.0,0.0065823947079479694
7.0,0.005703745875507593
8.0,0.004972033202648163
9.0,0.004396021366119385
10.0,0.0039498223923146725
11.0,0.003588301595300436
12.0,0.0032464489340782166
13.0,0.0029972100164741278
14.0,0.0027527487836778164
15.0,0.0025884907227009535
16.0,0.002400638535618782
18.0,0.0019757740665227175
20.0,0.0016523865051567554
22.0,0.001361345057375729
24.0,0.0011514626676216722
26.0,0.0009509754017926753
28.0,0.0009021027944982052
30.0,0.0008737894240766764
32.0,0.0008055997313931584
36.0,0.0005939044058322906
40.0,0.0004678920959122479
44.0,0.0006887820782139897
48.0,0.0007965544937178493
52.0,0.0007877425523474813
56.0,0.0008365294779650867
60.0,0.00044640994747169316
64.0,0.0006238537607714534
72.0,0.0007378427544608712
80.0,0.00042772662709467113
88.0,0.00024038447008933872
96.0,-0.00011222368630114943
104.0,-0.00024069052597042173
112.0,-0.00020226337073836476
120.0,-0.00024690746795386076
128.0,-6.732626934535801e-05
144.0,-0.00032574759097769856
160.0,-0.00033414328936487436
176.0,-0.0008146020118147135
192.0,-0.0007901167846284807
208.0,-0.0007050553685985506
224.0,-0.00048013729974627495
240.0,-2.3711541871307418e-05
256.0,-0.00040816361433826387
288.0,-0.00021551636746153235
320.0,0.0002562763693276793
352.0,0.00023952493211254478
384.0,0.00025760248536244035
416.0,0.00011834776523755863
448.0,0.00017891626339405775
480.0,0.000463462492916733
512.0,0.00036627944791689515
576.0,1.2914350918435957e-05
640.0,-0.00019840366439893842
704.0,-2.539858314776211e-06
768.0,-1.8051465303869918e-05
832.0,0.00013662608398590237
896.0,4.593848643708043e-05
960.0,-7.742265734123066e-05
1024.0,0.0002985259925480932
1152.0,-7.67116216593422e-06
1280.0,0.00037964247167110443
1408.0,-0.00013948115520179272
1536.0,-4.645146691473201e-05
1664.0,-8.3233266195748e-05
1792.0,-0.00020695758576039225
1920.0,-8.755818271311e-05
2048.0,5.033919296693057e-05
2304.0,4.162107506999746e-05
2560.0,-7.050645217532292e-05
2816.0,-0.00010401221516076475
3072.0,-0.00017504903371445835
3328.0,-0.00010087902046507224
3584.0,0.00014982189168222249
3840.0,-0.00041659726412035525
4096.0,0.00029456199263222516
4608.0,-2.613604738144204e-05
5120.0,0.00011085991718573496
5632.0,-2.5488234314252622e-05
6144.0,0.0002252284757560119
6656.0,-3.1509687687503174e-05
7168.0,3.6667865060735494e-05
7680.0,7.77983404987026e-06
8192.0,-3.4407723433105275e-05
9216.0,-8.422909559158143e-06
10240.0,-3.8392856367863715e-05
11264.0,3.677097265608609e-05
12288.0,-0.00019071917631663382
13312.0,-5.309722837409936e-05
14336.0,5.3542691603070125e-05
end
