version,3.0
numOfCh,1
type,point
parent_name,200-cuts
ch_type,1_1
kcount,1
numberNandB,1
brightnessNandB,1
carpet pos,0
pc,0
Time (ms),CH1 Auto-Correlation
1.0,0.02582181617617607
2.0,0.020474450662732124
3.0,0.01670346036553383
4.0,0.013998636975884438
5.0,0.011933023110032082
6.0,0.010179612785577774
7.0,0.00883923564106226
8.0,0.007751781959086657
9.0,0.007051435299217701
10.0,0.006377973593771458
11.0,0.006022308953106403
12.0,0.005723208654671907
13.0,0.005299786105751991
14.0,0.004937041085213423
15.0,0.004532348830252886
16.0,0.004102148115634918
18.0,0.00357631454244256
20.0,0.003044727724045515
22.0,0.0023613935336470604
24.0,0.0019363953033462167
26.0,0.001817753305658698
28.0,0.0015954568516463041
30.0,0.0011047511361539364
32.0,0.0005770939169451594
36.0,0.000389627501135692
40.0,2.1013300283811986e-05
44.0,-0.0001498501660535112
48.0,7.94745865277946e-05
52.0,0.00042927992762997746
56.0,0.0006491527310572565
60.0,0.0005550382193177938
64.0,0.0003989668912254274
72.0,0.0007561076781712472
80.0,0.0009256261400878429
88.0,0.0006471062661148608
96.0,0.0005834770272485912
104.0,0.00033707660622894764
112.0,-0.00023478068760596216
120.0,-0.0007665049633942544
128.0,-0.0005600947770290077
144.0,-0.0004306996997911483
160.0,-0.00021439415286295116
176.0,0.00026624652673490345
192.0,0.0006237304769456387
208.0,2.8122341973357834e-05
224.0,-0.00043931271648034453
240.0,-0.0003824633313342929
256.0,0.00022288778563961387
288.0,-0.0005793350283056498
320.0,-0.0003592304710764438
352.0,-0.00011451678437879309
384.0,-2.7354410121915862e-05
416.0,0.0004955795593559742
448.0,-0.000512873288244009
480.0,-0.000791674479842186
512.0,-0.0003138840838801116
576.0,6.235978071345016e-05
640.0,0.00017095953808166087
704.0,-0.0004555353370960802
768.0,-5.4171181545825675e-05
832.0,0.0003285992715973407
896.0,-0.0001233891525771469
960.0,-0.00012751610483974218
1024.0,0.00035007958649657667
1152.0,-0.00042176790884695947
1280.0,0.0002651722461450845
1408.0,0.0006498321890830994
1536.0,0.0002773215528577566
1664.0,-0.0004725923063233495
1792.0,-0.0006409310735762119
1920.0,-0.00044011432328261435
2048.0,0.00023928648442961276
2304.0,-1.4233991350920405e-05
2560.0,-0.00020787067478522658
2816.0,1.2183752915007062e-05
3072.0,0.0001617966772755608
3328.0,-5.217030775384046e-06
3584.0,0.00012418589903973043
3840.0,-1.0971581104968209e-05
4096.0,-0.0004921056679449975
4608.0,-2.5783172532101162e-05
5120.0,-1.6802769096102566e-05
5632.0,2.3561779016745277e-05
6144.0,-0.00014978145190980285
6656.0,0.00015029845235403627
7168.0,-2.76769969786983e-06
7680.0,-0.0001828423555707559
8192.0,-0.00020819595374632627
9216.0,-6.864765600766987e-05
10240.0,0.00026032887399196625
11264.0,0.00016421289183199406
12288.0,8.214109402615577e-05
13312.0,-0.00014463327534031123
14336.0,-7.313613605219871e-05
end
