version,3.0
numOfCh,1
type,point
parent_name,200-cuts
ch_type,1_1
kcount,1
numberNandB,1
brightnessNandB,1
carpet pos,0
pc,0
Time (ms),CH1 Auto-Correlation
1.0,0.026663552969694138
2.0,0.02156403847038746
3.0,0.018032371997833252
4.0,0.015535147860646248
5.0,0.01347179152071476
6.0,0.011868681758642197
7.0,0.010647336952388287
8.0,0.009526743553578854
9.0,0.008593973703682423
10.0,0.0076439594849944115
11.0,0.006845089606940746
12.0,0.006324830465018749
13.0,0.005712945945560932
14.0,0.0052583953365683556
15.0,0.004862942732870579
16.0,0.004650576040148735
18.0,0.004214101936668158
20.0,0.003890154417604208
22.0,0.0036811772733926773
24.0,0.0034664699342101812
26.0,0.0032122579868882895
28.0,0.0027105677872896194
30.0,0.0023236568085849285
32.0,0.0018875134410336614
36.0,0.0014491636538878083
40.0,0.0015716403722763062
44.0,0.0010169317247346044
48.0,0.00017146006575785577
52.0,0.00034060535836033523
56.0,0.0008173910900950432
60.0,0.0008643817855045199
64.0,0.0006395304226316512
72.0,0.0003274001937825233
80.0,0.00039714144077152014
88.0,0.0001450173876946792
96.0,-0.00026879439246840775
104.0,-0.0001541310630273074
112.0,1.096611526918423e-06
120.0,-0.0006333802011795342
128.0,-0.0004921502550132573
144.0,0.0003737491788342595
160.0,0.0006116185104474425
176.0,0.000693699112161994
192.0,0.00010987709538312629
208.0,0.0002479855320416391
224.0,0.000443898985395208
240.0,0.0009325118153356016
256.0,0.00014196531265042722
288.0,-0.0003480417362879962
320.0,0.00012220710050314665
352.0,-0.0002547113981563598
384.0,-6.7664909693121444e-06
416.0,-0.00018182187341153622
448.0,-0.00023506724392063916
480.0,0.00015441204595845193
512.0,0.00011516093218233436
576.0,0.00019495951710268855
640.0,0.0006295322091318667
704.0,0.00047236226964741945
768.0,-0.00023314017744269222
832.0,-0.0003358441754244268
896.0,0.00033206946682184935
960.0,-0.00014563804143108428
1024.0,-0.00021949423535261303
1152.0,0.00016155274352058768
1280.0,0.0008609989890828729
1408.0,0.00013679746189154685
1536.0,0.0002153536188416183
1664.0,0.00022899042232893407
1792.0,0.0002691404370125383
1920.0,0.00032548431772738695
2048.0,0.00015394165529869497
2304.0,5.736174716730602e-05
2560.0,0.00039739051135256886
2816.0,0.0002079863625112921
3072.0,0.00010187561565544456
3328.0,-0.0003509244415909052
3584.0,0.00015918865392450243
3840.0,-0.00020166605827398598
4096.0,0.00010036116873379797
4608.0,-0.00016778797726146877
5120.0,-0.0005459529347717762
5632.0,-0.00022408690711017698
6144.0,-0.00047961785458028316
6656.0,-0.00024031625071074814
7168.0,-0.0002547790063545108
7680.0,-0.0006228653946891427
8192.0,-0.0001578168012201786
9216.0,-8.516955131199211e-05
10240.0,-6.44010870018974e-05
11264.0,0.00012881543079856783
12288.0,0.0004158719093538821
13312.0,0.00024181105254683644
14336.0,7.692874351050705e-05
end
