version,3.0
numOfCh,1
type,point
parent_name,200-cuts
ch_type,1_1
kcount,1
numberNandB,1
brightnessNandB,1
carpet pos,0
pc,0
Time (ms),CH1 Auto-Correlation
1.0,0.0160074345767498
2.0,0.013047263026237488
3.0,0.010924842208623886
4.0,0.009360358119010925
5.0,0.00813025888055563
6.0,0.007116144523024559
7.0,0.006333633325994015
8.0,0.0056669325567781925
9.0,0.005205851513892412
10.0,0.004757232032716274
11.0,0.0043682618997991085
12.0,0.004025951027870178
13.0,0.0036621801555156708
14.0,0.003375429194420576
15.0,0.00314114848151803
16.0,0.0028920306358486414
18.0,0.0026981295086443424
20.0,0.0026561017148196697
22.0,0.002487251302227378
24.0,0.002163871191442013
26.0,0.0019374570110812783
28.0,0.0017925554420799017
30.0,0.001562086516059935
32.0,0.0013399383751675487
36.0,0.001050140941515565
40.0,0.0012114258715882897
44.0,0.0014551966451108456
48.0,0.0011593842646107078
52.0,0.0009575116564519703
56.0,0.0006029953947290778
60.0,0.00025839140289463103
64.0,9.160432819044217e-05
72.0,2.2930636987439357e-05
80.0,0.000259740452747792
88.0,0.0004474263114389032
96.0,0.0006907326169312
104.0,0.0007702119182795286
112.0,0.0010672942735254765
120.0,0.0008776715258136392
128.0,0.0006059756851755083
144.0,0.0007165178540162742
160.0,0.0004395257565192878
176.0,0.0002530445344746113
192.0,0.00038038493948988616
208.0,0.00032687222119420767
224.0,0.00081210071220994
240.0,0.0007644594297744334
256.0,0.00040135314338840544
288.0,-6.482609751401469e-05
320.0,0.00031837544520385563
352.0,0.00022207680740393698
384.0,7.272898074006662e-05
416.0,0.0006377805839292705
448.0,0.0007622666307725012
480.0,1.574572888785042e-05
512.0,-0.0004937892663292587
576.0,-0.00012319210509303957
640.0,5.2190905989846215e-05
704.0,-9.406576282344759e-05
768.0,-0.00012932192476000637
832.0,-0.00021880069107282907
896.0,-0.00018775042553897947
960.0,-0.0001951141603058204
1024.0,-0.0001682121364865452
1152.0,-0.00019446179794613272
1280.0,-0.00010591984027996659
1408.0,-6.029548603692092e-05
1536.0,0.00012672263255808502
1664.0,-2.900014806073159e-05
1792.0,-1.777417492121458e-05
1920.0,-7.202277629403397e-05
2048.0,-6.08954687777441e-05
2304.0,-0.0001867310784291476
2560.0,-0.00013157876674085855
2816.0,-8.79246144904755e-05
3072.0,-0.00011848295253003016
3328.0,-0.00042725226376205683
3584.0,-4.1042563680093735e-05
3840.0,-0.00031633718754164875
4096.0,0.00011560420534806326
4608.0,0.00012818498362321407
5120.0,-0.00010629188909661025
5632.0,2.848971780622378e-05
6144.0,0.0002375402837060392
6656.0,0.00016895572480279952
7168.0,-2.5913088393281214e-05
7680.0,-2.1772893887828104e-05
8192.0,-5.886595317861065e-05
9216.0,-0.00017148406186606735
10240.0,0.00029258106951601803
11264.0,-8.936936501413584e-05
12288.0,0.00031352040241472423
13312.0,-0.00029345357324928045
14336.0,0.00014443502004723996
end
