version,3.0
numOfCh,1
type,point
parent_name,200-cuts
ch_type,1_1
kcount,1
numberNandB,1
brightnessNandB,1
carpet pos,0
pc,0
Time (ms),CH1 Auto-Correlation
1.0,0.02755388244986534
2.0,0.022405533120036125
3.0,0.01885291188955307
4.0,0.016304275020956993
5.0,0.014409909956157207
6.0,0.012745794840157032
7.0,0.011461399495601654
8.0,0.010448357090353966
9.0,0.009545544162392616
10.0,0.008890442550182343
11.0,0.008282631635665894
12.0,0.007831096649169922
13.0,0.00745137594640255
14.0,0.0068371715024113655
15.0,0.006482974626123905
16.0,0.0059442888014018536
18.0,0.005319765768945217
20.0,0.004591092932969332
22.0,0.004003608133643866
24.0,0.0035638900008052588
26.0,0.002953974297270179
28.0,0.0024882962461560965
30.0,0.0022570695728063583
32.0,0.0020189627539366484
36.0,0.0015839168336242437
40.0,0.0015685349935665727
44.0,0.0016168043948709965
48.0,0.0016583543037995696
52.0,0.0015277635538950562
56.0,0.0010353164980188012
60.0,0.0005016840877942741
64.0,0.0006265570409595966
72.0,0.0010202359408140182
80.0,0.0006074869888834655
88.0,0.0003898901049979031
96.0,0.00011733546125469729
104.0,0.00032409795676358044
112.0,-0.00032346087391488254
120.0,-0.0006487304344773293
128.0,-0.00035313834086991847
144.0,0.0002202093746745959
160.0,0.0003382891300134361
176.0,8.216518472181633e-05
192.0,-0.0005503055290319026
208.0,-0.0007572146132588387
224.0,-0.0002919696271419525
240.0,-0.00012600257468875498
256.0,0.00047071423614397645
288.0,0.00044878647895529866
320.0,6.120229954831302e-05
352.0,0.0005061232950538397
384.0,0.00036896151141263545
416.0,0.000517970125656575
448.0,-0.0005030859028920531
480.0,-0.0011467293370515108
512.0,0.00012486748164519668
576.0,0.0009923740290105343
640.0,0.0005155789549462497
704.0,-0.0006777018425054848
768.0,-0.0007701592985540628
832.0,0.0001836914016166702
896.0,-7.841435581212863e-05
960.0,0.0005454386118799448
1024.0,-8.194229303626344e-05
1152.0,5.6616168876644224e-05
1280.0,-0.0006376425153575838
1408.0,-0.00026085504214279354
1536.0,-0.0002864645211957395
1664.0,-4.4003809307469055e-05
1792.0,-0.0005715493462048471
1920.0,-0.0003794918011408299
2048.0,2.0808927729376592e-05
2304.0,-0.0003481185995042324
2560.0,0.00020836532348766923
2816.0,0.0001183224594569765
3072.0,0.00047071126755326986
3328.0,0.00011268335219938308
3584.0,0.00020680301531683654
3840.0,9.480861081101466e-06
4096.0,0.0001363463088637218
4608.0,8.870160672813654e-05
5120.0,-0.00019637950754258782
5632.0,-0.00021619150356855243
6144.0,0.0003939328598789871
6656.0,2.7318210413795896e-05
7168.0,0.00026780093321576715
7680.0,-0.0005199234001338482
8192.0,-0.00027471024077385664
9216.0,-6.345748715830268e-06
10240.0,-0.00015141592302825302
11264.0,-0.0002304473746335134
12288.0,-7.591693429276347e-05
13312.0,-0.0003947966324631125
14336.0,1.2111020623706281e-05
end
