version,3.0
numOfCh,1
type,point
parent_name,200-cuts
ch_type,1_1
kcount,1
numberNandB,1
brightnessNandB,1
carpet pos,0
pc,0
Time (ms),CH1 Auto-Correlation
1.0,0.016261888667941093
2.0,0.013183909468352795
3.0,0.011132054962217808
4.0,0.009551330469548702
5.0,0.008149681612849236
6.0,0.007104434072971344
7.0,0.006322746630758047
8.0,0.005716909188777208
9.0,0.005273180548101664
10.0,0.00491168349981308
11.0,0.004581978544592857
12.0,0.004281281493604183
13.0,0.004004232585430145
14.0,0.003671067301183939
15.0,0.0033470066264271736
16.0,0.0030684741213917732
18.0,0.0024901563301682472
20.0,0.002171984175220132
22.0,0.0018542505567893386
24.0,0.0015994161367416382
26.0,0.0012486897176131606
28.0,0.0009482024470344186
30.0,0.000906100613065064
32.0,0.0009964659111574292
36.0,0.0008083850843831897
40.0,0.000663869665004313
44.0,0.0003899487783201039
48.0,0.00010252794891130179
52.0,-0.0002649604284670204
56.0,-0.000337468198267743
60.0,-0.0003325235447846353
64.0,-0.0004584022972267121
72.0,-0.0006846938631497324
80.0,-0.00038359028985723853
88.0,-0.00048469926696270704
96.0,-0.0002668433589860797
104.0,0.00016439659520983696
112.0,0.0005035251961089671
120.0,0.0008711209520697594
128.0,0.0009676305344328284
144.0,0.00043192264274694026
160.0,0.00037685324787162244
176.0,0.0003980641777161509
192.0,-0.0006592035060748458
208.0,-0.0008978378609754145
224.0,-9.711942402645946e-05
240.0,-0.0001617290690774098
256.0,0.00016857005539350212
288.0,0.0003590230189729482
320.0,0.00011027116852346808
352.0,-0.00023228913778439164
384.0,0.00021571053366642445
416.0,8.34801685414277e-05
448.0,0.00013974653847981244
480.0,1.6969188436632976e-05
512.0,-0.00021207047393545508
576.0,-5.67672832403332e-05
640.0,-0.0004912209114991128
704.0,-8.886804425856099e-05
768.0,-0.0005570876528508961
832.0,-0.0002786956029012799
896.0,-0.00025140453362837434
960.0,-7.078146882122383e-05
1024.0,-5.515960947377607e-05
1152.0,-9.049870277522132e-05
1280.0,3.6731886211782694e-05
1408.0,0.00023942907864693552
1536.0,0.00032211013603955507
1664.0,0.0001554104674141854
1792.0,-0.00028273442876525223
1920.0,-0.0002137487317668274
2048.0,-0.00011122204887215048
2304.0,-9.98211617115885e-05
2560.0,0.00014646946510765702
2816.0,0.0001511020673206076
3072.0,0.00019250490004196763
3328.0,-0.0003640558570623398
3584.0,-0.0002337798214284703
3840.0,7.998001092346385e-05
4096.0,0.0001462379441363737
4608.0,0.00011841871310025454
5120.0,-5.407265416579321e-05
5632.0,-7.24631399862119e-06
6144.0,-9.048978245118633e-05
6656.0,1.1799528692790773e-05
7168.0,0.0001002133940346539
7680.0,-4.729750435217284e-05
8192.0,-6.887144991196692e-05
9216.0,8.708461973583326e-05
10240.0,-0.00018013021326623857
11264.0,2.706091800064314e-05
12288.0,-7.733204256510362e-05
13312.0,-2.5265911972383037e-05
14336.0,-0.00010312328959116712
end
