version,3.0
numOfCh,1
type,point
parent_name,200-cuts
ch_type,1_1
kcount,1
numberNandB,1
brightnessNandB,1
carpet pos,0
pc,0
Time (ms),CH1 Auto-Correlation
1.0,0.01573103666305542
2.0,0.012926500290632248
3.0,0.010965478606522083
4.0,0.009364375844597816
5.0,0.008142237551510334
6.0,0.007051118183881044
7.0,0.006235634908080101
8.0,0.0055017550475895405
9.0,0.004889246542006731
10.0,0.0043920972384512424
11.0,0.003947108052670956
12.0,0.0035754318814724684
13.0,0.003309996798634529
14.0,0.003103989874944091
15.0,0.002810306614264846
16.0,0.002545124851167202
18.0,0.002154303714632988
20.0,0.0018397357780486345
22.0,0.0015003043226897717
24.0,0.0012015082174912095
26.0,0.001075028209015727
28.0,0.0009412145591340959
30.0,0.0009035784169100225
32.0,0.0007340094307437539
36.0,0.000677820818964392
40.0,0.0006486554630100727
44.0,0.0006909103249199688
48.0,0.0007210613111965358
52.0,0.000590566429309547
56.0,0.0004459297051653266
60.0,0.0002601166779641062
64.0,0.00030048302141949534
72.0,1.08704023205064e-06
80.0,-0.00010684485459933057
88.0,0.0001319009024882689
96.0,-2.6669722501537763e-05
104.0,-0.000108713997178711
112.0,-0.00014912447659298778
120.0,-0.0003150982374791056
128.0,-0.0002479770628269762
144.0,-0.0002889844181481749
160.0,4.995201379642822e-05
176.0,0.0005643753684125841
192.0,0.000549100514035672
208.0,0.00020779362239409238
224.0,-0.0003896622802130878
240.0,-0.0008166020270437002
256.0,-0.00047083059325814247
288.0,-8.810897270450369e-05
320.0,-0.00021774283959530294
352.0,-0.00012995427823625505
384.0,-6.132399721536785e-05
416.0,-7.529473077738658e-05
448.0,-0.00012927292846143246
480.0,0.0001049477796186693
512.0,8.329479169333354e-05
576.0,3.1074847356649116e-05
640.0,0.0002788358542602509
704.0,0.0002730625856202096
768.0,6.458916323026642e-05
832.0,-7.480698695871979e-05
896.0,-9.972483894671313e-06
960.0,-3.544213541317731e-05
1024.0,8.714527211850509e-05
1152.0,0.00020839477656409144
1280.0,-1.1821920452348422e-05
1408.0,-0.00017568207113072276
1536.0,-0.00015175480803009123
1664.0,-5.2667885029222816e-05
1792.0,9.71510453382507e-05
1920.0,-6.359310305015242e-07
2048.0,-0.00010901581117650494
2304.0,-0.00014157735859043896
2560.0,3.4188979043392465e-05
2816.0,0.0002536407846491784
3072.0,-7.60470429668203e-05
3328.0,-0.00010271190694766119
3584.0,8.26059331302531e-05
3840.0,7.844304491300136e-05
4096.0,-0.00016133105964399874
4608.0,0.00010342972382204607
5120.0,-2.739861338341143e-05
5632.0,-2.572097218944691e-05
6144.0,-0.00015793103375472128
6656.0,-0.00012129780952818692
7168.0,3.667038618004881e-05
7680.0,-8.711724512977526e-05
8192.0,8.746487583266571e-05
9216.0,-9.906182822305709e-05
10240.0,-0.000180258066393435
11264.0,-4.3174437450943515e-05
12288.0,0.00014779693447053432
13312.0,9.731702448334545e-05
14336.0,9.87048406386748e-06
end
