version,3.0
numOfCh,1
type,point
parent_name,200-cuts
ch_type,1_1
kcount,1
numberNandB,1
brightnessNandB,1
carpet pos,0
pc,0
Time (ms),CH1 Auto-Correlation
1.0,0.015825992450118065
2.0,0.012777506373822689
3.0,0.010706879198551178
4.0,0.009197507053613663
5.0,0.008031358942389488
6.0,0.007019950542598963
7.0,0.006194965448230505
8.0,0.005547658074647188
9.0,0.004905812907963991
10.0,0.004435369744896889
11.0,0.003997822757810354
12.0,0.003726671915501356
13.0,0.0036084409803152084
14.0,0.003488754853606224
15.0,0.0033222059719264507
16.0,0.0031520426273345947
18.0,0.0027640166226774454
20.0,0.0025329531636089087
22.0,0.002174748806282878
24.0,0.0018750791205093265
26.0,0.0016758724814280868
28.0,0.0016590652521699667
30.0,0.0015732223400846124
32.0,0.0014857121277600527
36.0,0.0013110532891005278
40.0,0.0011620100121945143
44.0,0.001188561785966158
48.0,0.0011718223104253411
52.0,0.0011181976879015565
56.0,0.0006254659965634346
60.0,0.000240116220084019
64.0,0.0002684972423594445
72.0,0.0003399538982193917
80.0,0.0003282690013293177
88.0,-0.000170664323377423
96.0,-0.00022736864048056304
104.0,-0.00011737647582776845
112.0,0.00023807596880942583
120.0,0.0001759288425091654
128.0,0.00026609509950503707
144.0,0.0001668615877861157
160.0,-0.00015667566913180053
176.0,0.0003902063181158155
192.0,0.0002713266876526177
208.0,0.00016529360436834395
224.0,0.00034179899375885725
240.0,-2.657070399436634e-05
256.0,-0.00010439336620038375
288.0,9.900542499963194e-05
320.0,-7.92398423072882e-05
352.0,-0.000264189497102052
384.0,-0.000756070832721889
416.0,-0.0006000737776048481
448.0,-0.00045179788139648736
480.0,-0.000747485610190779
512.0,-0.0005220539169386029
576.0,-9.804414003156126e-05
640.0,-4.1411793063161895e-05
704.0,-0.00013098373892717063
768.0,2.4237529942183755e-05
832.0,-0.0004916495527140796
896.0,0.00015574481221847236
960.0,0.00012221797078382224
1024.0,0.000507826916873455
1152.0,-0.00020845957624260336
1280.0,0.00019177365174982697
1408.0,-0.00027638868778012693
1536.0,-0.0001889782870421186
1664.0,0.00010682431457098573
1792.0,0.0002794216270558536
1920.0,-0.00017665499763097614
2048.0,-0.0003055482520721853
2304.0,5.61452834517695e-05
2560.0,0.0001369199890177697
2816.0,9.040145960170776e-05
3072.0,-6.076574936741963e-05
3328.0,0.0002352273149881512
3584.0,0.00022771177464164793
3840.0,-0.00039509718772023916
4096.0,-4.8030855396064e-05
4608.0,-9.236150071956217e-05
5120.0,2.9566153898485936e-05
5632.0,-0.00011007283319486305
6144.0,0.0003267393331043422
6656.0,-0.0002441854157950729
7168.0,0.00011459447705419734
7680.0,-0.0003656325861811638
8192.0,0.0001413685386069119
9216.0,-0.0001277807168662548
10240.0,7.886804087320343e-05
11264.0,8.684171007189434e-06
12288.0,4.09125532314647e-05
13312.0,4.40381008957047e-05
14336.0,-1.2793183486792259e-05
end
