version,3.0
numOfCh,1
type,point
parent_name,200-cuts
ch_type,1_1
kcount,1
numberNandB,1
brightnessNandB,1
carpet pos,0
pc,0
Time (ms),CH1 Auto-Correlation
1.0,0.015965092927217484
2.0,0.012913796119391918
3.0,0.010760055854916573
4.0,0.009189732372760773
5.0,0.007976479828357697
6.0,0.006945343222469091
7.0,0.006175963673740625
8.0,0.005690011195838451
9.0,0.005190346390008926
10.0,0.004719329532235861
11.0,0.004282398149371147
12.0,0.004005292896181345
13.0,0.0037455481942743063
14.0,0.003624703036621213
15.0,0.0035049396101385355
16.0,0.0033542304299771786
18.0,0.0030752939637750387
20.0,0.0027911073993891478
22.0,0.0026719013694673777
24.0,0.0024897921830415726
26.0,0.002223281655460596
28.0,0.0021404617000371218
30.0,0.0020559588447213173
32.0,0.0018867987673729658
36.0,0.0015576842706650496
40.0,0.0013147490099072456
44.0,0.0011539527913555503
48.0,0.0009375939262099564
52.0,0.0005126345786266029
56.0,0.00028678137459792197
60.0,0.000372752285329625
64.0,0.0006271651946008205
72.0,0.000606454093940556
80.0,0.00058061967138201
88.0,0.0007544825784862041
96.0,0.0006758791278116405
104.0,0.0003993215213995427
112.0,0.00034220144152641296
120.0,0.0006802575662732124
128.0,0.0008295112638734281
144.0,0.000849217816721648
160.0,0.00042793070315383375
176.0,0.00028363795718178153
192.0,0.0003083831397816539
208.0,8.419497316936031e-05
224.0,0.0001937005581567064
240.0,0.0002305758825968951
256.0,5.9549169236561283e-05
288.0,2.874319216061849e-05
320.0,-0.0005361698567867279
352.0,-0.0002300799242220819
384.0,-3.945091521018185e-05
416.0,-0.0003762774576898664
448.0,-0.00019732741930056363
480.0,0.0004302979214116931
512.0,0.0002972473157569766
576.0,-0.00028786659822799265
640.0,-0.00010306890908395872
704.0,4.212737258058041e-05
768.0,-0.00011968763283221051
832.0,0.00020087968732696027
896.0,-0.00019947063992731273
960.0,0.0002098843251587823
1024.0,-0.0002216046123066917
1152.0,6.598938489332795e-05
1280.0,5.437427171273157e-05
1408.0,6.745994323864579e-05
1536.0,0.0003471773525234312
1664.0,0.00028911069966852665
1792.0,0.0003339959366712719
1920.0,0.0001859704207163304
2048.0,7.50239851186052e-05
2304.0,0.00017476981156505644
2560.0,-0.0003960713220294565
2816.0,-0.00015039945719763637
3072.0,0.0004907678230665624
3328.0,-3.814171941485256e-05
3584.0,-6.865277828183025e-05
3840.0,-0.00014591708895750344
4096.0,-0.0003362332936376333
4608.0,6.297621439443901e-06
5120.0,-0.00023268518270924687
5632.0,0.00012726004933938384
6144.0,1.8463702872395515e-05
6656.0,5.806324679724639e-06
7168.0,-2.204702832386829e-05
7680.0,3.449515861575492e-05
8192.0,-5.8298192016081885e-05
9216.0,-0.0001511869195383042
10240.0,-9.428327030036598e-05
11264.0,-0.0003458131104707718
12288.0,6.671365554211661e-05
13312.0,-0.00026474837795831263
14336.0,-8.377444464713335e-05
end
