version,3.0
numOfCh,1
type,point
parent_name,0cd20_3dot0-1dot0
ch_type,1_1
kcount,1
numberNandB,1
brightnessNandB,1
carpet pos,0
pc,0
Time (ms),CH1 Auto-Correlation
1.0,0.01592393033206463
2.0,0.012846271507441998
3.0,0.0107628358528018
4.0,0.009219727478921413
5.0,0.008036227896809578
6.0,0.007192546967417002
7.0,0.0065660071559250355
8.0,0.006029162090271711
9.0,0.00541542936116457
10.0,0.0049134050495922565
11.0,0.004482823424041271
12.0,0.004150138236582279
13.0,0.0038579192478209734
14.0,0.003656819462776184
15.0,0.0034039318561553955
16.0,0.0031708076130598783
18.0,0.002885771682485938
20.0,0.002554199891164899
22.0,0.002240204717963934
24.0,0.0017829455900937319
26.0,0.0015039971331134439
28.0,0.0013000635663047433
30.0,0.0011404945980757475
32.0,0.0009377193637192249
36.0,0.0006862587761133909
40.0,0.0007213129429146647
44.0,0.0006698085344396532
48.0,0.0004971460439264774
52.0,0.000372679642168805
56.0,0.00035762740299105644
60.0,0.0003293171466793865
64.0,0.00026044240803457797
72.0,0.00043395280954428017
80.0,0.00019211853214073926
88.0,0.0005239180172793567
96.0,0.0007004511426202953
104.0,0.0006114604766480625
112.0,0.0008382504456676543
120.0,0.000806621101219207
128.0,0.000539235130418092
144.0,0.00016612977196928114
160.0,0.00019504010560922325
176.0,-7.884918159106746e-05
192.0,2.61749628407415e-05
208.0,0.0001076146581908688
224.0,-0.0003808861947618425
240.0,-0.0005894466303288937
256.0,-0.0004526990815065801
288.0,0.00015625107334926724
320.0,-0.00025131599977612495
352.0,-0.0005343941738829017
384.0,-0.00033531428198330104
416.0,-1.6446385416202247e-05
448.0,-0.00015675909526180476
480.0,-0.00024375128850806504
512.0,-0.0001536662457510829
576.0,-0.00016402739856857806
640.0,-0.00016289828636217862
704.0,-2.8744594601448625e-05
768.0,-0.0004219819966237992
832.0,-9.700865484774113e-05
896.0,6.24209496891126e-05
960.0,-0.0005416035419330001
1024.0,-4.805341177416267e-06
1152.0,4.887743853032589e-05
1280.0,0.00036577825085259974
1408.0,-0.00020463211694732308
1536.0,-0.00024214450968429446
1664.0,-7.500630545109743e-06
1792.0,0.0001219217010657303
1920.0,-0.0003945864737033844
2048.0,-0.00047075521433725953
2304.0,-0.00027181199402548373
2560.0,0.00011902237747563049
2816.0,0.00011588633060455322
3072.0,-0.0002667953085619956
3328.0,0.00020278450392652303
3584.0,-6.893738463986665e-05
3840.0,8.795553731033579e-05
4096.0,-5.2068455261178315e-05
4608.0,3.420251960051246e-05
5120.0,9.75987350102514e-05
5632.0,3.583480429369956e-05
6144.0,5.9592225625237916e-06
6656.0,-0.0002686629304662347
7168.0,0.00011741249181795865
7680.0,-3.253296745242551e-05
8192.0,-2.8616479994525434e-06
end
