version,3.0
numOfCh,1
type,point
parent_name,0cd20_3dot0-1dot0
ch_type,1_1
kcount,1
numberNandB,1
brightnessNandB,1
carpet pos,0
pc,0
Time (ms),CH1 Auto-Correlation
1.0,0.017277536913752556
2.0,0.014055880717933178
3.0,0.011853701435029507
4.0,0.010142496787011623
5.0,0.008879014290869236
6.0,0.007938902825117111
7.0,0.007055959664285183
8.0,0.00634479895234108
9.0,0.005791762378066778
10.0,0.005303177051246166
11.0,0.005045290105044842
12.0,0.0047798845916986465
13.0,0.004516827408224344
14.0,0.004227400291711092
15.0,0.004001207184046507
16.0,0.003810281865298748
18.0,0.003389047458767891
20.0,0.003075970569625497
22.0,0.0029004840180277824
24.0,0.002625011373311281
26.0,0.0022473058197647333
28.0,0.00207159505225718
30.0,0.0017902613617479801
32.0,0.001363886520266533
36.0,0.001109700184315443
40.0,0.001092899008654058
44.0,0.0012438918929547071
48.0,0.0009256416815333068
52.0,0.0007016226882115006
56.0,0.0005132466903887689
60.0,0.0004539380024652928
64.0,0.0005551294889301062
72.0,0.0007973271422088146
80.0,0.0008184039033949375
88.0,0.0003939564630854875
96.0,6.281252717599273e-05
104.0,9.671795123722404e-05
112.0,0.00042675790609791875
120.0,0.0004187439917586744
128.0,0.00019701557175721973
144.0,-0.0003432512457948178
160.0,-0.000413968664361164
176.0,-0.00011122565774712712
192.0,-0.00019460637122392654
208.0,-0.00061289087170735
224.0,-0.00021445842867251486
240.0,-0.00013807701179757714
256.0,5.4601990996161476e-05
288.0,-8.516011439496651e-05
320.0,-0.00012895718100480735
352.0,0.000510514248162508
384.0,0.00028444803319871426
416.0,-0.00025404890766367316
448.0,-0.0001921506627695635
480.0,-0.0001814650313463062
512.0,-0.0005051122861914337
576.0,-2.775950633804314e-05
640.0,0.0004527687269728631
704.0,0.00028895624564029276
768.0,-0.00024448393378406763
832.0,-0.00014245373313315213
896.0,0.00020857447816524655
960.0,-2.5763432859093882e-05
1024.0,2.2344504031934775e-05
1152.0,-0.00022223185806069523
1280.0,0.0005817119381390512
1408.0,0.0005200706073082983
1536.0,-0.00032968667801469564
1664.0,0.0003392512444406748
1792.0,-0.0002445145510137081
1920.0,2.5967890906031244e-05
2048.0,0.0004058041959069669
2304.0,0.00012617814354598522
2560.0,4.25046710006427e-05
2816.0,0.00013719956041313708
3072.0,-0.00017060947720892727
3328.0,-3.187647234881297e-05
3584.0,-6.43193197902292e-05
3840.0,-4.5503387809731066e-05
4096.0,0.00026515196077525616
4608.0,3.696445855894126e-05
5120.0,2.3928258087835275e-05
5632.0,-0.00041948776924982667
6144.0,8.717309538042173e-05
6656.0,7.76637316448614e-05
7168.0,0.0002224754571216181
7680.0,-9.038637654157355e-05
8192.0,4.4858486944576725e-05
end
