version,3.0
numOfCh,1
type,point
parent_name,0cd20_3dot0-1dot0
ch_type,1_1
kcount,1
numberNandB,1
brightnessNandB,1
carpet pos,0
pc,0
Time (ms),CH1 Auto-Correlation
1.0,0.016541223973035812
2.0,0.013610790483653545
3.0,0.011575937271118164
4.0,0.010028351098299026
5.0,0.0088182482868433
6.0,0.007983881048858166
7.0,0.007272355258464813
8.0,0.006604223046451807
9.0,0.005940016359090805
10.0,0.005335043650120497
11.0,0.004959708545356989
12.0,0.004576108418405056
13.0,0.004245346412062645
14.0,0.004050805699080229
15.0,0.0038431533612310886
16.0,0.0036577130667865276
18.0,0.003338933689519763
20.0,0.0030711691360920668
22.0,0.00291662709787488
24.0,0.002541304798796773
26.0,0.0022271398920565844
28.0,0.0022244961000978947
30.0,0.002116988878697157
32.0,0.0018696647603064775
36.0,0.0017496420769020915
40.0,0.0016361670568585396
44.0,0.001476821256801486
48.0,0.0014102502027526498
52.0,0.0015263425884768367
56.0,0.0014181450242176652
60.0,0.001210394431836903
64.0,0.00112459238152951
72.0,0.0011587656335905194
80.0,0.0012115821009501815
88.0,0.001089332508854568
96.0,0.0006646653637290001
104.0,0.0005104705924168229
112.0,0.00037391926161944866
120.0,0.0002453973866067827
128.0,0.0005994522944092751
144.0,0.0007610285538248718
160.0,0.000742480275221169
176.0,0.0003594828594941646
192.0,-8.82187596289441e-05
208.0,-0.000260933447862044
224.0,-0.0002742807555478066
240.0,-9.675400360720232e-05
256.0,-0.00014778631157241762
288.0,0.0003302989643998444
320.0,0.00036777963396161795
352.0,0.0005334376473911107
384.0,0.00022235867800191045
416.0,1.4999704944784753e-05
448.0,4.176912625553086e-06
480.0,0.0004541731614153832
512.0,0.0003453734389040619
576.0,0.00039242685306817293
640.0,-0.00027457860414870083
704.0,-4.6858716814313084e-05
768.0,-0.00020850157306995243
832.0,0.00014179371646605432
896.0,4.0890878153732046e-05
960.0,0.00019277427054475993
1024.0,0.00017962150741368532
1152.0,-0.00026312071713618934
1280.0,-0.0003951273101847619
1408.0,-0.0005914459470659494
1536.0,-8.623417670605704e-05
1664.0,-7.115570770110935e-05
1792.0,-0.000318503676680848
1920.0,-0.0002946339955087751
2048.0,-0.00029017298948019743
2304.0,-0.0002357256307732314
2560.0,0.000269334384938702
2816.0,-0.0002479669055901468
3072.0,3.508286283704365e-07
3328.0,-6.122027116362005e-05
3584.0,4.036908285343088e-05
3840.0,3.9239752368303016e-05
4096.0,3.017845119757112e-05
4608.0,-0.00034020404564216733
5120.0,8.977125617093407e-06
5632.0,0.00039576494600623846
6144.0,0.00018557811563368887
6656.0,-0.00040144045487977564
7168.0,0.00017703819321468472
7680.0,-1.702603549347259e-05
8192.0,0.0005263897473923862
end
