version,3.0
numOfCh,1
type,point
parent_name,0cd20_3dot0-1dot0
ch_type,1_1
kcount,1
numberNandB,1
brightnessNandB,1
carpet pos,0
pc,0
Time (ms),CH1 Auto-Correlation
1.0,0.015612944960594177
2.0,0.012637153267860413
3.0,0.010568864643573761
4.0,0.008966976776719093
5.0,0.007641823496669531
6.0,0.00675529520958662
7.0,0.006153071764856577
8.0,0.005562311969697475
9.0,0.005042131990194321
10.0,0.00459554186090827
11.0,0.004192480351775885
12.0,0.0039012401830404997
13.0,0.0037563717924058437
14.0,0.0035864333622157574
15.0,0.0034848195500671864
16.0,0.003383617615327239
18.0,0.0030808711890131235
20.0,0.002828415483236313
22.0,0.002635853597894311
24.0,0.002447819570079446
26.0,0.0022345923352986574
28.0,0.0019503335934132338
30.0,0.0018665555398911238
32.0,0.001827353611588478
36.0,0.0017294931458309293
40.0,0.001149087562225759
44.0,0.0007882688660174608
48.0,0.0004881714121438563
52.0,0.00025497889146208763
56.0,8.80886145750992e-05
60.0,0.0001946417905855924
64.0,0.00021564621420111507
72.0,0.00043628489947877824
80.0,0.00044431889546103776
88.0,0.0005685309297405183
96.0,0.0003444370231591165
104.0,0.0005016675568185747
112.0,0.00045264657819643617
120.0,0.0002971548237837851
128.0,0.0007969695143401623
144.0,0.00043607139377854764
160.0,0.0003428253694437444
176.0,0.00045685292570851743
192.0,0.0003292479377705604
208.0,0.0002020659449044615
224.0,-0.00012262600648682564
240.0,8.84502223925665e-05
256.0,0.0005407191347330809
288.0,0.0006564862560480833
320.0,0.0003531706752255559
352.0,9.464949835091829e-05
384.0,-6.740718526998535e-05
416.0,0.00013197233784012496
448.0,-0.00012324328417889774
480.0,7.022430509096012e-05
512.0,-0.00019650367903523147
576.0,-2.2810729205957614e-05
640.0,-0.00023541887640021741
704.0,6.887558265589178e-05
768.0,-0.0006217680056579411
832.0,-0.00048764378880150616
896.0,-0.00039975770050659776
960.0,-0.0006483526085503399
1024.0,-0.0007552949246019125
1152.0,-0.00041203072760254145
1280.0,-2.980977478728164e-05
1408.0,-7.217421170935268e-06
1536.0,0.0002118852862622589
1664.0,0.0004287413612473756
1792.0,2.0227162167429924e-05
1920.0,-3.1966064852895215e-05
2048.0,-3.901517629856244e-05
2304.0,-0.00038901413790881634
2560.0,-0.0002510315098334104
2816.0,-0.00012420637358445674
3072.0,0.00021296755585353822
3328.0,0.0002994455862790346
3584.0,0.00027032094658352435
3840.0,0.00017665111226961017
4096.0,-7.334867859754013e-07
4608.0,-0.00021339573140721768
5120.0,8.196424460038543e-05
5632.0,0.00012290770246181637
6144.0,-0.00010408325033495203
6656.0,-3.4915839933091775e-05
7168.0,0.0001513336319476366
7680.0,-0.00020806750399060547
8192.0,-0.00011466681462479755
end
