version,3.0
numOfCh,1
type,point
parent_name,0cd20_3dot0-1dot0
ch_type,1_1
kcount,1
numberNandB,1
brightnessNandB,1
carpet pos,0
pc,0
Time (ms),CH1 Auto-Correlation
1.0,0.017974885180592537
2.0,0.014820082113146782
3.0,0.012612253427505493
4.0,0.01102879922837019
5.0,0.009865676052868366
6.0,0.008877895772457123
7.0,0.008048332296311855
8.0,0.007371542975306511
9.0,0.006873494014143944
10.0,0.006404758896678686
11.0,0.005950349848717451
12.0,0.005663279909640551
13.0,0.005411610938608646
14.0,0.005134234670549631
15.0,0.004868829157203436
16.0,0.004585511051118374
18.0,0.004207360092550516
20.0,0.003970296587795019
22.0,0.00393305579200387
24.0,0.003787676338106394
26.0,0.0035956474021077156
28.0,0.0034094578586518764
30.0,0.003168693045154214
32.0,0.0030283567029982805
36.0,0.0025212534237653017
40.0,0.002064213389530778
44.0,0.001961591187864542
48.0,0.0017783318180590868
52.0,0.001540952711366117
56.0,0.0013303480809554458
60.0,0.0011241649044677615
64.0,0.0008811287116259336
72.0,0.000592349621001631
80.0,0.0004747328348457813
88.0,0.00035269357613287866
96.0,8.225445344578475e-05
104.0,0.00020410744764376432
112.0,0.00010191314504481852
120.0,0.00024100746668409556
128.0,0.00039193147676996887
144.0,-2.9639135391335003e-05
160.0,9.221015352522954e-05
176.0,-0.00040364853339269757
192.0,-0.0004955166950821877
208.0,-0.00025956518948078156
224.0,-0.0002396546333329752
240.0,-0.0003164215595461428
256.0,-8.63625027704984e-05
288.0,-1.902319309010636e-05
320.0,-0.0002885530411731452
352.0,-0.0009861113503575325
384.0,-0.0009495150297880173
416.0,-0.0005238343728706241
448.0,-0.0008446963038295507
480.0,-0.0007717954576946795
512.0,-0.00040179112693294883
576.0,-0.0001214444127981551
640.0,0.00021271790319588035
704.0,-0.00015587006055284292
768.0,0.00013110804138705134
832.0,0.000344181404216215
896.0,-2.1401581307145534e-06
960.0,-0.00012174463336123154
1024.0,0.0002940674312412739
1152.0,0.00028048938838765025
1280.0,-0.00017769815167412162
1408.0,-0.00037535864976234734
1536.0,-0.00021005353482905775
1664.0,0.00022863737831357867
1792.0,8.802452794043347e-05
1920.0,0.00023012488964013755
2048.0,0.0004048686823807657
2304.0,-0.0004237385874148458
2560.0,6.581249908776954e-05
2816.0,0.0002889573806896806
3072.0,-0.0001390171964885667
3328.0,-7.395103602902964e-05
3584.0,0.00020163875888101757
3840.0,-0.00013210237375460565
4096.0,-0.0004345754277892411
4608.0,-0.0001520929072285071
5120.0,0.00017363677034154534
5632.0,8.835268818074837e-05
6144.0,0.00011793200246756896
6656.0,-6.616744940401986e-05
7168.0,-0.00011448801524238661
7680.0,0.0002022845292231068
8192.0,4.781408642884344e-05
end
