version,3.0
numOfCh,1
type,point
parent_name,0cd20_3dot0-1dot0
ch_type,1_1
kcount,1
numberNandB,1
brightnessNandB,1
carpet pos,0
pc,0
Time (ms),CH1 Auto-Correlation
1.0,0.01889580488204956
2.0,0.015535272657871246
3.0,0.013101570308208466
4.0,0.011314994655549526
5.0,0.010002697817981243
6.0,0.008967245928943157
7.0,0.008079820312559605
8.0,0.007288857828825712
9.0,0.006677160505205393
10.0,0.00608740234747529
11.0,0.005650142673403025
12.0,0.0052569531835615635
13.0,0.004800088237971067
14.0,0.0044431863352656364
15.0,0.004193976521492004
16.0,0.003881630953401327
18.0,0.0034845108166337013
20.0,0.0032002057414501905
22.0,0.0030172429978847504
24.0,0.0027724234387278557
26.0,0.0025136321783065796
28.0,0.0023555122315883636
30.0,0.0021844396833330393
32.0,0.00221799174323678
36.0,0.0018377064261585474
40.0,0.0020390169229358435
44.0,0.002125438302755356
48.0,0.002002736320719123
52.0,0.0017566917231306434
56.0,0.0016461412888020277
60.0,0.0015485434560105205
64.0,0.0013532200828194618
72.0,0.0013625753344967961
80.0,0.0009397212415933609
88.0,0.0010788709623739123
96.0,0.0008073154604062438
104.0,0.0004904242814518511
112.0,0.00030362571123987436
120.0,0.00029025060939602554
128.0,0.0008191625820472836
144.0,0.0010445244843140244
160.0,0.0006810566992498934
176.0,0.00018695692415349185
192.0,-0.0002111937792506069
208.0,-0.0002647848741617054
224.0,-0.0003658644563984126
240.0,0.00017394463066011667
256.0,0.0005122490110807121
288.0,0.0007956976187415421
320.0,-0.00014308594109024853
352.0,0.000462512020021677
384.0,0.00032796067534945905
416.0,0.0003413837112020701
448.0,6.300712266238406e-05
480.0,0.00030134167172946036
512.0,0.00032915573683567345
576.0,-6.816493987571448e-05
640.0,-0.00017736303561832756
704.0,-4.015280501334928e-05
768.0,0.0004461978387553245
832.0,0.00044280526344664395
896.0,-0.00015697783965151757
960.0,-0.00020091798796784133
1024.0,-0.0002889443130698055
1152.0,7.322234159801155e-05
1280.0,4.842412090511061e-05
1408.0,-3.0431676350417547e-05
1536.0,0.00014527035818900913
1664.0,3.053490581805818e-05
1792.0,-0.0003188112750649452
1920.0,-0.00030512086232192814
2048.0,-0.00023478674120269716
2304.0,-1.704187525319867e-05
2560.0,-8.829423313727602e-05
2816.0,-0.00043666662531904876
3072.0,-0.00045972297084517777
3328.0,-0.0008235776913352311
3584.0,3.844371167360805e-05
3840.0,7.795138117216993e-06
4096.0,-0.00041734427213668823
4608.0,-9.581668564351276e-05
5120.0,5.3476469474844635e-05
5632.0,0.00018903511227108538
6144.0,6.275760097196326e-05
6656.0,-1.4324527001008391e-05
7168.0,-6.2013082242629025e-06
7680.0,0.0001941942609846592
8192.0,-0.0002722226781770587
end
