version,3.0
numOfCh,1
type,point
parent_name,0cd20_3dot0-1dot0
ch_type,1_1
kcount,1
numberNandB,1
brightnessNandB,1
carpet pos,0
pc,0
Time (ms),CH1 Auto-Correlation
1.0,0.01712457835674286
2.0,0.013990203849971294
3.0,0.011799054220318794
4.0,0.010096571408212185
5.0,0.008821142837405205
6.0,0.007809960749000311
7.0,0.0070267594419419765
8.0,0.0065657696686685085
9.0,0.006107101682573557
10.0,0.005839251447468996
11.0,0.005587856285274029
12.0,0.005214130971580744
13.0,0.005006222985684872
14.0,0.004812950734049082
15.0,0.004572846926748753
16.0,0.004165539983659983
18.0,0.0035778095480054617
20.0,0.0033094785176217556
22.0,0.0029767039231956005
24.0,0.0026230691000819206
26.0,0.0021563898772001266
28.0,0.0019045100780203938
30.0,0.0015837328974157572
32.0,0.0014509559841826558
36.0,0.001376236556097865
40.0,0.0012942265020683408
44.0,0.0011363447410985827
48.0,0.0010624181013554335
52.0,0.0007697732653468847
56.0,0.000694687245413661
60.0,0.0006725362618453801
64.0,0.0003972346894443035
72.0,0.0004011008713860065
80.0,0.0007054941379465163
88.0,0.0008063311106525362
96.0,0.00089769356418401
104.0,0.0008229247177951038
112.0,0.0005411850288510323
120.0,0.00011888751032529399
128.0,0.00010857417510123923
144.0,0.0001841192424762994
160.0,0.0007072205189615488
176.0,0.0003673610626719892
192.0,0.0006772103952243924
208.0,0.0001935549807967618
224.0,6.554717401741073e-05
240.0,0.00028914064751006663
256.0,-1.082595917978324e-05
288.0,0.0003443047171458602
320.0,0.0004201010160613805
352.0,0.0003253055037930608
384.0,0.0001060198264895007
416.0,-3.196491161361337e-05
448.0,0.00017005778499878943
480.0,-0.0003407816693652421
512.0,0.00014765304513275623
576.0,0.00023874598264228553
640.0,0.00022244444699026644
704.0,-0.0007890721317380667
768.0,-0.0006220901850610971
832.0,1.2059298569511157e-05
896.0,-0.00027822083211503923
960.0,1.8605450122777256e-06
1024.0,-6.762984412489459e-05
1152.0,-0.00023133639479056
1280.0,-0.00013861047045793384
1408.0,-0.00011165197065565735
1536.0,-0.0003467996430117637
1664.0,-0.0002104139857692644
1792.0,-0.0005574803217314184
1920.0,-0.00027762496029026806
2048.0,-0.0003416132531128824
2304.0,-0.00023512932239100337
2560.0,-0.00017787139222491533
2816.0,0.0003302356053609401
3072.0,-0.00022966600954532623
3328.0,0.00018509550136514008
3584.0,-0.000154324050527066
3840.0,0.0009317449294030666
4096.0,0.00039723844383843243
4608.0,-6.759059760952368e-05
5120.0,-0.0003870796354021877
5632.0,4.205207369523123e-05
6144.0,-0.0002281754423165694
6656.0,4.952418021275662e-05
7168.0,0.0004504453099798411
7680.0,-1.7880756786325946e-05
8192.0,0.0004617540689650923
end
