version,3.0
numOfCh,1
type,point
parent_name,0cd20_3dot0-1dot0
ch_type,1_1
kcount,1
numberNandB,1
brightnessNandB,1
carpet pos,0
pc,0
Time (ms),CH1 Auto-Correlation
1.0,0.01757599227130413
2.0,0.014347932301461697
3.0,0.012127015739679337
4.0,0.010464881546795368
5.0,0.00920972041785717
6.0,0.00830234494060278
7.0,0.007599489763379097
8.0,0.006983371917158365
9.0,0.0064374348148703575
10.0,0.006086417473852634
11.0,0.00562659977003932
12.0,0.005171339493244886
13.0,0.004853460937738419
14.0,0.004545844625681639
15.0,0.004114717710763216
16.0,0.0037044535856693983
18.0,0.0031201138626784086
20.0,0.0026474306359887123
22.0,0.0022293622605502605
24.0,0.0020541760604828596
26.0,0.002189625520259142
28.0,0.0022544008679687977
30.0,0.0022618514485657215
32.0,0.0021113944239914417
36.0,0.0020260498858988285
40.0,0.002019137144088745
44.0,0.0019321320578455925
48.0,0.0018829784821718931
52.0,0.001659843954257667
56.0,0.0016760461730882525
60.0,0.0013876563170924783
64.0,0.0013899437617510557
72.0,0.0011903682025149465
80.0,0.0010383789194747806
88.0,0.0008089762995950878
96.0,0.0008959178230725229
104.0,0.0003609595587477088
112.0,0.00023403452360071242
120.0,9.644746751291677e-05
128.0,0.00014794674643781036
144.0,0.0002398740907665342
160.0,0.00043619624921120703
176.0,0.000538626394700259
192.0,0.0008267327793873847
208.0,0.00033690169220790267
224.0,0.0009001874714158475
240.0,0.0005150606739334762
256.0,0.0005990298232063651
288.0,-4.19689531554468e-05
320.0,-0.0002475251676514745
352.0,-0.0005357331829145551
384.0,-0.0004059276543557644
416.0,-0.00048265373334288597
448.0,-0.0004243107687216252
480.0,0.0002713484282139689
512.0,-8.87817168404581e-06
576.0,-0.0009720758534967899
640.0,-0.0006686149281449616
704.0,-0.00034257338847965
768.0,-0.0002910365292336792
832.0,-0.000431475811637938
896.0,-0.0006570298573933542
960.0,-0.0003091364342253655
1024.0,-0.00043812592048197985
1152.0,-0.00030628038803115487
1280.0,0.00042648694943636656
1408.0,0.00042732059955596924
1536.0,0.00010245740850223228
1664.0,-0.00024284847313538194
1792.0,-8.026446448639035e-05
1920.0,0.0003211398725397885
2048.0,-0.00043324087164364755
2304.0,5.813581447000615e-05
2560.0,0.0003790695045609027
2816.0,0.0005811641458421946
3072.0,-0.0001810883404687047
3328.0,-0.00048706523375585675
3584.0,-0.00031090565607883036
3840.0,-0.00012561940820887685
4096.0,0.0004014475562144071
4608.0,-0.0002629140217322856
5120.0,0.0003305547870695591
5632.0,-0.0002005582209676504
6144.0,-0.0003932556137442589
6656.0,0.00038625503657385707
7168.0,4.510582584771328e-05
7680.0,-0.00014973594807088375
8192.0,2.3134294679039158e-05
end
