version,3.0
numOfCh,1
type,point
parent_name,0cd20_3dot0-1dot0
ch_type,1_1
kcount,1
numberNandB,1
brightnessNandB,1
carpet pos,0
pc,0
Time (ms),CH1 Auto-Correlation
1.0,0.016631584614515305
2.0,0.013663939200341702
3.0,0.011543825268745422
4.0,0.009860651567578316
5.0,0.00853016134351492
6.0,0.00756336934864521
7.0,0.006813242100179195
8.0,0.006163572892546654
9.0,0.005575757939368486
10.0,0.0050811730325222015
11.0,0.004805963020771742
12.0,0.004589215852320194
13.0,0.004389955662190914
14.0,0.004309655167162418
15.0,0.0041477251797914505
16.0,0.003965836018323898
18.0,0.0035774579737335443
20.0,0.0031323654111474752
22.0,0.0027497734408825636
24.0,0.0025993315503001213
26.0,0.0023751147091388702
28.0,0.001995987957343459
30.0,0.001833128510043025
32.0,0.001874494249932468
36.0,0.0016667797463014722
40.0,0.0016112432349473238
44.0,0.001168447663076222
48.0,0.0008808162529021502
52.0,0.0008735476876609027
56.0,0.0008179182186722755
60.0,0.0008124150917865336
64.0,0.0006671998417004943
72.0,0.0004305852926336229
80.0,0.0004371811810415238
88.0,0.0005801676888950169
96.0,0.0002752083819359541
104.0,0.0003582667850423604
112.0,0.0006270552985370159
120.0,0.0003274684422649443
128.0,0.0006315229693427682
144.0,0.0006468556821346283
160.0,0.0007171792676672339
176.0,0.0008491775952279568
192.0,0.0006648817216046154
208.0,3.9352758903987706e-05
224.0,0.0008436692878603935
240.0,0.0003408782067708671
256.0,0.0003773981879930943
288.0,0.0004629383620340377
320.0,0.00021492653468158096
352.0,0.00042440975084900856
384.0,0.0005144351744093001
416.0,0.0006329462048597634
448.0,0.0004839398025069386
480.0,0.00048565876204520464
512.0,0.00038175907684490085
576.0,4.914353667118121e-06
640.0,-0.00013899407349526882
704.0,-8.982224971987307e-05
768.0,-6.333625788101926e-05
832.0,0.0001540765370009467
896.0,3.820421261480078e-05
960.0,-5.523659638129175e-05
1024.0,-0.00013087167462799698
1152.0,-0.00041274758405052125
1280.0,-0.00033134501427412033
1408.0,-0.00025132865994237363
1536.0,-0.0006927857757546008
1664.0,-0.0001949988945852965
1792.0,-0.00010916079190792516
1920.0,-0.0003112141275778413
2048.0,-0.00018252139852847904
2304.0,-0.0002310902636963874
2560.0,-0.0001883772056316957
2816.0,-0.0002773542364593595
3072.0,-0.00019392298418097198
3328.0,-3.790448681684211e-05
3584.0,1.1826490663224831e-05
3840.0,0.00014493861817754805
4096.0,-3.557012678356841e-05
4608.0,0.00021921201550867409
5120.0,3.9456634112866595e-05
5632.0,0.00020758670871146023
6144.0,0.00041065740515477955
6656.0,-0.00018490484217181802
7168.0,-0.0005060381954535842
7680.0,-0.00042771821608766913
8192.0,0.00030880505801178515
end
