version,3.0
numOfCh,1
type,point
parent_name,0cd20_3dot0-1dot0
ch_type,1_1
kcount,1
numberNandB,1
brightnessNandB,1
carpet pos,0
pc,0
Time (ms),CH1 Auto-Correlation
1.0,0.018275432288646698
2.0,0.015185884200036526
3.0,0.012897192500531673
4.0,0.011195657774806023
5.0,0.009844745509326458
6.0,0.008771381340920925
7.0,0.007987823337316513
8.0,0.007362876087427139
9.0,0.006723079364746809
10.0,0.006246217992156744
11.0,0.005706546828150749
12.0,0.0052709560841321945
13.0,0.004912259057164192
14.0,0.004531457554548979
15.0,0.004210096783936024
16.0,0.00401684083044529
18.0,0.003428581403568387
20.0,0.003325559664517641
22.0,0.0032171006314456463
24.0,0.002931946190074086
26.0,0.0026067865546792746
28.0,0.0023584531154483557
30.0,0.002275126287713647
32.0,0.0021591868717223406
36.0,0.0017927194712683558
40.0,0.0014220718294382095
44.0,0.0012502268655225635
48.0,0.0012603678042069077
52.0,0.001282340381294489
56.0,0.001209721085615456
60.0,0.0011998371919617057
64.0,0.0009759751264937222
72.0,0.0005744928494095802
80.0,0.00024841720005497336
88.0,0.0002578910789452493
96.0,0.00027934834361076355
104.0,0.0006453654495999217
112.0,0.0006507005309686065
120.0,0.0004910281859338284
128.0,0.0006325712311081588
144.0,0.0004547135322354734
160.0,0.0003698593354783952
176.0,0.0008912503253668547
192.0,0.0003810506605077535
208.0,0.0002870169118978083
224.0,0.00011160297435708344
240.0,-0.00011786234972532839
256.0,-0.00011348343832651153
288.0,-0.0005063575226813555
320.0,-0.0003312542976345867
352.0,-0.0003218543715775013
384.0,-0.0001491574221290648
416.0,-0.00010523384844418615
448.0,-0.00033713600714690983
480.0,0.0004787671205122024
512.0,7.199312676675618e-05
576.0,0.0005859939847141504
640.0,0.0003500275779515505
704.0,-0.0005874504568055272
768.0,-4.117152275284752e-05
832.0,-0.00023474263434763998
896.0,-0.00038588864845223725
960.0,-0.000266702234512195
1024.0,0.00015305649139918387
1152.0,-2.52017689490458e-05
1280.0,-0.0004787446232512593
1408.0,8.43149027787149e-05
1536.0,0.00024570184177719057
1664.0,0.00020975113147869706
1792.0,-0.0001389374228892848
1920.0,0.00010926220420515165
2048.0,0.0004913806333206594
2304.0,-8.870272267813561e-07
2560.0,-0.00021307567658368498
2816.0,-0.00024182454217225313
3072.0,-0.00033269598498009145
3328.0,0.00014788798580411822
3584.0,-8.452019392279908e-05
3840.0,-0.00034261366818100214
4096.0,-0.00012697893544100225
4608.0,-0.00012825675366912037
5120.0,-0.00012553189299069345
5632.0,-0.000351183203747496
6144.0,0.00024489875067956746
6656.0,0.0005644496995955706
7168.0,-9.547861554892734e-05
7680.0,-2.1157038645469584e-05
8192.0,0.00043504463974386454
end
