version,3.0
numOfCh,1
type,point
parent_name,0cd20_3dot0-1dot0
ch_type,1_1
kcount,1
numberNandB,1
brightnessNandB,1
carpet pos,0
pc,0
Time (ms),CH1 Auto-Correlation
1.0,0.017473286017775536
2.0,0.014280161820352077
3.0,0.011857789941132069
4.0,0.009878523647785187
5.0,0.008333341218531132
6.0,0.00724087655544281
7.0,0.006325711030513048
8.0,0.005580636207014322
9.0,0.00499767018482089
10.0,0.004603925161063671
11.0,0.004076732788234949
12.0,0.003782430198043585
13.0,0.0034835629630833864
14.0,0.003125840099528432
15.0,0.0029005915857851505
16.0,0.002653195057064295
18.0,0.002107193460687995
20.0,0.0016382256289944053
22.0,0.0013609176967293024
24.0,0.0010751467198133469
26.0,0.000962557562161237
28.0,0.0009645801037549973
30.0,0.0007333793328143656
32.0,0.0006518805166706443
36.0,0.00048339422210119665
40.0,0.00044317430001683533
44.0,0.00017545295122545213
48.0,0.00022445854847319424
52.0,0.0003666747361421585
56.0,0.0001702214649412781
60.0,0.00010090188152389601
64.0,0.000484648859128356
72.0,0.00024206827220041305
80.0,2.5444278435315937e-05
88.0,0.00022523240477312356
96.0,-0.00019818313012365252
104.0,-2.8743152142851613e-05
112.0,0.0003255954943597317
120.0,0.0002906894078478217
128.0,0.0001959167857421562
144.0,0.00039246553205884993
160.0,0.0007428203243762255
176.0,0.00047524881665594876
192.0,-0.0002007087750826031
208.0,-0.0003489663067739457
224.0,-0.0003470754891168326
240.0,7.67961610108614e-05
256.0,0.0002392330497968942
288.0,-0.00016801872698124498
320.0,-0.00019384181359782815
352.0,-0.00044289304059930146
384.0,-0.0003360823611728847
416.0,-2.4430398752883775e-06
448.0,-0.000128140629385598
480.0,0.0001495860778959468
512.0,-0.0002905986912082881
576.0,-6.777315138606355e-05
640.0,-5.617323040496558e-05
704.0,-0.00028011336689814925
768.0,0.00010822894546436146
832.0,-0.000413592963013798
896.0,0.00014186139742378145
960.0,-0.0005011132452636957
1024.0,-0.0002430537570035085
1152.0,-0.00021184001525398344
1280.0,-0.00014291847764980048
1408.0,-0.00012591465201694518
1536.0,-0.0003028546052519232
1664.0,-2.5870953322737478e-05
1792.0,0.00014551958884112537
1920.0,-7.628941239090636e-05
2048.0,-2.3061602405505255e-05
2304.0,8.942219574237242e-05
2560.0,0.0001735594851197675
2816.0,-6.920932355569676e-05
3072.0,4.8930156481219456e-05
3328.0,-0.0002883494889829308
3584.0,1.9071540009463206e-05
3840.0,4.822351911570877e-05
4096.0,2.3592705474584363e-05
4608.0,0.00013145460980013013
5120.0,-0.00013881977065466344
5632.0,0.000241227142396383
6144.0,-0.00025782219017855823
6656.0,8.964387234300375e-06
7168.0,-1.4674397789349314e-05
7680.0,0.0001544761616969481
8192.0,0.00017589182243682444
end
