version,3.0
numOfCh,1
type,point
parent_name,0cd20_3dot0-1dot0
ch_type,1_1
kcount,1
numberNandB,1
brightnessNandB,1
carpet pos,0
pc,0
Time (ms),CH1 Auto-Correlation
1.0,0.016057034954428673
2.0,0.012940306216478348
3.0,0.010710705071687698
4.0,0.009093309752643108
5.0,0.007933340035378933
6.0,0.0069927629083395
7.0,0.006165188737213612
8.0,0.0055398582480847836
9.0,0.005107787437736988
10.0,0.004812463186681271
11.0,0.0045000361278653145
12.0,0.004138942342251539
13.0,0.0039029461331665516
14.0,0.0038249322678893805
15.0,0.0036317359190434217
16.0,0.003546610241755843
18.0,0.0031316636595875025
20.0,0.0028171816375106573
22.0,0.0024495036341249943
24.0,0.002150018000975251
26.0,0.002020954852923751
28.0,0.0019180824747309089
30.0,0.0017254621488973498
32.0,0.0015290577430278063
36.0,0.0012942986795678735
40.0,0.0009016324765980244
44.0,0.0009062624885700643
48.0,0.0005696412990801036
52.0,0.00044556293869391084
56.0,0.0004777635622303933
60.0,0.00040572701254859567
64.0,0.0005701521295122802
72.0,0.00021828060562256724
80.0,2.6985506337950937e-05
88.0,0.00042254780419170856
96.0,0.0005790572613477707
104.0,0.0004354926059022546
112.0,0.0002731591812334955
120.0,0.00031340817804448307
128.0,5.874646740267053e-05
144.0,7.468162220902741e-05
160.0,0.00019855117716360837
176.0,0.000295085774268955
192.0,0.0005424012779258192
208.0,0.00042239075992256403
224.0,0.0006382245337590575
240.0,0.00014984152221586555
256.0,0.0004508422571234405
288.0,-0.00010491911962162703
320.0,-3.330074468976818e-05
352.0,-0.00031557807233184576
384.0,-0.00020193895034026355
416.0,0.00031309580663219094
448.0,0.0004722879675682634
480.0,0.00023482408141717315
512.0,-4.869809799856739e-07
576.0,-0.00024100484733935446
640.0,-0.000417357892729342
704.0,-0.00014444530825130641
768.0,-0.00013928125554230064
832.0,-7.822374755050987e-05
896.0,-0.000328147376421839
960.0,-0.0002994017268065363
1024.0,-0.0004188586608506739
1152.0,-0.0005826063570566475
1280.0,-0.0005214418633840978
1408.0,-0.00032257047132588923
1536.0,3.057736103073694e-05
1664.0,0.00015294505283236504
1792.0,6.512874824693426e-05
1920.0,0.00013810470409225672
2048.0,-3.1543859222438186e-05
2304.0,0.00023564092407468706
2560.0,0.00022825534688308835
2816.0,-2.1762138203484938e-05
3072.0,-0.00012760738900396973
3328.0,-0.0003956941654905677
3584.0,-0.0005503082647919655
3840.0,0.00016397330909967422
4096.0,3.4780769055942073e-05
4608.0,0.0003318381495773792
5120.0,-0.00011357482435414568
5632.0,0.0001108992873923853
6144.0,0.0002161357260774821
6656.0,-0.00020407514239195734
7168.0,-0.00011396849731681868
7680.0,0.00020112456695642322
8192.0,-0.00014101777924224734
end
