version,3.0
numOfCh,1
type,point
parent_name,0cd20_3dot0-1dot0
ch_type,1_1
kcount,1
numberNandB,1
brightnessNandB,1
carpet pos,0
pc,0
Time (ms),CH1 Auto-Correlation
1.0,0.018303830176591873
2.0,0.014974866062402725
3.0,0.012671164236962795
4.0,0.011052853427827358
5.0,0.009745449759066105
6.0,0.008679427206516266
7.0,0.007852543145418167
8.0,0.007240855600684881
9.0,0.006649243179708719
10.0,0.0061297547072172165
11.0,0.005596579052507877
12.0,0.005085643380880356
13.0,0.004700564779341221
14.0,0.004478991497308016
15.0,0.004131722263991833
16.0,0.0038608387112617493
18.0,0.003522721119225025
20.0,0.0031440791208297014
22.0,0.0029294034466147423
24.0,0.0026726089417934418
26.0,0.002395103918388486
28.0,0.0021974919363856316
30.0,0.002012325683608651
32.0,0.0017056167125701904
36.0,0.0015979079762473702
40.0,0.0014262747718021274
44.0,0.001404459122568369
48.0,0.0013998592039570212
52.0,0.0012448482448235154
56.0,0.00106076302472502
60.0,0.0012372304918244481
64.0,0.0011647529900074005
72.0,0.0007220841362141073
80.0,0.000262423389358446
88.0,0.00017622851009946316
96.0,-0.0002826948475558311
104.0,-0.00020251667592674494
112.0,-5.3484549425775185e-05
120.0,-0.0005376128829084337
128.0,-0.001082465867511928
144.0,-0.0005806744447909296
160.0,-0.00013126690464559942
176.0,0.00017630864749662578
192.0,-0.0004986356943845749
208.0,-0.0004393572744447738
224.0,0.0003521906037349254
240.0,9.349012543680146e-05
256.0,7.10447711753659e-05
288.0,0.0002520947309676558
320.0,0.0003234754258301109
352.0,0.0004601147957146168
384.0,0.0003819168487098068
416.0,0.00013356655836105347
448.0,0.0001585488935234025
480.0,-0.00030944784521125257
512.0,-7.528882997576147e-05
576.0,-9.87339299172163e-05
640.0,0.00027804376441054046
704.0,0.000409969623433426
768.0,0.0003699576191138476
832.0,-0.00020210124785080552
896.0,-0.0004212330677546561
960.0,-0.0004225736774969846
1024.0,-0.00037827083724550903
1152.0,-8.520877599949017e-05
1280.0,0.00012538534065242857
1408.0,-0.000884826120454818
1536.0,-0.0003460071748122573
1664.0,-0.0006332226330414414
1792.0,-0.0002697821182664484
1920.0,0.0002880319079849869
2048.0,-0.00020228925859555602
2304.0,-1.6179879821720533e-05
2560.0,8.30913195386529e-05
2816.0,0.00024976872373372316
3072.0,0.000466598488856107
3328.0,-0.00011068666208302602
3584.0,0.0002364710089750588
3840.0,0.00010148353612748906
4096.0,-2.41641446336871e-05
4608.0,-0.00036312808515504
5120.0,-0.00029116697260178626
5632.0,0.00040660498780198395
6144.0,0.00029225691105239093
6656.0,9.89460531855002e-05
7168.0,-0.00034961270284838974
7680.0,-0.00011985682067461312
8192.0,-4.439352323970525e-06
end
