version,3.0
numOfCh,1
type,point
parent_name,0cd20_3dot0-1dot0
ch_type,1_1
kcount,1
numberNandB,1
brightnessNandB,1
carpet pos,0
pc,0
Time (ms),CH1 Auto-Correlation
1.0,0.018033189699053764
2.0,0.014745146036148071
3.0,0.012505830265581608
4.0,0.010733084753155708
5.0,0.00941146444529295
6.0,0.0083082914352417
7.0,0.007334591820836067
8.0,0.006715803872793913
9.0,0.00604473240673542
10.0,0.005604445934295654
11.0,0.00513920933008194
12.0,0.004744419828057289
13.0,0.004302661400288343
14.0,0.003966029733419418
15.0,0.0036415003705769777
16.0,0.003428184660151601
18.0,0.003127835923805833
20.0,0.0029958095401525497
22.0,0.0030486034229397774
24.0,0.002873925259336829
26.0,0.002527765929698944
28.0,0.0022023413330316544
30.0,0.0018368993187323213
32.0,0.0015449487837031484
36.0,0.0010381626198068261
40.0,0.001147266011685133
44.0,0.001415046863257885
48.0,0.001562210381962359
52.0,0.0017189589561894536
56.0,0.001439496991224587
60.0,0.0009996544104069471
64.0,0.0005852360627613962
72.0,0.0005596168339252472
80.0,0.0008035483187995851
88.0,0.00023282402253244072
96.0,-2.286065682710614e-05
104.0,-0.0002007572038564831
112.0,-0.0005344911478459835
120.0,-0.00037152471486479044
128.0,-0.0006069053197279572
144.0,-0.00037394120590761304
160.0,-3.48483954439871e-05
176.0,-8.682336556375958e-06
192.0,4.2079023842234164e-05
208.0,0.00014040367386769503
224.0,-0.00012853959924541414
240.0,0.00022506299137603492
256.0,3.529771220200928e-06
288.0,0.0005744075169786811
320.0,0.00017563591245561838
352.0,6.493627552117687e-06
384.0,0.00010948906128760427
416.0,-0.0002849874144885689
448.0,0.0004061106883455068
480.0,-3.4319673432037234e-05
512.0,0.000219743320485577
576.0,0.00017186603508889675
640.0,0.0002937136741820723
704.0,0.00016271410277113318
768.0,-0.00019901420455425978
832.0,0.00043487551738508046
896.0,0.00025794911198318005
960.0,0.00025460822507739067
1024.0,0.00020444064284674823
1152.0,0.000339734397130087
1280.0,0.00029881243244744837
1408.0,-0.00016271376807708293
1536.0,-9.34525960474275e-05
1664.0,4.251102654961869e-05
1792.0,0.00044083630200475454
1920.0,0.00030128820799291134
2048.0,3.981421104981564e-05
2304.0,-0.00018222210928797722
2560.0,-6.269741788855754e-06
2816.0,-0.00046575564192608
3072.0,0.0002401700330665335
3328.0,-0.0002900057006627321
3584.0,-0.00031762183061800897
3840.0,0.00017642916645854712
4096.0,-0.00017644546460360289
4608.0,-0.00036570761585608125
5120.0,0.00016601654351688921
5632.0,-6.152454443508759e-05
6144.0,0.0001768719666870311
6656.0,-0.0002770209976006299
7168.0,1.3175075764593203e-05
7680.0,-0.00021512468811124563
8192.0,-5.813350799144246e-05
end
