version,3.0
numOfCh,1
type,point
parent_name,0cd20_3dot0-1dot0
ch_type,1_1
kcount,1
numberNandB,1
brightnessNandB,1
carpet pos,0
pc,0
Time (ms),CH1 Auto-Correlation
1.0,0.017213992774486542
2.0,0.014225203543901443
3.0,0.01211558934301138
4.0,0.010545498691499233
5.0,0.009341134689748287
6.0,0.008305382914841175
7.0,0.00752567034214735
8.0,0.006912820041179657
9.0,0.006355895660817623
10.0,0.005813607480376959
11.0,0.005298899486660957
12.0,0.004870986100286245
13.0,0.00458252988755703
14.0,0.004342454951256514
15.0,0.004150768276304007
16.0,0.0039289407432079315
18.0,0.0036449991166591644
20.0,0.0032453122548758984
22.0,0.0029133008792996407
24.0,0.0026463440153747797
26.0,0.002475781599059701
28.0,0.0022581075318157673
30.0,0.0019239445682615042
32.0,0.0016640566755086184
36.0,0.0014611141523346305
40.0,0.001368095283396542
44.0,0.00134972482919693
48.0,0.0011421561939641833
52.0,0.000969204178545624
56.0,0.0009426781325601041
60.0,0.0007608991581946611
64.0,0.0005417614011093974
72.0,0.0004515403416007757
80.0,0.00042359624058008194
88.0,0.0002110170025844127
96.0,0.0003849714412353933
104.0,0.0003122611087746918
112.0,0.0002982310252264142
120.0,0.0008554559317417443
128.0,0.0009305124985985458
144.0,0.0008085014997050166
160.0,0.00047710054786875844
176.0,0.00048621490714140236
192.0,0.0004204742144793272
208.0,0.000492287683300674
224.0,7.53496351535432e-05
240.0,0.00029368753894232213
256.0,0.00039391012978740036
288.0,-0.0005060610128566623
320.0,3.8739617593819275e-05
352.0,-0.0003509018279146403
384.0,-0.00025059719337150455
416.0,-7.680894486838952e-05
448.0,-0.0003318014496471733
480.0,0.00012888578930869699
512.0,-6.17989499005489e-05
576.0,-6.198828486958519e-05
640.0,0.00013943127123638988
704.0,-0.00014357076724991202
768.0,0.0006693551549687982
832.0,0.000279969914117828
896.0,0.00048254805733449757
960.0,-4.987807187717408e-05
1024.0,0.00035392350400798023
1152.0,-3.0461198548437096e-05
1280.0,0.00029570108745247126
1408.0,-6.557464075740427e-05
1536.0,0.0003911835956387222
1664.0,-5.989151759422384e-05
1792.0,-0.00014478016237262636
1920.0,0.0004706795734819025
2048.0,0.0002963017323054373
2304.0,-0.00037429301301017404
2560.0,5.596740447799675e-05
2816.0,0.000422187295043841
3072.0,-1.140512540587224e-05
3328.0,0.00022532592993229628
3584.0,-0.0001540316006867215
3840.0,-5.016977229388431e-05
4096.0,0.00031207315623760223
4608.0,-0.00023722200421616435
5120.0,-7.22901095286943e-05
5632.0,-0.00041857478208839893
6144.0,-0.00012895198597107083
6656.0,-0.0004178562085144222
7168.0,-0.0003508147201500833
7680.0,-0.00040986770181916654
8192.0,-1.1367839761078358e-05
end
