version,3.0
numOfCh,1
type,point
parent_name,0cd20_3dot0-1dot0
ch_type,1_1
kcount,1
numberNandB,1
brightnessNandB,1
carpet pos,0
pc,0
Time (ms),CH1 Auto-Correlation
1.0,0.016853176057338715
2.0,0.013763249851763248
3.0,0.011590876616537571
4.0,0.009987526573240757
5.0,0.008688388392329216
6.0,0.007711135316640139
7.0,0.007007197011262178
8.0,0.006471527274698019
9.0,0.005888459738343954
10.0,0.005335833877325058
11.0,0.004918175749480724
12.0,0.004594212397933006
13.0,0.004314572550356388
14.0,0.004167288541793823
15.0,0.003988650627434254
16.0,0.0037300772964954376
18.0,0.003430410986766219
20.0,0.0032194973900914192
22.0,0.0030050883069634438
24.0,0.002815071027725935
26.0,0.0026536870282143354
28.0,0.0024189723189920187
30.0,0.0021966376807540655
32.0,0.0019460470648482442
36.0,0.0016292089130729437
40.0,0.001449638046324253
44.0,0.0014345775125548244
48.0,0.0013351569650694728
52.0,0.0010917421896010637
56.0,0.0011129002086818218
60.0,0.0010385687928646803
64.0,0.0008379310020245612
72.0,0.0006996606825850904
80.0,0.0005695474683307111
88.0,0.0006546037620864809
96.0,0.0007765358895994723
104.0,0.0010039415210485458
112.0,0.000792264414485544
120.0,0.0005324386875145137
128.0,6.969030800973997e-05
144.0,-8.974847878562286e-05
160.0,-7.396782166324556e-05
176.0,0.00013445413787849247
192.0,0.0003360590199008584
208.0,0.0002497805398888886
224.0,9.638007031753659e-05
240.0,-0.00026069828891195357
256.0,-0.0002270778059028089
288.0,-0.0005527566536329687
320.0,0.0001430876145604998
352.0,-0.0001468882692279294
384.0,-0.00015154900029301643
416.0,0.00034302836866118014
448.0,0.0007199757383204997
480.0,0.000379965320462361
512.0,-9.064598089025822e-06
576.0,0.0003050604136660695
640.0,0.0002647259389050305
704.0,0.0005308162653818727
768.0,0.0004750025982502848
832.0,-0.00037644122494384646
896.0,-0.0005186095368117094
960.0,-0.0004599060339387506
1024.0,-0.0005484244902618229
1152.0,-0.000369828223483637
1280.0,-0.0002521797432564199
1408.0,-0.0005040571559220552
1536.0,0.00010322509479010478
1664.0,0.00031867221696302295
1792.0,-2.9113456548657268e-05
1920.0,-0.0005180486477911472
2048.0,0.00027108981157653034
2304.0,0.00042711751302704215
2560.0,-4.6110228140605614e-05
2816.0,0.00016744282038416713
3072.0,-0.00037554765003733337
3328.0,-0.0002241559704998508
3584.0,-1.3980058611196e-05
3840.0,-0.00018137405277229846
4096.0,0.00010325833864044398
4608.0,6.119974568719044e-05
5120.0,4.6157008910086006e-05
5632.0,-0.00032385223312303424
6144.0,-0.0004037274047732353
6656.0,0.0002661451289895922
7168.0,-5.729369877371937e-05
7680.0,-0.0005989405326545238
8192.0,-0.00018532734247855842
end
