version,3.0
numOfCh,1
type,point
parent_name,0cd20_3dot0-1dot0
ch_type,1_1
kcount,1
numberNandB,1
brightnessNandB,1
carpet pos,0
pc,0
Time (ms),CH1 Auto-Correlation
1.0,0.021101107820868492
2.0,0.017335250973701477
3.0,0.014673176221549511
4.0,0.012546754442155361
5.0,0.010837134905159473
6.0,0.00945232342928648
7.0,0.00812256708741188
8.0,0.0072429669089615345
9.0,0.006421362049877644
10.0,0.005691090133041143
11.0,0.005203391425311565
12.0,0.004903213586658239
13.0,0.00460963137447834
14.0,0.0042000641115009785
15.0,0.004080746788531542
16.0,0.0038627071771770716
18.0,0.0038976664654910564
20.0,0.004001806955784559
22.0,0.0037449735682457685
24.0,0.0030949644278734922
26.0,0.002480526454746723
28.0,0.002042833948507905
30.0,0.0017363338265568018
32.0,0.001556747010909021
36.0,0.0014457012293860316
40.0,0.0011312805581837893
44.0,0.0011999228736385703
48.0,0.0008803358650766313
52.0,0.0010598190128803253
56.0,0.0010480438359081745
60.0,0.0008239353774115443
64.0,0.0010134493932127953
72.0,0.001408686744980514
80.0,0.0014884058618918061
88.0,0.0013183567207306623
96.0,0.0014892863109707832
104.0,0.0011034290073439479
112.0,0.0006678956560790539
120.0,3.47550303558819e-05
128.0,0.00019294714729767293
144.0,0.000645936350338161
160.0,0.0005554320523515344
176.0,1.5585967048536986e-05
192.0,-6.471665983553976e-05
208.0,-0.0003895859408657998
224.0,-0.000347664492437616
240.0,-0.0007297221454791725
256.0,-0.0002765577519312501
288.0,-0.0004126327985431999
320.0,4.552487371256575e-05
352.0,0.0008214590488933027
384.0,0.0004055033787153661
416.0,0.0007326462655328214
448.0,0.0007038376643322408
480.0,0.0002642102481331676
512.0,0.0005285802180878818
576.0,-0.00017456694331485778
640.0,-0.00047564893611706793
704.0,-0.00022708356846123934
768.0,-0.0006417023250833154
832.0,-2.2950913262320682e-05
896.0,-2.3177728508017026e-05
960.0,-6.78256546962075e-05
1024.0,7.796770660206676e-05
1152.0,-0.00032312844996340573
1280.0,0.00012257300841156393
1408.0,9.722619324747939e-06
1536.0,6.191571628733072e-07
1664.0,-0.0004432580026332289
1792.0,-0.00027537555433809757
1920.0,0.0004897683393210173
2048.0,0.00011464105773484334
2304.0,-0.00030027146567590535
2560.0,-0.00016521378711331636
2816.0,-0.00010048075637314469
3072.0,-0.0002684003848116845
3328.0,0.00015552967670373619
3584.0,-4.823898962058593e-06
3840.0,3.1142608349910006e-05
4096.0,9.879333811113611e-05
4608.0,0.00010320515866624191
5120.0,0.00013283937005326152
5632.0,1.571128268551547e-05
6144.0,0.00011144475865876302
6656.0,-0.00021681909856852144
7168.0,-0.00019937593606300652
7680.0,1.7641932572587393e-05
8192.0,-0.0010561173548921943
end
