version,3.0
numOfCh,1
type,point
parent_name,0cd20_3dot0-1dot0
ch_type,1_1
kcount,1
numberNandB,1
brightnessNandB,1
carpet pos,0
pc,0
Time (ms),CH1 Auto-Correlation
1.0,0.016540195792913437
2.0,0.013450500555336475
3.0,0.011309917084872723
4.0,0.00982656516134739
5.0,0.008750864304602146
6.0,0.007854361087083817
7.0,0.007119857240468264
8.0,0.006491007748991251
9.0,0.005934177432209253
10.0,0.005436021368950605
11.0,0.005030233878642321
12.0,0.004741548094898462
13.0,0.00433747936040163
14.0,0.003953428938984871
15.0,0.0036265188828110695
16.0,0.003341082716360688
18.0,0.0028951552230864763
20.0,0.0023949621245265007
22.0,0.002128204796463251
24.0,0.0018566999351605773
26.0,0.0016277075046673417
28.0,0.001498001511208713
30.0,0.0011537517420947552
32.0,0.0009146179654635489
36.0,0.0008568117045797408
40.0,0.0008346320246346295
44.0,0.0007182295667007565
48.0,0.0007037889445200562
52.0,0.0006489052320830524
56.0,0.0005845003179274499
60.0,0.0005432379548437893
64.0,0.000577972736209631
72.0,0.00023523579875472933
80.0,0.00018662086222320795
88.0,-0.00037226825952529907
96.0,-0.00042298296466469765
104.0,7.928205741336569e-05
112.0,0.00022226315923035145
120.0,0.00017264911730308086
128.0,0.00014242419274523854
144.0,-9.337045776192099e-05
160.0,-0.000125373451737687
176.0,-3.34670148731675e-05
192.0,0.00040964983054436743
208.0,0.0006358010577969253
224.0,0.0009757481748238206
240.0,0.0007279663113877177
256.0,0.0007252944051288068
288.0,-0.00021614725119434297
320.0,0.00018351123435422778
352.0,9.540952305542305e-05
384.0,-0.00022342446027323604
416.0,-0.00023751593835186213
448.0,-0.0003006278129760176
480.0,8.521391282556579e-05
512.0,-0.00036662849015556276
576.0,0.000431470456533134
640.0,0.0002582911110948771
704.0,0.00020862884412053972
768.0,-0.0002605116169434041
832.0,-0.00011759113112930208
896.0,0.0004894357989542186
960.0,0.00016527564730495214
1024.0,4.21103359258268e-05
1152.0,-0.0001907230180222541
1280.0,0.00021785043645650148
1408.0,-0.0005854825722053647
1536.0,4.001813431386836e-05
1664.0,-0.0004478380433283746
1792.0,-0.0003390925994608551
1920.0,0.00012565389624796808
2048.0,-0.000567449489608407
2304.0,-0.000297121936455369
2560.0,2.8739332265104167e-05
2816.0,-0.00013163943367544562
3072.0,-4.634436663764063e-06
3328.0,0.0003246348933316767
3584.0,-0.00012584026262629777
3840.0,0.00024871938512660563
4096.0,0.00020026377751491964
4608.0,-0.00018366138101555407
5120.0,-9.181055793305859e-05
5632.0,-0.000422982731834054
6144.0,-9.459139255341142e-05
6656.0,0.00014937619562260807
7168.0,0.00031327310716733336
7680.0,0.00029757697484456003
8192.0,3.860133801936172e-05
end
