version,3.0
numOfCh,1
type,point
parent_name,0cd20_3dot0-1dot0
ch_type,1_1
kcount,1
numberNandB,1
brightnessNandB,1
carpet pos,0
pc,0
Time (ms),CH1 Auto-Correlation
1.0,0.01702098734676838
2.0,0.014005433768033981
3.0,0.011759581044316292
4.0,0.010112730786204338
5.0,0.008928592316806316
6.0,0.007980315014719963
7.0,0.007186430506408215
8.0,0.006516940891742706
9.0,0.006045883987098932
10.0,0.005574515555053949
11.0,0.005094277206808329
12.0,0.004813247825950384
13.0,0.004530644044280052
14.0,0.004237641580402851
15.0,0.003957781940698624
16.0,0.003725412767380476
18.0,0.0034384101163595915
20.0,0.003202865831553936
22.0,0.002892036223784089
24.0,0.0024465357419103384
26.0,0.0020597120746970177
28.0,0.0015800807159394026
30.0,0.001250151777639985
32.0,0.0013164363335818052
36.0,0.0012134112184867263
40.0,0.000992619781754911
44.0,0.0008767154649831355
48.0,0.0007233391515910625
52.0,0.00048761084326542914
56.0,0.00014191100490279496
60.0,0.0001228645269293338
64.0,0.0003566492523532361
72.0,0.0002914311771746725
80.0,0.0007261304999701679
88.0,0.0005261119222268462
96.0,0.0002846736751962453
104.0,0.0006556018488481641
112.0,0.0002612883981782943
120.0,0.0004381393373478204
128.0,0.0006290918099693954
144.0,0.0010697442339733243
160.0,0.0008068098686635494
176.0,0.00029225758044049144
192.0,0.00032762190676294267
208.0,0.0006115387077443302
224.0,0.0008236910798586905
240.0,0.001016982365399599
256.0,0.0006424533203244209
288.0,0.0004077749326825142
320.0,-0.00020673914696089923
352.0,-2.010412390518468e-05
384.0,-0.00016008065722417086
416.0,-3.5890352592105046e-05
448.0,0.00044395329314284027
480.0,-0.0003525141510181129
512.0,-0.00048491693451069295
576.0,-0.000342183921020478
640.0,-0.0006995201110839844
704.0,0.00027438896358944476
768.0,-0.0005974313826300204
832.0,-0.00020759081235155463
896.0,-0.0002486818702891469
960.0,-0.00016829551896080375
1024.0,1.6570274965488352e-05
1152.0,0.0002141638979082927
1280.0,-0.0002809914294630289
1408.0,-0.0002578786516096443
1536.0,-0.0001999455998884514
1664.0,0.0001484826934756711
1792.0,-0.00018041400471702218
1920.0,-0.00011685952631523833
2048.0,0.0001418010360794142
2304.0,3.546556399669498e-05
2560.0,0.00031775992829352617
2816.0,0.0006334687350317836
3072.0,-0.00018973286205437034
3328.0,-0.0004921695217490196
3584.0,-0.0003396464162506163
3840.0,-8.556440297979861e-05
4096.0,-5.779332423117012e-05
4608.0,3.645714286903967e-06
5120.0,6.637056503677741e-05
5632.0,0.00010943060624413192
6144.0,-0.00047617845120839775
6656.0,0.00013591414608526975
7168.0,-1.9516470274538733e-05
7680.0,-0.0004153174813836813
8192.0,1.9794764739344828e-05
end
