version,3.0
numOfCh,1
type,point
parent_name,0cd20_3dot0-1dot0
ch_type,1_1
kcount,1
numberNandB,1
brightnessNandB,1
carpet pos,0
pc,0
Time (ms),CH1 Auto-Correlation
1.0,0.025601482018828392
2.0,0.022035129368305206
3.0,0.019223103299736977
4.0,0.016998939216136932
5.0,0.015493286773562431
6.0,0.014065099880099297
7.0,0.012993572279810905
8.0,0.011740625835955143
9.0,0.010776323266327381
10.0,0.010107915848493576
11.0,0.009188264608383179
12.0,0.008835935965180397
13.0,0.008306985720992088
14.0,0.007726521231234074
15.0,0.007331847213208675
16.0,0.006823198404163122
18.0,0.00628045666962862
20.0,0.006005343981087208
22.0,0.005804338492453098
24.0,0.005514124874025583
26.0,0.005241307895630598
28.0,0.004840190522372723
30.0,0.0043881358578801155
32.0,0.003936486318707466
36.0,0.0032215029932558537
40.0,0.002373991534113884
44.0,0.0015365000581368804
48.0,0.0012051506200805306
52.0,0.0007371701067313552
56.0,0.000591826974414289
60.0,0.0004604654386639595
64.0,0.0005670000682584941
72.0,0.00037762505235150456
80.0,-0.0001762099127518013
88.0,-0.0007029777625575662
96.0,-0.0011915812501683831
104.0,-0.000744582328479737
112.0,-0.0003992198908235878
120.0,-0.0002726604579947889
128.0,-0.00016666206647641957
144.0,0.00013360692537389696
160.0,0.0006947946967557073
176.0,0.0012892438098788261
192.0,0.0012056437553837895
208.0,0.00045532488729804754
224.0,0.0005306577077135444
240.0,-0.0001656200474826619
256.0,0.00017184474563691765
288.0,-0.00016446318477392197
320.0,-0.00012093749683117494
352.0,-0.0007669833139516413
384.0,-0.0006858727429062128
416.0,-0.00033327509299851954
448.0,-0.00017176466644741595
480.0,-0.0006123934290371835
512.0,-0.0005535440286621451
576.0,-0.00011941983393626288
640.0,0.00042800515075214207
704.0,0.0003697759239003062
768.0,0.00011977578833466396
832.0,5.7318975450471044e-05
896.0,-0.00034749775659292936
960.0,-0.0011121727293357253
1024.0,4.969630026607774e-05
1152.0,-0.0009815804660320282
1280.0,-0.0003621704236138612
1408.0,0.00028873575502075255
1536.0,0.00033465688466094434
1664.0,-0.000478670175652951
1792.0,-0.0007403340423479676
1920.0,-0.0002643945917952806
2048.0,-9.32575567276217e-05
2304.0,0.00019323782180435956
2560.0,0.000326789915561676
2816.0,0.00040499281021766365
3072.0,-6.671402661595494e-05
3328.0,-0.0009713373146951199
3584.0,-0.0002250721590826288
3840.0,1.3917856449552346e-05
4096.0,0.00011217571591259912
4608.0,8.581404108554125e-05
5120.0,0.0001400496403221041
5632.0,0.0001700766442809254
6144.0,-0.00019250219338573515
6656.0,-4.1285140468971804e-05
7168.0,-0.00017144452431239188
7680.0,0.00013576696801465005
8192.0,-0.0001614358916413039
end
