version,3.0
numOfCh,1
type,point
parent_name,0cd20_3dot0-1dot0
ch_type,1_1
kcount,1
numberNandB,1
brightnessNandB,1
carpet pos,0
pc,0
Time (ms),CH1 Auto-Correlation
1.0,0.018138030543923378
2.0,0.014988108538091183
3.0,0.01286657527089119
4.0,0.011067095212638378
5.0,0.009716288186609745
6.0,0.008634091354906559
7.0,0.007831658236682415
8.0,0.0070748343132436275
9.0,0.0066061425022780895
10.0,0.006122227758169174
11.0,0.005765137262642384
12.0,0.005460973363369703
13.0,0.00518662529066205
14.0,0.004839813336730003
15.0,0.0046561663039028645
16.0,0.004456250928342342
18.0,0.004036466591060162
20.0,0.0038004431407898664
22.0,0.003644905984401703
24.0,0.0033625815995037556
26.0,0.002989229978993535
28.0,0.003042526077479124
30.0,0.003107646480202675
32.0,0.0029782538767904043
36.0,0.002540222369134426
40.0,0.0018515900010243058
44.0,0.0015462756855413318
48.0,0.0012204160448163748
52.0,0.0011669433442875743
56.0,0.0011315051233395934
60.0,0.0011102788848802447
64.0,0.001174425589852035
72.0,0.0009322799160145223
80.0,0.0006005230825394392
88.0,0.000616964534856379
96.0,0.0004101423255633563
104.0,0.0003650024882517755
112.0,0.0008017857908271253
120.0,0.0006653831223957241
128.0,0.0001794415875338018
144.0,-3.021084012289066e-05
160.0,-4.493671076488681e-05
176.0,0.00047187815653160214
192.0,0.0006829879712313414
208.0,0.0007027016254141927
224.0,0.0002078835532302037
240.0,-7.414510037051514e-05
256.0,-0.0002459003881085664
288.0,-0.00010392942931503057
320.0,0.0001059632413671352
352.0,3.2578523132542614e-06
384.0,-4.0857441490516067e-05
416.0,-0.00030618224991485476
448.0,5.4008065490052104e-05
480.0,0.00022002292098477483
512.0,1.5095050002855714e-05
576.0,9.631059947423637e-05
640.0,2.7898126063519157e-05
704.0,0.0004277822154108435
768.0,0.00045115049579180777
832.0,0.00016336562111973763
896.0,-0.00036443397402763367
960.0,-0.00025953349540941417
1024.0,-4.550156882032752e-05
1152.0,-6.006983676343225e-05
1280.0,0.0004424705693963915
1408.0,0.0001137313520302996
1536.0,0.0003005370672326535
1664.0,0.00023169525957200676
1792.0,0.0002637412690091878
1920.0,0.0001564809208502993
2048.0,5.339844574336894e-05
2304.0,-4.212434578221291e-05
2560.0,-0.00016438985767308623
2816.0,-0.00027728453278541565
3072.0,-0.0003642034134827554
3328.0,-0.000544922542758286
3584.0,-0.0002759648486971855
3840.0,-0.0002699453034438193
4096.0,-0.00036444334546104074
4608.0,0.00012237048940733075
5120.0,-0.0005790980067104101
5632.0,-0.0004334272525738925
6144.0,8.611261000623927e-05
6656.0,2.278025567648001e-05
7168.0,-3.071562969125807e-05
7680.0,0.000148325867485255
8192.0,0.000227695592911914
end
