version,3.0
numOfCh,1
type,point
parent_name,0cd20_3dot0-1dot0
ch_type,1_1
kcount,1
numberNandB,1
brightnessNandB,1
carpet pos,0
pc,0
Time (ms),CH1 Auto-Correlation
1.0,0.016027746722102165
2.0,0.013071847148239613
3.0,0.011052231304347515
4.0,0.009457114152610302
5.0,0.008198469877243042
6.0,0.007266697473824024
7.0,0.006541840732097626
8.0,0.006028037052601576
9.0,0.0055536990985274315
10.0,0.005085895769298077
11.0,0.004781929776072502
12.0,0.004401352722197771
13.0,0.004170296713709831
14.0,0.003989800810813904
15.0,0.0037487572990357876
16.0,0.003498715115711093
18.0,0.0031996872276067734
20.0,0.0029036325868219137
22.0,0.002754798624664545
24.0,0.0025414875708520412
26.0,0.002370381262153387
28.0,0.002312862314283848
30.0,0.0021578653249889612
32.0,0.0018674219027161598
36.0,0.0016019083559513092
40.0,0.0016924577066674829
44.0,0.0014644243055954576
48.0,0.0010426979279145598
52.0,0.0004678626428358257
56.0,0.00048634305130690336
60.0,0.00022121169604361057
64.0,0.0003737161750905216
72.0,0.00016973282617982477
80.0,2.3487980797654018e-05
88.0,-0.00013108860002830625
96.0,0.00010321554873371497
104.0,0.0003581454511731863
112.0,0.0004146652645431459
120.0,0.000252965692197904
128.0,-7.94654552009888e-05
144.0,0.0006346119334921241
160.0,0.0007874172879382968
176.0,0.0007424962241202593
192.0,0.0009491642122156918
208.0,0.0006895528640598059
224.0,0.0003719430242199451
240.0,-0.00028648946317844093
256.0,-0.0002714900765568018
288.0,-0.00027608341770246625
320.0,-0.00024223265063483268
352.0,0.00011781855573644862
384.0,0.0005955061060376465
416.0,0.0005378726636990905
448.0,-4.856347732129507e-05
480.0,7.284573803190142e-05
512.0,0.00043624776299111545
576.0,0.0007249632617458701
640.0,0.00035797306918539107
704.0,-0.00030805158894509077
768.0,-0.00012932733807247132
832.0,-0.0003896829439327121
896.0,-0.0007500718347728252
960.0,-0.00017710095562506467
1024.0,-5.984590097796172e-05
1152.0,0.0001463952794438228
1280.0,6.770325126126409e-05
1408.0,3.725576971191913e-05
1536.0,4.160435764788417e-06
1664.0,8.70787916937843e-05
1792.0,-0.0001368110388284549
1920.0,0.00011526184243848547
2048.0,3.7878517105127685e-06
2304.0,-0.00011727833771146834
2560.0,1.0835981811396778e-05
2816.0,-6.342882988974452e-05
3072.0,-0.00046728376764804125
3328.0,-2.748181032075081e-05
3584.0,0.00022945694217924029
3840.0,-0.0002671237161848694
4096.0,0.0004442529461812228
4608.0,-0.00034670240711420774
5120.0,0.00030923043959774077
5632.0,5.1255869038868695e-05
6144.0,-4.1638169932411984e-05
6656.0,-3.766000736504793e-05
7168.0,0.00012873248488176614
7680.0,0.00017092227062676102
8192.0,-0.000470738421427086
end
