version,3.0
numOfCh,1
type,point
parent_name,0cd20_3dot0-1dot0
ch_type,1_1
kcount,1
numberNandB,1
brightnessNandB,1
carpet pos,0
pc,0
Time (ms),CH1 Auto-Correlation
1.0,0.016042271628975868
2.0,0.013039592653512955
3.0,0.01099058985710144
4.0,0.009452068246901035
5.0,0.008340097963809967
6.0,0.0074147675186395645
7.0,0.006738796830177307
8.0,0.006189503241330385
9.0,0.005601533222943544
10.0,0.005138127598911524
11.0,0.004791558254510164
12.0,0.004395631607621908
13.0,0.004181599710136652
14.0,0.004070415161550045
15.0,0.003866371000185609
16.0,0.0035829797852784395
18.0,0.00332853477448225
20.0,0.0029120417311787605
22.0,0.0026706901844590902
24.0,0.0025262145791202784
26.0,0.002322019310668111
28.0,0.002136141760274768
30.0,0.0021098691504448652
32.0,0.00191588350571692
36.0,0.0017249943921342492
40.0,0.0012058515567332506
44.0,0.0010525996331125498
48.0,0.00123727903701365
52.0,0.0009797191014513373
56.0,0.0009848707122728229
60.0,0.001280538272112608
64.0,0.0013943896628916264
72.0,0.00091767986305058
80.0,0.0006782778073102236
88.0,0.0004562715475913137
96.0,0.0006376628880389035
104.0,8.287320815725252e-05
112.0,-3.180295607307926e-05
120.0,-0.00013610313180834055
128.0,-0.00042447372106835246
144.0,-0.00031363172456622124
160.0,-0.00022464190260507166
176.0,-2.0943127310601994e-05
192.0,-0.00017864079563878477
208.0,-0.00024110334925353527
224.0,8.838170469971374e-05
240.0,-4.952237941324711e-05
256.0,-4.256839019944891e-05
288.0,-1.94894691958325e-05
320.0,-0.00045920864795334637
352.0,-0.000293117220280692
384.0,-0.0005960536072961986
416.0,-0.0010984722757712007
448.0,-0.0011413232423365116
480.0,-0.0009095297427847981
512.0,-0.0001493113668402657
576.0,0.0007085485849529505
640.0,9.422738366993144e-05
704.0,0.00011210971570108086
768.0,0.0002990588254760951
832.0,9.309210145147517e-05
896.0,0.0003177877515554428
960.0,0.00010641761036822572
1024.0,-0.00028892673435620964
1152.0,0.00039128510979935527
1280.0,-0.0005322180222719908
1408.0,-0.00034234815393574536
1536.0,-0.0005754676531068981
1664.0,-5.938336835242808e-05
1792.0,-2.4292172383866273e-05
1920.0,-0.0001635126827750355
2048.0,-0.00023305488866753876
2304.0,-6.448189378716052e-05
2560.0,0.0002034233621088788
2816.0,-0.00013055621820967644
3072.0,-5.3169624152360484e-05
3328.0,0.000325845496263355
3584.0,9.656391193857417e-05
3840.0,-0.000283748289803043
4096.0,-0.00013107266568113118
4608.0,-1.0122485036845319e-05
5120.0,0.00021915986144449562
5632.0,-0.00026780550251714885
6144.0,7.579370139865205e-05
6656.0,2.15005456993822e-05
7168.0,7.111555169103667e-05
7680.0,0.0003901409509126097
8192.0,-0.0006511201499961317
end
