version,3.0
numOfCh,1
type,point
parent_name,ff67b_1dot0-0dot01
ch_type,1_1
kcount,1
numberNandB,1
brightnessNandB,1
carpet pos,0
pc,0
Time (ms),CH1 Auto-Correlation
1.0,0.6672329306602478
2.0,0.6641919016838074
3.0,0.6613595485687256
4.0,0.6585853695869446
5.0,0.6560276746749878
6.0,0.6536291241645813
7.0,0.6514565348625183
8.0,0.6493467688560486
9.0,0.6473209857940674
10.0,0.6453556418418884
11.0,0.6434317827224731
12.0,0.6416063904762268
13.0,0.6398764848709106
14.0,0.6381789445877075
15.0,0.636565089225769
16.0,0.6349870562553406
18.0,0.6321225762367249
20.0,0.6295642852783203
22.0,0.6270970106124878
24.0,0.624653697013855
26.0,0.6223515272140503
28.0,0.6202009916305542
30.0,0.6181637644767761
32.0,0.6163413524627686
36.0,0.6126888990402222
40.0,0.6089086532592773
44.0,0.605393648147583
48.0,0.6017147302627563
52.0,0.5980619192123413
56.0,0.5945274233818054
60.0,0.590951144695282
64.0,0.5877533555030823
72.0,0.5774982571601868
80.0,0.5704503059387207
88.0,0.5641825199127197
96.0,0.5578295588493347
104.0,0.5503557920455933
112.0,0.5425053834915161
120.0,0.5351698398590088
128.0,0.5285395979881287
144.0,0.5169285535812378
160.0,0.5040147304534912
176.0,0.48815464973449707
192.0,0.4723481237888336
208.0,0.4557945430278778
224.0,0.4385252594947815
240.0,0.4215313494205475
256.0,0.4042483866214752
288.0,0.36932066082954407
320.0,0.3327331840991974
352.0,0.29697704315185547
384.0,0.26190292835235596
416.0,0.2256058305501938
448.0,0.19169390201568604
480.0,0.15755370259284973
512.0,0.12443651258945465
576.0,0.0743969976902008
640.0,0.017966821789741516
704.0,-0.009691594168543816
768.0,-0.010753044858574867
832.0,-0.009109104983508587
896.0,-0.012246656231582165
960.0,-0.012334378436207771
1024.0,-0.014431060291826725
1152.0,-0.017744308337569237
1280.0,-0.0146803492680192
1408.0,-0.010483620688319206
1536.0,-0.011077672243118286
1664.0,-0.009556280449032784
1792.0,-0.00882690493017435
1920.0,-0.016877202317118645
2048.0,-0.01762624830007553
2304.0,-0.017345961183309555
2560.0,-0.018015623092651367
2816.0,-0.018820971250534058
3072.0,-0.018621740862727165
3328.0,-0.021741067990660667
3584.0,-0.024058114737272263
3840.0,-0.03458452597260475
4096.0,-0.028509216383099556
4608.0,0.037192147225141525
5120.0,-0.0034627439454197884
5632.0,-0.0021849151235073805
6144.0,0.0010348252253606915
6656.0,-0.026865867897868156
7168.0,-0.017515132203698158
7680.0,-0.046852536499500275
8192.0,-0.037746090441942215
end
