version,3.0
numOfCh,1
type,point
parent_name,ff67b_1dot0-0dot01
ch_type,1_1
kcount,1
numberNandB,1
brightnessNandB,1
carpet pos,0
pc,0
Time (ms),CH1 Auto-Correlation
1.0,0.03910550847649574
2.0,0.03589590638875961
3.0,0.033110152930021286
4.0,0.03073374181985855
5.0,0.028573988005518913
6.0,0.026753468438982964
7.0,0.025269271805882454
8.0,0.02380785159766674
9.0,0.022375190630555153
10.0,0.021035319194197655
11.0,0.019975537434220314
12.0,0.01900184154510498
13.0,0.01822678931057453
14.0,0.017478806897997856
15.0,0.016729800030589104
16.0,0.0160810686647892
18.0,0.015041283331811428
20.0,0.014108428731560707
22.0,0.013166677206754684
24.0,0.012054583057761192
26.0,0.011013195849955082
28.0,0.010168598964810371
30.0,0.009539802558720112
32.0,0.009185545146465302
36.0,0.0085207624360919
40.0,0.007533536292612553
44.0,0.006582407280802727
48.0,0.006127509754151106
52.0,0.006008378695696592
56.0,0.00584762915968895
60.0,0.005605492275208235
64.0,0.0051455385982990265
72.0,0.004866740666329861
80.0,0.004613315220922232
88.0,0.004554394166916609
96.0,0.004552990663796663
104.0,0.004677129909396172
112.0,0.004577279090881348
120.0,0.0050792028196156025
128.0,0.005046266596764326
144.0,0.0027417202945798635
160.0,0.000610034738201648
176.0,-0.0010716860415413976
192.0,-0.0008536321111023426
208.0,-0.0009579924517311156
224.0,-0.0006261952221393585
240.0,-0.0007846469525247812
256.0,-0.0011691657127812505
288.0,-0.001286582089960575
320.0,-0.0007670084596611559
352.0,-0.0016521625220775604
384.0,-0.0006053447723388672
416.0,-0.0005319181946106255
448.0,0.0006457993877120316
480.0,0.00023366299865301698
512.0,-0.00127668515779078
576.0,-0.001551090506836772
640.0,-0.0028038942255079746
704.0,-0.001983585301786661
768.0,-0.001014034729450941
832.0,-0.00048447473091073334
896.0,-0.0002751007559709251
960.0,-0.0011683397460728884
1024.0,-0.00188560807146132
1152.0,-4.972429451299831e-05
1280.0,0.001427249051630497
1408.0,4.013201305497205e-06
1536.0,0.0004907810362055898
1664.0,0.001603704527951777
1792.0,-1.5905865438980982e-05
1920.0,-0.00011314117728034034
2048.0,0.000294555356958881
2304.0,-0.0018490103539079428
2560.0,-0.0020211334340274334
2816.0,0.000870952324476093
3072.0,-0.0004375598509795964
3328.0,0.0007106300326995552
3584.0,0.0007520531071349978
3840.0,7.51868647057563e-05
4096.0,-0.0012179277837276459
4608.0,0.0008685468346811831
5120.0,-0.001999249216169119
5632.0,0.0016515286406502128
6144.0,-0.0009266186389140785
6656.0,5.2142910135444254e-05
7168.0,0.0009903006721287966
7680.0,-0.0009969043312594295
8192.0,0.00037259311648085713
end
