version,3.0
numOfCh,1
type,point
parent_name,ff67b_1dot0-0dot01
ch_type,1_1
kcount,1
numberNandB,1
brightnessNandB,1
carpet pos,0
pc,0
Time (ms),CH1 Auto-Correlation
1.0,0.039131421595811844
2.0,0.035984352231025696
3.0,0.033281777054071426
4.0,0.031016282737255096
5.0,0.029087994247674942
6.0,0.02742704376578331
7.0,0.026028195396065712
8.0,0.024823421612381935
9.0,0.02368437685072422
10.0,0.02272404171526432
11.0,0.02171543799340725
12.0,0.02080307900905609
13.0,0.020007705315947533
14.0,0.01920395717024803
15.0,0.018412932753562927
16.0,0.017573321238160133
18.0,0.016368979588150978
20.0,0.015545953996479511
22.0,0.015113350003957748
24.0,0.014865408651530743
26.0,0.01448438037186861
28.0,0.013903575949370861
30.0,0.013243220746517181
32.0,0.01280556246638298
36.0,0.01201117318123579
40.0,0.010976424440741539
44.0,0.010131679475307465
48.0,0.009886331856250763
52.0,0.009613043628633022
56.0,0.00944786611944437
60.0,0.009513692930340767
64.0,0.009192273952066898
72.0,0.008193399757146835
80.0,0.007653341628611088
88.0,0.0072070700116455555
96.0,0.0066950018517673016
104.0,0.006729974411427975
112.0,0.007060111500322819
120.0,0.006736372131854296
128.0,0.006314028054475784
144.0,0.006151316687464714
160.0,0.004634049255400896
176.0,0.0025654274504631758
192.0,0.0008876054198481143
208.0,0.0015403308207169175
224.0,0.0016654960345476866
240.0,0.001423129579052329
256.0,0.00202381145209074
288.0,0.0005155252292752266
320.0,0.0009459333377890289
352.0,0.002292805816978216
384.0,0.0030919446144253016
416.0,0.002325469395145774
448.0,0.0036509004421532154
480.0,0.003995392471551895
512.0,0.0035696327686309814
576.0,0.003779255086556077
640.0,0.002970163244754076
704.0,0.004743349272757769
768.0,0.0040163807570934296
832.0,0.003957399167120457
896.0,0.002375194802880287
960.0,0.0019508030964061618
1024.0,0.001882342854514718
1152.0,0.0012160842306911945
1280.0,0.0027729158755391836
1408.0,0.0011136768152937293
1536.0,-0.0009474112302996218
1664.0,0.0005077209207229316
1792.0,0.002753467997536063
1920.0,0.0020062841940671206
2048.0,-0.0012243814999237657
2304.0,-0.0007874814909882843
2560.0,0.002255448140203953
2816.0,-0.0010189192835241556
3072.0,0.0003455275436863303
3328.0,-0.002664833329617977
3584.0,-0.0017711772816255689
3840.0,-0.003144101006910205
4096.0,-0.004670334048569202
4608.0,-0.0044102296233177185
5120.0,-0.003750974079594016
5632.0,-0.002647120738402009
6144.0,-0.002098432742059231
6656.0,-0.001399675733409822
7168.0,-0.0011072427732869983
7680.0,-0.001787072280421853
8192.0,-0.0006626963731832802
end
