version,3.0
numOfCh,1
type,point
parent_name,ff67b_1dot0-0dot01
ch_type,1_1
kcount,1
numberNandB,1
brightnessNandB,1
carpet pos,0
pc,0
Time (ms),CH1 Auto-Correlation
1.0,0.04258856549859047
2.0,0.03946703299880028
3.0,0.036869462579488754
4.0,0.0345747135579586
5.0,0.032613951712846756
6.0,0.030889473855495453
7.0,0.029406869783997536
8.0,0.02808699943125248
9.0,0.02693961374461651
10.0,0.025869105011224747
11.0,0.0248232614248991
12.0,0.02391422539949417
13.0,0.02315116859972477
14.0,0.022425973787903786
15.0,0.02172885276377201
16.0,0.02107498049736023
18.0,0.019882896915078163
20.0,0.018881071358919144
22.0,0.018158625811338425
24.0,0.017458977177739143
26.0,0.016674941405653954
28.0,0.015948312357068062
30.0,0.015222386457026005
32.0,0.014351870864629745
36.0,0.012579308822751045
40.0,0.011339765042066574
44.0,0.010564738884568214
48.0,0.009953690692782402
52.0,0.009080756455659866
56.0,0.008256642147898674
60.0,0.00768935726955533
64.0,0.007551990915089846
72.0,0.00738820806145668
80.0,0.006021240726113319
88.0,0.004797031171619892
96.0,0.0035529800225049257
104.0,0.0028787292540073395
112.0,0.002695611910894513
120.0,0.002131272805854678
128.0,0.0015165400691330433
144.0,0.00098726199939847
160.0,0.0009143927600234747
176.0,0.0009037524578161538
192.0,0.0022496769670397043
208.0,0.0029288569930940866
224.0,0.0033012034837156534
240.0,0.002792507177218795
256.0,0.0019087698310613632
288.0,0.002927338005974889
320.0,0.0027201531920582056
352.0,0.002971410285681486
384.0,0.0020414316095411777
416.0,0.001644400181248784
448.0,0.0026825659442692995
480.0,0.0023554968647658825
512.0,0.003124165814369917
576.0,0.0009547967347316444
640.0,-2.1390629626694135e-05
704.0,0.001568452687934041
768.0,0.002646278589963913
832.0,0.0020387889817357063
896.0,0.0018842226127162576
960.0,-0.0003582719073165208
1024.0,-0.0016248496249318123
1152.0,-0.000926084176171571
1280.0,-0.0011629913933575153
1408.0,-0.000261138950008899
1536.0,-0.0003953664854634553
1664.0,-7.872346031945199e-05
1792.0,0.0005032801418565214
1920.0,0.0007419896428473294
2048.0,-0.0016789421206340194
2304.0,0.0009414725354872644
2560.0,0.0007170421304181218
2816.0,0.0017708020750433207
3072.0,0.001333134132437408
3328.0,-0.00036894946242682636
3584.0,-0.0005803871899843216
3840.0,-0.00043662404641509056
4096.0,-0.001637113164179027
4608.0,-0.0017900258535519242
5120.0,-0.0007209861068986356
5632.0,-0.0006253831088542938
6144.0,-0.0020243311300873756
6656.0,-0.00034317150129936635
7168.0,-0.0015997916925698519
7680.0,-0.0028831991367042065
8192.0,-0.00027848995523527265
9216.0,0.0008834304753690958
10240.0,0.0005081208655610681
11264.0,0.0004214451473671943
12288.0,0.0003656524349935353
13312.0,-0.0004268004558980465
14336.0,-0.0013121948577463627
end
