version,3.0
numOfCh,1
type,point
parent_name,ff67b_1dot0-0dot01
ch_type,1_1
kcount,1
numberNandB,1
brightnessNandB,1
carpet pos,0
pc,0
Time (ms),CH1 Auto-Correlation
1.0,0.04000378027558327
2.0,0.03689214587211609
3.0,0.03424679487943649
4.0,0.03182695806026459
5.0,0.02973453886806965
6.0,0.02792331762611866
7.0,0.026212116703391075
8.0,0.024873701855540276
9.0,0.02355625480413437
10.0,0.022316889837384224
11.0,0.02111137844622135
12.0,0.020036105066537857
13.0,0.01903606206178665
14.0,0.01801915280520916
15.0,0.017141863703727722
16.0,0.01636522449553013
18.0,0.014902599155902863
20.0,0.013554139994084835
22.0,0.012479377910494804
24.0,0.01152636669576168
26.0,0.01077131275087595
28.0,0.010200721211731434
30.0,0.009617817588150501
32.0,0.009126775898039341
36.0,0.008024726994335651
40.0,0.007253917399793863
44.0,0.006959649734199047
48.0,0.006826765835285187
52.0,0.00689295120537281
56.0,0.006589474622160196
60.0,0.005834846757352352
64.0,0.005327038466930389
72.0,0.004538531880825758
80.0,0.004395260941237211
88.0,0.004453627392649651
96.0,0.004615865182131529
104.0,0.004101166967302561
112.0,0.0027106469497084618
120.0,0.0021712137386202812
128.0,0.0019312524236738682
144.0,0.0027629146352410316
160.0,0.0019027006346732378
176.0,0.000815191597212106
192.0,-0.00035288333310745656
208.0,0.00021191946871113032
224.0,0.0005835730116814375
240.0,-0.00015240594802889973
256.0,0.001730864169076085
288.0,0.002639572601765394
320.0,0.0016194309573620558
352.0,0.00086848100181669
384.0,0.0004463309596758336
416.0,0.0011514542857185006
448.0,4.6454973926302046e-05
480.0,-0.00028713245410472155
512.0,0.00035850435961037874
576.0,4.787421494256705e-05
640.0,0.002637317171320319
704.0,0.003301928285509348
768.0,0.0028785921167582273
832.0,0.0012454212410375476
896.0,-0.00015492059173993766
960.0,-0.0017978346440941095
1024.0,-0.00207143509760499
1152.0,-0.0011698477901518345
1280.0,-0.0008193162502720952
1408.0,0.0038743612822145224
1536.0,0.0013147532008588314
1664.0,-0.0008325285743921995
1792.0,-0.0019050441915169358
1920.0,-0.0017099223332479596
2048.0,-0.0014170382637530565
2304.0,-0.0002177458518417552
2560.0,-0.0005123837618157268
2816.0,0.0011690232204273343
3072.0,-0.0010864173527806997
3328.0,-0.0022888504900038242
3584.0,-0.0031588233541697264
3840.0,-0.001823598868213594
4096.0,-0.0018878548871725798
4608.0,-0.0012523666955530643
5120.0,-0.0017960163531824946
5632.0,0.0002636699646245688
6144.0,-0.0005440152017399669
6656.0,0.0014026036951690912
7168.0,0.0015295147895812988
7680.0,-0.0007691651699133217
8192.0,-0.0006229143473319709
end
