version,3.0
numOfCh,1
type,point
parent_name,ff67b_1dot0-0dot01
ch_type,1_1
kcount,1
numberNandB,1
brightnessNandB,1
carpet pos,0
pc,0
Time (ms),CH1 Auto-Correlation
1.0,0.04286681115627289
2.0,0.039723046123981476
3.0,0.036984626203775406
4.0,0.03465525433421135
5.0,0.03257589414715767
6.0,0.030730944126844406
7.0,0.029090648517012596
8.0,0.027539657428860664
9.0,0.026159146800637245
10.0,0.024902526289224625
11.0,0.02380191534757614
12.0,0.022817250341176987
13.0,0.0219492819160223
14.0,0.021194104105234146
15.0,0.020521674305200577
16.0,0.019888179376721382
18.0,0.018732966855168343
20.0,0.017602259293198586
22.0,0.01640201546251774
24.0,0.015487069264054298
26.0,0.014759976416826248
28.0,0.014206524938344955
30.0,0.013583937659859657
32.0,0.013034706935286522
36.0,0.012339811772108078
40.0,0.011844713240861893
44.0,0.011233815923333168
48.0,0.010329644195735455
52.0,0.009432193823158741
56.0,0.008564325049519539
60.0,0.007845262065529823
64.0,0.007294017355889082
72.0,0.006013184320181608
80.0,0.0054513537324965
88.0,0.005182784050703049
96.0,0.004515096545219421
104.0,0.004571104887872934
112.0,0.004141427576541901
120.0,0.0042334022000432014
128.0,0.004644673317670822
144.0,0.004004254005849361
160.0,0.0036427744198590517
176.0,0.003440841566771269
192.0,0.0033346989657729864
208.0,0.0032824580557644367
224.0,0.004343050066381693
240.0,0.004479160998016596
256.0,0.003941924776881933
288.0,0.003173796460032463
320.0,0.00243340409360826
352.0,0.0026998717803508043
384.0,0.003248212393373251
416.0,0.0023197170812636614
448.0,-2.1209270926192403e-05
480.0,-0.0015246476978063583
512.0,-0.0010626167058944702
576.0,-0.0005304288933984935
640.0,-0.0007786441710777581
704.0,-0.0014038407243788242
768.0,-0.0022211188916116953
832.0,-0.0020631190855056047
896.0,-0.0026759447064250708
960.0,-0.000764613039791584
1024.0,-0.0017130303895100951
1152.0,-0.001521632308140397
1280.0,-0.0006627030670642853
1408.0,-0.0016266863094642758
1536.0,-0.0007346498896367848
1664.0,0.00045815706835128367
1792.0,0.002011755248531699
1920.0,0.0016693987417966127
2048.0,0.0020698842126876116
2304.0,0.003023082623258233
2560.0,7.138100045267493e-05
2816.0,-0.0037293252535164356
3072.0,-0.0035661424044519663
3328.0,-0.001091037061996758
3584.0,-0.0001574944326421246
3840.0,7.324012403842062e-05
4096.0,-0.0006212641601450741
4608.0,-0.0008520432165823877
5120.0,-0.0014397975755855441
5632.0,-0.0009486756171099842
6144.0,0.002553065773099661
6656.0,3.236977136111818e-05
7168.0,-0.0014937185915187001
7680.0,0.00018114983686245978
8192.0,0.0011387395206838846
end
