version,3.0
numOfCh,1
type,point
parent_name,ff67b_1dot0-0dot01
ch_type,1_1
kcount,1
numberNandB,1
brightnessNandB,1
carpet pos,0
pc,0
Time (ms),CH1 Auto-Correlation
1.0,0.040517423301935196
2.0,0.0372859425842762
3.0,0.034460291266441345
4.0,0.031937938183546066
5.0,0.02975161001086235
6.0,0.0278212558478117
7.0,0.026199059560894966
8.0,0.024752387776970863
9.0,0.023381289094686508
10.0,0.02218545787036419
11.0,0.021028561517596245
12.0,0.01996438205242157
13.0,0.018944457173347473
14.0,0.01808476261794567
15.0,0.017294064164161682
16.0,0.016546761617064476
18.0,0.01525856088846922
20.0,0.014070139266550541
22.0,0.012870707549154758
24.0,0.011866048909723759
26.0,0.010934964753687382
28.0,0.010132823139429092
30.0,0.00944866519421339
32.0,0.008802510797977448
36.0,0.007693492341786623
40.0,0.006517521571367979
44.0,0.0055765509605407715
48.0,0.004655235912650824
52.0,0.004064682871103287
56.0,0.0034285320434719324
60.0,0.003002388635650277
64.0,0.002839826513081789
72.0,0.0024382630363106728
80.0,0.0024124495685100555
88.0,0.0024374863132834435
96.0,0.0024466696195304394
104.0,0.002594836987555027
112.0,0.00216199504211545
120.0,0.0015116161666810513
128.0,0.000911637966055423
144.0,0.0007356693968176842
160.0,0.0012380762491375208
176.0,0.0008414082694798708
192.0,0.00034763288567774
208.0,-0.00037847430212423205
224.0,-0.00020728845265693963
240.0,0.00036065696622245014
256.0,0.00036279630148783326
288.0,0.0010614979546517134
320.0,0.00019487066310830414
352.0,0.000819581386167556
384.0,0.0003356454544700682
416.0,0.0012888603378087282
448.0,0.0018690931610763073
480.0,0.002169815357774496
512.0,0.0022593121975660324
576.0,0.002145143924281001
640.0,0.0002000949316425249
704.0,-0.00033147577778436244
768.0,-0.0004990687011741102
832.0,-0.00017235070117749274
896.0,0.0012229797430336475
960.0,0.0009441984002478421
1024.0,0.0017053162446245551
1152.0,0.0022898633033037186
1280.0,-0.00020809384295716882
1408.0,0.0008774251327849925
1536.0,0.0006373951327987015
1664.0,0.001310778665356338
1792.0,0.0005967853940092027
1920.0,0.0001293117384193465
2048.0,0.0017991338390856981
2304.0,0.00031111593125388026
2560.0,0.0015123703051358461
2816.0,9.844671876635402e-05
3072.0,-0.0002048833412118256
3328.0,-0.0010688252514228225
3584.0,-1.5449286365765147e-05
3840.0,-0.0008331258432008326
4096.0,-0.0003137077437713742
4608.0,-0.0008718010503798723
5120.0,-0.0013168801087886095
5632.0,-0.001122597954235971
6144.0,-0.001498331897892058
6656.0,-0.0016281834105029702
7168.0,-0.001138766878284514
7680.0,-0.0011158512206748128
8192.0,-0.0009705725242383778
end
