version,3.0
numOfCh,1
type,point
parent_name,ff67b_1dot0-0dot01
ch_type,1_1
kcount,1
numberNandB,1
brightnessNandB,1
carpet pos,0
pc,0
Time (ms),CH1 Auto-Correlation
1.0,0.04507693648338318
2.0,0.042071741074323654
3.0,0.039541929960250854
4.0,0.03736525774002075
5.0,0.035435594618320465
6.0,0.033778607845306396
7.0,0.03232313692569733
8.0,0.03113354742527008
9.0,0.030003679916262627
10.0,0.028938446193933487
11.0,0.027905015274882317
12.0,0.026872724294662476
13.0,0.025980789214372635
14.0,0.025218209251761436
15.0,0.02452932856976986
16.0,0.023799892514944077
18.0,0.022426972165703773
20.0,0.0213018711656332
22.0,0.02018950693309307
24.0,0.01919897459447384
26.0,0.01843520812690258
28.0,0.017792966216802597
30.0,0.01724732667207718
32.0,0.016816681250929832
36.0,0.01617985963821411
40.0,0.015270506031811237
44.0,0.014353021048009396
48.0,0.013587754219770432
52.0,0.012813927605748177
56.0,0.01203739084303379
60.0,0.011568737216293812
64.0,0.011311584152281284
72.0,0.010651804506778717
80.0,0.010255042463541031
88.0,0.010178596712648869
96.0,0.00982037652283907
104.0,0.009388606064021587
112.0,0.00871138647198677
120.0,0.007831793278455734
128.0,0.006775352172553539
144.0,0.0070160068571567535
160.0,0.00785093940794468
176.0,0.00775220338255167
192.0,0.0075796376913785934
208.0,0.007002536673098803
224.0,0.005929154343903065
240.0,0.005442997440695763
256.0,0.006310137454420328
288.0,0.00618440005928278
320.0,0.0053494651801884174
352.0,0.003434419631958008
384.0,0.0013583929976448417
416.0,0.0005111770587973297
448.0,0.0003323339333292097
480.0,-0.0011519340332597494
512.0,-0.002380301244556904
576.0,-0.0034798618871718645
640.0,-0.002646292094141245
704.0,-0.002695753937587142
768.0,-0.0018728850409388542
832.0,-0.0033596022985875607
896.0,-0.0029307231307029724
960.0,-0.0012914905091747642
1024.0,-0.0015042040031403303
1152.0,0.0005145202740095556
1280.0,0.0014501434052363038
1408.0,0.0017685194034129381
1536.0,0.00033463237923569977
1664.0,-0.0010696768295019865
1792.0,-0.003355492604896426
1920.0,-0.001706342096440494
2048.0,-0.001413323450833559
2304.0,-8.579136192565784e-05
2560.0,0.00028590697911567986
2816.0,0.0025745006278157234
3072.0,0.0006423161830753088
3328.0,0.0012898624408990145
3584.0,-5.3207975724944845e-05
3840.0,-0.0042162686586380005
4096.0,-0.0029452426824718714
4608.0,0.0013850852847099304
5120.0,-0.0024202412459999323
5632.0,0.002166976686567068
6144.0,-0.00045424423296935856
6656.0,0.0035709147341549397
7168.0,-0.0032597072422504425
7680.0,0.0015757736982777715
8192.0,-0.0021056628320366144
end
