version,3.0
numOfCh,1
type,point
parent_name,ff67b_1dot0-0dot01
ch_type,1_1
kcount,1
numberNandB,1
brightnessNandB,1
carpet pos,0
pc,0
Time (ms),CH1 Auto-Correlation
1.0,0.036926306784152985
2.0,0.03378421068191528
3.0,0.031075064092874527
4.0,0.02870294637978077
5.0,0.026634808629751205
6.0,0.02474469691514969
7.0,0.023121336475014687
8.0,0.02174709178507328
9.0,0.020554492250084877
10.0,0.01945594511926174
11.0,0.01849198527634144
12.0,0.017679527401924133
13.0,0.01691340282559395
14.0,0.016363101080060005
15.0,0.01571529358625412
16.0,0.015164594165980816
18.0,0.014091594144701958
20.0,0.013045408762991428
22.0,0.012103980407118797
24.0,0.01131958607584238
26.0,0.010650953277945518
28.0,0.010024622082710266
30.0,0.009596030227839947
32.0,0.009434095583856106
36.0,0.009201540611684322
40.0,0.008128423243761063
44.0,0.007412979379296303
48.0,0.007071551401168108
52.0,0.0065610529854893684
56.0,0.006039452273398638
60.0,0.00569571740925312
64.0,0.005600847769528627
72.0,0.004630222450941801
80.0,0.0042436569929122925
88.0,0.003664247691631317
96.0,0.003203560132533312
104.0,0.0021264555398374796
112.0,0.001778759527951479
120.0,0.002025587484240532
128.0,0.00200528628192842
144.0,0.002794989850372076
160.0,0.0027122690808027983
176.0,0.0011200833832845092
192.0,0.0002557564585004002
208.0,0.0006431123474612832
224.0,0.0016348372446373105
240.0,0.0008890742901712656
256.0,-0.0005637818248942494
288.0,0.00079788186121732
320.0,0.000897502526640892
352.0,0.0005143575835973024
384.0,0.000976995681412518
416.0,0.0004193700151517987
448.0,-0.0007310982909984887
480.0,-0.0007397723384201527
512.0,-0.0013507099356502295
576.0,-0.0013486978132277727
640.0,-0.0009760760585777462
704.0,-0.0023804660886526108
768.0,-0.002331396332010627
832.0,-0.002371689537540078
896.0,-0.001075807143934071
960.0,0.00021577833103947341
1024.0,-0.0010146579006686807
1152.0,-0.0011028553126379848
1280.0,0.0009159689070656896
1408.0,6.83606049278751e-05
1536.0,0.001235687406733632
1664.0,0.0012226762482896447
1792.0,0.0006477558636106551
1920.0,0.0005722891073673964
2048.0,0.001190866925753653
2304.0,-9.082762699108571e-05
2560.0,-0.0027674580924212933
2816.0,-0.0013959892094135284
3072.0,0.002027801238000393
3328.0,0.0004199392278678715
3584.0,0.0015664540696889162
3840.0,-0.00046524315257556736
4096.0,-0.0008157931733876467
4608.0,0.0004153396002948284
5120.0,0.00019389951194170862
5632.0,-0.00012076579878339544
6144.0,0.0001917383779073134
6656.0,-0.0011887841392308474
7168.0,-0.002182366792112589
7680.0,-4.7193883801810443e-05
8192.0,-0.0004220192786306143
end
