version,3.0
numOfCh,1
type,point
parent_name,ff67b_1dot0-0dot01
ch_type,1_1
kcount,1
numberNandB,1
brightnessNandB,1
carpet pos,0
pc,0
Time (ms),CH1 Auto-Correlation
1.0,0.04321581497788429
2.0,0.0400349460542202
3.0,0.03728414326906204
4.0,0.034917302429676056
5.0,0.032905831933021545
6.0,0.031171660870313644
7.0,0.029562342911958694
8.0,0.028102928772568703
9.0,0.02684023231267929
10.0,0.02574905939400196
11.0,0.02473032847046852
12.0,0.023805730044841766
13.0,0.023012328892946243
14.0,0.022295204922556877
15.0,0.021663010120391846
16.0,0.02118058316409588
18.0,0.020238403230905533
20.0,0.01919652335345745
22.0,0.01802697591483593
24.0,0.0169676523655653
26.0,0.015971962362527847
28.0,0.015043601393699646
30.0,0.014221747405827045
32.0,0.013515789061784744
36.0,0.012747470289468765
40.0,0.011743821203708649
44.0,0.010802557691931725
48.0,0.010330851189792156
52.0,0.010135502554476261
56.0,0.009919600561261177
60.0,0.009522166103124619
64.0,0.008964617736637592
72.0,0.007954556494951248
80.0,0.007912658154964447
88.0,0.007545892149209976
96.0,0.007241390645503998
104.0,0.0064383880235254765
112.0,0.006148827727884054
120.0,0.00588349299505353
128.0,0.006222237832844257
144.0,0.00622675521299243
160.0,0.00645812414586544
176.0,0.006535531487315893
192.0,0.006996998563408852
208.0,0.007210847921669483
224.0,0.006095897406339645
240.0,0.0056546335108578205
256.0,0.003888018662109971
288.0,0.0027822579722851515
320.0,0.003871920285746455
352.0,0.004522072616964579
384.0,0.005138888955116272
416.0,0.006186008919030428
448.0,0.005171465687453747
480.0,0.0038069230504333973
512.0,0.0026221040170639753
576.0,0.0027028601616621017
640.0,0.0030176660511642694
704.0,0.001620157272554934
768.0,0.0041257888078689575
832.0,0.004405284766107798
896.0,0.003630158258602023
960.0,0.002440259326249361
1024.0,0.0017022985266521573
1152.0,0.002065971028059721
1280.0,4.239579720888287e-05
1408.0,4.407757296576165e-05
1536.0,0.0002912136260420084
1664.0,0.00035506708081811666
1792.0,0.0007432711427100003
1920.0,-0.0016540298238396645
2048.0,-0.0026137414388358593
2304.0,-0.0034628049470484257
2560.0,-0.0024071496445685625
2816.0,-0.00502827437594533
3072.0,-0.004286687821149826
3328.0,-0.0012094295816496015
3584.0,-0.0015174852451309562
3840.0,-0.0013095447793602943
4096.0,-2.8932359782629646e-05
4608.0,0.00069393590092659
5120.0,0.0019177906215190887
5632.0,0.0012549920938909054
6144.0,0.0013613689225167036
6656.0,-0.0012489304644986987
7168.0,-0.002916724653914571
7680.0,-0.0032691177912056446
8192.0,-0.00456308713182807
end
