version,3.0
numOfCh,1
type,point
parent_name,ff67b_1dot0-0dot01
ch_type,1_1
kcount,1
numberNandB,1
brightnessNandB,1
carpet pos,0
pc,0
Time (ms),CH1 Auto-Correlation
1.0,0.5167295932769775
2.0,0.5156192779541016
3.0,0.5145547389984131
4.0,0.5135495662689209
5.0,0.5126583576202393
6.0,0.5118134021759033
7.0,0.5110060572624207
8.0,0.5102223753929138
9.0,0.509477972984314
10.0,0.5087363123893738
11.0,0.5080834627151489
12.0,0.5074179768562317
13.0,0.5067526698112488
14.0,0.5061407089233398
15.0,0.5055373907089233
16.0,0.5048341751098633
18.0,0.5034834146499634
20.0,0.5022918581962585
22.0,0.5011280179023743
24.0,0.5000462532043457
26.0,0.4989683926105499
28.0,0.49777740240097046
30.0,0.4965611696243286
32.0,0.495278000831604
36.0,0.4926318824291229
40.0,0.49016839265823364
44.0,0.487530380487442
48.0,0.4849099814891815
52.0,0.48256292939186096
56.0,0.4805189073085785
60.0,0.4787035286426544
64.0,0.4767932593822479
72.0,0.47322002053260803
80.0,0.4697730541229248
88.0,0.4653814733028412
96.0,0.46185368299484253
104.0,0.45862877368927
112.0,0.4546646773815155
120.0,0.4511900544166565
128.0,0.447824090719223
144.0,0.4405316114425659
160.0,0.4331514239311218
176.0,0.42721396684646606
192.0,0.4206780791282654
208.0,0.4120125472545624
224.0,0.39935022592544556
240.0,0.38591593503952026
256.0,0.37560200691223145
288.0,0.35711371898651123
320.0,0.3360733985900879
352.0,0.31223368644714355
384.0,0.28767022490501404
416.0,0.26798349618911743
448.0,0.2508213222026825
480.0,0.23618631064891815
512.0,0.22042664885520935
576.0,0.19316990673542023
640.0,0.17613521218299866
704.0,0.162771075963974
768.0,0.15428566932678223
832.0,0.14120440185070038
896.0,0.11564885824918747
960.0,0.09529666602611542
1024.0,0.07350631058216095
1152.0,0.017738673835992813
1280.0,-0.03916158527135849
1408.0,-0.10616495460271835
1536.0,-0.1673671156167984
1664.0,-0.21545714139938354
1792.0,-0.26106688380241394
1920.0,-0.3093733787536621
2048.0,-0.3659363389015198
end
