version,3.0
numOfCh,1
type,point
parent_name,ff67b_1dot0-0dot01
ch_type,1_1
kcount,1
numberNandB,1
brightnessNandB,1
carpet pos,0
pc,0
Time (ms),CH1 Auto-Correlation
1.0,0.04777242988348007
2.0,0.04466060549020767
3.0,0.04199495166540146
4.0,0.03958266228437424
5.0,0.037475790828466415
6.0,0.0355481281876564
7.0,0.03381163626909256
8.0,0.032312337309122086
9.0,0.03098478727042675
10.0,0.029856093227863312
11.0,0.028914889320731163
12.0,0.027997806668281555
13.0,0.027088245376944542
14.0,0.02621028758585453
15.0,0.02535288780927658
16.0,0.02458132803440094
18.0,0.023108266294002533
20.0,0.02185249514877796
22.0,0.02040533907711506
24.0,0.019160976633429527
26.0,0.018060417845845222
28.0,0.01702912524342537
30.0,0.01589914970099926
32.0,0.015018339268863201
36.0,0.014312850311398506
40.0,0.013566394336521626
44.0,0.012856152839958668
48.0,0.012357913888990879
52.0,0.011425101198256016
56.0,0.010298028588294983
60.0,0.009654749184846878
64.0,0.009525477886199951
72.0,0.009142258204519749
80.0,0.00865253247320652
88.0,0.008539018221199512
96.0,0.00800916738808155
104.0,0.006985371001064777
112.0,0.006517721805721521
120.0,0.0063836839981377125
128.0,0.0060470509342849255
144.0,0.004879173822700977
160.0,0.0040064528584480286
176.0,0.002992244902998209
192.0,0.001964613562449813
208.0,0.002463925862684846
224.0,0.0014037907822057605
240.0,0.0001094559338525869
256.0,0.00049814727390185
288.0,0.0015192839782685041
320.0,0.0021489972714334726
352.0,0.0014926019357517362
384.0,0.0030713353771716356
416.0,0.001991996308788657
448.0,0.0005073481006547809
480.0,-0.00019119693024549633
512.0,-0.002290556440129876
576.0,-0.002807813696563244
640.0,-0.003013210603967309
704.0,-0.0016812350368127227
768.0,-0.0016571133164688945
832.0,-0.0029061646200716496
896.0,-0.004525891970843077
960.0,-0.003246500389650464
1024.0,-0.003489400027319789
1152.0,-0.00340196187607944
1280.0,-0.004777495749294758
1408.0,-0.005038452800363302
1536.0,-0.0038930275477468967
1664.0,-0.0016573439352214336
1792.0,0.002623843029141426
1920.0,0.006394555792212486
2048.0,0.006465640384703875
2304.0,0.002267424715682864
2560.0,0.0008963705622591078
2816.0,0.0004711058863904327
3072.0,-0.0009031261433847249
3328.0,-0.004199158400297165
3584.0,-0.005905678030103445
3840.0,0.0006815468659624457
4096.0,0.00198424537666142
4608.0,0.002663038205355406
5120.0,-0.00014108045434113592
5632.0,-0.005047282669693232
6144.0,0.0038232121150940657
6656.0,0.0009756697108969092
7168.0,0.0008612395613454282
7680.0,-0.004054471384733915
8192.0,0.0004627654852811247
end
