version,3.0
numOfCh,1
type,point
parent_name,ff67b_1dot0-0dot01
ch_type,1_1
kcount,1
numberNandB,1
brightnessNandB,1
carpet pos,0
pc,0
Time (ms),CH1 Auto-Correlation
1.0,0.14802546799182892
2.0,0.14364761114120483
3.0,0.13974013924598694
4.0,0.13604755699634552
5.0,0.1327294558286667
6.0,0.12955082952976227
7.0,0.1264774352312088
8.0,0.12359341233968735
9.0,0.12080307304859161
10.0,0.11825580149888992
11.0,0.11584541946649551
12.0,0.11352232843637466
13.0,0.11142278462648392
14.0,0.10941153019666672
15.0,0.10748149454593658
16.0,0.10566705465316772
18.0,0.10195304453372955
20.0,0.09838768094778061
22.0,0.09496401995420456
24.0,0.09205999970436096
26.0,0.08910531550645828
28.0,0.08597560226917267
30.0,0.0828830674290657
32.0,0.07999301701784134
36.0,0.07239340990781784
40.0,0.06713290512561798
44.0,0.06165414676070213
48.0,0.05675194412469864
52.0,0.05214926600456238
56.0,0.047107309103012085
60.0,0.042013347148895264
64.0,0.03672188147902489
72.0,0.019688652828335762
80.0,0.010611007921397686
88.0,0.010120616294443607
96.0,0.009175345301628113
104.0,0.0066664814949035645
112.0,0.004127034917473793
120.0,0.0049677155911922455
128.0,0.0069023664109408855
144.0,0.009010283276438713
160.0,0.009272383525967598
176.0,0.00974886491894722
192.0,0.011956565082073212
208.0,0.010001938790082932
224.0,0.010707489214837551
240.0,0.008858212269842625
256.0,0.006286665331572294
288.0,0.002235634019598365
320.0,-0.0012288950383663177
352.0,-0.002523766364902258
384.0,0.0005742021021433175
416.0,0.002123120240867138
448.0,-0.00047866092063486576
480.0,-0.005437834654003382
512.0,-0.0065832375548779964
576.0,-0.0022530124988406897
640.0,-0.0017830923898145556
704.0,-0.002273650374263525
768.0,-0.0007620776304975152
832.0,0.0009851406794041395
896.0,-0.0006413539522327483
960.0,-0.0013165666023269296
1024.0,-0.0026425442192703485
1152.0,0.0013061810750514269
1280.0,0.0012405437882989645
1408.0,0.0001732913515297696
1536.0,-0.0010214654030278325
1664.0,-0.0012206688988953829
1792.0,-0.0015433802036568522
1920.0,0.0012007523328065872
2048.0,0.0032451502047479153
2304.0,0.0021300276275724173
2560.0,0.002236362313851714
2816.0,0.0008290639379993081
3072.0,0.0012395811500027776
3328.0,0.0014933948405086994
3584.0,0.0016197838122025132
3840.0,-0.0007275302777998149
4096.0,-0.0007145434501580894
4608.0,0.0016219989629462361
5120.0,-0.0005397523054853082
5632.0,0.0006531275575980544
6144.0,-0.001609155093319714
6656.0,0.0014587928308174014
7168.0,-0.0018592167180031538
7680.0,0.00010291734361089766
8192.0,0.0011096927337348461
end
