version,3.0
numOfCh,1
type,point
parent_name,ff67b_1dot0-0dot01
ch_type,1_1
kcount,1
numberNandB,1
brightnessNandB,1
carpet pos,0
pc,0
Time (ms),CH1 Auto-Correlation
1.0,0.06408122181892395
2.0,0.059412263333797455
3.0,0.05516756698489189
4.0,0.05139591172337532
5.0,0.04768406227231026
6.0,0.044298991560935974
7.0,0.04111095890402794
8.0,0.03803359344601631
9.0,0.035060618072748184
10.0,0.032374609261751175
11.0,0.02983187697827816
12.0,0.027324823662638664
13.0,0.02495826780796051
14.0,0.022673144936561584
15.0,0.020232371985912323
16.0,0.017751416191458702
18.0,0.01671314798295498
20.0,0.015682518482208252
22.0,0.01468782126903534
24.0,0.013702774420380592
26.0,0.012757396325469017
28.0,0.011852380819618702
30.0,0.010898901149630547
32.0,0.010282863862812519
36.0,0.009458711370825768
40.0,0.00880541279911995
44.0,0.008361841551959515
48.0,0.008188521489501
52.0,0.007969697006046772
56.0,0.0076042599976062775
60.0,0.006877186708152294
64.0,0.00611760513857007
72.0,0.005633827298879623
80.0,0.005644519347697496
88.0,0.004402447957545519
96.0,0.004147503059357405
104.0,0.004828923847526312
112.0,0.0040699178352952
120.0,0.0023519780952483416
128.0,0.0018493557581678033
144.0,0.0027336780913174152
160.0,0.002297978615388274
176.0,0.0016664735740050673
192.0,0.0016172003233805299
208.0,-0.0003379248082637787
224.0,-0.00026474002515897155
240.0,-0.00014612717495765537
256.0,-0.0010454648872837424
288.0,-0.0007344209589064121
320.0,-7.054922025417909e-05
352.0,-0.0001439797633793205
384.0,-0.0003920365998055786
416.0,-0.0007239160477183759
448.0,-0.001356944558210671
480.0,-0.0012010028585791588
512.0,-0.0008041521650739014
576.0,-0.00010889599070651457
640.0,0.0006079779122956097
704.0,0.0006307030562311411
768.0,-0.0005810837610624731
832.0,-0.0014255847781896591
896.0,-0.0006813160143792629
960.0,-0.001812332309782505
1024.0,-0.0010598961962386966
1152.0,-0.001976615749299526
1280.0,-0.00018011528300121427
1408.0,0.0015957545256242156
1536.0,0.0012795981019735336
1664.0,-0.0015618657926097512
1792.0,-0.002202828647568822
1920.0,-0.00027206342201679945
2048.0,0.0007456726743839681
2304.0,0.0014454886550083756
2560.0,-0.000379247241653502
2816.0,-0.0004496052279137075
3072.0,-0.0005288562388159335
3328.0,-0.0006800033734180033
3584.0,0.0007920971256680787
3840.0,0.0017609380884096026
4096.0,-0.001239259378053248
4608.0,-0.0009713926119729877
5120.0,-2.1976986772642704e-06
5632.0,0.0009462501620873809
6144.0,0.0023465189151465893
6656.0,-0.0011088030878454447
7168.0,-0.0018318337388336658
7680.0,0.0011219134321436286
8192.0,-0.0008879785891622305
end
