version,3.0
numOfCh,1
type,point
parent_name,ff67b_1dot0-0dot01
ch_type,1_1
kcount,1
numberNandB,1
brightnessNandB,1
carpet pos,0
pc,0
Time (ms),CH1 Auto-Correlation
1.0,0.04787905514240265
2.0,0.04504181072115898
3.0,0.042553696781396866
4.0,0.04046369716525078
5.0,0.03870918229222298
6.0,0.037022851407527924
7.0,0.03559807315468788
8.0,0.03430480137467384
9.0,0.033093832433223724
10.0,0.031963419169187546
11.0,0.031023915857076645
12.0,0.03022666648030281
13.0,0.029446203261613846
14.0,0.02877216599881649
15.0,0.028230158612132072
16.0,0.027685075998306274
18.0,0.026620006188750267
20.0,0.025635818019509315
22.0,0.024845687672495842
24.0,0.02398752048611641
26.0,0.023119648918509483
28.0,0.022553840652108192
30.0,0.021896151825785637
32.0,0.021357888355851173
36.0,0.020112324506044388
40.0,0.01910281926393509
44.0,0.017970750108361244
48.0,0.016884472221136093
52.0,0.015914101153612137
56.0,0.015298438258469105
60.0,0.014505048282444477
64.0,0.013676934875547886
72.0,0.01235072873532772
80.0,0.01085710059851408
88.0,0.009751589968800545
96.0,0.008671518415212631
104.0,0.008744076825678349
112.0,0.0076584904454648495
120.0,0.0063853454776108265
128.0,0.005163875408470631
144.0,0.0032134712673723698
160.0,0.0035090369638055563
176.0,0.0041974871419370174
192.0,0.0046508717350661755
208.0,0.004077061079442501
224.0,0.0036573666147887707
240.0,0.004499065689742565
256.0,0.003967600408941507
288.0,0.0027183808851987123
320.0,-0.0006544009083881974
352.0,-0.0005618100403808057
384.0,-0.0012748524313792586
416.0,-0.0008484827121719718
448.0,0.0002875422651413828
480.0,0.0011108448961749673
512.0,0.003223670879378915
576.0,0.0038650326896458864
640.0,0.00085160176968202
704.0,-0.0016579508082941175
768.0,-0.0019867883529514074
832.0,-0.0029904553666710854
896.0,-0.0013343741884455085
960.0,-0.00041257182601839304
1024.0,0.0009233828168362379
1152.0,0.0029114121571183205
1280.0,0.0014574952656403184
1408.0,-0.0009718786459416151
1536.0,-0.00235573248937726
1664.0,-6.316875078482553e-05
1792.0,1.8862245269701816e-05
1920.0,0.00046888674842193723
2048.0,-0.0005912216729484499
2304.0,-0.001073131337761879
2560.0,-0.0007074548047967255
2816.0,-0.0002690832188818604
3072.0,0.0005286167724989355
3328.0,-0.0039439331740140915
3584.0,-0.0015358647797256708
3840.0,0.0012138981837779284
4096.0,0.002116220537573099
4608.0,-0.0025855987332761288
5120.0,-0.005021349992603064
5632.0,-0.0013361431192606688
6144.0,-0.00408134376630187
6656.0,-0.005700040142983198
7168.0,0.006015894468873739
7680.0,0.013727416284382343
8192.0,0.008453144691884518
end
