version,3.0
numOfCh,1
type,point
parent_name,ff67b_1dot0-0dot01
ch_type,1_1
kcount,1
numberNandB,1
brightnessNandB,1
carpet pos,0
pc,0
Time (ms),CH1 Auto-Correlation
1.0,0.050180088728666306
2.0,0.04717571288347244
3.0,0.04454891383647919
4.0,0.04216405376791954
5.0,0.040098924189805984
6.0,0.038278136402368546
7.0,0.03665168210864067
8.0,0.035082582384347916
9.0,0.03368499130010605
10.0,0.03242088854312897
11.0,0.031252168118953705
12.0,0.030273664742708206
13.0,0.029452458024024963
14.0,0.028630420565605164
15.0,0.02791948989033699
16.0,0.027293875813484192
18.0,0.02621307410299778
20.0,0.025168677791953087
22.0,0.024059707298874855
24.0,0.022922709584236145
26.0,0.021786438301205635
28.0,0.020960558205842972
30.0,0.02010982111096382
32.0,0.019430752843618393
36.0,0.018361082300543785
40.0,0.017442943528294563
44.0,0.016491053625941277
48.0,0.01578361913561821
52.0,0.015281734988093376
56.0,0.014418034814298153
60.0,0.013376678340137005
64.0,0.012568244710564613
72.0,0.011529186740517616
80.0,0.010869703255593777
88.0,0.009906730614602566
96.0,0.009199445135891438
104.0,0.009050182066857815
112.0,0.008861084468662739
120.0,0.008297794498503208
128.0,0.008849531412124634
144.0,0.008945794776082039
160.0,0.007663512136787176
176.0,0.006314679514616728
192.0,0.006125284358859062
208.0,0.00515257753431797
224.0,0.004554979037493467
240.0,0.003191327443346381
256.0,0.003634279128164053
288.0,0.0032818736508488655
320.0,0.003747235983610153
352.0,0.0030127873178571463
384.0,0.0027610482648015022
416.0,0.0011231866665184498
448.0,4.056552643305622e-05
480.0,-0.00121396838221699
512.0,-0.0005784517852589488
576.0,-0.00012471455556806177
640.0,-0.0030157265719026327
704.0,-0.0016858514863997698
768.0,0.0008925413130782545
832.0,0.0008639480220153928
896.0,0.0029543188866227865
960.0,0.002042466774582863
1024.0,-9.854882955551147e-05
1152.0,0.0017983372090384364
1280.0,0.0026945879217237234
1408.0,0.0015255736652761698
1536.0,0.0011689407983794808
1664.0,0.000419342570239678
1792.0,-1.6865662473719567e-05
1920.0,-0.0019666566513478756
2048.0,-0.003758676815778017
2304.0,-0.0028039102908223867
2560.0,-0.0045145791955292225
2816.0,-0.006585055962204933
3072.0,-0.0065351021476089954
3328.0,-0.0017759635811671615
3584.0,-0.002903996268287301
3840.0,-0.003338353941217065
4096.0,-0.0015203544171527028
4608.0,-0.00026969637838192284
5120.0,0.0036648379173129797
5632.0,0.002379404380917549
6144.0,0.004311811178922653
6656.0,0.0017854870529845357
7168.0,-0.0013667438179254532
7680.0,0.0006934633129276335
8192.0,-0.003445640206336975
end
