version,3.0
numOfCh,1
type,point
parent_name,ff67b_1dot0-0dot01
ch_type,1_1
kcount,1
numberNandB,1
brightnessNandB,1
carpet pos,0
pc,0
Time (ms),CH1 Auto-Correlation
1.0,0.041673701256513596
2.0,0.038533225655555725
3.0,0.03584898263216019
4.0,0.03359050676226616
5.0,0.031620774418115616
6.0,0.029921486973762512
7.0,0.028456460684537888
8.0,0.027243949472904205
9.0,0.02612128295004368
10.0,0.02513776905834675
11.0,0.024157587438821793
12.0,0.02324758656322956
13.0,0.022334901615977287
14.0,0.02152855135500431
15.0,0.020844927057623863
16.0,0.020166218280792236
18.0,0.01884361170232296
20.0,0.01776691898703575
22.0,0.016785193234682083
24.0,0.01591743342578411
26.0,0.015000952407717705
28.0,0.014036559499800205
30.0,0.013246914371848106
32.0,0.012368804775178432
36.0,0.011103533208370209
40.0,0.010313170962035656
44.0,0.009617207571864128
48.0,0.00892829243093729
52.0,0.008149802684783936
56.0,0.007166156079620123
60.0,0.006305152550339699
64.0,0.005538252182304859
72.0,0.004867847543209791
80.0,0.004329366143792868
88.0,0.0033969678916037083
96.0,0.002855998231098056
104.0,0.002059808699414134
112.0,0.0014933033380657434
120.0,0.0017994607333093882
128.0,0.0017481003887951374
144.0,0.0004705043393187225
160.0,-0.0006008892087265849
176.0,-0.00026482847169972956
192.0,-4.030826858070213e-06
208.0,0.0008009535958990455
224.0,0.0018552435794845223
240.0,0.0018843109719455242
256.0,0.0025914765428751707
288.0,0.0013689481420442462
320.0,0.0018117593135684729
352.0,0.0012132625561207533
384.0,0.0013646559091284871
416.0,0.001346276723779738
448.0,0.001915953354910016
480.0,0.0014691378455609083
512.0,0.0014930993784219027
576.0,-0.0001767432113410905
640.0,-0.001127305207774043
704.0,-0.0007190829492174089
768.0,-0.000688549829646945
832.0,0.002344009466469288
896.0,0.0005570718785747886
960.0,-0.0012065343325957656
1024.0,0.00016902119386941195
1152.0,-0.0014535065274685621
1280.0,-0.0007665895391255617
1408.0,-0.001835921430028975
1536.0,0.0002831722085829824
1664.0,0.0010491664288565516
1792.0,-0.001247368287295103
1920.0,0.002880892949178815
2048.0,0.001697617582976818
2304.0,6.202925760590006e-06
2560.0,-0.0004208541940897703
2816.0,-0.0009073594701476395
3072.0,-0.002194150583818555
3328.0,-0.002561005996540189
3584.0,-0.0011296608718112111
3840.0,-0.0008834282052703202
4096.0,0.0002008846349781379
4608.0,-0.00011389650899218395
5120.0,-0.0007648335304111242
5632.0,0.00030810487805865705
6144.0,-0.00015489602810703218
6656.0,0.00022948642435949296
7168.0,0.0009370717452839017
7680.0,0.00037678933585993946
8192.0,-0.0016474336152896285
end
