version,3.0
numOfCh,1
type,point
parent_name,ff67b_1dot0-0dot01
ch_type,1_1
kcount,1
numberNandB,1
brightnessNandB,1
carpet pos,0
pc,0
Time (ms),CH1 Auto-Correlation
1.0,0.5076767206192017
2.0,0.5047426819801331
3.0,0.5020837783813477
4.0,0.49972596764564514
5.0,0.4976462423801422
6.0,0.4956185519695282
7.0,0.4937482476234436
8.0,0.49201035499572754
9.0,0.4903572201728821
10.0,0.4886983633041382
11.0,0.4871753752231598
12.0,0.48566964268684387
13.0,0.48429206013679504
14.0,0.48294830322265625
15.0,0.4816493093967438
16.0,0.48036786913871765
18.0,0.4776874780654907
20.0,0.4757670760154724
22.0,0.4738294780254364
24.0,0.47190889716148376
26.0,0.46983611583709717
28.0,0.4677659869194031
30.0,0.46558791399002075
32.0,0.46361908316612244
36.0,0.4589537978172302
40.0,0.4556119740009308
44.0,0.4526061713695526
48.0,0.44974076747894287
52.0,0.44649937748908997
56.0,0.4425375461578369
60.0,0.43838900327682495
64.0,0.43467292189598083
72.0,0.42399275302886963
80.0,0.4154603183269501
88.0,0.4069071114063263
96.0,0.39881643652915955
104.0,0.3909505605697632
112.0,0.3825533986091614
120.0,0.37598752975463867
128.0,0.3707694709300995
144.0,0.3578641414642334
160.0,0.35127395391464233
176.0,0.34384381771087646
192.0,0.33764445781707764
208.0,0.3316751718521118
224.0,0.32160094380378723
240.0,0.3092164993286133
256.0,0.29873427748680115
288.0,0.2810839116573334
320.0,0.2635197639465332
352.0,0.250483900308609
384.0,0.2353743463754654
416.0,0.21408061683177948
448.0,0.19273895025253296
480.0,0.17435599863529205
512.0,0.16425463557243347
576.0,0.14216767251491547
640.0,0.11032301187515259
704.0,0.06777090579271317
768.0,0.02469448745250702
832.0,-0.004300185479223728
896.0,-0.010861738584935665
960.0,-0.008203553967177868
1024.0,-0.008365604095160961
1152.0,0.004991837777197361
1280.0,0.009218115359544754
1408.0,0.013587637804448605
1536.0,0.011275638826191425
1664.0,0.009988260455429554
1792.0,0.003819342702627182
1920.0,-0.0016440623439848423
2048.0,-0.008607516996562481
2304.0,-0.011113768443465233
2560.0,-0.022348478436470032
2816.0,-0.023603541776537895
3072.0,-0.011784465983510017
3328.0,-0.0013127167476341128
3584.0,-0.005354295019060373
3840.0,0.00276169553399086
4096.0,-0.007963123731315136
4608.0,0.0032183765433728695
5120.0,0.003352746134623885
5632.0,-0.01092937495559454
6144.0,-0.00018761336104944348
6656.0,-0.014301524497568607
7168.0,-0.016302023082971573
7680.0,-0.03613018989562988
8192.0,-0.012105654925107956
end
