version,3.0
numOfCh,1
type,point
parent_name,fe81d_0dot1-0dot01
ch_type,1_1
kcount,1
numberNandB,1
brightnessNandB,1
carpet pos,0
pc,0
Time (ms),CH1 Auto-Correlation
1.0,0.015808871015906334
2.0,0.015621325932443142
3.0,0.015439863316714764
4.0,0.015261533670127392
5.0,0.01508841197937727
6.0,0.01492391712963581
7.0,0.01476864144206047
8.0,0.014614507555961609
9.0,0.014461546204984188
10.0,0.014313876628875732
11.0,0.014165985397994518
12.0,0.014023881405591965
13.0,0.013882037252187729
14.0,0.013740744441747665
15.0,0.013603060506284237
16.0,0.013462732546031475
18.0,0.013185377232730389
20.0,0.012918469496071339
22.0,0.01264882367104292
24.0,0.01237968448549509
26.0,0.0121142053976655
28.0,0.011853921227157116
30.0,0.011598914861679077
32.0,0.011351404711604118
36.0,0.01088927686214447
40.0,0.010481766425073147
44.0,0.010108405724167824
48.0,0.009779803454875946
52.0,0.0094846086576581
56.0,0.009207110852003098
60.0,0.008924783207476139
64.0,0.008666686713695526
72.0,0.008153410628437996
80.0,0.007649553008377552
88.0,0.00720073189586401
96.0,0.0068784840404987335
104.0,0.006634130142629147
112.0,0.006410796195268631
120.0,0.006183682009577751
128.0,0.005928048398345709
144.0,0.005419794470071793
160.0,0.004977182950824499
176.0,0.004562335088849068
192.0,0.0041799708269536495
208.0,0.0037654892075806856
224.0,0.0031811934895813465
240.0,0.002616490703076124
256.0,0.002249394776299596
288.0,0.0019476660527288914
320.0,0.0015160663751885295
352.0,0.0016450999537482858
384.0,0.0021378707606345415
416.0,0.0024836629163473845
448.0,0.002438777359202504
480.0,0.0024238338228315115
512.0,0.002306967740878463
576.0,0.001816662959754467
640.0,0.0012899136636406183
704.0,0.0007770300726406276
768.0,0.0005253461422398686
832.0,0.0008849352016113698
896.0,0.0017752826679497957
960.0,0.001991717144846916
1024.0,0.0018332480685785413
1152.0,0.0003397013060748577
1280.0,-0.0007215070654638112
1408.0,-0.00030542153399437666
1536.0,5.578436321229674e-05
1664.0,0.00018583599012345076
1792.0,0.0014187644701451063
1920.0,0.002580024302005768
2048.0,0.002914407756179571
2304.0,0.0020876917988061905
2560.0,0.0004969020956195891
2816.0,-0.000760586466640234
3072.0,0.0008712628623470664
3328.0,0.00014377714251168072
3584.0,-0.00010818758892128244
3840.0,0.0009691514424048364
4096.0,0.0006451079389080405
4608.0,-0.0005369986174628139
5120.0,-0.0006920420564711094
5632.0,0.0012886866461485624
6144.0,0.0004142405523452908
6656.0,-0.0011068701278418303
7168.0,-0.0036288565024733543
7680.0,-0.0010218510869890451
8192.0,-0.0006404747837223113
end
