version,3.0
numOfCh,1
type,point
parent_name,fe81d_0dot1-0dot01
ch_type,1_1
kcount,1
numberNandB,1
brightnessNandB,1
carpet pos,0
pc,0
Time (ms),CH1 Auto-Correlation
1.0,0.017753465101122856
2.0,0.01757161132991314
3.0,0.017392415553331375
4.0,0.017215194180607796
5.0,0.017041275277733803
6.0,0.016872262582182884
7.0,0.016706012189388275
8.0,0.01653956063091755
9.0,0.01637783832848072
10.0,0.016219982877373695
11.0,0.016067367047071457
12.0,0.015912296250462532
13.0,0.015754826366901398
14.0,0.015599586069583893
15.0,0.015447604469954967
16.0,0.015300915576517582
18.0,0.015010523609817028
20.0,0.014732272364199162
22.0,0.014458902180194855
24.0,0.014198611490428448
26.0,0.013942033052444458
28.0,0.013695397414267063
30.0,0.013457761146128178
32.0,0.013232926838099957
36.0,0.012803182937204838
40.0,0.012383920140564442
44.0,0.0119849918410182
48.0,0.011634742841124535
52.0,0.011312315240502357
56.0,0.01101556234061718
60.0,0.010749037377536297
64.0,0.010486557148396969
72.0,0.009979143738746643
80.0,0.009465968236327171
88.0,0.009012415073812008
96.0,0.008552974089980125
104.0,0.008069774135947227
112.0,0.007651607505977154
120.0,0.007283494807779789
128.0,0.006989623885601759
144.0,0.006563409231603146
160.0,0.006143138278275728
176.0,0.005738148465752602
192.0,0.00541636673733592
208.0,0.005151648540049791
224.0,0.00488431379199028
240.0,0.004481368698179722
256.0,0.004000701941549778
288.0,0.0028980267234146595
320.0,0.0019675379153341055
352.0,0.0012783436104655266
384.0,0.0008871314930729568
416.0,0.0006334015051834285
448.0,0.0003094420535489917
480.0,0.00021782367548439652
512.0,0.00018781660764943808
576.0,-0.0001673734950600192
640.0,-0.0002685349609237164
704.0,0.00012021330621792004
768.0,0.0004898030892945826
832.0,0.0005890224128961563
896.0,0.000612233008723706
960.0,-0.0005096657550893724
1024.0,-0.000718318042345345
1152.0,-0.0014499895041808486
1280.0,-0.0009257170022465289
1408.0,-0.0011091751512140036
1536.0,6.14890523138456e-05
1664.0,0.0001854901493061334
1792.0,-0.0007024613441899419
1920.0,-0.0024615605361759663
2048.0,-0.0018290176521986723
2304.0,-0.003776371944695711
2560.0,-0.0037256600335240364
2816.0,-0.0013928655534982681
3072.0,0.00017442139505874366
3328.0,-0.0007034830050542951
3584.0,-0.0012550792889669538
3840.0,0.00022579432697966695
4096.0,-0.0008595313993282616
4608.0,0.0002852565667126328
5120.0,0.001417403807863593
5632.0,0.0015396008966490626
6144.0,0.003132761223241687
6656.0,0.000860817264765501
7168.0,-0.0019102119840681553
7680.0,0.0011123087024316192
8192.0,-0.002904728753492236
end
