version,3.0
numOfCh,1
type,point
parent_name,fe81d_0dot1-0dot01
ch_type,1_1
kcount,1
numberNandB,1
brightnessNandB,1
carpet pos,0
pc,0
Time (ms),CH1 Auto-Correlation
1.0,0.01768023520708084
2.0,0.017474444583058357
3.0,0.017266778275370598
4.0,0.017062481492757797
5.0,0.016860561445355415
6.0,0.016674285754561424
7.0,0.01648641563951969
8.0,0.016294289380311966
9.0,0.016102107241749763
10.0,0.015912579372525215
11.0,0.015725543722510338
12.0,0.015541174449026585
13.0,0.015363417565822601
14.0,0.015192842110991478
15.0,0.015031741000711918
16.0,0.014873244799673557
18.0,0.014585109427571297
20.0,0.014294254593551159
22.0,0.014008230529725552
24.0,0.013721310533583164
26.0,0.013429843820631504
28.0,0.01313580758869648
30.0,0.01286343578249216
32.0,0.012599335052073002
36.0,0.012092670425772667
40.0,0.011581097729504108
44.0,0.011133242398500443
48.0,0.010743523016571999
52.0,0.010387037880718708
56.0,0.010040977969765663
60.0,0.00970068946480751
64.0,0.009368976578116417
72.0,0.008723875507712364
80.0,0.008089340291917324
88.0,0.007416589185595512
96.0,0.006729943677783012
104.0,0.006080367602407932
112.0,0.005566063802689314
120.0,0.005093943793326616
128.0,0.004604640416800976
144.0,0.0035821464844048023
160.0,0.0025435115676373243
176.0,0.0015840936684980989
192.0,0.0009609399130567908
208.0,0.0006005660397931933
224.0,0.0006733860936947167
240.0,0.0008290328551083803
256.0,0.0009262460516765714
288.0,0.001537782489322126
320.0,0.0022105411626398563
352.0,0.0025019743479788303
384.0,0.0026938205119222403
416.0,0.0029534806963056326
448.0,0.0029581699054688215
480.0,0.0023703565821051598
512.0,0.0016221953555941582
576.0,0.001087208278477192
640.0,0.0007327583734877408
704.0,0.0006174467271193862
768.0,9.0337052824907e-05
832.0,0.0003857791889458895
896.0,0.0004893942968919873
960.0,0.00012600791524164379
1024.0,-0.0006797412061132491
1152.0,-8.021605026442558e-05
1280.0,0.0006481808959506452
1408.0,-0.0012170986738055944
1536.0,-0.0011877384968101978
1664.0,-0.0009097129222936928
1792.0,-0.0017264942871406674
1920.0,-0.0036641666665673256
2048.0,-0.003177548525854945
2304.0,-0.0005767293623648584
2560.0,-0.0010686211753636599
2816.0,-0.0006303892587311566
3072.0,-0.0006991728441789746
3328.0,-0.0006165613885968924
3584.0,0.000371414702385664
3840.0,0.0011152351507917047
4096.0,-0.0006198553601279855
4608.0,-0.0002357169141760096
5120.0,-0.0007732748053967953
5632.0,-0.0030727977864444256
6144.0,0.0009523552726022899
6656.0,0.0014347132528200746
7168.0,-0.0001125950802816078
7680.0,0.004865047987550497
8192.0,-0.0011754485312849283
end
