version,3.0
numOfCh,1
type,point
parent_name,fe81d_0dot1-0dot01
ch_type,1_1
kcount,1
numberNandB,1
brightnessNandB,1
carpet pos,0
pc,0
Time (ms),CH1 Auto-Correlation
1.0,0.017079027369618416
2.0,0.016886241734027863
3.0,0.016696929931640625
4.0,0.016512060537934303
5.0,0.016336780041456223
6.0,0.01616585999727249
7.0,0.01600041799247265
8.0,0.015833480283617973
9.0,0.01566416583955288
10.0,0.015498553402721882
11.0,0.01534088235348463
12.0,0.015181588008999825
13.0,0.015022117644548416
14.0,0.014864540658891201
15.0,0.014708726666867733
16.0,0.014556744135916233
18.0,0.014254468493163586
20.0,0.013962505385279655
22.0,0.01368092279881239
24.0,0.013405785895884037
26.0,0.013138252310454845
28.0,0.012874575331807137
30.0,0.01262366957962513
32.0,0.012384375557303429
36.0,0.011937159113585949
40.0,0.01150670275092125
44.0,0.011097497306764126
48.0,0.01072149071842432
52.0,0.010368440300226212
56.0,0.010030386969447136
60.0,0.009722546674311161
64.0,0.009429224766790867
72.0,0.008913226425647736
80.0,0.008455274626612663
88.0,0.008053772151470184
96.0,0.007658378221094608
104.0,0.007208895869553089
112.0,0.006760462652891874
120.0,0.006384640466421843
128.0,0.006079467013478279
144.0,0.005492739845067263
160.0,0.004936630837619305
176.0,0.004340296145528555
192.0,0.0035846915561705828
208.0,0.0027304990217089653
224.0,0.001954968087375164
240.0,0.001341204741038382
256.0,0.0007756580016575754
288.0,-0.000305914698401466
320.0,-0.0013256247621029615
352.0,-0.001539947814308107
384.0,-0.0014466630527749658
416.0,-0.0017341962084174156
448.0,-0.0020827027037739754
480.0,-0.002298050094395876
512.0,-0.0022911536507308483
576.0,-0.001991583965718746
640.0,-0.0019779421854764223
704.0,-0.002393429633229971
768.0,-0.002347120549529791
832.0,-0.0017348728142678738
896.0,-0.0005115814856253564
960.0,8.570247155148536e-05
1024.0,0.0013771647354587913
1152.0,0.0017996507231146097
1280.0,0.0010714797535911202
1408.0,-0.00040507345693185925
1536.0,-0.0012550412211567163
1664.0,-0.000302795204333961
1792.0,-0.0006368638132698834
1920.0,-0.0007988951401785016
2048.0,0.0003558332100510597
2304.0,-2.7441215934231877e-05
2560.0,-0.0015999446623027325
2816.0,-0.0020819082856178284
3072.0,-0.0012104804627597332
3328.0,0.002010587602853775
3584.0,0.0030186783988028765
3840.0,0.0008178363787010312
4096.0,-0.000785058073233813
4608.0,-0.0006717866635881364
5120.0,0.0004306658811401576
5632.0,-0.0015182390343397856
6144.0,0.0009092577965930104
6656.0,0.0015169003745540977
7168.0,-0.000250106502790004
7680.0,0.0008475115755572915
8192.0,0.00021790250320918858
end
