version,3.0
numOfCh,1
type,point
parent_name,fe81d_0dot1-0dot01
ch_type,1_1
kcount,1
numberNandB,1
brightnessNandB,1
carpet pos,0
pc,0
Time (ms),CH1 Auto-Correlation
1.0,0.022009100764989853
2.0,0.021821707487106323
3.0,0.021639354526996613
4.0,0.021461406722664833
5.0,0.021290209144353867
6.0,0.021120885387063026
7.0,0.020954949781298637
8.0,0.020791100338101387
9.0,0.02063041552901268
10.0,0.020474258810281754
11.0,0.020319513976573944
12.0,0.02016841247677803
13.0,0.020023075863718987
14.0,0.019873637706041336
15.0,0.019728222861886024
16.0,0.019584868103265762
18.0,0.01929611898958683
20.0,0.019016442820429802
22.0,0.01875750906765461
24.0,0.018503844738006592
26.0,0.0182545967400074
28.0,0.0180195402354002
30.0,0.017794206738471985
32.0,0.017581429332494736
36.0,0.017186354845762253
40.0,0.016785046085715294
44.0,0.016379274427890778
48.0,0.015995584428310394
52.0,0.01561952754855156
56.0,0.01523167360574007
60.0,0.014845447614789009
64.0,0.014484880492091179
72.0,0.01381963212043047
80.0,0.013098564930260181
88.0,0.012426053173840046
96.0,0.011815961450338364
104.0,0.011328977532684803
112.0,0.0109542952850461
120.0,0.010628904215991497
128.0,0.010309100151062012
144.0,0.009726641699671745
160.0,0.009233057498931885
176.0,0.00880198460072279
192.0,0.00836520828306675
208.0,0.00795517023652792
224.0,0.007630282547324896
240.0,0.0074654812924563885
256.0,0.007329435087740421
288.0,0.006765763740986586
320.0,0.006348298862576485
352.0,0.005888856016099453
384.0,0.005658173467963934
416.0,0.005396968685090542
448.0,0.005101647228002548
480.0,0.0042653074488043785
512.0,0.0031286885496228933
576.0,0.0017703535268083215
640.0,0.0016121045919135213
704.0,0.0012715692864730954
768.0,0.0011702002957463264
832.0,0.0010735432151705027
896.0,0.00019822583999484777
960.0,-0.0009403053554706275
1024.0,-0.0021219593472778797
1152.0,-0.0028800377622246742
1280.0,-0.002383393933996558
1408.0,-0.0015427838079631329
1536.0,3.1412004318553954e-05
1664.0,0.0009738501976244152
1792.0,0.0006444237660616636
1920.0,9.873401722870767e-05
2048.0,-0.00012884389434475452
2304.0,0.0002313160221092403
2560.0,0.0002943323052022606
2816.0,-0.0008993796072900295
3072.0,-0.00028875962016172707
3328.0,-0.0008822137024253607
3584.0,-4.646723755286075e-05
3840.0,-0.0010789125226438046
4096.0,-0.0005752045544795692
4608.0,0.00021827523596584797
5120.0,0.0015693673631176353
5632.0,0.0012577848974615335
6144.0,0.0004957363125868142
6656.0,-0.001817466109059751
7168.0,-0.001986138988286257
7680.0,-0.0014784950762987137
8192.0,-0.0010188138112425804
end
