version,3.0
numOfCh,1
type,point
parent_name,fe81d_0dot1-0dot01
ch_type,1_1
kcount,1
numberNandB,1
brightnessNandB,1
carpet pos,0
pc,0
Time (ms),CH1 Auto-Correlation
1.0,0.03359367698431015
2.0,0.03338886797428131
3.0,0.03319021686911583
4.0,0.03299728408455849
5.0,0.032809413969516754
6.0,0.03262333944439888
7.0,0.03244319558143616
8.0,0.03226573392748833
9.0,0.03208618983626366
10.0,0.03191321715712547
11.0,0.031743865460157394
12.0,0.031573958694934845
13.0,0.031405236572027206
14.0,0.03123772330582142
15.0,0.031070038676261902
16.0,0.030900845304131508
18.0,0.030571039766073227
20.0,0.030248835682868958
22.0,0.029940171167254448
24.0,0.029611453413963318
26.0,0.029283104464411736
28.0,0.028969699516892433
30.0,0.0286581851541996
32.0,0.028352757915854454
36.0,0.02780950628221035
40.0,0.02731836587190628
44.0,0.026829995214939117
48.0,0.02638557367026806
52.0,0.02597617544233799
56.0,0.025607798248529434
60.0,0.02529730089008808
64.0,0.025014905259013176
72.0,0.024443477392196655
80.0,0.02385786920785904
88.0,0.023235399276018143
96.0,0.022721894085407257
104.0,0.022193405777215958
112.0,0.021705759689211845
120.0,0.02117031253874302
128.0,0.020693574100732803
144.0,0.019628996029496193
160.0,0.01865081489086151
176.0,0.017905298620462418
192.0,0.017414579167962074
208.0,0.017015311866998672
224.0,0.016608240082859993
240.0,0.016303567215800285
256.0,0.015899604186415672
288.0,0.0155365951359272
320.0,0.015159061178565025
352.0,0.014053466729819775
384.0,0.01262979581952095
416.0,0.011084438301622868
448.0,0.009351192973554134
480.0,0.008781673386693
512.0,0.00883098691701889
576.0,0.008734283037483692
640.0,0.008094576187431812
704.0,0.0070348638109862804
768.0,0.0058207279071211815
832.0,0.005924506112933159
896.0,0.006631277967244387
960.0,0.006090906448662281
1024.0,0.004888301715254784
1152.0,0.002686665626242757
1280.0,0.0017266477225348353
1408.0,-0.00131554389372468
1536.0,-0.002769094193354249
1664.0,-0.0027097028214484453
1792.0,-0.0006863120361231267
1920.0,0.00067339395172894
2048.0,0.0025261908303946257
2304.0,0.00520041910931468
2560.0,0.005872948560863733
2816.0,0.0037126154638826847
3072.0,0.0013945713872089982
3328.0,-0.0017436378402635455
3584.0,-0.004004732705652714
3840.0,-0.006554713938385248
4096.0,-0.011510052718222141
4608.0,-0.00926924031227827
5120.0,-0.009533590637147427
5632.0,-0.0031420206651091576
6144.0,-0.00731059443205595
6656.0,-0.006758467294275761
7168.0,-0.014847186394035816
7680.0,-0.010435407049953938
8192.0,-0.0038506423588842154
end
