version,3.0
numOfCh,1
type,point
parent_name,fe81d_0dot1-0dot01
ch_type,1_1
kcount,1
numberNandB,1
brightnessNandB,1
carpet pos,0
pc,0
Time (ms),CH1 Auto-Correlation
1.0,0.022194646298885345
2.0,0.022008094936609268
3.0,0.021823907271027565
4.0,0.02164633572101593
5.0,0.021472077816724777
6.0,0.02130277454853058
7.0,0.02114354819059372
8.0,0.02098902501165867
9.0,0.020838921889662743
10.0,0.020688798278570175
11.0,0.02054017223417759
12.0,0.02039019577205181
13.0,0.020242314785718918
14.0,0.020094554871320724
15.0,0.019952882081270218
16.0,0.0198079664260149
18.0,0.01951957307755947
20.0,0.01923433504998684
22.0,0.018959401175379753
24.0,0.018688803538680077
26.0,0.018429044634103775
28.0,0.018186284229159355
30.0,0.01794925145804882
32.0,0.017707902938127518
36.0,0.017238380387425423
40.0,0.016800375655293465
44.0,0.016392549499869347
48.0,0.015993904322385788
52.0,0.01559936162084341
56.0,0.015218842774629593
60.0,0.014839740470051765
64.0,0.014465879648923874
72.0,0.013767439872026443
80.0,0.013149745762348175
88.0,0.012652035802602768
96.0,0.012235228903591633
104.0,0.011814871802926064
112.0,0.011392983607947826
120.0,0.010957916267216206
128.0,0.010586310178041458
144.0,0.010105939581990242
160.0,0.009609750472009182
176.0,0.009007268585264683
192.0,0.008570759557187557
208.0,0.008117916993796825
224.0,0.007709504570811987
240.0,0.0072599309496581554
256.0,0.006828803103417158
288.0,0.005889581516385078
320.0,0.004848039709031582
352.0,0.00437889713793993
384.0,0.004317112732678652
416.0,0.0042802258394658566
448.0,0.004465113393962383
480.0,0.0046439701691269875
512.0,0.004766845144331455
576.0,0.00434989295899868
640.0,0.004382834769785404
704.0,0.004409817047417164
768.0,0.003972641192376614
832.0,0.003058105707168579
896.0,0.0023713235277682543
960.0,0.0019322385778650641
1024.0,0.0019599623046815395
1152.0,0.003490456147119403
1280.0,0.004651394672691822
1408.0,0.005010266322642565
1536.0,0.003537458833307028
1664.0,0.0021251798607409
1792.0,0.002076606033369899
1920.0,0.0017380217323079705
2048.0,0.001267667394131422
2304.0,0.0022874041460454464
2560.0,0.004751553293317556
2816.0,0.005870906636118889
3072.0,0.005263628903776407
3328.0,0.0035388583783060312
3584.0,0.0016115172766149044
3840.0,0.0012685289839282632
4096.0,0.0007375365821644664
4608.0,0.00022793406969867647
5120.0,0.0005633773980662227
5632.0,-0.0014807755360379815
6144.0,-0.0005271271802484989
6656.0,-0.000537091342266649
7168.0,-0.0029724128544330597
7680.0,-0.0055163586512207985
8192.0,-0.005598701070994139
end
