version,3.0
numOfCh,1
type,point
parent_name,fe81d_0dot1-0dot01
ch_type,1_1
kcount,1
numberNandB,1
brightnessNandB,1
carpet pos,0
pc,0
Time (ms),CH1 Auto-Correlation
1.0,0.02070673182606697
2.0,0.02050476334989071
3.0,0.020306812599301338
4.0,0.020112868398427963
5.0,0.019926171749830246
6.0,0.019737083464860916
7.0,0.019554875791072845
8.0,0.019381223246455193
9.0,0.019212696701288223
10.0,0.019046315923333168
11.0,0.01887860894203186
12.0,0.0187138132750988
13.0,0.01855817250907421
14.0,0.018400680273771286
15.0,0.018244756385684013
16.0,0.018091293051838875
18.0,0.01780025288462639
20.0,0.01750948466360569
22.0,0.017215227708220482
24.0,0.016922423616051674
26.0,0.016639798879623413
28.0,0.016352178528904915
30.0,0.01608310639858246
32.0,0.015829579904675484
36.0,0.015320248901844025
40.0,0.014820538461208344
44.0,0.014342065900564194
48.0,0.013896646909415722
52.0,0.0134225282818079
56.0,0.01297563686966896
60.0,0.012573002837598324
64.0,0.012195808812975883
72.0,0.011554459109902382
80.0,0.010950298048555851
88.0,0.010360082611441612
96.0,0.009802047163248062
104.0,0.009260781109333038
112.0,0.008697244338691235
120.0,0.008207479491829872
128.0,0.0078003802336752415
144.0,0.0069712018594145775
160.0,0.0061041624285280704
176.0,0.005430115852504969
192.0,0.004827996715903282
208.0,0.0042869774624705315
224.0,0.0036566101480275393
240.0,0.003239159006625414
256.0,0.002770876046270132
288.0,0.0022945734672248363
320.0,0.002134636277332902
352.0,0.0020307477097958326
384.0,0.0018921515438705683
416.0,0.002368524670600891
448.0,0.002859502797946334
480.0,0.002434274647384882
512.0,0.0017396440962329507
576.0,0.0011377630289644003
640.0,0.0019673542119562626
704.0,0.0016451282426714897
768.0,0.0006633090670220554
832.0,-0.000882302294485271
896.0,-0.0017624569591134787
960.0,-0.0023239729925990105
1024.0,-0.0019391077803447843
1152.0,0.0014481039252132177
1280.0,0.0022202013060450554
1408.0,0.0015507902717217803
1536.0,0.0011286127846688032
1664.0,-0.0002637218567542732
1792.0,4.01678444177378e-05
1920.0,0.0014516888186335564
2048.0,-3.073109837714583e-05
2304.0,-0.0033277643378823996
2560.0,-0.001802700338885188
2816.0,0.00038407297688536346
3072.0,-0.0019715705420821905
3328.0,-0.0017968739848583937
3584.0,-0.0030441151466220617
3840.0,-0.004041507840156555
4096.0,-0.0025498445611447096
4608.0,-0.0018873807275667787
5120.0,-0.0008807553094811738
5632.0,-0.0009005896863527596
6144.0,-0.0006132570561021566
6656.0,0.00210848031565547
7168.0,0.0015504223993048072
7680.0,-0.000132107685203664
8192.0,0.0020489757880568504
end
