version,3.0
numOfCh,1
type,point
parent_name,fe81d_0dot1-0dot01
ch_type,1_1
kcount,1
numberNandB,1
brightnessNandB,1
carpet pos,0
pc,0
Time (ms),CH1 Auto-Correlation
1.0,0.02262461744248867
2.0,0.02243777923285961
3.0,0.0222469512373209
4.0,0.02206472121179104
5.0,0.02188544161617756
6.0,0.02171364799141884
7.0,0.021533461287617683
8.0,0.02135784551501274
9.0,0.021178534254431725
10.0,0.020999256521463394
11.0,0.02081882208585739
12.0,0.020643040537834167
13.0,0.020457347854971886
14.0,0.02027016691863537
15.0,0.020082617178559303
16.0,0.019895846024155617
18.0,0.019521720707416534
20.0,0.019149761646986008
22.0,0.018785130232572556
24.0,0.018434355035424232
26.0,0.018098685890436172
28.0,0.017774730920791626
30.0,0.017469599843025208
32.0,0.017160523682832718
36.0,0.016550257802009583
40.0,0.015997683629393578
44.0,0.01549468096345663
48.0,0.015040603466331959
52.0,0.014614308252930641
56.0,0.014170985668897629
60.0,0.013720206916332245
64.0,0.013313369825482368
72.0,0.0125422403216362
80.0,0.011876593343913555
88.0,0.011326160281896591
96.0,0.010860978625714779
104.0,0.010470211505889893
112.0,0.010102668777108192
120.0,0.00964750349521637
128.0,0.009139413945376873
144.0,0.00823167059570551
160.0,0.007579060271382332
176.0,0.006986554246395826
192.0,0.006494569592177868
208.0,0.006287249270826578
224.0,0.006055620964616537
240.0,0.005533410701900721
256.0,0.005066928919404745
288.0,0.003805419197306037
320.0,0.002831420162692666
352.0,0.002200247487053275
384.0,0.0020296366419643164
416.0,0.0017008582362905145
448.0,0.001824755221605301
480.0,0.0019848470110446215
512.0,0.001642131246626377
576.0,0.001031748834066093
640.0,0.0009484005277045071
704.0,0.0007588169537484646
768.0,-0.00029472255846485496
832.0,0.00016888520622160286
896.0,0.0011578925186768174
960.0,0.0011785337701439857
1024.0,0.000934573239646852
1152.0,2.608567228890024e-05
1280.0,-0.0004227000172249973
1408.0,-0.002001354470849037
1536.0,-0.0021281808149069548
1664.0,-0.0022568833082914352
1792.0,-0.0008041611290536821
1920.0,-0.0007681191200390458
2048.0,-0.0006649798597209156
2304.0,-0.0039281402714550495
2560.0,-0.0044252523221075535
2816.0,-0.004663963336497545
3072.0,-0.0037989092525094748
3328.0,-0.002514128340408206
3584.0,0.0003445675829425454
3840.0,0.001785272965207696
4096.0,0.0023629742208868265
4608.0,0.0005025038844905794
5120.0,0.0023310226388275623
5632.0,0.0027108413632959127
6144.0,-0.001529682194814086
6656.0,-0.0019892517011612654
7168.0,0.0004097407800145447
7680.0,-0.001038823975250125
8192.0,-0.0009838626720011234
end
