version,3.0
numOfCh,1
type,point
parent_name,fe81d_0dot1-0dot01
ch_type,1_1
kcount,1
numberNandB,1
brightnessNandB,1
carpet pos,0
pc,0
Time (ms),CH1 Auto-Correlation
1.0,0.02224445901811123
2.0,0.022049687802791595
3.0,0.021860487759113312
4.0,0.02167678251862526
5.0,0.021495088934898376
6.0,0.021316157653927803
7.0,0.021137643605470657
8.0,0.020964475348591805
9.0,0.020787831395864487
10.0,0.020610567182302475
11.0,0.02043679729104042
12.0,0.02026631124317646
13.0,0.020095812156796455
14.0,0.019930796697735786
15.0,0.01976824179291725
16.0,0.01960577443242073
18.0,0.019284971058368683
20.0,0.018971286714076996
22.0,0.018677406013011932
24.0,0.018398888409137726
26.0,0.018133629113435745
28.0,0.017876405268907547
30.0,0.01763157919049263
32.0,0.017395922914147377
36.0,0.016925960779190063
40.0,0.0164618082344532
44.0,0.01603388786315918
48.0,0.01565597392618656
52.0,0.015315242111682892
56.0,0.014967975206673145
60.0,0.014622068032622337
64.0,0.014275937341153622
72.0,0.013553060591220856
80.0,0.012858077883720398
88.0,0.012229444459080696
96.0,0.011616979725658894
104.0,0.01106093730777502
112.0,0.010627980343997478
120.0,0.01024206355214119
128.0,0.009868980385363102
144.0,0.00924981851130724
160.0,0.008757071569561958
176.0,0.008259242400527
192.0,0.007665501441806555
208.0,0.0070170992985367775
224.0,0.006495954468846321
240.0,0.005969863384962082
256.0,0.005497767589986324
288.0,0.004441820550709963
320.0,0.003463786095380783
352.0,0.0030500299762934446
384.0,0.0028334413655102253
416.0,0.0026647320482879877
448.0,0.0021893992088735104
480.0,0.0016918807523325086
512.0,0.0014276078436523676
576.0,0.0016517579788342118
640.0,0.0018109165830537677
704.0,0.0014731669798493385
768.0,0.0016771203372627497
832.0,0.0022289948537945747
896.0,0.002584822941571474
960.0,0.003245651489123702
1024.0,0.0033659276086837053
1152.0,0.0027321253437548876
1280.0,0.0017773675499483943
1408.0,0.000873796408995986
1536.0,0.001240724348463118
1664.0,0.0020521320402622223
1792.0,0.002893658820539713
1920.0,0.004344892222434282
2048.0,0.0039975312538445
2304.0,0.003606020472943783
2560.0,0.0038520386442542076
2816.0,0.0018195535521954298
3072.0,0.0010537123307585716
3328.0,0.001260385732166469
3584.0,0.0016691931523382664
3840.0,-0.0002310053096152842
4096.0,-0.0022400759626179934
4608.0,0.004009920638054609
5120.0,-0.0011129374615848064
5632.0,0.000788875506259501
6144.0,-0.0007180020329542458
6656.0,-0.0012654438614845276
7168.0,-0.003318008966743946
7680.0,-0.006670546717941761
8192.0,-0.0013814432313665748
end
