version,3.0
numOfCh,1
type,point
parent_name,fe81d_0dot1-0dot01
ch_type,1_1
kcount,1
numberNandB,1
brightnessNandB,1
carpet pos,0
pc,0
Time (ms),CH1 Auto-Correlation
1.0,0.018870938569307327
2.0,0.01868678629398346
3.0,0.01850547455251217
4.0,0.01832744851708412
5.0,0.018154440447688103
6.0,0.0179855078458786
7.0,0.017823485657572746
8.0,0.0176645927131176
9.0,0.017507601529359818
10.0,0.017348213121294975
11.0,0.017196359112858772
12.0,0.017046310007572174
13.0,0.016902295872569084
14.0,0.016760123893618584
15.0,0.016618637368083
16.0,0.016486892476677895
18.0,0.01622653752565384
20.0,0.015986880287528038
22.0,0.015758538618683815
24.0,0.01552764791995287
26.0,0.01529520284384489
28.0,0.015073838643729687
30.0,0.014857776463031769
32.0,0.01466460432857275
36.0,0.014293075539171696
40.0,0.01391812227666378
44.0,0.013539808802306652
48.0,0.013162745162844658
52.0,0.012813722714781761
56.0,0.012494385242462158
60.0,0.012191027402877808
64.0,0.011881677433848381
72.0,0.011310102418065071
80.0,0.010800307616591454
88.0,0.01030988059937954
96.0,0.00984919723123312
104.0,0.009469677694141865
112.0,0.00910133309662342
120.0,0.008702048100531101
128.0,0.008267206139862537
144.0,0.007400680333375931
160.0,0.00669246818870306
176.0,0.006172149907797575
192.0,0.0057703712955117226
208.0,0.005506643559783697
224.0,0.005298967007547617
240.0,0.005085026379674673
256.0,0.00487075699493289
288.0,0.004540225025266409
320.0,0.004467794205993414
352.0,0.004258842673152685
384.0,0.0040143318474292755
416.0,0.003859544638544321
448.0,0.0035307020880281925
480.0,0.0027841771952807903
512.0,0.0018802586710080504
576.0,0.0015787368174642324
640.0,0.0015967676881700754
704.0,0.0015282093081623316
768.0,0.001407272880896926
832.0,0.0008423744002357125
896.0,0.0004638618556782603
960.0,0.0012223725207149982
1024.0,0.002139878924936056
1152.0,0.0015658949268981814
1280.0,0.0017026440473273396
1408.0,0.0012077519204467535
1536.0,0.00016688439063727856
1664.0,0.00011165587784489617
1792.0,0.0023203068412840366
1920.0,0.0024844850413501263
2048.0,0.0014713533455505967
2304.0,0.0008276636363007128
2560.0,-0.0009143067873083055
2816.0,-0.0018105610506609082
3072.0,-0.00165856524836272
3328.0,-0.0015953053953126073
3584.0,-0.0011282542254775763
3840.0,-0.0005030552274547517
4096.0,-0.002092556096613407
4608.0,-0.004283927846699953
5120.0,-0.0017559677362442017
5632.0,-0.002462765434756875
6144.0,-0.0017099521355703473
6656.0,-0.0017765812808647752
7168.0,0.0009927748469635844
7680.0,-0.0003676323394756764
8192.0,-0.0007632257766090333
end
