version,3.0
numOfCh,1
type,point
parent_name,fe81d_0dot1-0dot01
ch_type,1_1
kcount,1
numberNandB,1
brightnessNandB,1
carpet pos,0
pc,0
Time (ms),CH1 Auto-Correlation
1.0,0.02270653285086155
2.0,0.02250600792467594
3.0,0.022310281172394753
4.0,0.022112835198640823
5.0,0.021915506571531296
6.0,0.02172011509537697
7.0,0.02153032459318638
8.0,0.021344223991036415
9.0,0.021166309714317322
10.0,0.02099611423909664
11.0,0.020827779546380043
12.0,0.020657995715737343
13.0,0.020493581891059875
14.0,0.020332612097263336
15.0,0.020179329439997673
16.0,0.020028123632073402
18.0,0.019732510671019554
20.0,0.019442351534962654
22.0,0.019170710816979408
24.0,0.018914053216576576
26.0,0.01866561360657215
28.0,0.01842433400452137
30.0,0.01820381172001362
32.0,0.01798407733440399
36.0,0.017556173726916313
40.0,0.017106816172599792
44.0,0.0166937243193388
48.0,0.01630774885416031
52.0,0.01595168747007847
56.0,0.015656301751732826
60.0,0.015405263751745224
64.0,0.0151515519246459
72.0,0.014689239673316479
80.0,0.014245123602449894
88.0,0.013852874748408794
96.0,0.01358417421579361
104.0,0.013380670920014381
112.0,0.013168658129870892
120.0,0.012928062118589878
128.0,0.012627986259758472
144.0,0.011833970434963703
160.0,0.011150684207677841
176.0,0.010400140658020973
192.0,0.009601286612451077
208.0,0.008809366263449192
224.0,0.007907161489129066
240.0,0.0071141961961984634
256.0,0.0064019858837127686
288.0,0.005465975031256676
320.0,0.004321261774748564
352.0,0.0030259964987635612
384.0,0.0016767788911238313
416.0,0.0009195656748488545
448.0,0.0005508277099579573
480.0,1.2454485840862617e-05
512.0,-0.00041010137647390366
576.0,-0.0009116326691582799
640.0,-0.0025039459578692913
704.0,-0.003405071096494794
768.0,-0.004180412273854017
832.0,-0.003845783183351159
896.0,-0.003685091156512499
960.0,-0.002984298625960946
1024.0,-0.002409600652754307
1152.0,-0.0008807966369204223
1280.0,-0.0003660391957964748
1408.0,-0.0008099358528852463
1536.0,0.0008333671139553189
1664.0,0.003596765222027898
1792.0,0.004704256542026997
1920.0,0.004192088730633259
2048.0,0.0028969987761229277
2304.0,-0.00016296221292577684
2560.0,-0.003064329270273447
2816.0,-0.002698490396142006
3072.0,-0.0017067876178771257
3328.0,-0.00041610150947235525
3584.0,0.002564879832789302
3840.0,0.0016427135560661554
4096.0,-0.002090481808409095
4608.0,0.0009766753064468503
5120.0,0.002765557961538434
5632.0,-0.0002738366601988673
6144.0,-0.0022291247732937336
6656.0,-0.0008061957196332514
7168.0,0.0015581008046865463
7680.0,-0.007940741255879402
8192.0,-0.01678527146577835
end
