version,3.0
numOfCh,1
type,point
parent_name,fe81d_0dot1-0dot01
ch_type,1_1
kcount,1
numberNandB,1
brightnessNandB,1
carpet pos,0
pc,0
Time (ms),CH1 Auto-Correlation
1.0,0.022964149713516235
2.0,0.022780437022447586
3.0,0.02260185219347477
4.0,0.02242967300117016
5.0,0.022257665172219276
6.0,0.022094851359725
7.0,0.021935686469078064
8.0,0.021776733919978142
9.0,0.021618327125906944
10.0,0.021465927362442017
11.0,0.02130778692662716
12.0,0.021155614405870438
13.0,0.02100740186870098
14.0,0.020859800279140472
15.0,0.02071288414299488
16.0,0.020570451393723488
18.0,0.02028142474591732
20.0,0.019998926669359207
22.0,0.019720444455742836
24.0,0.019444270059466362
26.0,0.01917368546128273
28.0,0.018906207755208015
30.0,0.018644340336322784
32.0,0.018387561663985252
36.0,0.017894994467496872
40.0,0.01739923097193241
44.0,0.01688777469098568
48.0,0.01639106124639511
52.0,0.015926416963338852
56.0,0.015523934736847878
60.0,0.015153694897890091
64.0,0.014824405312538147
72.0,0.0142569774761796
80.0,0.013703478500247002
88.0,0.013157072477042675
96.0,0.012680690735578537
104.0,0.012257684022188187
112.0,0.011759590357542038
120.0,0.011232616379857063
128.0,0.010684761218726635
144.0,0.009849241934716702
160.0,0.009255824610590935
176.0,0.008736864663660526
192.0,0.008535371161997318
208.0,0.008547849021852016
224.0,0.008628676645457745
240.0,0.00864210445433855
256.0,0.008434095419943333
288.0,0.007776047568768263
320.0,0.00700012594461441
352.0,0.0065851095132529736
384.0,0.006403617560863495
416.0,0.005998694337904453
448.0,0.005408021621406078
480.0,0.00480561563745141
512.0,0.0044869245029985905
576.0,0.004633007105439901
640.0,0.005212266929447651
704.0,0.0050796084105968475
768.0,0.0042335535399615765
832.0,0.002897680038586259
896.0,0.0016008262755349278
960.0,0.0001590255560586229
1024.0,-0.0006446343031711876
1152.0,-0.0005516908713616431
1280.0,-0.002863233909010887
1408.0,-0.003481772495433688
1536.0,-0.005221440456807613
1664.0,-0.005961013492196798
1792.0,-0.005748001392930746
1920.0,-0.006096119061112404
2048.0,-0.0052786171436309814
2304.0,-0.005315194372087717
2560.0,-0.005776047706604004
2816.0,-0.0025081930216401815
3072.0,0.000690495187882334
3328.0,0.002178642200306058
3584.0,0.004316907376050949
3840.0,0.003539380617439747
4096.0,0.0014007961144670844
4608.0,-0.0017642240272834897
5120.0,-0.005140606313943863
5632.0,-0.006787239573895931
6144.0,-0.0015526160132139921
6656.0,0.003585495287552476
7168.0,0.00941576436161995
7680.0,0.007826108485460281
8192.0,0.005290383007377386
end
