version,3.0
numOfCh,1
type,point
parent_name,fe81d_0dot1-0dot01
ch_type,1_1
kcount,1
numberNandB,1
brightnessNandB,1
carpet pos,0
pc,0
Time (ms),CH1 Auto-Correlation
1.0,0.02011052519083023
2.0,0.019934188574552536
3.0,0.019762497395277023
4.0,0.01959502138197422
5.0,0.019427672028541565
6.0,0.019263895228505135
7.0,0.019101668149232864
8.0,0.018947070464491844
9.0,0.018796201795339584
10.0,0.018646342679858208
11.0,0.0184980146586895
12.0,0.01835186406970024
13.0,0.0182111244648695
14.0,0.018072299659252167
15.0,0.017933255061507225
16.0,0.017800305038690567
18.0,0.017527958378195763
20.0,0.01727178320288658
22.0,0.01703403890132904
24.0,0.016799500212073326
26.0,0.016567962244153023
28.0,0.01633748784661293
30.0,0.016106508672237396
32.0,0.015877554193139076
36.0,0.015430604107677937
40.0,0.015012126415967941
44.0,0.014627275057137012
48.0,0.014259176328778267
52.0,0.013914651237428188
56.0,0.013592622242867947
60.0,0.013273772783577442
64.0,0.012953116558492184
72.0,0.012305275537073612
80.0,0.011624902486801147
88.0,0.01101124007254839
96.0,0.01045307982712984
104.0,0.009925933554768562
112.0,0.009422832168638706
120.0,0.008970101363956928
128.0,0.008586877025663853
144.0,0.007914134301245213
160.0,0.007229896727949381
176.0,0.00647845258936286
192.0,0.0057564242742955685
208.0,0.004993703216314316
224.0,0.004286559298634529
240.0,0.0037778655532747507
256.0,0.0034361856523901224
288.0,0.0028811339288949966
320.0,0.0023646357003599405
352.0,0.001974700018763542
384.0,0.001995825208723545
416.0,0.001827579690143466
448.0,0.001820176257751882
480.0,0.0015197196044027805
512.0,0.0011622339952737093
576.0,0.00025411631213501096
640.0,-0.0011715828441083431
704.0,-0.002692564856261015
768.0,-0.0036677904427051544
832.0,-0.004422895144671202
896.0,-0.004090196918696165
960.0,-0.0027901825960725546
1024.0,-0.0012608987744897604
1152.0,-0.0005066375597380102
1280.0,-0.00023431054432876408
1408.0,0.0007878578035160899
1536.0,0.0030524502508342266
1664.0,0.003622565884143114
1792.0,0.0017665126360952854
1920.0,-1.2321129361225758e-05
2048.0,0.00023744255304336548
2304.0,-0.0005661312025040388
2560.0,-0.00137245689984411
2816.0,-0.0009900139411911368
3072.0,-0.0015105927595868707
3328.0,0.0036851277109235525
3584.0,0.0037265995051711798
3840.0,0.0009295411873608828
4096.0,-0.0025413886178284883
4608.0,-0.004525396972894669
5120.0,0.0006228979327715933
5632.0,-0.0023849750868976116
6144.0,-0.002793782390654087
6656.0,-0.00023224124743137509
7168.0,0.002480235416442156
7680.0,-0.002319791354238987
8192.0,-0.005175179336220026
end
