version,3.0
numOfCh,1
type,point
parent_name,fe81d_0dot1-0dot01
ch_type,1_1
kcount,1
numberNandB,1
brightnessNandB,1
carpet pos,0
pc,0
Time (ms),CH1 Auto-Correlation
1.0,0.01964747905731201
2.0,0.01946260966360569
3.0,0.019281752407550812
4.0,0.019106149673461914
5.0,0.018934614956378937
6.0,0.018766136839985847
7.0,0.018601886928081512
8.0,0.018442923203110695
9.0,0.018281416967511177
10.0,0.018122613430023193
11.0,0.017967240884900093
12.0,0.01781357079744339
13.0,0.0176626555621624
14.0,0.017516352236270905
15.0,0.017366761341691017
16.0,0.01722150482237339
18.0,0.016931230202317238
20.0,0.016652457416057587
22.0,0.016393302008509636
24.0,0.016140859574079514
26.0,0.01589132659137249
28.0,0.01564597897231579
30.0,0.015404635109007359
32.0,0.015175356529653072
36.0,0.014734829775989056
40.0,0.014286087825894356
44.0,0.013871734961867332
48.0,0.013503999449312687
52.0,0.013150874525308609
56.0,0.012790041044354439
60.0,0.012447916902601719
64.0,0.012093807570636272
72.0,0.011453739367425442
80.0,0.010858883149921894
88.0,0.01029474101960659
96.0,0.00977537501603365
104.0,0.009308712556958199
112.0,0.008870585821568966
120.0,0.00850481353700161
128.0,0.008181889541447163
144.0,0.007623934652656317
160.0,0.007168459240347147
176.0,0.006817031651735306
192.0,0.006502324715256691
208.0,0.006101020146161318
224.0,0.005592388100922108
240.0,0.0051324754022061825
256.0,0.004767811857163906
288.0,0.004048350267112255
320.0,0.003355938708409667
352.0,0.002992776222527027
384.0,0.0027706646360456944
416.0,0.002277121413499117
448.0,0.0016053749714046717
480.0,0.001423498964868486
512.0,0.0016084476374089718
576.0,0.0013295473763719201
640.0,0.001160333980806172
704.0,0.001759997452609241
768.0,0.0026115491054952145
832.0,0.0033597182482481003
896.0,0.0037389027420431376
960.0,0.0027461505960673094
1024.0,0.001149061950854957
1152.0,0.0008776961476542056
1280.0,0.0007389634265564382
1408.0,0.0002328369882889092
1536.0,0.0005336597096174955
1664.0,0.0013714790111407638
1792.0,0.0008043476846069098
1920.0,0.0007523388485424221
2048.0,0.0002561631554272026
2304.0,-0.0002749547129496932
2560.0,-0.0027654743753373623
2816.0,-0.002439015544950962
3072.0,6.878323620185256e-05
3328.0,-0.00032814883161336184
3584.0,-0.00022260013793129474
3840.0,-0.00035022961674258113
4096.0,-0.0004776415298692882
4608.0,-0.0003628385020419955
5120.0,0.0006822610157541931
5632.0,0.0016152042662724853
6144.0,-0.002054587472230196
6656.0,-0.00282451044768095
7168.0,-0.0028314634691923857
7680.0,-0.002762444084510207
8192.0,-0.00509439455345273
end
