version,3.0
numOfCh,1
type,point
parent_name,20-cuts
ch_type,1_1
kcount,1
numberNandB,1
brightnessNandB,1
carpet pos,0
pc,0
Time (ms),CH1 Auto-Correlation
1.0,0.027920523658394814
2.0,0.023028695955872536
3.0,0.01966083236038685
4.0,0.01726396009325981
5.0,0.015502304770052433
6.0,0.014047413133084774
7.0,0.012879704125225544
8.0,0.011888593435287476
9.0,0.01096874475479126
10.0,0.010219015181064606
11.0,0.00957197044044733
12.0,0.009106171317398548
13.0,0.008510984480381012
14.0,0.007898067124187946
15.0,0.007481001783162355
16.0,0.006916371174156666
18.0,0.006412448827177286
20.0,0.00572904571890831
22.0,0.004913169424980879
24.0,0.004469636827707291
26.0,0.004148151259869337
28.0,0.0035169050097465515
30.0,0.0032444207463413477
32.0,0.002812048653140664
36.0,0.002615631790831685
40.0,0.002442016499117017
44.0,0.002129754750058055
48.0,0.0022423998452723026
52.0,0.0019974540919065475
56.0,0.001709562260657549
60.0,0.001063880161382258
64.0,0.0009294769843108952
72.0,0.0011995950480923057
80.0,0.0012050862424075603
88.0,0.0005591260851360857
96.0,0.0007305899634957314
104.0,0.0005254949792288244
112.0,0.00014210341032594442
120.0,0.00041054602479562163
128.0,0.0005801232764497399
144.0,0.0003262423269916326
160.0,0.00023259363661054522
176.0,0.0004420048207975924
192.0,0.0006594418082386255
208.0,0.0005639693699777126
224.0,0.00033822792465798557
240.0,0.0003246828855480999
256.0,0.0004468873667065054
288.0,-0.0002114365343004465
320.0,0.0008043903508223593
352.0,0.0008879831875674427
384.0,0.00021122850012034178
416.0,1.0605420357023831e-05
448.0,0.00035313627449795604
480.0,0.00025121995713561773
512.0,0.00010830823157448322
576.0,-0.000652301823720336
640.0,-0.0004772082029376179
704.0,-0.0004921270301565528
768.0,-0.0007156482897698879
832.0,-0.0004986393614672124
896.0,-0.000624610111117363
960.0,-0.0007453920552507043
1024.0,-0.0010918687330558896
1152.0,0.0005563162267208099
1280.0,0.00014457783254329115
1408.0,9.237489575752988e-05
1536.0,-0.00024901903816498816
1664.0,-0.00021466147154569626
1792.0,-4.947968773194589e-05
1920.0,-0.0002680451434571296
2048.0,-0.0003306430298835039
2304.0,-0.0003535932919476181
2560.0,-0.00018321214884053916
2816.0,-0.0002451854234095663
3072.0,-0.00017711245163809508
3328.0,-0.0003774063370656222
3584.0,0.0002158367569791153
3840.0,0.00036899640690535307
4096.0,-8.594291284680367e-05
4608.0,0.00016219774261116982
5120.0,-5.8020428696181625e-05
5632.0,0.000385150226065889
6144.0,-0.0002884864807128906
6656.0,0.00027378855156712234
7168.0,0.000409028580179438
7680.0,-0.0006535648717544973
8192.0,-0.0003962256305385381
9216.0,8.787739352555946e-05
10240.0,0.0006122629856690764
11264.0,9.914992006088141e-06
12288.0,-0.0006053303368389606
13312.0,-9.040044824359939e-05
14336.0,0.00012987559603061527
end
