version,3.0
numOfCh,1
type,point
parent_name,20-cuts
ch_type,1_1
kcount,1
numberNandB,1
brightnessNandB,1
carpet pos,0
pc,0
Time (ms),CH1 Auto-Correlation
1.0,0.025707464665174484
2.0,0.020800208672881126
3.0,0.01731390878558159
4.0,0.014801922254264355
5.0,0.012676008976995945
6.0,0.011095000430941582
7.0,0.009892720729112625
8.0,0.008832762017846107
9.0,0.008096079342067242
10.0,0.00740791717544198
11.0,0.006806728895753622
12.0,0.006281488109380007
13.0,0.005732035264372826
14.0,0.005331225693225861
15.0,0.004995059687644243
16.0,0.004562638700008392
18.0,0.003944655880331993
20.0,0.0036023829597979784
22.0,0.003294628579169512
24.0,0.003123256843537092
26.0,0.0031141997314989567
28.0,0.002945180516690016
30.0,0.002601155312731862
32.0,0.0024215341545641422
36.0,0.0017542316345497966
40.0,0.001360533176921308
44.0,0.0009645368554629385
48.0,0.00088450126349926
52.0,0.0009016731637530029
56.0,0.0007859981851652265
60.0,0.0004703644081018865
64.0,0.0006097560399211943
72.0,0.0006837426335550845
80.0,0.0005073999636806548
88.0,-4.607297159964219e-05
96.0,5.622912067337893e-05
104.0,4.8020978283602744e-05
112.0,0.0004576831415761262
120.0,0.0005436571664176881
128.0,0.0005284668877720833
144.0,0.00026126287411898375
160.0,0.0001900402712635696
176.0,-0.0003539232420735061
192.0,-0.0002451257314532995
208.0,2.19086286961101e-05
224.0,0.00015965857892297208
240.0,0.0002985398459713906
256.0,0.000533300859387964
288.0,-0.000736790883820504
320.0,-0.00046528945676982403
352.0,0.0003158123872708529
384.0,0.0011306169908493757
416.0,0.000254291866440326
448.0,0.00043632439337670803
480.0,-0.0002745470847003162
512.0,0.0003825287567451596
576.0,-0.0004517085035331547
640.0,-0.0001734033430693671
704.0,-0.00019842703477479517
768.0,0.0004690061032306403
832.0,0.00023090504691936076
896.0,-0.0002419197408016771
960.0,0.0002697259478736669
1024.0,-0.00026410643476992846
1152.0,0.0004038505139760673
1280.0,-0.00018326342978980392
1408.0,-0.0004153418994974345
1536.0,-0.00042279178160242736
1664.0,-0.00048494196380488575
1792.0,-0.0003970393445342779
1920.0,-0.00020011582819279283
2048.0,-0.0005322863580659032
2304.0,-0.0002509706828277558
2560.0,-9.859754936769605e-05
2816.0,-3.2411022402811795e-05
3072.0,9.149991092272103e-05
3328.0,-0.0003724809212144464
3584.0,-0.00035082301474176347
3840.0,2.8861366445198655e-05
4096.0,0.0003710167948156595
4608.0,0.00011206130147911608
5120.0,0.00011118237307528034
5632.0,0.00041271233931183815
6144.0,-0.0003472234820947051
6656.0,9.507108916295692e-05
7168.0,-0.00011983533477177843
7680.0,-0.00020051185856573284
8192.0,0.00020044452685397118
9216.0,-0.0003337367670610547
10240.0,0.0002130334614776075
11264.0,0.00042009729077108204
12288.0,-0.00034543871879577637
13312.0,0.00012361875269562006
14336.0,-0.00039384287083521485
end
