version,3.0
numOfCh,1
type,point
parent_name,20-cuts
ch_type,1_1
kcount,1
numberNandB,1
brightnessNandB,1
carpet pos,0
pc,0
Time (ms),CH1 Auto-Correlation
1.0,0.016680780798196793
2.0,0.013761949725449085
3.0,0.011608127504587173
4.0,0.010064550675451756
5.0,0.008878422901034355
6.0,0.007896528579294682
7.0,0.007088483776897192
8.0,0.0064286720007658005
9.0,0.005935040768235922
10.0,0.005469507537782192
11.0,0.005042772740125656
12.0,0.004622268956154585
13.0,0.004319147672504187
14.0,0.0039017298258841038
15.0,0.0036356071941554546
16.0,0.003455684520304203
18.0,0.0030143342446535826
20.0,0.0028654257766902447
22.0,0.002634804230183363
24.0,0.002414103364571929
26.0,0.0021549882367253304
28.0,0.0019752681255340576
30.0,0.0019107182743027806
32.0,0.0020490093156695366
36.0,0.0019996764604002237
40.0,0.001833532121963799
44.0,0.0014906085561960936
48.0,0.0012625486124306917
52.0,0.0010295409010723233
56.0,0.0010966287227347493
60.0,0.0009567975648678839
64.0,0.0008537400863133371
72.0,0.000858345243614167
80.0,0.0006067210342735052
88.0,0.0007559844525530934
96.0,0.0007423308561556041
104.0,0.0007962172967381775
112.0,0.0006034909165464342
120.0,0.00031552030122838914
128.0,0.00025909210671670735
144.0,0.00039827192085795105
160.0,0.00037206042907200754
176.0,-3.303645644336939e-05
192.0,-5.0386006478220224e-05
208.0,-0.0001352314284304157
224.0,-0.00021409189503174275
240.0,-0.00029934695339761674
256.0,-0.00023336990852840245
288.0,-0.00017427385319024324
320.0,-0.0003431142831686884
352.0,-0.0006237688357941806
384.0,-0.0005091767525300384
416.0,-0.0004943989915773273
448.0,-0.0002476357331033796
480.0,-0.00036409837775863707
512.0,-9.863336890703067e-05
576.0,0.00034305182634852827
640.0,0.0005515319062396884
704.0,0.00031520184711553156
768.0,0.00016049202531576157
832.0,-2.6443309252499603e-05
896.0,-0.00015441255527548492
960.0,-0.00021838434622623026
1024.0,-0.0004463688819669187
1152.0,4.6470024244626984e-05
1280.0,-6.54585674055852e-05
1408.0,-0.00015425984747707844
1536.0,-0.000453853135695681
1664.0,-0.0005065947188995779
1792.0,-0.00013317821139935404
1920.0,0.0003746575384866446
2048.0,0.0006668431451544166
2304.0,7.439400064868096e-07
2560.0,-7.149749581003562e-05
2816.0,2.344627500860952e-05
3072.0,0.00013408112863544375
3328.0,-0.00011800801439676434
3584.0,-4.4486205297289416e-05
3840.0,-0.00022350336075760424
4096.0,6.228432175703347e-05
4608.0,-3.545931031112559e-05
5120.0,-0.000137988812639378
5632.0,0.00024708930868655443
6144.0,-0.0001971242018043995
6656.0,7.5455213845998514e-06
7168.0,-0.00018374751380179077
7680.0,8.382109081139788e-05
8192.0,-3.06528527289629e-05
9216.0,9.76906085270457e-05
10240.0,0.00040141528006643057
11264.0,-0.0001555219350848347
12288.0,5.9641210100380704e-05
13312.0,-0.00033687299583107233
14336.0,-0.00025058540632016957
end
