version,3.0
numOfCh,1
type,point
parent_name,20-cuts
ch_type,1_1
kcount,1
numberNandB,1
brightnessNandB,1
carpet pos,0
pc,0
Time (ms),CH1 Auto-Correlation
1.0,0.016771627590060234
2.0,0.013767656870186329
3.0,0.01167568750679493
4.0,0.01011423859745264
5.0,0.008845151402056217
6.0,0.007929959334433079
7.0,0.007180307526141405
8.0,0.006453945767134428
9.0,0.005891482811421156
10.0,0.005482321605086327
11.0,0.005135743413120508
12.0,0.004751932807266712
13.0,0.004528312478214502
14.0,0.004437004216015339
15.0,0.004082394763827324
16.0,0.0038427445106208324
18.0,0.003328226273879409
20.0,0.002923485590144992
22.0,0.002571675693616271
24.0,0.0023534023202955723
26.0,0.0021404048893600702
28.0,0.0020119554828852415
30.0,0.0019918547477573156
32.0,0.002085150917991996
36.0,0.001764500979334116
40.0,0.0016527052503079176
44.0,0.001611547777429223
48.0,0.0012424373999238014
52.0,0.0011463429545983672
56.0,0.0010708281770348549
60.0,0.0012148837558925152
64.0,0.0011547754984349012
72.0,0.0008955488447099924
80.0,0.0006034601829014719
88.0,0.0005714075523428619
96.0,0.0002854500198736787
104.0,0.000260906177572906
112.0,0.00013589835725724697
120.0,0.0002814855834003538
128.0,-2.3279781089513563e-05
144.0,0.00012155145668657497
160.0,5.571248948399443e-06
176.0,-0.00018796422227751464
192.0,-0.0003912316169589758
208.0,0.0001151870092144236
224.0,9.384164150105789e-05
240.0,6.723399565089494e-05
256.0,5.0997532525798306e-05
288.0,0.00013942597433924675
320.0,0.0005458961823023856
352.0,0.00048190500820055604
384.0,0.00017136514361482114
416.0,0.000556085433345288
448.0,0.0004671539063565433
480.0,0.0005100048147141933
512.0,0.00018398994870949537
576.0,-0.00019496839377097785
640.0,-0.00018075488333124667
704.0,-0.0002273217251058668
768.0,-2.9465634270309238e-06
832.0,9.719286026665941e-05
896.0,-0.0004789946542587131
960.0,-0.00014058849774301052
1024.0,5.243689884082414e-05
1152.0,-5.4940461268415675e-05
1280.0,7.482076034648344e-05
1408.0,0.00017219797882717103
1536.0,0.00019868543313350528
1664.0,-3.311920227133669e-05
1792.0,-0.00024295157345477492
1920.0,0.0005382098024711013
2048.0,-0.0004304530448280275
2304.0,-0.00042165754712186754
2560.0,3.747440496226773e-05
2816.0,-3.624546297942288e-05
3072.0,0.0002536060637794435
3328.0,0.000216197338886559
3584.0,-7.107041710696649e-06
3840.0,0.0001492166193202138
4096.0,-0.00032502124668098986
4608.0,7.479928171960637e-05
5120.0,0.00014279889001045376
5632.0,-0.00024873059010133147
6144.0,-0.00015206281386781484
6656.0,0.00014231682871468365
7168.0,-0.0004660369595512748
7680.0,-0.00029255691333673894
8192.0,9.857612167252228e-05
9216.0,-0.00020938542729709297
10240.0,-0.00011218928557354957
11264.0,0.0004263986775185913
12288.0,-0.00015879652346484363
13312.0,-0.0003082373004872352
14336.0,0.00047839817125350237
end
