version,3.0
numOfCh,1
type,point
parent_name,20-cuts
ch_type,1_1
kcount,1
numberNandB,1
brightnessNandB,1
carpet pos,0
pc,0
Time (ms),CH1 Auto-Correlation
1.0,0.015743782743811607
2.0,0.012857477180659771
3.0,0.010868716984987259
4.0,0.009388851001858711
5.0,0.008189134299755096
6.0,0.007384966127574444
7.0,0.0067605082876980305
8.0,0.006147592794150114
9.0,0.005499281454831362
10.0,0.004984141327440739
11.0,0.004498653579503298
12.0,0.004157279618084431
13.0,0.003789407666772604
14.0,0.003563881851732731
15.0,0.0033183982595801353
16.0,0.0030938521958887577
18.0,0.0027116534765809774
20.0,0.0026376068126410246
22.0,0.002436332870274782
24.0,0.0022547871340066195
26.0,0.0020139217376708984
28.0,0.0016484587686136365
30.0,0.0014075827784836292
32.0,0.0012740021338686347
36.0,0.0010696030221879482
40.0,0.0007649573381058872
44.0,0.0006371635245159268
48.0,0.0005120491841807961
52.0,0.0003965949290432036
56.0,0.0005451060133054852
60.0,0.0006548677338287234
64.0,0.0005854302435182035
72.0,-3.1057621526997536e-05
80.0,-0.0002269479591632262
88.0,8.947567403083667e-05
96.0,0.00026903784601017833
104.0,0.0003771203919313848
112.0,0.00025623731198720634
120.0,0.0004167495935689658
128.0,0.0003460574662312865
144.0,4.752182212541811e-05
160.0,0.00018035304674413055
176.0,0.00012966286158189178
192.0,-0.0001871369604486972
208.0,-0.00018239299242850393
224.0,-9.793019125936553e-05
240.0,-0.00035810074768960476
256.0,-4.817986337002367e-05
288.0,0.00032440575887449086
320.0,3.793063297052868e-05
352.0,0.0007696362445130944
384.0,0.00026861371588893235
416.0,-0.000371431844541803
448.0,9.639114432502538e-05
480.0,8.560799324186519e-05
512.0,0.00023132011119741946
576.0,-0.0005768786650151014
640.0,0.0004114029579795897
704.0,0.0005419638473540545
768.0,0.00014572574582416564
832.0,-0.00034925714135169983
896.0,-0.00023036630591377616
960.0,2.624300032039173e-05
1024.0,-0.00022443014313466847
1152.0,7.208344322862104e-05
1280.0,7.304763130377978e-05
1408.0,0.0004343656182754785
1536.0,0.00025842865579761565
1664.0,2.1991550966049545e-05
1792.0,7.990044832695276e-05
1920.0,-8.307681855512783e-05
2048.0,-0.00042366041452623904
2304.0,0.00020171063079033047
2560.0,7.016316521912813e-05
2816.0,0.0003450588556006551
3072.0,0.00032241761800833046
3328.0,-1.1659329175017774e-05
3584.0,-6.947079964447767e-05
3840.0,-0.00025030365213751793
4096.0,0.00016136729391291738
4608.0,8.990897185867652e-06
5120.0,0.0001695034297881648
5632.0,0.0001557027135277167
6144.0,-6.903727626195177e-05
6656.0,-1.8032733350992203e-05
7168.0,-0.00026889092987403274
7680.0,-0.00017210925580002367
8192.0,-5.064962897449732e-05
9216.0,-0.00020376729662530124
10240.0,-0.0002910345792770386
11264.0,-0.00021932520030532032
12288.0,-0.0002180500014219433
13312.0,-0.00021328881848603487
14336.0,-0.00011696288856910542
end
