version,3.0
numOfCh,1
type,point
parent_name,20-cuts
ch_type,1_1
kcount,1
numberNandB,1
brightnessNandB,1
carpet pos,0
pc,0
Time (ms),CH1 Auto-Correlation
1.0,0.015718169510364532
2.0,0.012913521379232407
3.0,0.010807555168867111
4.0,0.00926603190600872
5.0,0.008162845857441425
6.0,0.007246552500873804
7.0,0.006564417853951454
8.0,0.006029735319316387
9.0,0.005536213051527739
10.0,0.005304367747157812
11.0,0.0049367439933121204
12.0,0.004668292123824358
13.0,0.004479362163692713
14.0,0.004251785576343536
15.0,0.003914037253707647
16.0,0.0036799332592636347
18.0,0.0033493877854198217
20.0,0.0029829307459294796
22.0,0.0025025438517332077
24.0,0.002155751921236515
26.0,0.0017661002930253744
28.0,0.0014028954319655895
30.0,0.0012402650900185108
32.0,0.0012114463606849313
36.0,0.0011743162758648396
40.0,0.0011049372842535377
44.0,0.0009213187149725854
48.0,0.0010022210190072656
52.0,0.0011798585765063763
56.0,0.0010596740758046508
60.0,0.0007415770087391138
64.0,0.0006578167085535824
72.0,0.0003775976656470448
80.0,7.870595436543226e-05
88.0,-4.3257135985186324e-05
96.0,5.121904905536212e-05
104.0,8.732044079806656e-05
112.0,7.448130054399371e-05
120.0,0.0003633157175499946
128.0,0.0003977107990067452
144.0,-0.00033079416607506573
160.0,-0.000453254790045321
176.0,-0.000369048910215497
192.0,4.0264578274218366e-05
208.0,-0.00011685366916935891
224.0,-5.726140079787001e-05
240.0,-8.224655175581574e-05
256.0,3.1107232643989846e-05
288.0,-0.00027068579220212996
320.0,-5.263644561637193e-05
352.0,0.00030451794737018645
384.0,0.00034939739271067083
416.0,0.00033394055208191276
448.0,-0.00010053306323243305
480.0,0.000150192019646056
512.0,0.0005471513723023236
576.0,9.418167610419914e-05
640.0,-0.00023708325170446187
704.0,-0.00013189435412641615
768.0,-0.00017492685583420098
832.0,-4.736339542432688e-05
896.0,0.0001796354481484741
960.0,0.00020362377108540386
1024.0,0.0003782139392569661
1152.0,0.0003280651872046292
1280.0,-0.0004938138299621642
1408.0,-0.00010244251461699605
1536.0,-5.157326449989341e-05
1664.0,-0.00038977793883532286
1792.0,-0.0005468192975968122
1920.0,3.477841164567508e-05
2048.0,9.659527859184891e-05
2304.0,-2.7439356927061453e-05
2560.0,-0.0001119481457863003
2816.0,7.924270903458819e-05
3072.0,7.853729039197788e-05
3328.0,-0.00019438876188360155
3584.0,-0.00021570318494923413
3840.0,-6.97143841534853e-05
4096.0,0.00020386591495480388
4608.0,9.584185318090022e-05
5120.0,0.00017441643285565078
5632.0,4.011152850580402e-05
6144.0,-5.54420767002739e-05
6656.0,9.107959340326488e-05
7168.0,0.00020233455870766193
7680.0,-0.0002745910605881363
8192.0,-0.0002338845224585384
9216.0,6.185415986692533e-05
10240.0,0.00014928868040442467
11264.0,-5.095940286992118e-05
12288.0,-0.00014021796232555062
13312.0,-0.00019587970746215433
14336.0,-0.00027262771618552506
end
