version,3.0
numOfCh,1
type,point
parent_name,20-cuts
ch_type,1_1
kcount,1
numberNandB,1
brightnessNandB,1
carpet pos,0
pc,0
Time (ms),CH1 Auto-Correlation
1.0,0.028062889352440834
2.0,0.023248551413416862
3.0,0.019886117428541183
4.0,0.017334237694740295
5.0,0.015303421765565872
6.0,0.013642022386193275
7.0,0.01223058719187975
8.0,0.011097917333245277
9.0,0.010185175575315952
10.0,0.009306690655648708
11.0,0.0085977241396904
12.0,0.008051314391195774
13.0,0.007583933882415295
14.0,0.007093498017638922
15.0,0.006813970860093832
16.0,0.006639475934207439
18.0,0.005737587809562683
20.0,0.0051477705128490925
22.0,0.004984977655112743
24.0,0.004804654978215694
26.0,0.00460076006129384
28.0,0.00403111707419157
30.0,0.003666399046778679
32.0,0.003574649104848504
36.0,0.0031277574598789215
40.0,0.0026624221354722977
44.0,0.0019768886268138885
48.0,0.0015914477407932281
52.0,0.0012612937716767192
56.0,0.0010086732218042016
60.0,0.0010572279570624232
64.0,0.0011145498137921095
72.0,0.0005826894193887711
80.0,0.0008589028147980571
88.0,0.0010608865413814783
96.0,0.0010319831781089306
104.0,0.00045340333599597216
112.0,0.0004189774044789374
120.0,0.0005492593045346439
128.0,4.148249718127772e-05
144.0,3.6621080653276294e-05
160.0,-0.0004563761758618057
176.0,-0.0003732196055352688
192.0,0.00019212818006053567
208.0,0.0007157797808758914
224.0,3.5726749047171324e-05
240.0,0.0005233065458014607
256.0,0.000889311486389488
288.0,0.001309719868004322
320.0,0.0003210659197065979
352.0,0.0002837832143995911
384.0,0.0007392330444417894
416.0,-0.00047686524339951575
448.0,-0.0003906885103788227
480.0,0.0005792565061710775
512.0,0.0002018124214373529
576.0,0.0003286608261987567
640.0,-6.386041786754504e-05
704.0,-0.0009553022682666779
768.0,-4.688659464591183e-05
832.0,-0.0006476782727986574
896.0,-0.000545018760021776
960.0,-9.461127774557099e-05
1024.0,-0.00019467039965093136
1152.0,-0.00012772547779604793
1280.0,-1.882353171822615e-05
1408.0,-0.0002315784222446382
1536.0,0.00029478303622454405
1664.0,0.0007617182563990355
1792.0,-0.00017853171448223293
1920.0,0.0001858107279986143
2048.0,9.422970470041037e-05
2304.0,-0.00036811630707234144
2560.0,0.00023689803492743522
2816.0,0.0006108445813879371
3072.0,0.0009389354381710291
3328.0,-0.00016108663112390786
3584.0,-0.00032702652970328927
3840.0,-0.0008724570507183671
4096.0,-0.0006497452268376946
4608.0,0.000352268893038854
5120.0,-0.00013251775817479938
5632.0,0.0001161258333013393
6144.0,0.00025382847525179386
6656.0,-0.0003414198290556669
7168.0,-0.0001930519938468933
7680.0,-0.0002544994931668043
8192.0,-8.84429391589947e-06
9216.0,-3.9061924326233566e-05
10240.0,-0.0006885245093144476
11264.0,0.0004492028383538127
12288.0,-8.672646799823269e-05
13312.0,-6.963650230318308e-05
14336.0,0.00025882714544422925
end
