version,3.0
numOfCh,1
type,point
parent_name,20-cuts
ch_type,1_1
kcount,1
numberNandB,1
brightnessNandB,1
carpet pos,0
pc,0
Time (ms),CH1 Auto-Correlation
1.0,0.027197865769267082
2.0,0.022419318556785583
3.0,0.01905411295592785
4.0,0.016577763482928276
5.0,0.014881101436913013
6.0,0.0134339714422822
7.0,0.012332365848124027
8.0,0.011348272673785686
9.0,0.010676924139261246
10.0,0.010036810301244259
11.0,0.009458526968955994
12.0,0.008913935162127018
13.0,0.008338835090398788
14.0,0.007887505926191807
15.0,0.007548732217401266
16.0,0.007183556444942951
18.0,0.006205631885677576
20.0,0.005430801305919886
22.0,0.004979890771210194
24.0,0.0043684556148946285
26.0,0.004059869796037674
28.0,0.0036805993877351284
30.0,0.0034737184178084135
32.0,0.003344953525811434
36.0,0.0029395760502666235
40.0,0.0029511996544897556
44.0,0.002990107284858823
48.0,0.002662193262949586
52.0,0.0021534012630581856
56.0,0.0019316249527037144
60.0,0.0018317329231649637
64.0,0.0015539906453341246
72.0,0.002186461817473173
80.0,0.0024776069913059473
88.0,0.002351888222619891
96.0,0.0015280930092558265
104.0,0.0007294289534911513
112.0,0.00011671940592350438
120.0,0.00034446624340489507
128.0,0.0007309208158403635
144.0,0.00024431911879219115
160.0,1.1045788596675266e-05
176.0,-0.0006723011611029506
192.0,-0.0017010080628097057
208.0,-0.001538200885988772
224.0,-0.0003401805297471583
240.0,-0.00036923852167092264
256.0,-0.0005143641028553247
288.0,-0.0011787430848926306
320.0,-0.001207019784487784
352.0,-0.0005861646495759487
384.0,-0.0007334158290177584
416.0,-0.0004953647730872035
448.0,-0.0011676531285047531
480.0,-0.00011420317605370656
512.0,-0.0004284624883439392
576.0,6.914485129527748e-05
640.0,0.0010885674273595214
704.0,0.0012455381220206618
768.0,0.0008299403125420213
832.0,-6.748283340130001e-05
896.0,-0.00032914915936999023
960.0,-0.0001351441169390455
1024.0,-0.00023410319408867508
1152.0,2.990283610415645e-05
1280.0,0.00047464706585742533
1408.0,0.0002796881308313459
1536.0,-0.00033584635821171105
1664.0,-0.0007429183460772038
1792.0,-0.00033159926533699036
1920.0,0.0002511720813345164
2048.0,-0.0002549592754803598
2304.0,-0.00039657813613303006
2560.0,7.494833698729053e-05
2816.0,-0.00010340225708205253
3072.0,-0.0003254541370552033
3328.0,-0.00036996431299485266
3584.0,-0.00025250992621295154
3840.0,5.120421701576561e-05
4096.0,0.0002979302953463048
4608.0,-0.0001467589318053797
5120.0,0.00043102505151182413
5632.0,-4.7133649786701426e-05
6144.0,0.00039585039485245943
6656.0,0.0003372221835888922
7168.0,-0.00020765792578458786
7680.0,-9.221137588610873e-05
8192.0,-0.0007885496597737074
9216.0,-3.536834992701188e-05
10240.0,-0.0004002810746897012
11264.0,0.0004995266208425164
12288.0,0.0004047351249027997
13312.0,-0.00040878617437556386
14336.0,-0.00019681970297824591
end
