version,3.0
numOfCh,1
type,point
parent_name,20-cuts
ch_type,1_1
kcount,1
numberNandB,1
brightnessNandB,1
carpet pos,0
pc,0
Time (ms),CH1 Auto-Correlation
1.0,0.017270538955926895
2.0,0.014472085982561111
3.0,0.012434477917850018
4.0,0.010981285944581032
5.0,0.009769604541361332
6.0,0.008847740478813648
7.0,0.007994191721081734
8.0,0.007356287911534309
9.0,0.006847342476248741
10.0,0.006402041297405958
11.0,0.005959627218544483
12.0,0.005660139489918947
13.0,0.005349813029170036
14.0,0.005085854325443506
15.0,0.0048830220475792885
16.0,0.00462403753772378
18.0,0.004207954276353121
20.0,0.0038139692042022943
22.0,0.0035625144373625517
24.0,0.003417364088818431
26.0,0.0033196290023624897
28.0,0.003239626297727227
30.0,0.0030493547674268484
32.0,0.002882234286516905
36.0,0.002881583059206605
40.0,0.002635370474308729
44.0,0.0024708863347768784
48.0,0.002042195061221719
52.0,0.001570684602484107
56.0,0.001393715851008892
60.0,0.0017044360283762217
64.0,0.0013687425525858998
72.0,0.0013868451351299882
80.0,0.0011944369180127978
88.0,0.0006783062126487494
96.0,0.0007661935524083674
104.0,0.001420399872586131
112.0,0.0008772258297540247
120.0,0.00042980563011951745
128.0,0.00039419776294380426
144.0,0.00017274478159379214
160.0,0.00040387737681157887
176.0,0.0003059548034798354
192.0,0.0004808872181456536
208.0,0.0007320001604966819
224.0,0.0007505068206228316
240.0,0.000809434917755425
256.0,0.0011913016205653548
288.0,0.0008546194876544178
320.0,0.0007876901072449982
352.0,0.00022236318909563124
384.0,-0.0003218219499103725
416.0,-0.00017415915499441326
448.0,0.00039167230715975165
480.0,0.0005889775929972529
512.0,0.0005180755397304893
576.0,0.00032427345286123455
640.0,0.00015633762814104557
704.0,-0.00033551189699210227
768.0,-0.00017821445362642407
832.0,0.0006030689692124724
896.0,0.0002607966889627278
960.0,-0.00022857780277263373
1024.0,-0.000365375162800774
1152.0,-3.1216877687256783e-06
1280.0,-0.0002418615622445941
1408.0,0.00028454698622226715
1536.0,-0.0003925515338778496
1664.0,0.0002682484919205308
1792.0,-0.0002605224144645035
1920.0,-1.4879734635542263e-06
2048.0,-0.0001947110431501642
2304.0,0.00037813055678270757
2560.0,0.00034435506677255034
2816.0,-4.037612598040141e-05
3072.0,-0.0005760047351941466
3328.0,-0.0004759180883411318
3584.0,-0.0003102734044659883
3840.0,-0.00023625182802788913
4096.0,-0.00021308936993591487
4608.0,-5.9071935538668185e-05
5120.0,6.805805605836213e-05
5632.0,-0.0004893811419606209
6144.0,-8.16143729025498e-05
6656.0,-0.0003650175058282912
7168.0,6.889097130624577e-05
7680.0,0.00011836730118375272
8192.0,-0.00011463084229035303
9216.0,0.0001319853909080848
10240.0,0.0005360707291401923
11264.0,9.299627708969638e-05
12288.0,-0.0004458963521756232
13312.0,-0.00019604116096161306
14336.0,-0.0008102874853648245
end
