version,3.0
numOfCh,1
type,point
parent_name,20-cuts
ch_type,1_1
kcount,1
numberNandB,1
brightnessNandB,1
carpet pos,0
pc,0
Time (ms),CH1 Auto-Correlation
1.0,0.015684636309742928
2.0,0.012729703448712826
3.0,0.010730130597949028
4.0,0.009169991128146648
5.0,0.008051062934100628
6.0,0.007096192799508572
7.0,0.006299685686826706
8.0,0.0056452443823218346
9.0,0.0050677163526415825
10.0,0.004733811132609844
11.0,0.004271823447197676
12.0,0.003892801934853196
13.0,0.0034393039532005787
14.0,0.0031033384148031473
15.0,0.002776831155642867
16.0,0.0024709913413971663
18.0,0.0021730654407292604
20.0,0.001760893501341343
22.0,0.0014464363921433687
24.0,0.0012313778279349208
26.0,0.0011635636910796165
28.0,0.0011104429140686989
30.0,0.0009299229714088142
32.0,0.0007610057364217937
36.0,0.0007913027075119317
40.0,0.000767816265579313
44.0,0.0005644109332934022
48.0,0.0007084992248564959
52.0,0.000958769116550684
56.0,0.0008367460686713457
60.0,0.0009689764119684696
64.0,0.0008462052210234106
72.0,0.00040589034324511886
80.0,0.0001619095855858177
88.0,0.00020808150293305516
96.0,0.0003216151089873165
104.0,0.0004595086502376944
112.0,0.0002551412908360362
120.0,6.520436727441847e-05
128.0,-5.619340663542971e-05
144.0,-0.0003695630584843457
160.0,-0.0001497766497777775
176.0,-0.00030534155666828156
192.0,5.5164095101645216e-05
208.0,8.707877714186907e-05
224.0,0.00026085416902787983
240.0,0.0001565043639857322
256.0,0.00016931733989622444
288.0,5.021950346417725e-05
320.0,-0.0003481368476059288
352.0,-1.2379759027680848e-05
384.0,-0.0004091248265467584
416.0,-0.00041176468948833644
448.0,-0.0004439662443473935
480.0,0.000161610878421925
512.0,0.00011747026292141527
576.0,-0.00036347642890177667
640.0,-0.0001284114405279979
704.0,-0.00024288652639370412
768.0,-8.98675625649048e-06
832.0,-5.370010057959007e-06
896.0,0.0003815162053797394
960.0,0.00036301399813964963
1024.0,-0.00016975418839138
1152.0,-0.0003332199703436345
1280.0,-0.0001049180791596882
1408.0,-8.419700316153467e-05
1536.0,-0.00029226322658360004
1664.0,-0.0001968595606740564
1792.0,0.00025915069272741675
1920.0,0.00034136485191993415
2048.0,0.0004646708257496357
2304.0,-9.196234896080568e-05
2560.0,-0.0001271996443392709
2816.0,0.00018717428611125797
3072.0,8.560452988604084e-05
3328.0,-8.046518632909283e-05
3584.0,-2.9070517484797165e-05
3840.0,0.00013009950635023415
4096.0,-0.00011401039228076115
4608.0,-1.970030461961869e-05
5120.0,0.00010338724678149447
5632.0,0.00012784161663148552
6144.0,-0.00019603171676862985
6656.0,-0.00016106480325106531
7168.0,9.235264587914571e-05
7680.0,-4.197613088763319e-05
8192.0,2.828590186254587e-05
9216.0,-0.00011683164484566078
10240.0,4.5485638111131266e-05
11264.0,5.077457899460569e-05
12288.0,-2.9044795155641623e-05
13312.0,2.3888163923402317e-05
14336.0,6.92314060870558e-05
end
