version,3.0
numOfCh,1
type,point
parent_name,20-cuts
ch_type,1_1
kcount,1
numberNandB,1
brightnessNandB,1
carpet pos,0
pc,0
Time (ms),CH1 Auto-Correlation
1.0,0.016339674592018127
2.0,0.013500507920980453
3.0,0.011522619053721428
4.0,0.009956076741218567
5.0,0.008703087456524372
6.0,0.007759009953588247
7.0,0.006998059339821339
8.0,0.0063522071577608585
9.0,0.005844946950674057
10.0,0.005330398678779602
11.0,0.004878805484622717
12.0,0.004519169684499502
13.0,0.004133766982704401
14.0,0.003814845345914364
15.0,0.003561425721272826
16.0,0.0034259662497788668
18.0,0.0031415873672813177
20.0,0.0029304574709385633
22.0,0.002656059805303812
24.0,0.002540208399295807
26.0,0.0023732075933367014
28.0,0.002076263539493084
30.0,0.001834376947954297
32.0,0.0017523636342957616
36.0,0.0014578831614926457
40.0,0.0016111962031573057
44.0,0.0018366235308349133
48.0,0.001857598195783794
52.0,0.0015997604932636023
56.0,0.0012300668749958277
60.0,0.0008424934931099415
64.0,0.0005066042649559677
72.0,0.0001397271698806435
80.0,-0.0002033407217822969
88.0,-6.45567852188833e-05
96.0,0.00014635843399446458
104.0,-2.5180355805787258e-05
112.0,-0.0002625228662509471
120.0,-0.00015011908544693142
128.0,2.3994058210519142e-05
144.0,0.00041573980706743896
160.0,0.00037963251816108823
176.0,0.00016417769074905664
192.0,0.00021600488980766386
208.0,-0.00020504396525211632
224.0,-0.00018158432794734836
240.0,0.0006917226710356772
256.0,0.0006619420018978417
288.0,0.0012558569433167577
320.0,0.0010164701379835606
352.0,0.0008750237175263464
384.0,0.00034106377279385924
416.0,0.00011169961362611502
448.0,0.0002942003484349698
480.0,0.0003209609421901405
512.0,0.00020670736557804048
576.0,0.0002694095310289413
640.0,0.0007059835479594767
704.0,5.21510919497814e-05
768.0,-5.647967554978095e-05
832.0,7.564478437416255e-05
896.0,0.00012490250810515136
960.0,-0.0002220756869064644
1024.0,-0.0005525704473257065
1152.0,9.70920518739149e-05
1280.0,7.816155994078144e-05
1408.0,9.745680290507153e-05
1536.0,0.0002642906329128891
1664.0,-0.0001182013947982341
1792.0,0.0003948271041736007
1920.0,0.0004246803291607648
2048.0,0.0001873001892818138
2304.0,-1.948436511156615e-05
2560.0,-2.9791104680043645e-05
2816.0,-0.00021861189452465624
3072.0,-0.00017254517297260463
3328.0,-0.00010839848982868716
3584.0,-0.0003540081379469484
3840.0,-0.0001988546282518655
4096.0,-4.643989814212546e-05
4608.0,-0.0003316265356261283
5120.0,-9.908255015034229e-05
5632.0,0.0002592974342405796
6144.0,0.00015074730617925525
6656.0,-0.0002657097647897899
7168.0,-0.00016210254398174584
7680.0,-0.00016963438247330487
8192.0,-9.135132859228179e-05
9216.0,-0.0003874279500450939
10240.0,-0.0003484012559056282
11264.0,1.2264740689715836e-05
12288.0,0.000192666266229935
13312.0,0.00046685553388670087
14336.0,0.00040130288107320666
end
