version,3.0
numOfCh,1
type,point
parent_name,20-cuts
ch_type,1_1
kcount,1
numberNandB,1
brightnessNandB,1
carpet pos,0
pc,0
Time (ms),CH1 Auto-Correlation
1.0,0.017385952174663544
2.0,0.014362753368914127
3.0,0.012218168005347252
4.0,0.010686680674552917
5.0,0.00954634603112936
6.0,0.008563854731619358
7.0,0.007709235418587923
8.0,0.00704795541241765
9.0,0.0065764691680669785
10.0,0.006138755939900875
11.0,0.005777227226644754
12.0,0.005511494819074869
13.0,0.005267741158604622
14.0,0.005018274765461683
15.0,0.004674545489251614
16.0,0.0043313102796673775
18.0,0.0037879690062254667
20.0,0.0034817405976355076
22.0,0.003213611664250493
24.0,0.003022685181349516
26.0,0.003060901304706931
28.0,0.002995055168867111
30.0,0.0028199683874845505
32.0,0.002753153443336487
36.0,0.002544988412410021
40.0,0.0024249597918242216
44.0,0.002260365057736635
48.0,0.002197611378505826
52.0,0.001989876851439476
56.0,0.00171603262424469
60.0,0.002117797499522567
64.0,0.0020967889577150345
72.0,0.001782278181053698
80.0,0.001631935010664165
88.0,0.0015495637198910117
96.0,0.001218293677084148
104.0,0.0010554059408605099
112.0,0.0005984260351397097
120.0,0.0003946962533518672
128.0,0.0005720795597881079
144.0,0.0007765348418615758
160.0,7.558990182587877e-05
176.0,-0.0003345909353811294
192.0,-0.0002647356013767421
208.0,-0.0008238845621235669
224.0,-0.00022763549350202084
240.0,-0.00019122197409160435
256.0,-0.00020263188343960792
288.0,0.0001151287870015949
320.0,0.00021508053760044277
352.0,5.351598883862607e-05
384.0,2.1662729068339104e-06
416.0,0.0009392859064973891
448.0,0.0002813005121424794
480.0,0.0005460476968437433
512.0,0.0001998556253965944
576.0,3.3575048291822895e-05
640.0,-0.00032891647424548864
704.0,-0.00014683805056847632
768.0,-0.0005250791436992586
832.0,-0.0005814784090034664
896.0,-0.000837064057122916
960.0,-0.0008278930326923728
1024.0,-0.0005119003471918404
1152.0,-0.0007049302803352475
1280.0,-0.00010018814646173269
1408.0,8.257218723883852e-05
1536.0,-0.0002581930020824075
1664.0,-0.00011272473784629256
1792.0,0.0007724034949205816
1920.0,0.000809899065643549
2048.0,0.00030680568306706846
2304.0,6.118526653153822e-05
2560.0,-0.00013598515943158418
2816.0,-0.0006485272315330803
3072.0,-0.0004863859503529966
3328.0,3.028859464393463e-05
3584.0,-0.0003367724420968443
3840.0,-3.4056643926305696e-05
4096.0,-0.00012331896869000047
4608.0,0.0001658255496295169
5120.0,-9.002123988466337e-05
5632.0,-0.0003197029873263091
6144.0,0.00014903997362125665
6656.0,0.0007273140945471823
7168.0,-0.0002681976475287229
7680.0,-0.0003168205148540437
8192.0,0.00023516055080108345
9216.0,-0.00017957926320377737
10240.0,-5.2433642849791795e-05
11264.0,0.000360181147698313
12288.0,-7.138902583392337e-05
13312.0,0.0004379749298095703
14336.0,-0.0007143956609070301
end
