version,3.0
numOfCh,1
type,point
parent_name,20-cuts
ch_type,1_1
kcount,1
numberNandB,1
brightnessNandB,1
carpet pos,0
pc,0
Time (ms),CH1 Auto-Correlation
1.0,0.016312092542648315
2.0,0.01344695407897234
3.0,0.011423887684941292
4.0,0.009868575260043144
5.0,0.008722903206944466
6.0,0.00780466990545392
7.0,0.007050168234854937
8.0,0.006453430280089378
9.0,0.0059304265305399895
10.0,0.005523860454559326
11.0,0.005128347780555487
12.0,0.004826324060559273
13.0,0.0045237173326313496
14.0,0.004253162536770105
15.0,0.0038476581685245037
16.0,0.0035854745656251907
18.0,0.00331126363016665
20.0,0.0030396454967558384
22.0,0.0027998113073408604
24.0,0.002717449562624097
26.0,0.0025858199223876
28.0,0.0025777106638997793
30.0,0.0024698604829609394
32.0,0.0023184907622635365
36.0,0.0016691971104592085
40.0,0.0013835432473570108
44.0,0.001327497186139226
48.0,0.0013188219163566828
52.0,0.0014527514576911926
56.0,0.0014530756743624806
60.0,0.0010538743808865547
64.0,0.0005323209334164858
72.0,6.258625944610685e-05
80.0,0.0002768221020232886
88.0,0.0004372603143565357
96.0,0.0001393587444908917
104.0,0.00019070148118771613
112.0,0.00021759654919151217
120.0,0.00012204973609186709
128.0,0.0003279041557107121
144.0,-6.934320117579773e-05
160.0,-0.0001267996267415583
176.0,0.00023153981601353735
192.0,0.00047619169345125556
208.0,0.0009790065232664347
224.0,0.000733915192540735
240.0,0.00043861218728125095
256.0,0.0005908070597797632
288.0,0.0004557860956992954
320.0,0.0004362325125839561
352.0,8.5296924225986e-05
384.0,-7.651928899576887e-05
416.0,-0.00034273735946044326
448.0,-0.0002924474829342216
480.0,-6.866124749649316e-05
512.0,-9.775424405233935e-05
576.0,-1.3919569937570486e-05
640.0,-0.00029332542908377945
704.0,0.00039069814374670386
768.0,0.00017216750711668283
832.0,-0.00014673879195470363
896.0,-0.00022503967920783907
960.0,9.311850590165704e-05
1024.0,0.00025066983653232455
1152.0,-0.00015645509120076895
1280.0,0.0004970920854248106
1408.0,0.0003098469751421362
1536.0,0.00026667339261621237
1664.0,0.0006895007099956274
1792.0,0.00016650331963319331
1920.0,-0.00023712043184787035
2048.0,4.871276905760169e-05
2304.0,-0.0002706752857193351
2560.0,-0.00011679971066769212
2816.0,-5.2617273468058556e-05
3072.0,0.0001398971362505108
3328.0,0.00022775231627747416
3584.0,-0.00018457879195921123
3840.0,0.00014092189667280763
4096.0,-0.00021918969287071377
4608.0,-0.0001868211111286655
5120.0,0.00012725475244224072
5632.0,-0.0002451218315400183
6144.0,-0.00041588739259168506
6656.0,0.00015889837231952697
7168.0,-0.0001679036795394495
7680.0,-0.0005826948909088969
8192.0,0.00012802748824469745
9216.0,-0.00039354333421215415
10240.0,-0.00014487514272332191
11264.0,0.0002497639798093587
12288.0,0.00037463076296262443
13312.0,0.0004383638733997941
14336.0,-7.071848085615784e-05
end
