version,3.0
numOfCh,1
type,point
parent_name,20-cuts
ch_type,1_1
kcount,1
numberNandB,1
brightnessNandB,1
carpet pos,0
pc,0
Time (ms),CH1 Auto-Correlation
1.0,0.016712207347154617
2.0,0.013660759665071964
3.0,0.011594223789870739
4.0,0.01007059309631586
5.0,0.008870264515280724
6.0,0.007781243417412043
7.0,0.007010330446064472
8.0,0.006463190075010061
9.0,0.005954137071967125
10.0,0.005418001674115658
11.0,0.004955138545483351
12.0,0.004570010583847761
13.0,0.004302623216062784
14.0,0.004044190514832735
15.0,0.003843439742922783
16.0,0.0036285510286688805
18.0,0.0034195322077721357
20.0,0.0031357700936496258
22.0,0.0029088042210787535
24.0,0.002951633185148239
26.0,0.0028645400889217854
28.0,0.002679303754121065
30.0,0.002471755724400282
32.0,0.002213031053543091
36.0,0.001915800734423101
40.0,0.0017449555452913046
44.0,0.001795759191736579
48.0,0.0018117388244718313
52.0,0.001848192187026143
56.0,0.0015903543680906296
60.0,0.0012993564596399665
64.0,0.0010397094301879406
72.0,0.0007393135456368327
80.0,0.0009192083962261677
88.0,0.00031554242013953626
96.0,0.00022020083270035684
104.0,0.00041860854253172874
112.0,0.000477899651741609
120.0,0.0005536015378311276
128.0,0.0007441585185006261
144.0,-0.0001175086508737877
160.0,-0.00044182423152960837
176.0,-0.0001754037366481498
192.0,0.00023055414203554392
208.0,-6.957910227356479e-05
224.0,-6.037703496986069e-05
240.0,-0.0002152188535546884
256.0,0.0001898419577628374
288.0,0.00014482662663795054
320.0,0.00018011378415394574
352.0,1.970598350453656e-05
384.0,-8.181655721273273e-05
416.0,-0.0005980196874588728
448.0,-0.00048696037265472114
480.0,-0.000817116117104888
512.0,-0.000149246072396636
576.0,-0.0001620037801330909
640.0,-2.716752169362735e-05
704.0,0.0004333937540650368
768.0,0.0005943271098658442
832.0,-9.12854666239582e-05
896.0,-0.00036125018959864974
960.0,-0.00022293004440143704
1024.0,-0.0004692822112701833
1152.0,-0.00012482910824473947
1280.0,-0.0003355433000251651
1408.0,1.8300617739441805e-05
1536.0,0.0002519162662792951
1664.0,0.00012662737572100013
1792.0,-0.0003239497309550643
1920.0,5.516867167898454e-05
2048.0,-0.0001504691899754107
2304.0,-0.0003622609656304121
2560.0,-0.00014256188296712935
2816.0,-2.3121519916458055e-06
3072.0,3.7222541777737206e-06
3328.0,0.00014517786621581763
3584.0,2.9062766770948656e-05
3840.0,0.0002357578050578013
4096.0,0.0002833557955455035
4608.0,6.354298238875344e-05
5120.0,4.55766094091814e-05
5632.0,-0.00035055860644206405
6144.0,6.0974184634687845e-06
6656.0,-0.00032100314274430275
7168.0,-0.0001831850822782144
7680.0,-0.00011020461533917114
8192.0,0.0001802315382519737
9216.0,-9.409851918462664e-05
10240.0,-0.0001932072191266343
11264.0,7.652746717212722e-05
12288.0,0.0001652395148994401
13312.0,4.481278301682323e-05
14336.0,0.0003748479066416621
end
