version,3.0
numOfCh,1
type,point
parent_name,20-cuts
ch_type,1_1
kcount,1
numberNandB,1
brightnessNandB,1
carpet pos,0
pc,0
Time (ms),CH1 Auto-Correlation
1.0,0.015697399154305458
2.0,0.012850339524447918
3.0,0.010997847653925419
4.0,0.0095490338280797
5.0,0.00837474875152111
6.0,0.007502854336053133
7.0,0.006675410084426403
8.0,0.006024994421750307
9.0,0.0055218893103301525
10.0,0.005038649775087833
11.0,0.004513456951826811
12.0,0.004082392435520887
13.0,0.00374201824888587
14.0,0.003432281780987978
15.0,0.003160142106935382
16.0,0.002990325912833214
18.0,0.0027510146610438824
20.0,0.0023108990862965584
22.0,0.002076925942674279
24.0,0.0018116278806701303
26.0,0.0016052869614213705
28.0,0.0013957435730844736
30.0,0.001172824646346271
32.0,0.0010791176464408636
36.0,0.0011396239278838038
40.0,0.001120608882047236
44.0,0.0012609113473445177
48.0,0.0010642441920936108
52.0,0.0009353668428957462
56.0,0.0007287169573828578
60.0,0.0008182817255146801
64.0,0.0005307135288603604
72.0,0.00028978101909160614
80.0,0.0001813407288864255
88.0,-0.00014507492596749216
96.0,-0.00021579339227173477
104.0,-3.1607787605025806e-06
112.0,0.0001289385254494846
120.0,0.0002635248238220811
128.0,0.00047273567179217935
144.0,-3.578103496693075e-05
160.0,-0.0001651586062507704
176.0,-5.23781927768141e-05
192.0,0.00018047343473881483
208.0,0.0006930688978172839
224.0,0.0005604507168754935
240.0,0.00012000771675957367
256.0,-0.000127471168525517
288.0,-0.00011168437049491331
320.0,0.00027430441696196795
352.0,0.000366161490092054
384.0,0.00017181577277369797
416.0,0.00030740327201783657
448.0,1.1471981451904867e-05
480.0,-0.00014631234807893634
512.0,-0.00011282299237791449
576.0,8.625295595265925e-05
640.0,-0.0003998710890300572
704.0,-0.00019165141566190869
768.0,-0.00013032331480644643
832.0,8.400476508541033e-05
896.0,-8.871813042787835e-05
960.0,0.00016244503785856068
1024.0,1.9677181626320817e-05
1152.0,-0.0002795622276607901
1280.0,7.004761573625728e-05
1408.0,0.0002240088942926377
1536.0,-0.0001671065401751548
1664.0,2.4287370251840912e-05
1792.0,0.00025544798700138927
1920.0,-9.817341924645007e-05
2048.0,-6.708063301630318e-05
2304.0,-3.56526616087649e-05
2560.0,-5.978474655421451e-05
2816.0,-0.000386540632462129
3072.0,-0.00016401514585595578
3328.0,-0.00013779835717286915
3584.0,4.205321965855546e-05
3840.0,0.00015520943270530552
4096.0,-0.00021505748736672103
4608.0,-4.1546452848706394e-05
5120.0,-2.3445186343451496e-06
5632.0,7.225920126074925e-05
6144.0,3.5683631722349674e-05
6656.0,-3.9895938243716955e-05
7168.0,-4.6627850679215044e-05
7680.0,5.2643179515143856e-05
8192.0,-2.1978121367283165e-05
9216.0,0.00020934206258971244
10240.0,0.0001390853722114116
11264.0,-0.00042384478729218245
12288.0,-1.6282967408187687e-05
13312.0,-0.000566681323107332
14336.0,6.763223063899204e-05
end
