version,3.0
numOfCh,1
type,point
parent_name,20-cuts
ch_type,1_1
kcount,1
numberNandB,1
brightnessNandB,1
carpet pos,0
pc,0
Time (ms),CH1 Auto-Correlation
1.0,0.02715238742530346
2.0,0.02223493717610836
3.0,0.018960710614919662
4.0,0.016406415030360222
5.0,0.014296206645667553
6.0,0.012552963569760323
7.0,0.011050388216972351
8.0,0.009981181472539902
9.0,0.009170657955110073
10.0,0.008289122022688389
11.0,0.007428997661918402
12.0,0.006659971550107002
13.0,0.006156017538160086
14.0,0.0058733378536999226
15.0,0.0056710136123001575
16.0,0.0055468445643782616
18.0,0.005251020193099976
20.0,0.004925474524497986
22.0,0.004567691124975681
24.0,0.004160953685641289
26.0,0.004182389471679926
28.0,0.003974393010139465
30.0,0.0037114256992936134
32.0,0.003521922044456005
36.0,0.003004287602379918
40.0,0.0027561048045754433
44.0,0.0026440550573170185
48.0,0.0024995373096317053
52.0,0.0026352782733738422
56.0,0.00239842408336699
60.0,0.002565793925896287
64.0,0.002712476532906294
72.0,0.0022987360134720802
80.0,0.0021779993548989296
88.0,0.0022248427849262953
96.0,0.0020997633691877127
104.0,0.0016147043788805604
112.0,0.0012013324303552508
120.0,0.0004860530898440629
128.0,-1.3662442142958753e-05
144.0,-0.0002519965055398643
160.0,-0.0006433940725401044
176.0,-0.0009601449128240347
192.0,-0.0007187083247117698
208.0,-0.0002678362070582807
224.0,-0.00011767201795009896
240.0,-0.00037728066672571003
256.0,-0.000409618834964931
288.0,-8.450473251286894e-05
320.0,-7.988116703927517e-05
352.0,0.00024903452140279114
384.0,0.0006437507108785212
416.0,0.0005996638210490346
448.0,0.0007580862147733569
480.0,0.0003694042970892042
512.0,0.00030890715424902737
576.0,0.0003177138860337436
640.0,0.0001302907767239958
704.0,0.000727457576431334
768.0,0.00010812690743478015
832.0,0.0003564127837307751
896.0,0.00029549316968768835
960.0,0.0002512966748327017
1024.0,0.0002720376360230148
1152.0,0.000632713723462075
1280.0,0.0003153085708618164
1408.0,-0.0005089255864731967
1536.0,-0.000891088682692498
1664.0,0.00013570378359872848
1792.0,0.00026236617122776806
1920.0,9.749928722158074e-05
2048.0,0.00012330514437053353
2304.0,4.280867869965732e-05
2560.0,0.0002785376273095608
2816.0,0.0007251620409078896
3072.0,7.520570943597704e-05
3328.0,-0.000106488645542413
3584.0,1.479237880630535e-06
3840.0,-0.0005071648629382253
4096.0,0.00017493654740974307
4608.0,-0.00021485866454895586
5120.0,-0.00029490928864106536
5632.0,-0.00035828902036882937
6144.0,-0.00028642031247727573
6656.0,-0.00014528828614857048
7168.0,-7.963083044160157e-05
7680.0,-0.00012470730871427804
8192.0,-5.407526987255551e-05
9216.0,-0.00025183396064676344
10240.0,-0.00028827550704590976
11264.0,0.00024035335809458047
12288.0,-0.0003025476762559265
13312.0,0.00013022631173953414
14336.0,-5.479621177073568e-05
end
