version,3.0
numOfCh,1
type,point
parent_name,20-cuts
ch_type,1_1
kcount,1
numberNandB,1
brightnessNandB,1
carpet pos,0
pc,0
Time (ms),CH1 Auto-Correlation
1.0,0.015856511890888214
2.0,0.012964178808033466
3.0,0.010879331268370152
4.0,0.009416465647518635
5.0,0.008343200199306011
6.0,0.007624934893101454
7.0,0.006993270479142666
8.0,0.006511013023555279
9.0,0.005979321897029877
10.0,0.005489617586135864
11.0,0.00509984977543354
12.0,0.004774162080138922
13.0,0.004562352783977985
14.0,0.004271695390343666
15.0,0.003977376967668533
16.0,0.0036778473295271397
18.0,0.003148369723930955
20.0,0.002798146568238735
22.0,0.0025991778820753098
24.0,0.002471693092957139
26.0,0.0022341159638017416
28.0,0.0020478207152336836
30.0,0.001882481388747692
32.0,0.0017374086892232299
36.0,0.0016007638769224286
40.0,0.0018064037431031466
44.0,0.0019608980510383844
48.0,0.0019308732589706779
52.0,0.0018838628893718123
56.0,0.00161883351393044
60.0,0.0013284067390486598
64.0,0.0009233528980985284
72.0,0.0009212572476826608
80.0,0.001206431188620627
88.0,0.0012050811201334
96.0,0.0010850450489670038
104.0,0.0008953341748565435
112.0,0.0006896904087625444
120.0,0.0007956207264214754
128.0,0.000765338190831244
144.0,0.0006025565089657903
160.0,0.00020829211280215532
176.0,0.00013814780686516315
192.0,8.128643457894213e-06
208.0,-7.026911771390587e-05
224.0,-0.00022935769811738282
240.0,-8.298438478959724e-05
256.0,0.0002280974294990301
288.0,0.00016916592721827328
320.0,0.00010474547161720693
352.0,0.0001863716315710917
384.0,-0.0002575688122306019
416.0,-0.0005609289510175586
448.0,-0.0001279465068364516
480.0,-0.00020480246166698635
512.0,-0.0006309204618446529
576.0,5.714664439437911e-06
640.0,-9.919555304804817e-05
704.0,-0.0002757054171524942
768.0,3.0700364732183516e-05
832.0,-0.0001511587470304221
896.0,0.00025032926350831985
960.0,0.0003794129879679531
1024.0,0.00023217673879116774
1152.0,0.0001859987823991105
1280.0,-0.00041887990664690733
1408.0,-0.0002936856762971729
1536.0,-5.879379023099318e-05
1664.0,0.0003547300002537668
1792.0,0.0005374205065891147
1920.0,0.0005400757072493434
2048.0,0.00010211693734163418
2304.0,0.00025704363361001015
2560.0,-0.0002279228065162897
2816.0,0.0003600374620873481
3072.0,-7.927823753561825e-05
3328.0,0.0003547297674231231
3584.0,8.388621063204482e-05
3840.0,0.00036168115912005305
4096.0,-0.0001469884009566158
4608.0,2.313993354619015e-05
5120.0,5.436943320091814e-05
5632.0,-7.462759094778448e-05
6144.0,-6.23541563982144e-05
6656.0,-2.9371913115028292e-05
7168.0,-0.0001505835825810209
7680.0,-0.00033461709972471
8192.0,-0.00015881551371421665
9216.0,-0.00044911520672030747
10240.0,-5.128530756337568e-05
11264.0,-0.0004802168987225741
12288.0,3.684488183353096e-05
13312.0,-0.00025209138402715325
14336.0,-0.0009753925260156393
end
