version,3.0
numOfCh,1
type,point
parent_name,20-cuts
ch_type,1_1
kcount,1
numberNandB,1
brightnessNandB,1
carpet pos,0
pc,0
Time (ms),CH1 Auto-Correlation
1.0,0.01675126515328884
2.0,0.013824204914271832
3.0,0.01176838856190443
4.0,0.010230558924376965
5.0,0.00904565304517746
6.0,0.008098769932985306
7.0,0.007326809223741293
8.0,0.006771657150238752
9.0,0.0062623959966003895
10.0,0.005792843643575907
11.0,0.005252080969512463
12.0,0.004909397568553686
13.0,0.0044873724691569805
14.0,0.00417686253786087
15.0,0.003955900203436613
16.0,0.003728842828422785
18.0,0.003348447848111391
20.0,0.0031154733151197433
22.0,0.0028580049984157085
24.0,0.0024309817235916853
26.0,0.002205002587288618
28.0,0.001860048738308251
30.0,0.0016025133663788438
32.0,0.001527257147245109
36.0,0.0014799811178818345
40.0,0.001455234712921083
44.0,0.001543275429867208
48.0,0.0013504637172445655
52.0,0.0010763438185676932
56.0,0.0008955852244980633
60.0,0.0008951743366196752
64.0,0.0009221151121892035
72.0,0.0010816100984811783
80.0,0.0009627119288779795
88.0,0.0008866392890922725
96.0,0.00047635860391892493
104.0,0.00025423255283385515
112.0,3.829990964732133e-05
120.0,-0.00013106720871292055
128.0,-0.00011198453285032883
144.0,0.00016404780035372823
160.0,3.353781266923761e-06
176.0,0.00034235414932481945
192.0,0.0001492170267738402
208.0,0.00036290791467763484
224.0,-0.00013989269791636616
240.0,-0.00023254008556250483
256.0,0.00040612422162666917
288.0,-7.087490666890517e-05
320.0,-0.0004224516451358795
352.0,5.9019410400651395e-05
384.0,-0.00021079798170831054
416.0,-0.0002041639236267656
448.0,-0.00011979456758126616
480.0,-0.0004125250270590186
512.0,3.547365122358315e-05
576.0,-0.0004683678853325546
640.0,-3.693537109938916e-06
704.0,-0.0003362419956829399
768.0,-0.00015743383846711367
832.0,-0.0003838669799733907
896.0,6.402239523595199e-05
960.0,0.0001354371488559991
1024.0,0.00018494928372092545
1152.0,-0.00018251154688186944
1280.0,7.579676457680762e-05
1408.0,7.600444223498926e-05
1536.0,2.3033249817672186e-05
1664.0,0.00025533195002935827
1792.0,0.00010725262836785987
1920.0,-0.00018857042596209794
2048.0,-0.00025903567438945174
2304.0,-0.00033733551390469074
2560.0,0.00022604817058891058
2816.0,5.859313387190923e-05
3072.0,0.00023476849310100079
3328.0,-0.00013535766629502177
3584.0,0.00026060748496092856
3840.0,-1.025818710331805e-05
4096.0,-0.0003029737272299826
4608.0,-0.00026170778437517583
5120.0,0.00013636214134749025
5632.0,0.00027691706782206893
6144.0,-9.403041622135788e-05
6656.0,-8.188684296328574e-05
7168.0,0.00021363628911785781
7680.0,-0.00019821341265924275
8192.0,-0.00012275502376724035
9216.0,-3.2233656384050846e-05
10240.0,-0.00011291793634882197
11264.0,-7.703902520006523e-05
12288.0,-1.6847936421982013e-05
13312.0,-0.00014136721438262612
14336.0,-0.000281626038486138
end
