version,3.0
numOfCh,1
type,point
parent_name,20-cuts
ch_type,1_1
kcount,1
numberNandB,1
brightnessNandB,1
carpet pos,0
pc,0
Time (ms),CH1 Auto-Correlation
1.0,0.016190093010663986
2.0,0.013223322108387947
3.0,0.011075712740421295
4.0,0.009502196684479713
5.0,0.008294784463942051
6.0,0.007416698150336742
7.0,0.006639400962740183
8.0,0.006029909010976553
9.0,0.005451409611850977
10.0,0.005088981706649065
11.0,0.0048549179919064045
12.0,0.004624171182513237
13.0,0.004405430983752012
14.0,0.004123546648770571
15.0,0.0038619707338511944
16.0,0.0035994448699057102
18.0,0.003228788496926427
20.0,0.0028260033577680588
22.0,0.0026130820624530315
24.0,0.0023099391255527735
26.0,0.0020593255758285522
28.0,0.0019404094200581312
30.0,0.0018633123254403472
32.0,0.0017403537640348077
36.0,0.001916991313919425
40.0,0.0017931258771568537
44.0,0.0012226728722453117
48.0,0.0010322417365387082
52.0,0.0010327984346076846
56.0,0.0008109391783364117
60.0,0.0005360746872611344
64.0,0.0003795711963903159
72.0,0.0003045249613933265
80.0,0.00047027613618411124
88.0,0.0002675711293704808
96.0,0.0003687108401209116
104.0,0.0005602473393082619
112.0,0.00021411466877907515
120.0,8.672306285006925e-05
128.0,0.00022568069107364863
144.0,0.00016998342471197248
160.0,-0.00041852021240629256
176.0,-0.0003923564509022981
192.0,-0.0005159270367585123
208.0,-0.0003934085834771395
224.0,-0.0004923582309857011
240.0,-0.0007799862651154399
256.0,-0.0005449041491374373
288.0,0.00028092501452192664
320.0,0.0007370861130766571
352.0,0.00026405570679344237
384.0,-4.758780778502114e-05
416.0,0.00013214503997005522
448.0,-0.00027398543898016214
480.0,-6.317203951766714e-05
512.0,0.00011831471783807501
576.0,-0.0003707456635311246
640.0,4.973303293809295e-05
704.0,-0.00012072810204699636
768.0,-0.0005591860390268266
832.0,-0.00048355176113545895
896.0,-0.0003170656564179808
960.0,0.00017079264216590673
1024.0,0.0007991993916220963
1152.0,0.00030559615697711706
1280.0,-0.00038886506808921695
1408.0,-0.00016531921573914587
1536.0,-0.0002555744140408933
1664.0,-0.00022200313105713576
1792.0,0.00011998770787613466
1920.0,-3.482628017081879e-05
2048.0,0.00010527221456868574
2304.0,0.0003057156573049724
2560.0,-6.869822391308844e-05
2816.0,0.00010138560901395977
3072.0,-4.0125654777511954e-05
3328.0,0.00023276406864169985
3584.0,-0.0002502257702872157
3840.0,-0.0001567737926961854
4096.0,-0.00011738025932572782
4608.0,8.484935847263841e-07
5120.0,1.9706724287971156e-06
5632.0,0.00023688084911555052
6144.0,-1.8943483155453578e-05
6656.0,-8.13842925708741e-05
7168.0,-0.00013984534598421305
7680.0,-0.0002653048140928149
8192.0,0.0002548284246586263
9216.0,1.625919685466215e-05
10240.0,-0.00017702225886750966
11264.0,8.299042383441702e-05
12288.0,-0.00010549731814535335
13312.0,-0.00012754758063238114
14336.0,1.3476595995598473e-05
end
