version,3.0
numOfCh,1
type,point
parent_name,20-cuts
ch_type,1_1
kcount,1
numberNandB,1
brightnessNandB,1
carpet pos,0
pc,0
Time (ms),CH1 Auto-Correlation
1.0,0.015815777704119682
2.0,0.012922044843435287
3.0,0.010952070355415344
4.0,0.00940348394215107
5.0,0.008332467637956142
6.0,0.007385819219052792
7.0,0.006562790833413601
8.0,0.005989090073853731
9.0,0.005439207889139652
10.0,0.004953531548380852
11.0,0.004547536373138428
12.0,0.004316853825002909
13.0,0.004070577211678028
14.0,0.003866872051730752
15.0,0.003664783202111721
16.0,0.003468112787231803
18.0,0.0030226444359868765
20.0,0.0026641550939530134
22.0,0.0024702842347323895
24.0,0.0022550499998033047
26.0,0.0020017512142658234
28.0,0.0016936847241595387
30.0,0.001500383485108614
32.0,0.0012453229865059257
36.0,0.0008117519901134074
40.0,0.0007846494554542005
44.0,0.0007077187183313072
48.0,0.0006052613607607782
52.0,0.0006283724796958268
56.0,0.00056013761786744
60.0,0.0002549889322835952
64.0,8.04464434622787e-05
72.0,5.0138951337430626e-05
80.0,0.0002550797944422811
88.0,0.00021325275884009898
96.0,-0.00016524287639185786
104.0,-0.00041613835492171347
112.0,-0.00030672174762003124
120.0,-0.00011772224388550967
128.0,-0.0002564721507951617
144.0,-2.164124271075707e-05
160.0,0.00022504021762870252
176.0,0.0005609440850093961
192.0,9.620069613447413e-05
208.0,-4.7843775973888114e-05
224.0,-0.00025289200129918754
240.0,-0.00027890157070942223
256.0,-0.0003938073059543967
288.0,-4.025379894301295e-05
320.0,-4.117760181543417e-05
352.0,0.0002998552517965436
384.0,0.0003890709485858679
416.0,0.00012520274322014302
448.0,1.3503437912731897e-05
480.0,0.00033933264785446227
512.0,3.34799406118691e-05
576.0,-0.000778716872446239
640.0,-0.00021265352552291006
704.0,0.00015983132470864803
768.0,-0.0003316102083772421
832.0,-0.00011951840133406222
896.0,5.108510595164262e-05
960.0,0.00017694328562356532
1024.0,0.00034301364212296903
1152.0,0.00015340137179009616
1280.0,-0.00016116940241772681
1408.0,0.00028121453942731023
1536.0,7.143424591049552e-05
1664.0,-0.00030262459767982364
1792.0,-4.480754432734102e-05
1920.0,-0.0001497061748523265
2048.0,-0.0001002746939775534
2304.0,0.00018128003284800798
2560.0,0.00029998726677149534
2816.0,-0.00018142207409255207
3072.0,-0.0002742854121606797
3328.0,-9.48312008404173e-05
3584.0,0.00014532450586557388
3840.0,4.630712282960303e-05
4096.0,-0.00034465081989765167
4608.0,-6.258215307752835e-06
5120.0,0.00013301309081725776
5632.0,2.6257406716467813e-05
6144.0,3.511047179927118e-05
6656.0,-2.7026355382986367e-05
7168.0,-0.00011315026495140046
7680.0,-4.831767364521511e-05
8192.0,-9.005743049783632e-05
9216.0,3.2282081519952044e-05
10240.0,2.284026595589239e-05
11264.0,-5.944324948359281e-05
12288.0,-0.0002467340382281691
13312.0,-0.0002263924980070442
14336.0,-9.667311132943723e-06
end
