version,3.0
numOfCh,1
type,point
parent_name,20-cuts
ch_type,1_1
kcount,1
numberNandB,1
brightnessNandB,1
carpet pos,0
pc,0
Time (ms),CH1 Auto-Correlation
1.0,0.02593551017343998
2.0,0.02100510522723198
3.0,0.017727596685290337
4.0,0.015272600576281548
5.0,0.013373423367738724
6.0,0.011824154295027256
7.0,0.010507040657103062
8.0,0.009568372741341591
9.0,0.00873871985822916
10.0,0.008174952119588852
11.0,0.007815379649400711
12.0,0.007351431995630264
13.0,0.0068542081862688065
14.0,0.006457273382693529
15.0,0.006046828348189592
16.0,0.005608682055026293
18.0,0.004994574468582869
20.0,0.004319837316870689
22.0,0.0037798392586410046
24.0,0.0036021212581545115
26.0,0.0035701338201761246
28.0,0.003424100810661912
30.0,0.0030991181265562773
32.0,0.002616716781631112
36.0,0.0024078949354588985
40.0,0.0020043423864990473
44.0,0.001464423956349492
48.0,0.0014262908371165395
52.0,0.001570342923514545
56.0,0.0017057658405974507
60.0,0.001492273062467575
64.0,0.0011051519541069865
72.0,0.0007417513988912106
80.0,0.0011815517209470272
88.0,0.0012857348192483187
96.0,0.0008781389333307743
104.0,0.0005811401060782373
112.0,0.00010580744128674269
120.0,9.16190110729076e-05
128.0,0.0005114224040880799
144.0,0.0007321935263462365
160.0,0.0004506171972025186
176.0,0.00037010974483564496
192.0,0.000682312820572406
208.0,0.0001315328263444826
224.0,-2.9094115234329365e-05
240.0,0.0003856111434288323
256.0,-0.0004877321480307728
288.0,-8.10368510428816e-06
320.0,0.00030122409225441515
352.0,0.00016572345339227468
384.0,-0.0005749714910052717
416.0,-0.0006328767049126327
448.0,-0.00032684020698070526
480.0,0.00018044283206108958
512.0,-0.00029099787934683263
576.0,0.0007178685045801103
640.0,0.0005200945306569338
704.0,0.0005064386641606688
768.0,-0.0006029978976584971
832.0,-0.0003950346726924181
896.0,-7.351386699383511e-08
960.0,-0.0007402280461974442
1024.0,0.0002947117027360946
1152.0,-0.00025551096769049764
1280.0,1.3224893336882815e-05
1408.0,-0.00038538413355126977
1536.0,-0.00022169553267303854
1664.0,0.00010890992416534573
1792.0,5.70930842513917e-06
1920.0,-0.00017706822836771607
2048.0,-7.48972815927118e-05
2304.0,0.0002278315951116383
2560.0,-0.00011743698996724561
2816.0,-0.00021024528541602194
3072.0,-0.00019194750348106027
3328.0,-8.94500408321619e-05
3584.0,-0.00014329641999211162
3840.0,5.152331505087204e-05
4096.0,0.0002740515337791294
4608.0,-9.12917239475064e-05
5120.0,0.0001440507621737197
5632.0,4.656288729165681e-05
6144.0,-0.00043395059765316546
6656.0,-0.00026450661243870854
7168.0,-0.00015446619363501668
7680.0,-0.00017721056065056473
8192.0,5.573337693931535e-05
9216.0,-0.00013983533426653594
10240.0,-0.00014545908197760582
11264.0,6.790844781789929e-05
12288.0,3.1232000765157863e-05
13312.0,0.00024056706752162427
14336.0,-2.4451071567455074e-06
end
