version,3.0
numOfCh,1
type,point
parent_name,20-cuts
ch_type,1_1
kcount,1
numberNandB,1
brightnessNandB,1
carpet pos,0
pc,0
Time (ms),CH1 Auto-Correlation
1.0,0.01734369620680809
2.0,0.014371276833117008
3.0,0.012210845947265625
4.0,0.010673096403479576
5.0,0.00944596715271473
6.0,0.00853950995951891
7.0,0.007789473980665207
8.0,0.007238102611154318
9.0,0.0066891880705952644
10.0,0.00620147492736578
11.0,0.005667737685143948
12.0,0.005227833986282349
13.0,0.0048886495642364025
14.0,0.0046784658916294575
15.0,0.004337369929999113
16.0,0.003974433057010174
18.0,0.0035781257320195436
20.0,0.003179531544446945
22.0,0.002901339903473854
24.0,0.0026694058906286955
26.0,0.002392425434663892
28.0,0.002108745276927948
30.0,0.0019770022481679916
32.0,0.0017384681850671768
36.0,0.0015434569213539362
40.0,0.0015202622162178159
44.0,0.0015303510008379817
48.0,0.0014981067506596446
52.0,0.001301343785598874
56.0,0.0013035525334998965
60.0,0.0012965361820533872
64.0,0.0010076268808916211
72.0,0.00035556138027459383
80.0,-9.922953722707462e-06
88.0,-0.00010753994865808636
96.0,-0.00039243398350663483
104.0,-0.00032384786754846573
112.0,-0.00045306800166144967
120.0,-0.0005268064560368657
128.0,-0.0011956932721659541
144.0,-0.0007170898024924099
160.0,-0.00047254894161596894
176.0,-6.476127600762993e-05
192.0,-0.0003707431606017053
208.0,-0.0001741282903822139
224.0,0.00034684932325035334
240.0,0.00034778949338942766
256.0,0.0004456158203538507
288.0,0.0003350705374032259
320.0,8.103609434328973e-05
352.0,8.989759226096794e-05
384.0,0.0001678624248597771
416.0,1.9859995518345386e-05
448.0,-0.0001320244191447273
480.0,-0.0005935727385804057
512.0,-0.0007954962784424424
576.0,-0.0001532330788904801
640.0,0.00023685535416007042
704.0,0.00010131831368198618
768.0,0.00028481477056629956
832.0,-5.440436507342383e-05
896.0,-0.0007763058529235423
960.0,-7.690310303587466e-05
1024.0,0.00024952826788648963
1152.0,9.33039773372002e-05
1280.0,-0.00015641942445654422
1408.0,0.0002891537733376026
1536.0,-0.00014715068391524255
1664.0,-0.00027869699988514185
1792.0,3.9190232200780883e-05
1920.0,-5.561616490012966e-05
2048.0,-0.0001710837532300502
2304.0,-0.0002094779774779454
2560.0,0.00017433403991162777
2816.0,0.0002683564380276948
3072.0,0.00019350260845385492
3328.0,-0.00031487696105614305
3584.0,-3.157759056193754e-05
3840.0,0.0001478591002523899
4096.0,4.8399386287201196e-05
4608.0,-0.0002905211877077818
5120.0,-5.966376920696348e-05
5632.0,-8.605587936472148e-06
6144.0,-0.00012522510951384902
6656.0,-0.00013763531751465052
7168.0,8.845616321195848e-06
7680.0,-0.00020535594376269728
8192.0,0.00033649831311777234
9216.0,3.860760625684634e-05
10240.0,-4.580087625072338e-05
11264.0,9.789084288058802e-05
12288.0,2.560416942287702e-05
13312.0,-0.0001813938724808395
14336.0,6.708236469421536e-05
end
