version,3.0
numOfCh,1
type,point
parent_name,20-cuts
ch_type,1_1
kcount,1
numberNandB,1
brightnessNandB,1
carpet pos,0
pc,0
Time (ms),CH1 Auto-Correlation
1.0,0.028574680909514427
2.0,0.023693548515439034
3.0,0.020106691867113113
4.0,0.017323926091194153
5.0,0.01515012327581644
6.0,0.013316736556589603
7.0,0.011963917873799801
8.0,0.010927507653832436
9.0,0.01013413816690445
10.0,0.009405259042978287
11.0,0.008856753818690777
12.0,0.008249828591942787
13.0,0.00782744586467743
14.0,0.007287963293492794
15.0,0.006951064802706242
16.0,0.006573153659701347
18.0,0.005948238540440798
20.0,0.00545045780017972
22.0,0.005009088199585676
24.0,0.004490722436457872
26.0,0.004091007634997368
28.0,0.003859182819724083
30.0,0.003817342920228839
32.0,0.0037884193006902933
36.0,0.003747135866433382
40.0,0.003465805435553193
44.0,0.0027699433267116547
48.0,0.0026044384576380253
52.0,0.002291028155013919
56.0,0.002010306343436241
60.0,0.002229863777756691
64.0,0.0020381782669574022
72.0,0.0018944538896903396
80.0,0.0025348232593387365
88.0,0.002075144089758396
96.0,0.0024862654972821474
104.0,0.0013651917688548565
112.0,0.0007615361246280372
120.0,0.0008080011466518044
128.0,0.0008705598884262145
144.0,0.0007472928264178336
160.0,0.0007508413982577622
176.0,0.0004725404141936451
192.0,-0.00011413624451961368
208.0,-0.0002701726625673473
224.0,0.00013017097080592066
240.0,-3.5945133731729584e-06
256.0,-0.00029880620422773063
288.0,0.00012996033183299005
320.0,0.00038535933708772063
352.0,-0.0001265861646970734
384.0,0.000871347903739661
416.0,0.0007553428877145052
448.0,0.0002499126421753317
480.0,0.0005470477626658976
512.0,0.0004983065300621092
576.0,0.00028442710754461586
640.0,0.00020610250066965818
704.0,0.0002794030588120222
768.0,-6.479300645878538e-05
832.0,-0.0002132471272489056
896.0,-5.232778676145244e-06
960.0,0.0006273893523029983
1024.0,-0.0005067082238383591
1152.0,-0.00018237002950627357
1280.0,0.00023228948703035712
1408.0,0.00024034935631789267
1536.0,8.79091676324606e-05
1664.0,-0.0003662336093839258
1792.0,-0.0005701156915165484
1920.0,0.0006579338805750012
2048.0,0.00020870869047939777
2304.0,1.9034101569559425e-05
2560.0,0.0005983568844385445
2816.0,0.00036948142223991454
3072.0,-8.935787627706304e-05
3328.0,-0.00034172239247709513
3584.0,-0.0003483410691842437
3840.0,-0.00017901953833643347
4096.0,-0.00018761651881504804
4608.0,0.00012142720515839756
5120.0,3.0178212909959257e-05
5632.0,-0.0004344513872638345
6144.0,-0.0004178892122581601
6656.0,-0.00016777370183262974
7168.0,0.0002236199943581596
7680.0,-0.00010183524864260107
8192.0,-0.0003917938156519085
9216.0,-0.0005312570137903094
10240.0,-0.00039979329449124634
11264.0,-1.0906648640229832e-05
12288.0,0.00014568261394742876
13312.0,-0.0014032515464350581
14336.0,0.0008593294187448919
end
