version,3.0
numOfCh,1
type,point
parent_name,20-cuts
ch_type,1_1
kcount,1
numberNandB,1
brightnessNandB,1
carpet pos,0
pc,0
Time (ms),CH1 Auto-Correlation
1.0,0.0159623846411705
2.0,0.01290372759103775
3.0,0.010744648054242134
4.0,0.009259134531021118
5.0,0.00809692032635212
6.0,0.007240445353090763
7.0,0.006494501139968634
8.0,0.005847396794706583
9.0,0.005301645491272211
10.0,0.004881329368799925
11.0,0.00455497158691287
12.0,0.004192249849438667
13.0,0.003890613093972206
14.0,0.003664313117042184
15.0,0.003541079116985202
16.0,0.003543298691511154
18.0,0.0031239439267665148
20.0,0.002765519544482231
22.0,0.002494256477802992
24.0,0.0022264595609158278
26.0,0.0019080768106505275
28.0,0.0018148628296330571
30.0,0.0018474614480510354
32.0,0.001767472131177783
36.0,0.0014600411523133516
40.0,0.0012344906572252512
44.0,0.0012069949880242348
48.0,0.0010503304656594992
52.0,0.0006122779450379312
56.0,0.000563083216547966
60.0,0.0004601568798534572
64.0,0.0003500512975733727
72.0,0.000136957794893533
80.0,-3.2477608328917995e-05
88.0,-0.00016688572941347957
96.0,-0.00013549838331528008
104.0,-8.249364327639341e-05
112.0,0.00023324899666476995
120.0,0.00016739087004680187
128.0,-9.325525752501562e-05
144.0,0.0001846191007643938
160.0,0.00019039641483686864
176.0,0.0002042019332293421
192.0,4.1396251617698e-06
208.0,-0.00018346280558034778
224.0,1.8649521734914742e-05
240.0,0.000131186461658217
256.0,0.00010146173735847697
288.0,4.355154305812903e-05
320.0,9.954990673577413e-05
352.0,-9.412920189788565e-05
384.0,0.00043460738379508257
416.0,0.00021517384448088706
448.0,-0.0001967345451703295
480.0,-0.00027826643781736493
512.0,-5.1816059567499906e-05
576.0,0.00035358063178136945
640.0,0.0003124455106444657
704.0,0.0002671311958692968
768.0,0.0005713243735954165
832.0,0.000503610004670918
896.0,0.0001755496923578903
960.0,0.00024680537171661854
1024.0,3.491394090815447e-05
1152.0,3.798968100454658e-05
1280.0,0.0004283682501409203
1408.0,0.00011167644697707146
1536.0,0.00030150229576975107
1664.0,0.0002940570702776313
1792.0,0.00026019199867732823
1920.0,0.00031452931580133736
2048.0,9.183306974591687e-05
2304.0,0.00011694157728925347
2560.0,0.00012025475007249042
2816.0,-0.00016784624313004315
3072.0,4.136142888455652e-05
3328.0,8.257372246589512e-05
3584.0,-0.0001151230389950797
3840.0,-0.00025296787498518825
4096.0,-0.0002362809464102611
4608.0,-0.0002118507691193372
5120.0,-0.0002388960710959509
5632.0,-0.00024810575996525586
6144.0,-0.0002774852910079062
6656.0,8.551436621928588e-05
7168.0,-0.0003493491967674345
7680.0,-6.507248326670378e-05
8192.0,-2.9558739697677083e-05
9216.0,6.220087925612461e-06
10240.0,-2.5908477255143225e-05
11264.0,-8.385595720028505e-05
12288.0,5.0808997912099585e-05
13312.0,1.7157844922621734e-05
14336.0,-0.00015165150398388505
end
