version,3.0
numOfCh,1
type,point
parent_name,20-cuts
ch_type,1_1
kcount,1
numberNandB,1
brightnessNandB,1
carpet pos,0
pc,0
Time (ms),CH1 Auto-Correlation
1.0,0.01615360751748085
2.0,0.013354851864278316
3.0,0.011412117630243301
4.0,0.00987588707357645
5.0,0.008770043961703777
6.0,0.007868281565606594
7.0,0.007157051935791969
8.0,0.006514036096632481
9.0,0.005921105854213238
10.0,0.005499311722815037
11.0,0.005203824955970049
12.0,0.004875574726611376
13.0,0.00463742995634675
14.0,0.0045243799686431885
15.0,0.004417266696691513
16.0,0.004325860179960728
18.0,0.003984197974205017
20.0,0.003726899391040206
22.0,0.0034164392855018377
24.0,0.003277821699157357
26.0,0.0033321387600153685
28.0,0.0032742575276643038
30.0,0.00324179045855999
32.0,0.0029330523684620857
36.0,0.0026053155306726694
40.0,0.002238815650343895
44.0,0.0017649814253672957
48.0,0.0014724822249263525
52.0,0.0015446317847818136
56.0,0.0015196241438388824
60.0,0.001310605090111494
64.0,0.001188353868201375
72.0,0.0011309667024761438
80.0,0.0008855733904056251
88.0,0.0007480105268768966
96.0,0.0006478027789853513
104.0,0.0008242511539719999
112.0,0.0008309772820211947
120.0,0.0005588310305029154
128.0,8.137236727634445e-05
144.0,-3.178412498527905e-06
160.0,5.402559327194467e-05
176.0,-0.00016770507500041276
192.0,4.863530648435699e-06
208.0,0.0003970607358496636
224.0,0.0007907827966846526
240.0,0.0007334838155657053
256.0,0.0009239019127562642
288.0,0.0009801308624446392
320.0,0.0006475403206422925
352.0,0.0008752528228797019
384.0,0.0008110797498375177
416.0,0.0003801627899520099
448.0,0.00032469251891598105
480.0,0.00024720627698116004
512.0,-3.3491276553831995e-05
576.0,2.22807520913193e-05
640.0,-0.00010814843699336052
704.0,0.00019993768364656717
768.0,0.0006293965852819383
832.0,0.0007181821274571121
896.0,0.00044303806498646736
960.0,0.0008755133603699505
1024.0,0.000521068403031677
1152.0,0.0002349247079109773
1280.0,0.0004237043031025678
1408.0,0.0001289229840040207
1536.0,-0.000288934912532568
1664.0,-0.00022144561808090657
1792.0,0.00016677698295097798
1920.0,-0.00042907564784400165
2048.0,0.0001956914202310145
2304.0,-0.0002116905670845881
2560.0,7.590364111820236e-05
2816.0,5.503064312506467e-05
3072.0,-0.00014773386646993458
3328.0,-5.088507168693468e-05
3584.0,-0.00022253931092564017
3840.0,0.00046084332279860973
4096.0,-1.3562225831265096e-05
4608.0,2.441030301270075e-05
5120.0,0.0004566272837109864
5632.0,-0.00014756439486518502
6144.0,-0.00024392113846261054
6656.0,-0.0002804553369060159
7168.0,-0.0007953550084494054
7680.0,-0.00029886499396525323
8192.0,-0.0006364035652950406
9216.0,-0.00020525830041151494
10240.0,-0.0002983548620250076
11264.0,-0.0001345565397059545
12288.0,-0.00029129633912816644
13312.0,-6.700168887618929e-05
14336.0,0.0005110438214614987
end
