version,3.0
numOfCh,1
type,point
parent_name,20-cuts
ch_type,1_1
kcount,1
numberNandB,1
brightnessNandB,1
carpet pos,0
pc,0
Time (ms),CH1 Auto-Correlation
1.0,0.025256136432290077
2.0,0.020540308207273483
3.0,0.017199626192450523
4.0,0.014704023487865925
5.0,0.01295353565365076
6.0,0.01148703321814537
7.0,0.010185669176280499
8.0,0.00905870646238327
9.0,0.007968354970216751
10.0,0.0074311718344688416
11.0,0.006889269687235355
12.0,0.006483341567218304
13.0,0.006199809722602367
14.0,0.005718379747122526
15.0,0.005346569232642651
16.0,0.005235063843429089
18.0,0.005049858707934618
20.0,0.004652775824069977
22.0,0.0044258651323616505
24.0,0.004100718069821596
26.0,0.0036835097707808018
28.0,0.0033528509084135294
30.0,0.0029640616849064827
32.0,0.002451535314321518
36.0,0.0023338538594543934
40.0,0.00227171927690506
44.0,0.0017993770306929946
48.0,0.0013531006406992674
52.0,0.0012968187220394611
56.0,0.0011288708774372935
60.0,0.0012356871739029884
64.0,0.001077116932719946
72.0,0.0008598986314609647
80.0,0.00034286000300198793
88.0,5.217571742832661e-05
96.0,0.00014590048522222787
104.0,-0.00011554910452105105
112.0,-0.0006397616816684604
120.0,-0.0006580467452295125
128.0,-0.00017155912064481527
144.0,-0.00020108342869207263
160.0,6.819929694756866e-05
176.0,-0.0004544938856270164
192.0,-0.0005784068489447236
208.0,-0.0004803508927579969
224.0,-0.000519143941346556
240.0,-0.00041495883488096297
256.0,-0.000511286489199847
288.0,0.00021791059407405555
320.0,-0.0005609201034530997
352.0,-0.0001430419069947675
384.0,-0.0007260899874381721
416.0,4.0951636037789285e-05
448.0,0.0006570558762177825
480.0,0.0002772181760519743
512.0,0.00023736516595818102
576.0,0.000755834043957293
640.0,-0.0008104229927994311
704.0,-0.00019941364007536322
768.0,0.00010464710067026317
832.0,0.00025220573297701776
896.0,0.00011954733054153621
960.0,-0.0003717272193171084
1024.0,-9.058598516276106e-05
1152.0,-0.0003656615153886378
1280.0,-0.00023086096916813403
1408.0,0.0007204811554402113
1536.0,-0.00031422587926499546
1664.0,-0.0003663655079435557
1792.0,0.00024490561918355525
1920.0,0.0006843373994342983
2048.0,0.00014541200653184205
2304.0,-0.000180410424945876
2560.0,-0.00010265059245284647
2816.0,2.6784486180986278e-05
3072.0,0.0003175794263370335
3328.0,0.00010892251157201827
3584.0,-0.00024331151507794857
3840.0,-0.000198361900402233
4096.0,-0.00020614605455193669
4608.0,-0.000159013201482594
5120.0,0.00036608229856938124
5632.0,-0.00021251510770525783
6144.0,0.00017207681958097965
6656.0,4.9617028707871214e-05
7168.0,-0.00010693352669477463
7680.0,-0.00027929586940445006
8192.0,0.0003420743450988084
9216.0,-0.00020269915694370866
10240.0,-9.847527508100029e-06
11264.0,0.00037472290568985045
12288.0,-0.00031543514342047274
13312.0,-5.7754514273256063e-05
14336.0,-0.00040009740041568875
end
