version,3.0
numOfCh,1
type,point
parent_name,20-cuts
ch_type,1_1
kcount,1
numberNandB,1
brightnessNandB,1
carpet pos,0
pc,0
Time (ms),CH1 Auto-Correlation
1.0,0.028034811839461327
2.0,0.023025216534733772
3.0,0.019550811499357224
4.0,0.0170301366597414
5.0,0.015023342333734035
6.0,0.013426247984170914
7.0,0.012314198538661003
8.0,0.01122770830988884
9.0,0.010204744525253773
10.0,0.009305546060204506
11.0,0.00839854683727026
12.0,0.007583190221339464
13.0,0.006793214473873377
14.0,0.006290304008871317
15.0,0.005884150043129921
16.0,0.005502661690115929
18.0,0.004811175633221865
20.0,0.0038662333972752094
22.0,0.0030479792039841413
24.0,0.0026819424238055944
26.0,0.0023931481409817934
28.0,0.002061137231066823
30.0,0.00192221999168396
32.0,0.0018411038909107447
36.0,0.0019131884910166264
40.0,0.001850462518632412
44.0,0.0015356849180534482
48.0,0.0016356854466721416
52.0,0.0019026156514883041
56.0,0.0017581264255568385
60.0,0.0015626645181328058
64.0,0.0012959801824763417
72.0,0.00026927501312457025
80.0,-0.00011569249181775376
88.0,-0.0006242018425837159
96.0,-0.0008690560352988541
104.0,-0.0009084129123948514
112.0,-0.0007639493560418487
120.0,-0.0006056648562662303
128.0,-0.001073541003279388
144.0,-0.0010791829554364085
160.0,-0.0017670399975031614
176.0,-0.0017036913195624948
192.0,-0.0009141277405433357
208.0,0.0009259551879949868
224.0,0.0003027747734449804
240.0,0.0002953313523903489
256.0,0.0011166867334395647
288.0,0.0003498609585221857
320.0,0.00031797937117516994
352.0,-0.0002730728592723608
384.0,-0.0007949093705974519
416.0,4.662481660488993e-05
448.0,-0.0006774213979952037
480.0,-0.0015637179603800178
512.0,-0.0005364440730772913
576.0,0.00025093182921409607
640.0,0.00026633040397427976
704.0,-0.0008474973728880286
768.0,-0.0008435219060629606
832.0,-0.00030964583856984973
896.0,-0.0004908330738544464
960.0,0.0002246620861114934
1024.0,0.0003518752346280962
1152.0,0.00026358672766946256
1280.0,7.767389615764841e-05
1408.0,-3.4943350328831e-05
1536.0,0.00019235168292652816
1664.0,-0.00017034125630743802
1792.0,-0.0005791389849036932
1920.0,-0.0004484324308577925
2048.0,-0.00019387710199225694
2304.0,0.00036216096486896276
2560.0,-0.0002691990521270782
2816.0,-1.042333906298154e-06
3072.0,0.00015557622828055173
3328.0,0.0005710978293791413
3584.0,-1.532877104182262e-05
3840.0,7.450151315424591e-05
4096.0,-0.0006470312946476042
4608.0,7.80274931457825e-05
5120.0,8.955388329923153e-05
5632.0,-1.2462986887840088e-05
6144.0,-0.000492401362862438
6656.0,0.0007297774427570403
7168.0,-0.000474682281492278
7680.0,-0.00015790804172866046
8192.0,0.0003073166881222278
9216.0,-8.031052129808813e-05
10240.0,6.4348969317507e-05
11264.0,-6.010016659274697e-05
12288.0,-9.885563486022875e-05
13312.0,0.00037687981966882944
14336.0,-0.000265800510533154
end
