version,3.0
numOfCh,1
type,point
parent_name,20-cuts
ch_type,1_1
kcount,1
numberNandB,1
brightnessNandB,1
carpet pos,0
pc,0
Time (ms),CH1 Auto-Correlation
1.0,0.016482442617416382
2.0,0.01359589397907257
3.0,0.011560682207345963
4.0,0.010114560835063457
5.0,0.008915371261537075
6.0,0.008041977882385254
7.0,0.007401152979582548
8.0,0.006804465316236019
9.0,0.006252971477806568
10.0,0.005776561331003904
11.0,0.005367474164813757
12.0,0.005079695023596287
13.0,0.004827479831874371
14.0,0.0044653876684606075
15.0,0.004124850034713745
16.0,0.003981026820838451
18.0,0.0036050027702003717
20.0,0.0033022782299667597
22.0,0.003215009579434991
24.0,0.0030249946285039186
26.0,0.0027012855280190706
28.0,0.0023900780361145735
30.0,0.0021610346157103777
32.0,0.0020393081940710545
36.0,0.001707028248347342
40.0,0.00148333003744483
44.0,0.001366492360830307
48.0,0.0011588885681703687
52.0,0.0012005969183519483
56.0,0.0011080930707976222
60.0,0.001014922745525837
64.0,0.0008517014211975038
72.0,0.0012070401571691036
80.0,0.0012269114376977086
88.0,0.0008015381754375994
96.0,0.000986582599580288
104.0,0.0005951795028522611
112.0,-1.8321892639505677e-05
120.0,0.00023711525136604905
128.0,0.0002539795823395252
144.0,-5.0603099225554615e-05
160.0,0.00020031216263305396
176.0,0.0007017781026661396
192.0,0.0006799075636081398
208.0,0.00043391657527536154
224.0,-2.5762043151189573e-05
240.0,-0.00039047712925821543
256.0,-7.961431037983857e-06
288.0,7.361420284723863e-05
320.0,7.719214772805572e-05
352.0,-3.950914049255516e-07
384.0,0.00015702075324952602
416.0,-0.00019222160335630178
448.0,-0.00037098521715961397
480.0,5.8096309658139944e-05
512.0,0.00024307629792019725
576.0,0.00020804035011678934
640.0,0.0004363383341114968
704.0,-0.00024224288063123822
768.0,-0.00010939589265035465
832.0,-0.00040151760913431644
896.0,-0.00023043100372888148
960.0,-0.0003521353646647185
1024.0,0.00016462814528495073
1152.0,9.585902444086969e-05
1280.0,5.097622124594636e-05
1408.0,-0.0004924622480757535
1536.0,5.9264461015118286e-05
1664.0,0.00019965635146945715
1792.0,-0.00017819464846979827
1920.0,0.00024344140547327697
2048.0,7.61983246775344e-05
2304.0,-0.000462596130091697
2560.0,-0.00042962227598764
2816.0,-1.687887925072573e-05
3072.0,0.00017507642041891813
3328.0,-0.00015058834105730057
3584.0,-5.046667865826748e-05
3840.0,0.00015494452964048833
4096.0,-0.0007760496810078621
4608.0,0.00029133958742022514
5120.0,0.00011145242024213076
5632.0,0.00019302616419736296
6144.0,-0.0002581746084615588
6656.0,0.00016650605539325625
7168.0,-0.00019336730474606156
7680.0,0.00012659227650146931
8192.0,-0.0003649948921520263
9216.0,0.000370362977264449
10240.0,-0.00021175233996473253
11264.0,0.00010748940985649824
12288.0,-0.0006714328192174435
13312.0,-0.00026726984651759267
14336.0,0.0007139694644138217
end
