version,3.0
numOfCh,1
type,point
parent_name,20-cuts
ch_type,1_1
kcount,1
numberNandB,1
brightnessNandB,1
carpet pos,0
pc,0
Time (ms),CH1 Auto-Correlation
1.0,0.027948305010795593
2.0,0.023093057796359062
3.0,0.019648386165499687
4.0,0.017116770148277283
5.0,0.0151313291862607
6.0,0.013565652072429657
7.0,0.012298429384827614
8.0,0.011149202473461628
9.0,0.010207981802523136
10.0,0.009353135712444782
11.0,0.008630373515188694
12.0,0.007959825918078423
13.0,0.007371559739112854
14.0,0.006821937393397093
15.0,0.006300029344856739
16.0,0.005962936207652092
18.0,0.005623783450573683
20.0,0.005253859795629978
22.0,0.004749183543026447
24.0,0.004333279561251402
26.0,0.0038866091053932905
28.0,0.0035875162575393915
30.0,0.0036690281704068184
32.0,0.0034271967597305775
36.0,0.002808905206620693
40.0,0.001861012657172978
44.0,0.0011925779981538653
48.0,0.0008275355794467032
52.0,0.0008896553772501647
56.0,0.0005562457372434437
60.0,8.76585763762705e-05
64.0,0.00017583437147550285
72.0,0.0006751487962901592
80.0,0.0007311587105505168
88.0,4.908473783871159e-05
96.0,-7.145416748244315e-05
104.0,0.0002297383762197569
112.0,0.00016998234787024558
120.0,-0.00030616045114584267
128.0,0.00026458053616806865
144.0,0.0003316374495625496
160.0,-8.212247485062107e-05
176.0,-7.054752495605499e-05
192.0,0.0005619298317469656
208.0,0.0005803841049782932
224.0,0.00014199527504388243
240.0,-0.00012365423026494682
256.0,0.00030449347104877234
288.0,6.910283264005557e-05
320.0,-0.000681137724313885
352.0,-0.0005621989257633686
384.0,0.0010148069122806191
416.0,0.00044202725985087454
448.0,1.7914129557539127e-06
480.0,0.0003592850116547197
512.0,0.0007367386133410037
576.0,6.549507816089317e-05
640.0,-0.0006809969781897962
704.0,-0.00013184873387217522
768.0,-0.00037792106741108
832.0,-0.0008245672797784209
896.0,-0.0010892642894759774
960.0,-6.0533024225151166e-05
1024.0,-0.00035856731119565666
1152.0,0.00043912421097047627
1280.0,-0.000659751589410007
1408.0,-0.0002691002155188471
1536.0,-9.06137065612711e-05
1664.0,-0.0004370057722553611
1792.0,-6.665394903393462e-05
1920.0,-0.000374291354091838
2048.0,-2.0609020793926902e-05
2304.0,-0.00028970284620299935
2560.0,-2.3861723093432374e-05
2816.0,0.0005625474732369184
3072.0,-5.732236604671925e-05
3328.0,-0.0002455934591125697
3584.0,6.103752093622461e-05
3840.0,0.00046261638635769486
4096.0,0.00020478712394833565
4608.0,-0.0003661681548692286
5120.0,-0.000359755358658731
5632.0,0.0002933272044174373
6144.0,0.0001295721740461886
6656.0,-0.0001424337679054588
7168.0,-2.3168760890257545e-05
7680.0,-0.0005004475242458284
8192.0,-5.736667662858963e-05
9216.0,0.0003013618988916278
10240.0,-0.0003615471359807998
11264.0,2.876116741390433e-05
12288.0,0.00032164185540750623
13312.0,-0.0002729347033891827
14336.0,-9.789815521799028e-05
end
