version,3.0
numOfCh,1
type,point
parent_name,20-cuts
ch_type,1_1
kcount,1
numberNandB,1
brightnessNandB,1
carpet pos,0
pc,0
Time (ms),CH1 Auto-Correlation
1.0,0.01591874659061432
2.0,0.013025389052927494
3.0,0.010913919657468796
4.0,0.009445521980524063
5.0,0.008371664211153984
6.0,0.007576995063573122
7.0,0.006996523588895798
8.0,0.006258974317461252
9.0,0.005655498709529638
10.0,0.005116966553032398
11.0,0.004716489929705858
12.0,0.00434070872142911
13.0,0.003874510293826461
14.0,0.0035739766899496317
15.0,0.003313280874863267
16.0,0.003094096202403307
18.0,0.0028951179701834917
20.0,0.002727254293859005
22.0,0.00248968368396163
24.0,0.002223595278337598
26.0,0.002018681727349758
28.0,0.0018709430005401373
30.0,0.0017235972918570042
32.0,0.0016351421363651752
36.0,0.0014181227888911963
40.0,0.0012092781253159046
44.0,0.0008428156725130975
48.0,0.000607476569712162
52.0,0.00032289489172399044
56.0,0.00012879296264145523
60.0,5.168474308447912e-05
64.0,4.480817369767465e-05
72.0,0.00023245179909281433
80.0,4.3738767999457195e-05
88.0,-0.0002716570161283016
96.0,-0.000759136222768575
104.0,-0.0006186936516314745
112.0,-0.00011150597129017115
120.0,0.0003106481453869492
128.0,0.00021054082026239485
144.0,0.0004591268952935934
160.0,0.00014462076069321483
176.0,-0.00015292804164346308
192.0,-3.777891834033653e-05
208.0,-5.276402225717902e-05
224.0,0.0003250159206800163
240.0,0.0006757350056432188
256.0,-7.140562229324132e-05
288.0,-0.0003827170003205538
320.0,-0.00022903989884071052
352.0,-5.302581485011615e-05
384.0,1.4791689864068758e-06
416.0,-0.0003716635692398995
448.0,-0.000455811939900741
480.0,0.00019571468874346465
512.0,0.0001761813327902928
576.0,-0.000108775042463094
640.0,-0.0001856871967902407
704.0,0.0004325199406594038
768.0,-2.070596929115709e-05
832.0,3.0048717235331424e-05
896.0,0.0001527604035800323
960.0,0.00010335056140320376
1024.0,-6.941773608559743e-05
1152.0,0.00018165762594435364
1280.0,-0.00021178087627049536
1408.0,0.00013254642544779927
1536.0,-0.00017142241995316
1664.0,-0.00022957513283472508
1792.0,0.0001720835134619847
1920.0,0.00014210009248927236
2048.0,-0.000564081477932632
2304.0,-0.0002561968576628715
2560.0,0.000723319302778691
2816.0,0.00010507335537113249
3072.0,-0.00021189387189224362
3328.0,0.00023799600603524595
3584.0,0.0003475049452390522
3840.0,-4.439907934283838e-05
4096.0,2.897801277867984e-05
4608.0,-8.503878780175e-05
5120.0,-5.1477603847160935e-05
5632.0,-2.549401506257709e-05
6144.0,1.2230687389092054e-05
6656.0,0.00018599204486235976
7168.0,0.00011200687004020438
7680.0,-0.00016135151963680983
8192.0,-0.00012753496412187815
9216.0,-0.00011638790601864457
10240.0,-1.0868960998777766e-05
11264.0,-0.0001948977733263746
12288.0,-0.00017702876357361674
13312.0,0.0001194986907648854
14336.0,-0.0004030160198453814
end
