version,3.0
numOfCh,1
type,point
parent_name,20-cuts
ch_type,1_1
kcount,1
numberNandB,1
brightnessNandB,1
carpet pos,0
pc,0
Time (ms),CH1 Auto-Correlation
1.0,0.016401980072259903
2.0,0.013408418744802475
3.0,0.011284197680652142
4.0,0.009688091464340687
5.0,0.008471463806927204
6.0,0.0075160544365644455
7.0,0.006734434515237808
8.0,0.006128501612693071
9.0,0.005601280368864536
10.0,0.0051808105781674385
11.0,0.0048284209333360195
12.0,0.00458289310336113
13.0,0.004310719668865204
14.0,0.004102274309843779
15.0,0.00384904770180583
16.0,0.003692802507430315
18.0,0.0034541061613708735
20.0,0.0030318384524434805
22.0,0.0026597001124173403
24.0,0.00246775452978909
26.0,0.0022993541788309813
28.0,0.0021448475308716297
30.0,0.0021231428254395723
32.0,0.002109202090650797
36.0,0.002246497431769967
40.0,0.0022068016696721315
44.0,0.002030584728345275
48.0,0.002077173674479127
52.0,0.0018047476187348366
56.0,0.0015414553927257657
60.0,0.0015518091386184096
64.0,0.0014269002713263035
72.0,0.0009727479191496968
80.0,0.0006769970641471446
88.0,0.0004565964045468718
96.0,3.73261354980059e-05
104.0,-0.0002137075935024768
112.0,-0.00034223709371872246
120.0,2.3864724425948225e-05
128.0,-8.969006012193859e-05
144.0,-0.0004665418528020382
160.0,-0.0003988367388956249
176.0,-0.0005688379751518369
192.0,-0.00038875016616657376
208.0,-0.0003484064945951104
224.0,-0.00026527635054662824
240.0,2.2948441255721264e-05
256.0,0.00029749880195595324
288.0,-0.00013322741142474115
320.0,-0.00020163912267889827
352.0,5.362323281588033e-05
384.0,2.2045962396077812e-05
416.0,-0.00028697826201096177
448.0,-0.00028911104891449213
480.0,-0.0002698322059586644
512.0,-0.00027932910597883165
576.0,0.00030351828900165856
640.0,0.0006408966146409512
704.0,0.0008211475796997547
768.0,0.00028126820689067245
832.0,-0.000544837093912065
896.0,-0.0008251542458310723
960.0,6.084759661462158e-05
1024.0,0.0003256537311244756
1152.0,-6.561630289070308e-05
1280.0,-1.7792388462112285e-05
1408.0,5.641868483508006e-05
1536.0,-9.283179679187015e-05
1664.0,0.0005593786481767893
1792.0,0.00042694000876508653
1920.0,-0.00023903424153104424
2048.0,-0.0005035563954152167
2304.0,5.1095856179017574e-05
2560.0,-0.00013283394218888134
2816.0,0.00038840342313051224
3072.0,0.00013408585800789297
3328.0,-2.6748062737169676e-05
3584.0,8.039976819418371e-05
3840.0,-0.00010092459706356749
4096.0,0.00018067746714223176
4608.0,0.00011386629921616986
5120.0,-0.0001826982042985037
5632.0,-0.00014860618102829903
6144.0,2.794443935272284e-05
6656.0,-0.00023219377908390015
7168.0,-0.0002596556150820106
7680.0,-0.00011153255036333576
8192.0,-0.0003806243184953928
9216.0,0.00023513725318480283
10240.0,-0.00012942106695845723
11264.0,-0.0004490596184041351
12288.0,0.00030984770273789763
13312.0,0.00011268894013483077
14336.0,0.00014950174954719841
end
