version,3.0
numOfCh,1
type,point
parent_name,20-cuts
ch_type,1_1
kcount,1
numberNandB,1
brightnessNandB,1
carpet pos,0
pc,0
Time (ms),CH1 Auto-Correlation
1.0,0.02553757280111313
2.0,0.02082778513431549
3.0,0.01759284734725952
4.0,0.01525819394737482
5.0,0.013325490988790989
6.0,0.011865174397826195
7.0,0.01074277888983488
8.0,0.009623910300433636
9.0,0.008844662457704544
10.0,0.007988695986568928
11.0,0.0072898357175290585
12.0,0.006675930228084326
13.0,0.006193393841385841
14.0,0.005769657902419567
15.0,0.005578743759542704
16.0,0.005632076412439346
18.0,0.0051654488779604435
20.0,0.00462224381044507
22.0,0.0043605319224298
24.0,0.004134644288569689
26.0,0.0037649753503501415
28.0,0.0036626532673835754
30.0,0.003366021905094385
32.0,0.0032162819989025593
36.0,0.0026564686559140682
40.0,0.0019154695328325033
44.0,0.0015880282735452056
48.0,0.0013034632429480553
52.0,0.0015517459250986576
56.0,0.0017006642883643508
60.0,0.0015643727965652943
64.0,0.0012057940475642681
72.0,0.0009252792224287987
80.0,0.0008557705441489816
88.0,0.0010961139341816306
96.0,0.0008868711302056909
104.0,0.001048171310685575
112.0,0.0009629722917452455
120.0,0.00040562867070548236
128.0,-0.0001733130484353751
144.0,4.8761248763184994e-05
160.0,0.000325754372170195
176.0,0.00025594583712518215
192.0,0.0004968584980815649
208.0,0.0003813910880126059
224.0,-0.0004977842909283936
240.0,-0.0006078047445043921
256.0,3.291292523499578e-05
288.0,0.000833366357255727
320.0,0.00045155579573474824
352.0,0.0008428769651800394
384.0,2.845891867764294e-05
416.0,4.2908883187919855e-05
448.0,-0.0004143864498473704
480.0,-1.1201413144590333e-05
512.0,0.0001414245634805411
576.0,0.00044806746882386506
640.0,0.0006129670073278248
704.0,-8.00075868028216e-05
768.0,-0.0003131234843749553
832.0,-0.0005038478993810713
896.0,-6.278124783420935e-05
960.0,-0.000654779199976474
1024.0,-0.0010474348673596978
1152.0,-0.0007751660305075347
1280.0,-0.0008272716077044606
1408.0,-0.0004813724954146892
1536.0,-9.715666237752885e-05
1664.0,0.00014800610370002687
1792.0,0.0004982669488526881
1920.0,0.00045232195407152176
2048.0,8.262618212029338e-05
2304.0,0.0006062453612685204
2560.0,5.0387570809107274e-05
2816.0,0.0001066612676368095
3072.0,-6.497797585325316e-05
3328.0,-7.850764814065769e-05
3584.0,-0.0003332292544655502
3840.0,0.00039962196024134755
4096.0,-0.00011839628859888762
4608.0,-3.3550681109772995e-05
5120.0,0.00015842163702473044
5632.0,0.0002218902372987941
6144.0,-2.822577334882226e-05
6656.0,2.119556666002609e-05
7168.0,0.00023449976288247854
7680.0,-0.0003320254327263683
8192.0,-0.0005153781385160983
9216.0,-0.00021577307779807597
10240.0,-0.00018388830358162522
11264.0,-0.00010519770148675889
12288.0,-4.246394746587612e-05
13312.0,-0.00020004008547402918
14336.0,-0.0008022290421649814
end
