version,3.0
numOfCh,1
type,point
parent_name,20-cuts
ch_type,1_1
kcount,1
numberNandB,1
brightnessNandB,1
carpet pos,0
pc,0
Time (ms),CH1 Auto-Correlation
1.0,0.0159481018781662
2.0,0.013091126456856728
3.0,0.011012707836925983
4.0,0.009420648217201233
5.0,0.008260765112936497
6.0,0.007310520391911268
7.0,0.006574559956789017
8.0,0.005962017923593521
9.0,0.005532431416213512
10.0,0.00513459974899888
11.0,0.00482449634000659
12.0,0.004470329266041517
13.0,0.004149343818426132
14.0,0.0038340562023222446
15.0,0.0036133124958723783
16.0,0.0032854063902050257
18.0,0.0026850393041968346
20.0,0.0024160505272448063
22.0,0.002309839241206646
24.0,0.0022000838071107864
26.0,0.0019777193665504456
28.0,0.001802402432076633
30.0,0.0016773687675595284
32.0,0.001637549139559269
36.0,0.0017874935874715447
40.0,0.0017312559066340327
44.0,0.0014905916759744287
48.0,0.0015329046873375773
52.0,0.0013071574503555894
56.0,0.001068627112545073
60.0,0.0010521810036152601
64.0,0.0008803054806776345
72.0,0.0003622904478106648
80.0,0.00024110509548336267
88.0,0.0005012816982343793
96.0,0.0004095767508260906
104.0,0.00016721931751817465
112.0,0.00014783849474042654
120.0,-1.7452492102165706e-05
128.0,0.0003843239974230528
144.0,0.00045491172932088375
160.0,4.0155475289793685e-05
176.0,0.00042758058407343924
192.0,0.0005428559961728752
208.0,0.00036784072290174663
224.0,-6.006588591844775e-05
240.0,-3.200541323167272e-05
256.0,0.0003866808256134391
288.0,0.0006775393267162144
320.0,0.00044482320663519204
352.0,0.00014682264009024948
384.0,0.00021334353368729353
416.0,0.0005242140614427626
448.0,-0.00018774025375023484
480.0,4.5793047320330516e-05
512.0,-0.0005343779921531677
576.0,-0.0002177687274524942
640.0,-0.00012166870146756992
704.0,0.0002441604156047106
768.0,9.665815014159307e-05
832.0,-3.5800276236841455e-05
896.0,-0.00012874315143562853
960.0,-0.00022180330415721983
1024.0,4.167027145740576e-05
1152.0,0.0005063294665887952
1280.0,-1.4295042092271615e-05
1408.0,-0.0002567999472375959
1536.0,-9.08287233869487e-07
1664.0,-0.00027813174529001117
1792.0,0.00024136400315910578
1920.0,0.0002386079722782597
2048.0,0.00027462796424515545
2304.0,0.0001207739333040081
2560.0,-0.0001684441085672006
2816.0,-8.68449715198949e-05
3072.0,-0.00021991714311297983
3328.0,-0.00015614123549312353
3584.0,-0.00013746182958129793
3840.0,-3.6427489249035716e-05
4096.0,1.4077219930186402e-05
4608.0,0.00023553615028504282
5120.0,0.0004438103351276368
5632.0,-0.0002244776114821434
6144.0,0.00014044027193449438
6656.0,-0.00017224816838279366
7168.0,-0.00014045342686586082
7680.0,-0.0004081724910065532
8192.0,-0.0002952677896246314
9216.0,3.439361535129137e-05
10240.0,-0.00014763108629267663
11264.0,-6.386991299223155e-05
12288.0,-0.00028303032740950584
13312.0,-8.33438662084518e-06
14336.0,9.370479347126093e-06
end
