version,3.0
numOfCh,1
type,point
parent_name,20-cuts
ch_type,1_1
kcount,1
numberNandB,1
brightnessNandB,1
carpet pos,0
pc,0
Time (ms),CH1 Auto-Correlation
1.0,0.026033278554677963
2.0,0.021138912066817284
3.0,0.01768331602215767
4.0,0.015107398852705956
5.0,0.013200993649661541
6.0,0.011644566431641579
7.0,0.010226011276245117
8.0,0.00909514632076025
9.0,0.008179343305528164
10.0,0.0074891140684485435
11.0,0.006943852175027132
12.0,0.006585581228137016
13.0,0.00627901591360569
14.0,0.00584294181317091
15.0,0.005513006821274757
16.0,0.005265371408313513
18.0,0.00476556271314621
20.0,0.004380097147077322
22.0,0.004046937916427851
24.0,0.0037257960066199303
26.0,0.0031421997118741274
28.0,0.003131726523861289
30.0,0.0028453669510781765
32.0,0.002510565333068371
36.0,0.0022976254113018513
40.0,0.0023198118433356285
44.0,0.002162262797355652
48.0,0.0018636677414178848
52.0,0.001801562961190939
56.0,0.0015330285532400012
60.0,0.0011206601047888398
64.0,0.0009205301175825298
72.0,0.0008385513792745769
80.0,0.0006111527909524739
88.0,0.0007829014211893082
96.0,0.0007049175328575075
104.0,0.000871448137331754
112.0,0.0002442565164528787
120.0,0.00012379814870655537
128.0,-6.808300531702116e-05
144.0,-9.500724263489246e-05
160.0,3.066895078518428e-05
176.0,0.0007433885475620627
192.0,0.000331249029841274
208.0,2.894046701840125e-05
224.0,-3.932508479920216e-05
240.0,0.00020809462876059115
256.0,-0.0006332795019261539
288.0,-0.0003048719372600317
320.0,-0.0012222272343933582
352.0,-0.0005361894727684557
384.0,-0.0003403618175070733
416.0,-0.0006488686776719987
448.0,-0.0003373484069015831
480.0,0.00018985880888067186
512.0,-0.0012057742569595575
576.0,-0.00045267626410350204
640.0,3.7709301977884024e-05
704.0,-7.73730207583867e-05
768.0,0.00025426296633668244
832.0,-0.0001353440311504528
896.0,0.001414650585502386
960.0,0.00041662476724013686
1024.0,-0.00019110215362161398
1152.0,-0.0004234350344631821
1280.0,-0.0009074007393792272
1408.0,0.00013910648704040796
1536.0,0.0005082166753709316
1664.0,0.00022317643743008375
1792.0,0.0004433821886777878
1920.0,-0.00029590283520519733
2048.0,-0.0001415545557392761
2304.0,0.00039990816731005907
2560.0,-0.0007644655415788293
2816.0,0.00046820653369650245
3072.0,0.00021235321764834225
3328.0,-0.0003375049855094403
3584.0,-0.0007740712608210742
3840.0,2.930239134002477e-05
4096.0,0.00028223328990861773
4608.0,-0.00017760135233402252
5120.0,-0.0003176704340148717
5632.0,0.00016833400877658278
6144.0,2.4371898689423688e-05
6656.0,-0.0006552592385560274
7168.0,0.0007137643988244236
7680.0,8.216635615099221e-05
8192.0,-0.00026053088367916644
9216.0,0.00029197713593021035
10240.0,-3.448925417615101e-05
11264.0,-0.00011685261415550485
12288.0,6.365300941979513e-05
13312.0,0.00025654034106992185
14336.0,4.540871304925531e-05
end
