version,3.0
numOfCh,1
type,point
parent_name,20-cuts
ch_type,1_1
kcount,1
numberNandB,1
brightnessNandB,1
carpet pos,0
pc,0
Time (ms),CH1 Auto-Correlation
1.0,0.016184577718377113
2.0,0.013235521502792835
3.0,0.011140547692775726
4.0,0.009620296768844128
5.0,0.008368613198399544
6.0,0.00734996423125267
7.0,0.006546919234097004
8.0,0.0059029338881373405
9.0,0.005530206020921469
10.0,0.005119587294757366
11.0,0.004757625516504049
12.0,0.004382474813610315
13.0,0.004095450975000858
14.0,0.003853533184155822
15.0,0.0036766519770026207
16.0,0.003438409883528948
18.0,0.0030256889294832945
20.0,0.002608899027109146
22.0,0.0022574749309569597
24.0,0.002081026555970311
26.0,0.001982426270842552
28.0,0.0018080947920680046
30.0,0.001594529952853918
32.0,0.0014946362935006618
36.0,0.0009475959232077003
40.0,0.0007425422663800418
44.0,0.0008617065032012761
48.0,0.0009161839843727648
52.0,0.0007015549344941974
56.0,0.0006227807607501745
60.0,0.0005872223991900682
64.0,0.0004128626605961472
72.0,0.00033746680128388107
80.0,9.922138997353613e-05
88.0,3.883287718053907e-05
96.0,0.0001149565723608248
104.0,-0.00013255709200166166
112.0,-0.00014894685591571033
120.0,-0.0004575432976707816
128.0,-0.0005577043630182743
144.0,-0.0005285739316605031
160.0,-0.00024316334747709334
176.0,0.00023982531274668872
192.0,0.00046600692439824343
208.0,0.00036675590672530234
224.0,0.0006053503602743149
240.0,0.000946840678807348
256.0,0.0005647856742143631
288.0,0.0006825652671977878
320.0,5.603834506473504e-05
352.0,1.3915599993197247e-05
384.0,-0.0004447934916242957
416.0,-0.0007344977930188179
448.0,-0.0005163426976650953
480.0,-0.00024207170645240694
512.0,0.000225666823098436
576.0,0.00016725293244235218
640.0,-0.0003634296590462327
704.0,2.2156786144478247e-05
768.0,3.792512143263593e-05
832.0,6.337329978123307e-06
896.0,-0.00021605927031487226
960.0,-0.00022364409232977778
1024.0,0.0003654058091342449
1152.0,-0.0002137508272426203
1280.0,0.0002522429858800024
1408.0,2.329298877157271e-05
1536.0,-6.613141158595681e-05
1664.0,0.0003270879969932139
1792.0,-1.2344276001385879e-05
1920.0,0.0005499633844010532
2048.0,0.00023318981402553618
2304.0,-7.005188672337681e-05
2560.0,-2.647801738930866e-05
2816.0,-0.00016863759083207697
3072.0,-0.0002842870308086276
3328.0,-0.00038552135811187327
3584.0,0.0001530694280518219
3840.0,-2.7256019166088663e-05
4096.0,0.00011135848762933165
4608.0,-0.00012683856766670942
5120.0,-0.0002973662631120533
5632.0,-2.5394516342203133e-05
6144.0,7.01134922564961e-05
6656.0,-0.00027843948919326067
7168.0,6.303951522568241e-05
7680.0,0.00022494589211419225
8192.0,-7.698691479163244e-05
9216.0,0.00020128839241806418
10240.0,-0.00015235143655445427
11264.0,0.00013013111311011016
12288.0,-0.00014038507652003318
13312.0,0.00029645656468346715
14336.0,-0.0004546222626231611
end
