version,3.0
numOfCh,1
type,point
parent_name,20-cuts
ch_type,1_1
kcount,1
numberNandB,1
brightnessNandB,1
carpet pos,0
pc,0
Time (ms),CH1 Auto-Correlation
1.0,0.02761218138039112
2.0,0.022499747574329376
3.0,0.018781524151563644
4.0,0.016091110184788704
5.0,0.014022011309862137
6.0,0.012386936694383621
7.0,0.011003978550434113
8.0,0.009969869628548622
9.0,0.009102358482778072
10.0,0.008371488191187382
11.0,0.00756029412150383
12.0,0.006934287957847118
13.0,0.00618408340960741
14.0,0.005715488456189632
15.0,0.0052119530737400055
16.0,0.004974237643182278
18.0,0.004526848439127207
20.0,0.004104383755475283
22.0,0.0039000785909593105
24.0,0.003645884105935693
26.0,0.003640318987891078
28.0,0.0037530912086367607
30.0,0.0034766579046845436
32.0,0.0031817753333598375
36.0,0.003285818500444293
40.0,0.0029865093529224396
44.0,0.0025842597242444754
48.0,0.002674739109352231
52.0,0.002805361757054925
56.0,0.0030857017263770103
60.0,0.0027161436155438423
64.0,0.002409780863672495
72.0,0.0018177871825173497
80.0,0.0008328722906298935
88.0,0.0003981061454396695
96.0,0.000986831495538354
104.0,0.0010564253898337483
112.0,0.0009008270571939647
120.0,0.0008710231631994247
128.0,0.0013744322350248694
144.0,0.0006666419794782996
160.0,0.0007773538236506283
176.0,0.00017764067160896957
192.0,-0.00023148833133745939
208.0,0.0005098535330034792
224.0,0.000308005342958495
240.0,-0.0005630416562780738
256.0,0.0008533945074304938
288.0,0.0006252747843973339
320.0,-0.0002964802260976285
352.0,-0.0008931949851103127
384.0,-0.0006076758145354688
416.0,0.0004567059513647109
448.0,-0.00020031729945912957
480.0,-0.00044744813931174576
512.0,-0.0010590810561552644
576.0,-0.0004599640378728509
640.0,-0.0008831496234051883
704.0,-0.0003139665350317955
768.0,0.00035109504824504256
832.0,0.0010574746411293745
896.0,0.00038480566581711173
960.0,-1.2672619959630538e-05
1024.0,7.143511174945161e-05
1152.0,-0.00045160565059632063
1280.0,-2.4335617126780562e-05
1408.0,0.0001340190356131643
1536.0,0.0004040367202833295
1664.0,0.0003926608187612146
1792.0,-0.0001198591708089225
1920.0,-0.00028525941888801754
2048.0,-0.000215946274693124
2304.0,-0.0006831359933130443
2560.0,-0.0006678103818558156
2816.0,0.0004852409183513373
3072.0,-0.00015113870904315263
3328.0,0.0001618845562916249
3584.0,0.0001397692394675687
3840.0,-0.0005010895547457039
4096.0,-0.00021820793335791677
4608.0,3.3102121960837394e-05
5120.0,5.054436405771412e-05
5632.0,-6.38996425550431e-05
6144.0,-2.7667554604704492e-05
6656.0,2.942018363683019e-05
7168.0,-9.451064397580922e-05
7680.0,-0.0003957613662350923
8192.0,0.0004940023645758629
9216.0,-0.00017412155284546316
10240.0,0.0002969776396639645
11264.0,6.658492930000648e-05
12288.0,-0.0007997392676770687
13312.0,0.0003260076919104904
14336.0,0.0005899734678678215
end
