version,3.0
numOfCh,1
type,point
parent_name,20-cuts
ch_type,1_1
kcount,1
numberNandB,1
brightnessNandB,1
carpet pos,0
pc,0
Time (ms),CH1 Auto-Correlation
1.0,0.01632794551551342
2.0,0.013288771733641624
3.0,0.011220845393836498
4.0,0.009648822247982025
5.0,0.008443558588624
6.0,0.007424001581966877
7.0,0.0065199765376746655
8.0,0.005824836902320385
9.0,0.00530973868444562
10.0,0.004806078504770994
11.0,0.004298602230846882
12.0,0.0038467298727482557
13.0,0.00332504790276289
14.0,0.0030422357376664877
15.0,0.0027279574424028397
16.0,0.002546193078160286
18.0,0.002117499941959977
20.0,0.0016633844934403896
22.0,0.0013971331063658
24.0,0.0012877803528681397
26.0,0.0009834812954068184
28.0,0.0008116101962514222
30.0,0.0008403809042647481
32.0,0.0009824525332078338
36.0,0.0009978987509384751
40.0,0.0009989863028749824
44.0,0.0007680341950617731
48.0,0.0006854934617877007
52.0,0.0007276471587829292
56.0,0.000584674475248903
60.0,0.00042948086047545075
64.0,0.00034127768594771624
72.0,0.0001613237982382998
80.0,0.00027773718466050923
88.0,0.00020801261416636407
96.0,0.00031569445854984224
104.0,-0.00012798767420463264
112.0,-0.0006101730978116393
120.0,-0.0006129677640274167
128.0,-0.0001334424305241555
144.0,-7.124128023860976e-05
160.0,-0.0001272468507522717
176.0,4.138819349464029e-05
192.0,-8.499583054799587e-05
208.0,-0.00011654969421215355
224.0,0.00010196269431617111
240.0,-0.00041529638110660017
256.0,-0.0004070125287398696
288.0,0.0001320669543929398
320.0,0.0002417154173599556
352.0,6.864442548248917e-05
384.0,-1.4349356206366792e-05
416.0,-7.495647150790319e-05
448.0,-0.00025809352518990636
480.0,4.8042544221971184e-05
512.0,0.00020716962171718478
576.0,-0.00015138296294026077
640.0,0.00013960461365059018
704.0,0.00048424876877106726
768.0,0.00014982715947553515
832.0,5.770862480858341e-05
896.0,0.00034749790211208165
960.0,-0.00032480957452207804
1024.0,-0.00024933769600465894
1152.0,0.0002422473771730438
1280.0,-0.0001356038701487705
1408.0,0.0004024674999527633
1536.0,-5.609238360193558e-05
1664.0,-5.866063656867482e-05
1792.0,-1.1702503798005637e-05
1920.0,0.0005262939375825226
2048.0,0.0002901880070567131
2304.0,-0.00016781473823357373
2560.0,3.60387384716887e-05
2816.0,7.430683035636321e-05
3072.0,-0.00023279267770703882
3328.0,-6.785817095078528e-05
3584.0,-5.5031337979016826e-05
3840.0,0.00016862408665474504
4096.0,-0.00044253881787881255
4608.0,-9.205239621223882e-05
5120.0,6.849344208603725e-05
5632.0,0.00017106028099078685
6144.0,0.00010462810314493254
6656.0,-0.00012325559509918094
7168.0,-5.031981345382519e-05
7680.0,0.00010222191485809162
8192.0,1.305213118030224e-05
9216.0,-0.0003094190906267613
10240.0,-0.00026479343068785965
11264.0,-3.746225047507323e-05
12288.0,-0.00013797655992675573
13312.0,0.0002163756435038522
14336.0,9.484775364398956e-05
end
