version,3.0
numOfCh,1
type,point
parent_name,20-cuts
ch_type,1_1
kcount,1
numberNandB,1
brightnessNandB,1
carpet pos,0
pc,0
Time (ms),CH1 Auto-Correlation
1.0,0.027078812941908836
2.0,0.02231779880821705
3.0,0.018926121294498444
4.0,0.016453614458441734
5.0,0.014754812233150005
6.0,0.01328981202095747
7.0,0.012229342944920063
8.0,0.0112683717161417
9.0,0.01042851060628891
10.0,0.009661473333835602
11.0,0.008956092409789562
12.0,0.008500423282384872
13.0,0.007913441397249699
14.0,0.0074136811308562756
15.0,0.006721020210534334
16.0,0.006283514201641083
18.0,0.005924045108258724
20.0,0.0055688838474452496
22.0,0.005060424562543631
24.0,0.004805892240256071
26.0,0.004571838770061731
28.0,0.004306979943066835
30.0,0.004098077770322561
32.0,0.003973581828176975
36.0,0.003858250332996249
40.0,0.0033877131063491106
44.0,0.0028431471437215805
48.0,0.0025310427881777287
52.0,0.002623106585815549
56.0,0.002422116929665208
60.0,0.0021826063748449087
64.0,0.0019834369886666536
72.0,0.002124746795743704
80.0,0.0013634561328217387
88.0,0.0008938267710618675
96.0,0.0009894502582028508
104.0,0.0010228347964584827
112.0,0.00033052830258384347
120.0,-0.00044795896974392235
128.0,-0.0008141208090819418
144.0,-0.00043398220441304147
160.0,-0.0009128534002229571
176.0,-0.000772361527197063
192.0,-0.0009637003531679511
208.0,-2.2849912056699395e-05
224.0,0.0001497860357630998
240.0,7.9852863564156e-05
256.0,-2.0738012608489953e-05
288.0,0.0004102533566765487
320.0,0.0004118791548535228
352.0,-0.0002588620991446078
384.0,-0.0005926670855842531
416.0,-0.0005496187950484455
448.0,0.0001803023915272206
480.0,0.00019174070621374995
512.0,-0.00034706038422882557
576.0,-0.0005163802416063845
640.0,-0.0005996715044602752
704.0,-0.000972479407209903
768.0,0.0009204712114296854
832.0,0.0012942254543304443
896.0,0.0005669231177307665
960.0,-0.000442732241936028
1024.0,-0.0008990304777398705
1152.0,-0.00037547171814367175
1280.0,0.000680459663271904
1408.0,-8.577258267905563e-05
1536.0,0.00027711826260201633
1664.0,-0.00026293081464245915
1792.0,-2.833457983797416e-05
1920.0,-0.0005272458074614406
2048.0,2.929038782895077e-05
2304.0,0.00011334607552271336
2560.0,-8.447116852039471e-05
2816.0,0.00044181960402056575
3072.0,-0.00020357410539872944
3328.0,-0.00044151011388748884
3584.0,-0.0004388038069009781
3840.0,8.326246461365372e-05
4096.0,0.0003154743171762675
4608.0,-0.0006373256910592318
5120.0,0.0002809861907735467
5632.0,0.00011085687583545223
6144.0,-8.212046668631956e-05
6656.0,0.0001734739198582247
7168.0,0.00020570636843331158
7680.0,0.00025525904493406415
8192.0,0.00021463041775859892
9216.0,-3.326034493511543e-05
10240.0,-0.00018252429435960948
11264.0,-0.00019274379883427173
12288.0,-0.0003362461575306952
13312.0,0.0002407599240541458
14336.0,-0.0002226732176495716
end
