version,3.0
numOfCh,1
type,point
parent_name,20-cuts
ch_type,1_1
kcount,1
numberNandB,1
brightnessNandB,1
carpet pos,0
pc,0
Time (ms),CH1 Auto-Correlation
1.0,0.017186753451824188
2.0,0.014115305617451668
3.0,0.01186505239456892
4.0,0.010263931937515736
5.0,0.009018017910420895
6.0,0.008009720593690872
7.0,0.00715938163921237
8.0,0.0065374234691262245
9.0,0.005997723899781704
10.0,0.005511213093996048
11.0,0.0050770980305969715
12.0,0.0047059571370482445
13.0,0.004358242731541395
14.0,0.004120134748518467
15.0,0.0037539920303970575
16.0,0.00347867957316339
18.0,0.0031954532023519278
20.0,0.0028462340123951435
22.0,0.0024672176223248243
24.0,0.0021940397564321756
26.0,0.00187882618047297
28.0,0.0017592600779607892
30.0,0.0017080390825867653
32.0,0.0016228578751906753
36.0,0.001440164283849299
40.0,0.001299924566410482
44.0,0.0009932732209563255
48.0,0.0006972026894800365
52.0,0.0005107767065055668
56.0,0.0003747027658391744
60.0,0.0003077818837482482
64.0,0.00036336362245492637
72.0,0.0006805518642067909
80.0,0.000706265214830637
88.0,0.0006900019943714142
96.0,0.00021887788898311555
104.0,0.0006510960520245135
112.0,0.0007172443438321352
120.0,0.00046557129826396704
128.0,0.0001482986262999475
144.0,0.0007565036066807806
160.0,0.00015815410006325692
176.0,0.00046217066119425
192.0,0.0003331436892040074
208.0,0.0003670674341265112
224.0,2.8396241759764962e-05
240.0,8.474729838781059e-05
256.0,5.6328535720240325e-05
288.0,0.00038527342258021235
320.0,0.0001847403618739918
352.0,6.754686910426244e-05
384.0,0.0002654411946423352
416.0,3.9383405237458646e-05
448.0,0.00014966992603149265
480.0,-7.886164530646056e-05
512.0,0.0005006176070310175
576.0,-7.771382661303505e-05
640.0,1.552720391373441e-06
704.0,-0.000239723056438379
768.0,-0.00010767538333311677
832.0,0.0003651436709333211
896.0,0.0005023996927775443
960.0,0.0005699081812053919
1024.0,0.00022466821246780455
1152.0,-5.8042132877744734e-05
1280.0,-0.0001650554040679708
1408.0,0.00012220776989124715
1536.0,0.0003406511095818132
1664.0,-0.0007281649741344154
1792.0,-0.00020733985002152622
1920.0,-0.00023375645105261356
2048.0,-0.0003188863047398627
2304.0,-3.0068667911109515e-05
2560.0,-0.0002981494180858135
2816.0,-0.0005083851283416152
3072.0,-0.0007611482287757099
3328.0,0.00011015353084076196
3584.0,-0.00034723104909062386
3840.0,-9.64110586210154e-05
4096.0,-0.00019713093934115022
4608.0,5.4473275667987764e-05
5120.0,0.0002186174097005278
5632.0,0.0002365596010349691
6144.0,0.0003766545560210943
6656.0,0.0003899834118783474
7168.0,0.00016247262828983366
7680.0,-0.0001517014898126945
8192.0,3.882634700858034e-05
9216.0,-0.0004120033991057426
10240.0,0.00023509719176217914
11264.0,0.00013229335309006274
12288.0,-2.695959210541332e-06
13312.0,-0.0002762453514151275
14336.0,9.489356307312846e-05
end
