version,3.0
numOfCh,1
type,point
parent_name,20-cuts
ch_type,1_1
kcount,1
numberNandB,1
brightnessNandB,1
carpet pos,0
pc,0
Time (ms),CH1 Auto-Correlation
1.0,0.0161858219653368
2.0,0.01321275345981121
3.0,0.011091447435319424
4.0,0.009600190445780754
5.0,0.008433264680206776
6.0,0.007591627538204193
7.0,0.006901355925947428
8.0,0.006242252886295319
9.0,0.005662545096129179
10.0,0.005168204661458731
11.0,0.004640247207134962
12.0,0.004253235645592213
13.0,0.0038736758287996054
14.0,0.003650528145954013
15.0,0.003313272027298808
16.0,0.0029703043401241302
18.0,0.0026815056335181
20.0,0.002370025496929884
22.0,0.0022915247827768326
24.0,0.0023410278372466564
26.0,0.0022570618893951178
28.0,0.0021401355043053627
30.0,0.0021137401927262545
32.0,0.0019730511121451855
36.0,0.0017461543902754784
40.0,0.0014669924275949597
44.0,0.0010518571361899376
48.0,0.0010209225583821535
52.0,0.0012545031495392323
56.0,0.0012947849463671446
60.0,0.0012019374407827854
64.0,0.0011231913231313229
72.0,0.0012514329282566905
80.0,0.0007456783205270767
88.0,0.0003206926630809903
96.0,0.0002635776181705296
104.0,0.00027435633819550276
112.0,0.0003092796541750431
120.0,0.0002280859771417454
128.0,0.00034560824860818684
144.0,-4.520942093222402e-05
160.0,-0.00011111758067272604
176.0,8.844218973536044e-05
192.0,8.047640562836023e-07
208.0,0.00025945252855308354
224.0,0.0004114368639420718
240.0,0.00018131843535229564
256.0,-0.0004146801948081702
288.0,-0.0006449055508710444
320.0,-2.518482506275177e-05
352.0,0.00011080862896051258
384.0,0.0004241610295139253
416.0,0.0002465355210006237
448.0,0.0003038326685782522
480.0,-0.00011643400648608804
512.0,-0.00037565655657090247
576.0,-0.00025277683744207025
640.0,-0.0006061217864044011
704.0,-0.0005411963793449104
768.0,-0.00018112600082531571
832.0,-0.00015912475646473467
896.0,-4.282712689018808e-05
960.0,-0.00018314624321646988
1024.0,0.00023184125893749297
1152.0,0.00040987442480400205
1280.0,0.00017658306751400232
1408.0,-0.0004441412165760994
1536.0,-0.00015915271069388837
1664.0,-0.0004226505698170513
1792.0,-0.0004986298154108226
1920.0,-0.0004071664880029857
2048.0,0.00044039421482011676
2304.0,0.0002500290866009891
2560.0,0.00027765435515902936
2816.0,-0.0002949183399323374
3072.0,0.00020970382320228964
3328.0,0.000205481075681746
3584.0,0.00029388166149146855
3840.0,-0.0005132779479026794
4096.0,-0.00024861711426638067
4608.0,0.00013580539962276816
5120.0,-0.00018055393593385816
5632.0,0.00022808020003139973
6144.0,-0.00022975628962740302
6656.0,0.0004890910349786282
7168.0,-0.00019250040350016207
7680.0,0.00011663429177133366
8192.0,-0.0005632085376419127
9216.0,0.00015959609299898148
10240.0,-0.0004064610111527145
11264.0,4.167405131738633e-05
12288.0,8.093372161965817e-05
13312.0,-0.00043130782432854176
14336.0,0.0003778975806199014
end
