version,3.0
numOfCh,1
type,point
parent_name,20-cuts
ch_type,1_1
kcount,1
numberNandB,1
brightnessNandB,1
carpet pos,0
pc,0
Time (ms),CH1 Auto-Correlation
1.0,0.01592855714261532
2.0,0.012991778552532196
3.0,0.010908897034823895
4.0,0.009370483458042145
5.0,0.008151481859385967
6.0,0.007205264177173376
7.0,0.006406966131180525
8.0,0.005868284963071346
9.0,0.005374267231673002
10.0,0.0049581280909478664
11.0,0.0046143075451254845
12.0,0.004216363653540611
13.0,0.0038661519065499306
14.0,0.0036505835596472025
15.0,0.0034144369419664145
16.0,0.0030868039466440678
18.0,0.0025237584486603737
20.0,0.0020801846403628588
22.0,0.0015556828584522009
24.0,0.001129709999077022
26.0,0.0007661072304472327
28.0,0.0007551624439656734
30.0,0.0006852553342469037
32.0,0.0007140649831853807
36.0,0.0003836918331217021
40.0,0.00043140200432389975
44.0,0.0005054103676229715
48.0,0.000543623638805002
52.0,0.0005385052063502371
56.0,0.0006145946681499481
60.0,0.0007361643947660923
64.0,0.0008553469087928534
72.0,0.0007478906773030758
80.0,0.00024508481146767735
88.0,-0.00012377978418953717
96.0,-0.0002253606216982007
104.0,-0.00019347450870554894
112.0,0.0001855222653830424
120.0,0.00021525892952922732
128.0,0.00013975064211990684
144.0,-0.0001473605225328356
160.0,1.3007897905481514e-05
176.0,0.00011022087710443884
192.0,0.00015165109653025866
208.0,0.00011722788622137159
224.0,0.000375938368961215
240.0,0.00023419229546561837
256.0,-0.0002649866510182619
288.0,-0.00043436099076643586
320.0,-0.00018011839711107314
352.0,-0.00030200640321709216
384.0,-0.0003829244524240494
416.0,3.0539500585291535e-05
448.0,0.00040589060517959297
480.0,6.836991815362126e-06
512.0,-4.539856945484644e-06
576.0,0.00021387335436884314
640.0,8.604503091191873e-05
704.0,-4.5106979086995125e-05
768.0,0.0004841033951379359
832.0,-0.0003094297426287085
896.0,-6.213170308910776e-06
960.0,-0.00033943186281248927
1024.0,-0.0006435746909119189
1152.0,-0.00014430306327994913
1280.0,0.00013970017607789487
1408.0,9.682210657047108e-05
1536.0,7.489090785384178e-05
1664.0,0.00011259106395300478
1792.0,-0.00011012353206751868
1920.0,0.00017262536857742816
2048.0,-0.00014971246127970517
2304.0,-5.7099390687653795e-05
2560.0,-9.354973735753447e-05
2816.0,2.7539092116057873e-05
3072.0,-0.00021118303993716836
3328.0,-1.4304077922133729e-05
3584.0,-6.320673128357157e-05
3840.0,-0.00029281398747116327
4096.0,-0.00016646493168082088
4608.0,5.050567051512189e-05
5120.0,8.9303583081346e-05
5632.0,9.704804688226432e-05
6144.0,4.537304448604118e-06
6656.0,-6.542344635818154e-05
7168.0,0.00014909720630384982
7680.0,0.00015797461674083024
8192.0,0.00015191335114650428
9216.0,-9.212908480549231e-05
10240.0,-0.00014030677266418934
11264.0,-3.8896967453183606e-05
12288.0,-0.00016189852613024414
13312.0,0.00020116414816584438
14336.0,5.0893282605102286e-05
end
