version,3.0
numOfCh,1
type,point
parent_name,20-cuts
ch_type,1_1
kcount,1
numberNandB,1
brightnessNandB,1
carpet pos,0
pc,0
Time (ms),CH1 Auto-Correlation
1.0,0.016733480617403984
2.0,0.013740788213908672
3.0,0.011610685847699642
4.0,0.010047675110399723
5.0,0.008922072127461433
6.0,0.007925575599074364
7.0,0.007086149416863918
8.0,0.006335561163723469
9.0,0.005744973197579384
10.0,0.005292154382914305
11.0,0.004866241943091154
12.0,0.004530579783022404
13.0,0.004213864449411631
14.0,0.003926986828446388
15.0,0.0037516693118959665
16.0,0.003576521994546056
18.0,0.0032744500786066055
20.0,0.002918480895459652
22.0,0.0026928167790174484
24.0,0.002456241985782981
26.0,0.0024105508346110582
28.0,0.0024387850426137447
30.0,0.0023100373800843954
32.0,0.0020867560524493456
36.0,0.0017080561956390738
40.0,0.001494720228947699
44.0,0.0013968166895210743
48.0,0.0014107440365478396
52.0,0.0013397509464994073
56.0,0.0012464825995266438
60.0,0.0012875705724582076
64.0,0.000962755351793021
72.0,0.0003022950841113925
80.0,0.0005700652836821973
88.0,0.0005873108748346567
96.0,0.0006384466541931033
104.0,0.0005973711377009749
112.0,0.00011455004278104752
120.0,6.649774149991572e-05
128.0,-1.698038977338001e-05
144.0,-0.0004077669873367995
160.0,-0.00012313423212617636
176.0,4.9155918532051146e-05
192.0,0.0002948156325146556
208.0,0.0004127463325858116
224.0,0.00048398959916085005
240.0,0.0002583327586762607
256.0,0.00023431202862411737
288.0,0.0004376867727842182
320.0,-0.00022254277428146452
352.0,-0.00014570224448107183
384.0,-0.00016324677562806755
416.0,0.00022434344282373786
448.0,-3.174078301526606e-06
480.0,4.586838622344658e-05
512.0,0.00010576462955214083
576.0,-0.0004056663892697543
640.0,-0.0001553033071104437
704.0,0.00010456426389282569
768.0,3.624194141593762e-05
832.0,0.00027539278380572796
896.0,-0.0002627652429509908
960.0,-0.00016247139137703925
1024.0,-0.0008215663838200271
1152.0,-0.0002189964143326506
1280.0,-0.00019075124873779714
1408.0,-0.0002066624438157305
1536.0,-4.505441211222205e-06
1664.0,0.00013955627218820155
1792.0,0.00017726080841384828
1920.0,1.7218849279743154e-06
2048.0,0.00043626013211905956
2304.0,2.951269743789453e-05
2560.0,0.0005075479275546968
2816.0,-6.35882533970289e-05
3072.0,-0.000147503029438667
3328.0,-0.0002086675085593015
3584.0,-0.0006774271605536342
3840.0,-0.00011735797306755558
4096.0,-4.54434884886723e-05
4608.0,0.00020506932924035937
5120.0,-9.890642832033336e-05
5632.0,-0.00019668080494739115
6144.0,-0.00044846395030617714
6656.0,0.00022265799634624273
7168.0,0.0002760720963124186
7680.0,-0.0004281790170352906
8192.0,-0.00013565555855166167
9216.0,0.00012470100773498416
10240.0,-0.0001806603540899232
11264.0,0.00010266945173498243
12288.0,-4.1910865547833964e-05
13312.0,0.00023959380632732064
14336.0,-0.0002145744947483763
end
