version,3.0
numOfCh,1
type,point
parent_name,20-cuts
ch_type,1_1
kcount,1
numberNandB,1
brightnessNandB,1
carpet pos,0
pc,0
Time (ms),CH1 Auto-Correlation
1.0,0.015657363459467888
2.0,0.012785318307578564
3.0,0.010671515949070454
4.0,0.009075229056179523
5.0,0.007907894439995289
6.0,0.006954227574169636
7.0,0.00609890092164278
8.0,0.005365394987165928
9.0,0.004842807073146105
10.0,0.004425831604748964
11.0,0.004065920133143663
12.0,0.003728474024683237
13.0,0.0035150854382663965
14.0,0.0033241722267121077
15.0,0.0032157902605831623
16.0,0.003019835101440549
18.0,0.0025041650515049696
20.0,0.0020953239873051643
22.0,0.0017426898702979088
24.0,0.0014809425920248032
26.0,0.0013005066430196166
28.0,0.0012119334423914552
30.0,0.0011504609137773514
32.0,0.0009634852758608758
36.0,0.0006491814274340868
40.0,0.0005644491757266223
44.0,0.0005881914403289557
48.0,0.0005168347852304578
52.0,0.0005353193264454603
56.0,0.0005479039973579347
60.0,0.000752104155253619
64.0,0.0010020475601777434
72.0,0.0012864333111792803
80.0,0.0008480357355438173
88.0,0.0007410062826238573
96.0,0.000496699707582593
104.0,0.00027864149888046086
112.0,3.702645699377172e-05
120.0,-0.0001425727823516354
128.0,2.2950418497202918e-05
144.0,0.0002166960184695199
160.0,-4.732874367618933e-05
176.0,-0.0008276958833448589
192.0,-0.000966734834946692
208.0,-8.748901018407196e-05
224.0,-0.00028029829263687134
240.0,-8.140824502333999e-05
256.0,-0.00024273352755699307
288.0,-1.0608476259221788e-05
320.0,0.000239429427892901
352.0,0.0006116540753282607
384.0,0.00016855823923833668
416.0,1.321413310506614e-05
448.0,0.00010074622696265578
480.0,-8.856840577209368e-05
512.0,-0.00022434779384639114
576.0,2.60881643043831e-05
640.0,-0.0003259978839196265
704.0,0.0002002143010031432
768.0,-0.00012568189413286746
832.0,-0.00014413789904210716
896.0,-5.485843212227337e-05
960.0,-0.0003237531636841595
1024.0,-0.0004319119907449931
1152.0,0.0001412602432537824
1280.0,-0.00038704948383383453
1408.0,-0.0002946442400570959
1536.0,3.553254282451235e-05
1664.0,-0.00033594301203265786
1792.0,0.00018855278904084116
1920.0,0.00019626687571872026
2048.0,-0.0002019480016315356
2304.0,0.00017525449220556766
2560.0,0.00020777210011146963
2816.0,-0.00015856156824156642
3072.0,-6.61186350043863e-05
3328.0,-0.00023198426060844213
3584.0,6.544330972246826e-05
3840.0,-0.00020006982958875597
4096.0,-7.754941907478496e-05
4608.0,0.00011116763926111162
5120.0,-2.0021680029458366e-05
5632.0,-0.00028145918622612953
6144.0,-6.446228508139029e-05
6656.0,0.00011058115342166275
7168.0,0.00022497339523397386
7680.0,-0.00019646873988676816
8192.0,-0.00031937644234858453
9216.0,0.00018269522115588188
10240.0,-1.775667624315247e-05
11264.0,-0.0001316325506195426
12288.0,-6.91508175805211e-05
13312.0,0.0001474726159358397
14336.0,0.0001286592159885913
end
