version,3.0
numOfCh,1
type,point
parent_name,20-cuts
ch_type,1_1
kcount,1
numberNandB,1
brightnessNandB,1
carpet pos,0
pc,0
Time (ms),CH1 Auto-Correlation
1.0,0.016248196363449097
2.0,0.013155490159988403
3.0,0.011076756753027439
4.0,0.009541613981127739
5.0,0.008283164352178574
6.0,0.007337877992540598
7.0,0.006524992175400257
8.0,0.005897053051739931
9.0,0.005257176700979471
10.0,0.004768053535372019
11.0,0.0043620765209198
12.0,0.004073046613484621
13.0,0.003739696927368641
14.0,0.0035004226956516504
15.0,0.003323731478303671
16.0,0.0032365024089813232
18.0,0.002965658437460661
20.0,0.002605949528515339
22.0,0.0023419924546033144
24.0,0.002172459615394473
26.0,0.0019772807136178017
28.0,0.001883016200736165
30.0,0.0017927000299096107
32.0,0.0017275119898840785
36.0,0.0016810866072773933
40.0,0.0015094791306182742
44.0,0.0014151971554383636
48.0,0.0013428761158138514
52.0,0.0012817427050322294
56.0,0.0013650188921019435
60.0,0.0011711516417562962
64.0,0.0011044343700632453
72.0,0.0008599061402492225
80.0,0.0003242333186790347
88.0,-2.300944470334798e-05
96.0,-0.0001767388021107763
104.0,-0.0002291823911946267
112.0,9.69932007137686e-05
120.0,0.00010691941133700311
128.0,-5.924988363403827e-05
144.0,-0.000782232906203717
160.0,-0.0005768304108642042
176.0,-0.00030948640778660774
192.0,-0.00027553195832297206
208.0,-0.00025752466171979904
224.0,-0.0002386240812484175
240.0,-0.00011842906678793952
256.0,-3.5319579183124006e-05
288.0,0.00012562560732476413
320.0,2.3309070456889458e-05
352.0,-3.2731588817114243e-06
384.0,-0.0002719696785788983
416.0,0.00019842629262711853
448.0,-6.400352867785841e-05
480.0,0.0005576788098551333
512.0,0.00021726315026171505
576.0,0.0002444650453981012
640.0,2.0112996935495175e-05
704.0,0.0005257418961264193
768.0,0.00023945167777128518
832.0,-0.00012535255518741906
896.0,-0.0005504103610292077
960.0,-6.764690624549985e-05
1024.0,-0.0001883016957435757
1152.0,-0.0005884885904379189
1280.0,0.00013935410242993385
1408.0,-0.00014890840975567698
1536.0,-0.00044258355046622455
1664.0,-0.0005668746307492256
1792.0,-0.00010584388655843213
1920.0,-0.0001192766212625429
2048.0,-0.00013807261711917818
2304.0,3.6879151593893766e-05
2560.0,0.00023591791978105903
2816.0,0.00029403381631709635
3072.0,1.680141213000752e-05
3328.0,0.00022733939113095403
3584.0,-7.389534584945068e-05
3840.0,-0.00021205817756708711
4096.0,-0.00018076179549098015
4608.0,-0.00010348572686780244
5120.0,-1.0381785614299588e-05
5632.0,0.00010592335456749424
6144.0,0.00010537158232182264
6656.0,-7.944030221551657e-05
7168.0,-5.4327945690602064e-05
7680.0,-0.0001586864673299715
8192.0,-0.00010057841427624226
9216.0,-3.7625926779583097e-05
10240.0,3.330873732920736e-05
11264.0,-0.00016108923591673374
12288.0,0.0002607723872642964
13312.0,-1.341152710665483e-05
14336.0,-6.726908031851053e-05
end
