version,3.0
numOfCh,1
type,point
parent_name,20-cuts
ch_type,1_1
kcount,1
numberNandB,1
brightnessNandB,1
carpet pos,0
pc,0
Time (ms),CH1 Auto-Correlation
1.0,0.01667827181518078
2.0,0.013648969121277332
3.0,0.01156183984130621
4.0,0.010000903159379959
5.0,0.008830725215375423
6.0,0.007969144731760025
7.0,0.007343394216150045
8.0,0.006810372695326805
9.0,0.006362973712384701
10.0,0.005851500201970339
11.0,0.005410949699580669
12.0,0.0049771592020988464
13.0,0.004584288690239191
14.0,0.004271881654858589
15.0,0.003949661273509264
16.0,0.0035108202137053013
18.0,0.003070947714149952
20.0,0.0028738267719745636
22.0,0.0025432223919779062
24.0,0.0022548274137079716
26.0,0.0019701931159943342
28.0,0.0017388093983754516
30.0,0.0017057175282388926
32.0,0.0015645980602130294
36.0,0.001400998211465776
40.0,0.0013293373631313443
44.0,0.0012719448423013091
48.0,0.0013482009526342154
52.0,0.0015460924478247762
56.0,0.001631770865060389
60.0,0.001521178288385272
64.0,0.0014292428968474269
72.0,0.001018191804178059
80.0,0.0007471575518138707
88.0,0.0008831399609334767
96.0,0.0009504116605967283
104.0,0.000587714952416718
112.0,0.00017020435188896954
120.0,-0.0003065939818043262
128.0,-0.0005536751705221832
144.0,-0.0001469444396207109
160.0,0.00033124792389571667
176.0,0.00042282784124836326
192.0,5.9158999647479504e-05
208.0,-0.00023404350213240832
224.0,-0.0007069033454172313
240.0,-0.0006147738895379007
256.0,-0.00033692154102027416
288.0,-0.00011717906454578042
320.0,-0.0003818243567366153
352.0,-0.0005869714077562094
384.0,-0.0004151464090682566
416.0,-0.0004252345534041524
448.0,0.00017059771926142275
480.0,0.0003231472510378808
512.0,-3.9240305341081694e-05
576.0,0.00012806769518647343
640.0,-0.00014968542382121086
704.0,0.00033252150751650333
768.0,0.00035545427817851305
832.0,3.7099413020769134e-05
896.0,-0.00014215405099093914
960.0,-0.0006113761337473989
1024.0,-0.00021976315474603325
1152.0,-0.00032549083698540926
1280.0,-1.0909267075476237e-05
1408.0,4.384032217785716e-05
1536.0,0.0001730989315547049
1664.0,-0.0001577490329509601
1792.0,-0.00011196612467756495
1920.0,-4.959466969012283e-05
2048.0,9.167991083813831e-05
2304.0,0.0003017156559508294
2560.0,6.49655848974362e-05
2816.0,4.5359862269833684e-05
3072.0,6.503736221930012e-05
3328.0,-0.0002748269180301577
3584.0,-0.0007053440203890204
3840.0,0.00029380066553130746
4096.0,-0.0001218251054524444
4608.0,9.651948494138196e-05
5120.0,-5.829546716995537e-05
5632.0,-0.00012950034579262137
6144.0,-3.3838001399999484e-05
6656.0,-3.2835716410772875e-05
7168.0,0.00022358621936291456
7680.0,4.553421149466885e-06
8192.0,-0.00010724104504333809
9216.0,2.7621539629762992e-05
10240.0,-2.8544585802592337e-05
11264.0,-6.721244426444173e-05
12288.0,0.00013879903417546302
13312.0,-0.00016584756667725742
14336.0,-0.00019874605641234666
end
