version,3.0
numOfCh,1
type,point
parent_name,20-cuts
ch_type,1_1
kcount,1
numberNandB,1
brightnessNandB,1
carpet pos,0
pc,0
Time (ms),CH1 Auto-Correlation
1.0,0.01582089066505432
2.0,0.012957382015883923
3.0,0.010901518166065216
4.0,0.009347179904580116
5.0,0.008169399574398994
6.0,0.00718479510396719
7.0,0.006469679530709982
8.0,0.005813757888972759
9.0,0.0052729202434420586
10.0,0.004895939026027918
11.0,0.004690689966082573
12.0,0.00444732466712594
13.0,0.004136891569942236
14.0,0.0038646659813821316
15.0,0.0036029256880283356
16.0,0.003319462761282921
18.0,0.0030305071268230677
20.0,0.0027143084444105625
22.0,0.002454478293657303
24.0,0.002219337737187743
26.0,0.001971071818843484
28.0,0.0015177231980487704
30.0,0.0014173494419083
32.0,0.0013310863869264722
36.0,0.001286475919187069
40.0,0.001091080834157765
44.0,0.0009624955710023642
48.0,0.0007050143321976066
52.0,0.00045848137233406305
56.0,0.00036051979986950755
60.0,0.00040270338649861515
64.0,0.0006654695607721806
72.0,0.0006056938436813653
80.0,0.00039777395431883633
88.0,0.00019021604384761304
96.0,-6.356331869028509e-05
104.0,-0.00034470573882572353
112.0,-0.00035669334465637803
120.0,-0.0002417966170469299
128.0,-0.0004381843900773674
144.0,-0.00018471489602234215
160.0,3.991644553025253e-05
176.0,0.00010998895595548674
192.0,0.0003954620333388448
208.0,0.0002943704603239894
224.0,-8.526787132723257e-05
240.0,-3.2707663194742054e-05
256.0,-0.0001133079786086455
288.0,0.0002863677800633013
320.0,-6.439989374484867e-05
352.0,-0.000177170688402839
384.0,-0.0001599099050508812
416.0,-0.0002030526811722666
448.0,9.604456136003137e-05
480.0,-0.0003081665781792253
512.0,-0.0002660653553903103
576.0,-0.00033091637305915356
640.0,-4.124245242564939e-05
704.0,0.00023103220155462623
768.0,0.00044707549386657774
832.0,0.00013980723451822996
896.0,0.0002136676193913445
960.0,0.0003345004515722394
1024.0,-0.0001480237115174532
1152.0,2.5562439986970276e-05
1280.0,0.00022001056640874594
1408.0,0.0001308705104747787
1536.0,0.00015846946917008609
1664.0,-0.00026915138005279005
1792.0,-0.0002695181465242058
1920.0,-0.00026251617236994207
2048.0,2.102678809023928e-05
2304.0,-6.474445399362594e-05
2560.0,-0.00013944612874183804
2816.0,8.254849672084674e-05
3072.0,-0.00018986743816640228
3328.0,-0.00046682849642820656
3584.0,-9.275758930016309e-05
3840.0,-2.230730933661107e-05
4096.0,-6.628465780522674e-05
4608.0,-0.00016118239727802575
5120.0,0.00024286485859192908
5632.0,-2.003960617003031e-06
6144.0,-6.947622637198947e-07
6656.0,0.00011464307317510247
7168.0,6.604538793908432e-05
7680.0,0.0002684422943275422
8192.0,-1.3464918083627708e-05
9216.0,-0.0002365973050473258
10240.0,-9.943919576471671e-05
11264.0,-0.00016965920804068446
12288.0,0.00010618970554787666
13312.0,0.0002071357157547027
14336.0,-6.055754784028977e-05
end
