version,3.0
numOfCh,1
type,point
parent_name,20-cuts
ch_type,1_1
kcount,1
numberNandB,1
brightnessNandB,1
carpet pos,0
pc,0
Time (ms),CH1 Auto-Correlation
1.0,0.01578470878303051
2.0,0.012935072183609009
3.0,0.0108633516356349
4.0,0.009425117634236813
5.0,0.008253821171820164
6.0,0.007373523898422718
7.0,0.006597112864255905
8.0,0.006082210689783096
9.0,0.005670407321304083
10.0,0.00525974715128541
11.0,0.004834486171603203
12.0,0.00448289280757308
13.0,0.0042431349866092205
14.0,0.0039665126241743565
15.0,0.003731762757524848
16.0,0.0036140806041657925
18.0,0.0032803730573505163
20.0,0.00296621210873127
22.0,0.002716689370572567
24.0,0.0022971543949097395
26.0,0.0019680485129356384
28.0,0.002047568326815963
30.0,0.0019782311283051968
32.0,0.0018751936731860042
36.0,0.001665764837525785
40.0,0.001609052182175219
44.0,0.0014032417675480247
48.0,0.001305996673181653
52.0,0.0011123339645564556
56.0,0.0008188794017769396
60.0,0.0006666064145974815
64.0,0.0005435278872027993
72.0,0.0006810241029597819
80.0,0.0008326639072038233
88.0,0.0007695173262618482
96.0,0.0008786722319200635
104.0,0.00044314490514807403
112.0,0.00010499586642254144
120.0,-9.899262295220979e-06
128.0,-2.1787562218378298e-05
144.0,0.000541340617928654
160.0,-8.881616849976126e-06
176.0,0.00014140155690256506
192.0,0.00017538765678182244
208.0,-0.00016762387531343848
224.0,7.797758735250682e-05
240.0,0.00016798402066342533
256.0,0.0001322044845437631
288.0,-5.665159551426768e-05
320.0,2.0463754481170326e-05
352.0,3.960421508963918e-06
384.0,0.00020093098282814026
416.0,-0.00012333759514149278
448.0,2.394210605416447e-05
480.0,-0.0001577287184773013
512.0,-0.00015709134459029883
576.0,-0.00012710913142655045
640.0,-0.0002670086396392435
704.0,0.00010509022831683978
768.0,0.00031069456599652767
832.0,0.00041736537241376936
896.0,0.0002272216515848413
960.0,-0.00020029189181514084
1024.0,-0.00035308708902448416
1152.0,-0.0005560848512686789
1280.0,-0.0004969751462340355
1408.0,-0.00040615981561131775
1536.0,0.00030192662961781025
1664.0,0.0001366085052723065
1792.0,-0.00032637594267725945
1920.0,-0.00016272593347821385
2048.0,0.0001356522843707353
2304.0,0.00046262904652394354
2560.0,-0.0002900606777984649
2816.0,-0.0004083126550540328
3072.0,6.553268030984327e-05
3328.0,-8.764260564930737e-05
3584.0,-0.0003930488892365247
3840.0,0.00026379525661468506
4096.0,0.00018266600091010332
4608.0,8.644997433293611e-05
5120.0,-0.0001878669863799587
5632.0,7.585772982565686e-05
6144.0,0.0002608528302516788
6656.0,1.88682897714898e-05
7168.0,-0.0004195087240077555
7680.0,-0.00026109276222996414
8192.0,0.00028913546702824533
9216.0,-0.00020517813391052186
10240.0,0.0002508854086045176
11264.0,9.042195597430691e-05
12288.0,-0.00039045626181177795
13312.0,3.506533175823279e-05
14336.0,0.00032309419475495815
end
