version,3.0
numOfCh,1
type,point
parent_name,20-cuts
ch_type,1_1
kcount,1
numberNandB,1
brightnessNandB,1
carpet pos,0
pc,0
Time (ms),CH1 Auto-Correlation
1.0,0.015754597261548042
2.0,0.012947320006787777
3.0,0.010926876217126846
4.0,0.009558689780533314
5.0,0.008439441211521626
6.0,0.007529148366302252
7.0,0.0068439519964158535
8.0,0.006219042465090752
9.0,0.005696003325283527
10.0,0.0052547333762049675
11.0,0.004970087669789791
12.0,0.004675867967307568
13.0,0.004325159825384617
14.0,0.003928997088223696
15.0,0.003728821175172925
16.0,0.003545747371390462
18.0,0.0030594123527407646
20.0,0.0026053546462208033
22.0,0.0022445288486778736
24.0,0.002036689082160592
26.0,0.0018965560011565685
28.0,0.0017989574698731303
30.0,0.0015786412404850125
32.0,0.001414594822563231
36.0,0.0013993079774081707
40.0,0.001181469182483852
44.0,0.0011111833155155182
48.0,0.0009892950765788555
52.0,0.0010163062252104282
56.0,0.0008398572099395096
60.0,0.0006500169984064996
64.0,0.0006848314078524709
72.0,0.0006015421240590513
80.0,0.0005113401566632092
88.0,0.0002740818017628044
96.0,7.078072667354718e-05
104.0,-0.00028605357510969043
112.0,-0.0005801582592539489
120.0,-0.0005628326325677335
128.0,-0.00012598236207850277
144.0,-0.00019499982590787113
160.0,-0.00021613764693029225
176.0,7.3643219366204e-05
192.0,0.00035920582013204694
208.0,0.00032276619458571076
224.0,0.0004181299591436982
240.0,0.000667676271405071
256.0,0.0002223020710516721
288.0,3.2913060294958996e-06
320.0,-0.00016287427570205182
352.0,-0.000530460849404335
384.0,0.00022179813822731376
416.0,2.2009937310940586e-05
448.0,0.00017115248192567378
480.0,0.00019401237659621984
512.0,-0.0005361574585549533
576.0,-0.0002292508288519457
640.0,0.0005089424084872007
704.0,-0.0001771498064044863
768.0,-0.000508139084558934
832.0,-0.00032139054383151233
896.0,0.00016371565288864076
960.0,-3.6191719118505716e-05
1024.0,-0.00035491943708620965
1152.0,0.0001490879076300189
1280.0,-0.00010180926619796082
1408.0,-5.078710455563851e-05
1536.0,6.561411282746121e-05
1664.0,-0.00012085084745194763
1792.0,0.0003711407189257443
1920.0,-6.363059219438583e-05
2048.0,0.00014565794845111668
2304.0,-4.460262061911635e-05
2560.0,-4.7874247684376314e-05
2816.0,-0.0003106279473286122
3072.0,4.9352085625287145e-05
3328.0,-8.328440162586048e-05
3584.0,0.00015049916692078114
3840.0,0.00026019144570454955
4096.0,-0.0004955519689247012
4608.0,-0.0003526148502714932
5120.0,0.00018654284940566868
5632.0,-2.1957259377813898e-05
6144.0,-6.032739474903792e-05
6656.0,0.00015691430598963052
7168.0,0.0002076236269203946
7680.0,0.00018513707618694752
8192.0,-0.00012116753350710496
9216.0,5.1116217946400866e-05
10240.0,-0.0001299742143601179
11264.0,-0.00019929843256250024
12288.0,-6.694466264889343e-06
13312.0,-0.00023746109218336642
14336.0,0.00014776804891880602
end
