version,3.0
numOfCh,1
type,point
parent_name,20-cuts
ch_type,1_1
kcount,1
numberNandB,1
brightnessNandB,1
carpet pos,0
pc,0
Time (ms),CH1 Auto-Correlation
1.0,0.028018223121762276
2.0,0.023331843316555023
3.0,0.019993683323264122
4.0,0.01754681020975113
5.0,0.015649089589715004
6.0,0.014131627045571804
7.0,0.012823439203202724
8.0,0.011498152278363705
9.0,0.010302386246621609
10.0,0.009449376724660397
11.0,0.008838529698550701
12.0,0.008391957730054855
13.0,0.0079890051856637
14.0,0.007484682835638523
15.0,0.007092886138707399
16.0,0.006721582263708115
18.0,0.006269876379519701
20.0,0.005869370419532061
22.0,0.005531391128897667
24.0,0.0050860000774264336
26.0,0.004697187803685665
28.0,0.004444301128387451
30.0,0.004021732602268457
32.0,0.003828145796433091
36.0,0.0037335797678679228
40.0,0.003674271749332547
44.0,0.003585221478715539
48.0,0.0028860685415565968
52.0,0.0022102617658674717
56.0,0.0018711957382038236
60.0,0.0017775284359231591
64.0,0.0020572638604789972
72.0,0.001931066857650876
80.0,0.0012358378153294325
88.0,0.0012208826374262571
96.0,0.002203991636633873
104.0,0.0017079856479540467
112.0,0.0011002186220139265
120.0,0.0009084768244065344
128.0,0.0007403991185128689
144.0,0.0011529212351888418
160.0,0.0006069383234716952
176.0,0.0006071403622627258
192.0,0.0009809116600081325
208.0,0.00037945914664305747
224.0,0.0004327456990722567
240.0,-0.0004954907344654202
256.0,-0.0007139129447750747
288.0,-0.0004206853627692908
320.0,0.00038402510108426213
352.0,0.0003037757414858788
384.0,-0.000767202174756676
416.0,5.859163502464071e-05
448.0,-0.0005351509316824377
480.0,-0.0006384901935234666
512.0,-0.0005289721884764731
576.0,-5.272924681776203e-05
640.0,-0.0005205839406698942
704.0,0.0007560999365523458
768.0,8.582243754062802e-05
832.0,-0.000728715443983674
896.0,-0.00044592833728529513
960.0,-0.0006775863585062325
1024.0,-0.0010831644758582115
1152.0,-0.0008868679287843406
1280.0,-0.0006090236129239202
1408.0,-0.00011221067688893527
1536.0,-0.0002400964731350541
1664.0,0.00039926747558638453
1792.0,0.0003613908193074167
1920.0,-4.7417794121429324e-05
2048.0,-0.0003921048773918301
2304.0,0.00047736059059388936
2560.0,0.0001653768413234502
2816.0,-0.0003794556832872331
3072.0,0.0002079636324197054
3328.0,-0.0003551808767952025
3584.0,-0.00038446459802798927
3840.0,0.00010901821224251762
4096.0,-0.0005022939876653254
4608.0,-0.00019292013894300908
5120.0,0.0006630814750678837
5632.0,0.0004720162833109498
6144.0,0.00017195098916999996
6656.0,-0.0008723694481886923
7168.0,0.00015461274597328156
7680.0,4.09415370086208e-05
8192.0,-5.3962492529535666e-05
9216.0,-0.0009260876104235649
10240.0,0.0007162514375522733
11264.0,0.00012499690637923777
12288.0,0.000612948730122298
13312.0,-7.324101170524955e-05
14336.0,-0.0009340487886220217
end
