version,3.0
numOfCh,1
type,point
parent_name,20-cuts
ch_type,1_1
kcount,1
numberNandB,1
brightnessNandB,1
carpet pos,0
pc,0
Time (ms),CH1 Auto-Correlation
1.0,0.016025325283408165
2.0,0.013009441085159779
3.0,0.010897048749029636
4.0,0.009379948489367962
5.0,0.00820481963455677
6.0,0.0072152335196733475
7.0,0.0063890693709254265
8.0,0.005723598413169384
9.0,0.005278834141790867
10.0,0.00495167076587677
11.0,0.004596678074449301
12.0,0.004261961672455072
13.0,0.00397448381409049
14.0,0.00387380039319396
15.0,0.0036646053194999695
16.0,0.0035129403695464134
18.0,0.003052948974072933
20.0,0.0027037577237933874
22.0,0.0023525767028331757
24.0,0.002175973728299141
26.0,0.0020621076691895723
28.0,0.0020181986037641764
30.0,0.0018977090949192643
32.0,0.0016788828652352095
36.0,0.0014596984256058931
40.0,0.0010859379544854164
44.0,0.000977560761384666
48.0,0.0006597157334908843
52.0,0.000419642950873822
56.0,0.0003525352803990245
60.0,0.0003425603499636054
64.0,0.0002524409210309386
72.0,0.0002549582568462938
80.0,0.00025392009411007166
88.0,0.00031749080517329276
96.0,0.0005509615293703973
104.0,0.0004640062979888171
112.0,0.000903110601939261
120.0,0.0011209837393835187
128.0,0.0005479318788275123
144.0,0.0003356508968863636
160.0,9.854856034507975e-05
176.0,0.0003884633770212531
192.0,0.0003982865309808403
208.0,0.00021111234673298895
224.0,0.00015161714691203088
240.0,0.00023653222888242453
256.0,0.00034008221700787544
288.0,0.0001309659710386768
320.0,-0.00025362533051520586
352.0,1.8157243175664917e-06
384.0,0.00031621474772691727
416.0,0.00048543207230977714
448.0,0.0001352251274511218
480.0,-0.0002273672289447859
512.0,-0.00027092432719655335
576.0,0.0002877572551369667
640.0,0.0003850143402814865
704.0,0.00011953622015425935
768.0,7.503704546252266e-05
832.0,-0.0004337701539043337
896.0,-0.000150132313137874
960.0,-0.0006827572360634804
1024.0,-8.11352874734439e-05
1152.0,-0.00041583157144486904
1280.0,-0.00010299837595084682
1408.0,-0.0003289814339950681
1536.0,-0.0001551454042783007
1664.0,-0.00010835049033630639
1792.0,-0.00019329645147081465
1920.0,-0.00023163897276390344
2048.0,-0.00019212676852475852
2304.0,5.298763790051453e-05
2560.0,0.00010450676927575842
2816.0,-8.117296238197014e-05
3072.0,-9.38656521611847e-05
3328.0,1.697057632554788e-05
3584.0,-3.5380209737922996e-05
3840.0,-7.36275251256302e-05
4096.0,-3.594468580558896e-05
4608.0,0.0002226976939709857
5120.0,-0.00020123574358876795
5632.0,-0.0002945470332633704
6144.0,3.926492718164809e-05
6656.0,0.00018104433547705412
7168.0,0.0002253500570077449
7680.0,-0.00019996055925730616
8192.0,3.1931560329212516e-07
9216.0,0.0001509017893113196
10240.0,-0.00023622637672815472
11264.0,0.000179278154973872
12288.0,0.00041222485015168786
13312.0,-0.000282693887129426
14336.0,-0.0004658781108446419
end
