version,3.0
numOfCh,1
type,point
parent_name,20-cuts
ch_type,1_1
kcount,1
numberNandB,1
brightnessNandB,1
carpet pos,0
pc,0
Time (ms),CH1 Auto-Correlation
1.0,0.027332285419106483
2.0,0.02239140495657921
3.0,0.018958713859319687
4.0,0.016703110188245773
5.0,0.01491013914346695
6.0,0.013513440266251564
7.0,0.0123129952698946
8.0,0.011175385676324368
9.0,0.010210420936346054
10.0,0.009711110964417458
11.0,0.009042217396199703
12.0,0.00845494493842125
13.0,0.008021782152354717
14.0,0.007510892581194639
15.0,0.007107971701771021
16.0,0.006887624505907297
18.0,0.006466252263635397
20.0,0.006198268383741379
22.0,0.005793448071926832
24.0,0.00532697094604373
26.0,0.005011464469134808
28.0,0.004842763766646385
30.0,0.004560231231153011
32.0,0.004426658619195223
36.0,0.0038292959798127413
40.0,0.003386399708688259
44.0,0.002857738174498081
48.0,0.0024267518892884254
52.0,0.0019551473669707775
56.0,0.0015586609952151775
60.0,0.0010815922869369388
64.0,0.000769714592024684
72.0,0.000499987683724612
80.0,0.00037450986565090716
88.0,0.00013867471716366708
96.0,3.95967326767277e-05
104.0,0.00017668855434749275
112.0,0.0002596558188088238
120.0,0.0007886982057243586
128.0,0.0013191069010645151
144.0,0.0012414505472406745
160.0,0.0014336593449115753
176.0,0.0015459792921319604
192.0,0.0006841199938207865
208.0,-0.00034312321804463863
224.0,-0.0011572649236768484
240.0,-0.0004346802888903767
256.0,0.00011490537144709378
288.0,0.00019433545821812004
320.0,-3.3274056477239355e-05
352.0,-0.0003629129787441343
384.0,-0.000271403492661193
416.0,-4.34391313319793e-06
448.0,0.0007644123397767544
480.0,0.0009103700867854059
512.0,0.0003889806102961302
576.0,0.0002142920420737937
640.0,-6.898058200022206e-05
704.0,-0.0004335057456046343
768.0,-8.574379171477631e-05
832.0,-0.0006013672682456672
896.0,0.00029207454645074904
960.0,0.0003635819011833519
1024.0,-0.00037425916525535285
1152.0,-0.0005488611641339958
1280.0,-0.00022969584097154438
1408.0,0.00030134382541291416
1536.0,-0.0002646768116392195
1664.0,-0.0007445240626111627
1792.0,-0.00020380486967042089
1920.0,-4.888606781605631e-05
2048.0,-0.0006685814587399364
2304.0,0.0005700014880858362
2560.0,0.0004939104546792805
2816.0,0.0002334710006834939
3072.0,0.00023587449686601758
3328.0,-9.381039126310498e-05
3584.0,-0.00043097324669361115
3840.0,-0.0006088072550483048
4096.0,-0.0010314504615962505
4608.0,-0.0005035081994719803
5120.0,0.0003103913040831685
5632.0,0.0002701031044125557
6144.0,-0.00015468518540728837
6656.0,0.00010658794053597376
7168.0,-0.0006404667510651052
7680.0,0.0005374510656110942
8192.0,0.0003899430448655039
9216.0,-0.00043765685404650867
10240.0,-0.0001566325663588941
11264.0,0.0003879445430357009
12288.0,-0.0005280828336253762
13312.0,0.0005565212341025472
14336.0,0.0002578239655122161
end
