version,3.0
numOfCh,1
type,point
parent_name,20-cuts
ch_type,1_1
kcount,1
numberNandB,1
brightnessNandB,1
carpet pos,0
pc,0
Time (ms),CH1 Auto-Correlation
1.0,0.016438327729701996
2.0,0.013445200398564339
3.0,0.011322335340082645
4.0,0.009717085398733616
5.0,0.008502247743308544
6.0,0.0074432953260838985
7.0,0.006569609045982361
8.0,0.005887474399060011
9.0,0.005190619267523289
10.0,0.0047222585417330265
11.0,0.004264292307198048
12.0,0.003902214113622904
13.0,0.0035385875962674618
14.0,0.0032523872796446085
15.0,0.003025203477591276
16.0,0.002826763316988945
18.0,0.0023158325348049402
20.0,0.002049913164228201
22.0,0.0019335867837071419
24.0,0.0019690480548888445
26.0,0.0019097666954621673
28.0,0.0017841318622231483
30.0,0.0015999041497707367
32.0,0.0014134914381429553
36.0,0.0012843041913583875
40.0,0.0012838380644097924
44.0,0.001482353894971311
48.0,0.0015055084368214011
52.0,0.0014626908814534545
56.0,0.0010148939909413457
60.0,0.000796617241576314
64.0,0.00012336827057879418
72.0,0.00022542978695128113
80.0,0.0005095152300782502
88.0,-6.741954621247714e-06
96.0,2.3860788132878952e-05
104.0,-0.00021097790158819407
112.0,-0.000227986674872227
120.0,4.772641841555014e-05
128.0,-0.00028360463329590857
144.0,-0.00022966571850702167
160.0,0.0001520567457191646
176.0,0.0002518242399673909
192.0,-0.00014900031965225935
208.0,-8.048955351114273e-05
224.0,-0.0002700566838029772
240.0,-6.556282460223883e-05
256.0,0.00013514883175957948
288.0,0.0006915792473591864
320.0,0.0007577468059025705
352.0,0.00017421787197235972
384.0,3.24802786053624e-05
416.0,-9.122381743509322e-05
448.0,0.0001953116588992998
480.0,0.00015706021804362535
512.0,3.721260145539418e-05
576.0,0.00042012674384750426
640.0,0.0006118780001997948
704.0,-4.350868948677089e-06
768.0,-7.440907211275771e-06
832.0,0.0002813331375364214
896.0,0.00045289963600225747
960.0,0.0007322867168113589
1024.0,-9.394028893439099e-05
1152.0,-3.9605441997991875e-05
1280.0,9.615981980459765e-05
1408.0,-0.0004224657895974815
1536.0,-0.00028378446586430073
1664.0,-0.00019117498595733196
1792.0,-0.000310280651319772
1920.0,-0.0003125550865661353
2048.0,-0.0003885967598762363
2304.0,-0.00041284062899649143
2560.0,-0.00041553779738023877
2816.0,-0.0004470523272175342
3072.0,-6.565725925611332e-05
3328.0,0.00010075421596411616
3584.0,-2.8650774765992537e-05
3840.0,-5.8189940318698063e-05
4096.0,0.0002762395888566971
4608.0,0.0002538826083764434
5120.0,0.0002008608280448243
5632.0,0.00011466597061371431
6144.0,4.829048702958971e-05
6656.0,8.668198461236898e-06
7168.0,-0.00015293799515347928
7680.0,-3.752352131414227e-05
8192.0,-0.00010238007962470874
9216.0,-0.00024532360839657485
10240.0,3.543137836459209e-06
11264.0,0.0002876992803066969
12288.0,-1.0876758096856065e-05
13312.0,-0.0003246122214477509
14336.0,-1.090757086785743e-05
end
