version,3.0
numOfCh,1
type,point
parent_name,20-cuts
ch_type,1_1
kcount,1
numberNandB,1
brightnessNandB,1
carpet pos,0
pc,0
Time (ms),CH1 Auto-Correlation
1.0,0.024428201839327812
2.0,0.019505005329847336
3.0,0.016250045970082283
4.0,0.013670144602656364
5.0,0.011606852523982525
6.0,0.009882725775241852
7.0,0.008610816672444344
8.0,0.0075989277102053165
9.0,0.006840963382273912
10.0,0.006182246841490269
11.0,0.005525854881852865
12.0,0.005075664725154638
13.0,0.004805999342352152
14.0,0.004526179749518633
15.0,0.004370833281427622
16.0,0.004246824886649847
18.0,0.0038933586329221725
20.0,0.003681984031572938
22.0,0.0032184217125177383
24.0,0.0026865690015256405
26.0,0.002303732093423605
28.0,0.00217336043715477
30.0,0.0019435426220297813
32.0,0.002115927403792739
36.0,0.001999002182856202
40.0,0.0016570636071264744
44.0,0.0012309442972764373
48.0,0.000696666887961328
52.0,0.0006063181790523231
56.0,0.000681177363730967
60.0,0.0005359601927921176
64.0,0.0006868636701256037
72.0,0.00013258428953122348
80.0,-6.538610614370555e-05
88.0,0.0008286302327178419
96.0,0.0014434310141950846
104.0,0.0019236146472394466
112.0,0.0018654754385352135
120.0,0.0019465872319415212
128.0,0.0011360235512256622
144.0,0.0003212348383385688
160.0,0.00026449369033798575
176.0,-0.0005231247050687671
192.0,-5.205277193454094e-05
208.0,0.0007103041280061007
224.0,0.00031627752468921244
240.0,0.0001627006713533774
256.0,-0.00036211987026035786
288.0,-0.0004829893878195435
320.0,-0.00029504322446882725
352.0,-7.894848386058584e-05
384.0,-0.0005076488014310598
416.0,-0.0008909949101507664
448.0,-0.0006639854982495308
480.0,-8.373762102564797e-05
512.0,-0.00019172603788319975
576.0,-0.00016934520681388676
640.0,0.0004245494492352009
704.0,0.00037985737435519695
768.0,0.0002843700349330902
832.0,0.0005543885054066777
896.0,0.00011095662921434268
960.0,0.0008529909537173808
1024.0,0.00027028744807466865
1152.0,-0.00014286788064055145
1280.0,-0.00048620981397107244
1408.0,-0.0002323370281374082
1536.0,0.00020389033306855708
1664.0,-4.567475480143912e-05
1792.0,0.00012196606257930398
1920.0,-0.00028237380320206285
2048.0,-0.00010414179268991575
2304.0,-0.000252611207542941
2560.0,-6.572429265361279e-05
2816.0,-0.0002557332336436957
3072.0,-7.520167855545878e-05
3328.0,0.0007734014070592821
3584.0,-0.00044786467333324254
3840.0,-0.0005013035843148828
4096.0,-0.0002244022471131757
4608.0,-7.711973012192175e-05
5120.0,0.0001819793542381376
5632.0,-9.05517372302711e-05
6144.0,7.72759085521102e-05
6656.0,0.00014024379197508097
7168.0,2.7438913093646988e-05
7680.0,0.00017494978965260088
8192.0,0.00030219124164432287
9216.0,-0.0005692237755283713
10240.0,-5.1771105063380674e-05
11264.0,-0.00019709166372194886
12288.0,-0.00020886324637103826
13312.0,0.00029233828536234796
14336.0,0.00013575248885899782
end
