version,3.0
numOfCh,1
type,point
parent_name,20-cuts
ch_type,1_1
kcount,1
numberNandB,1
brightnessNandB,1
carpet pos,0
pc,0
Time (ms),CH1 Auto-Correlation
1.0,0.017199832946062088
2.0,0.014161032624542713
3.0,0.011957084760069847
4.0,0.01042590569704771
5.0,0.009225654415786266
6.0,0.008280904963612556
7.0,0.007596045732498169
8.0,0.006999997887760401
9.0,0.006452410481870174
10.0,0.006034420803189278
11.0,0.005540238693356514
12.0,0.005121203605085611
13.0,0.004758658818900585
14.0,0.004418469965457916
15.0,0.004154548514634371
16.0,0.004000588785856962
18.0,0.0035254801623523235
20.0,0.0034432685934007168
22.0,0.0033357643987983465
24.0,0.0030751561280339956
26.0,0.0028848021756857634
28.0,0.0026167528703808784
30.0,0.002514334861189127
32.0,0.0023402764927595854
36.0,0.0020500561222434044
40.0,0.0017113159410655499
44.0,0.001493296236731112
48.0,0.0014091532211750746
52.0,0.0012596737360581756
56.0,0.0012136450968682766
60.0,0.0011769278207793832
64.0,0.0009548109374009073
72.0,0.0007313151145353913
80.0,0.00047117299982346594
88.0,0.00040730644832365215
96.0,-0.00019999552750959992
104.0,0.0002072524221148342
112.0,0.0004232233332004398
120.0,0.00022088593686930835
128.0,0.00020912228501401842
144.0,0.00043842667946591973
160.0,0.00028337983530946076
176.0,0.000541326473467052
192.0,5.9036672610091045e-05
208.0,-0.00014056819782126695
224.0,0.0001568667939864099
240.0,-9.571947157382965e-05
256.0,-4.0616196201881394e-05
288.0,-0.0003782525600399822
320.0,0.00022859906312078238
352.0,8.349482959602028e-05
384.0,0.0003582281351555139
416.0,0.00025875132996588945
448.0,0.00024292203306686133
480.0,5.478294042404741e-05
512.0,0.00028464471688494086
576.0,0.00011754821025533602
640.0,3.3908338082255796e-05
704.0,-0.00021795820794068277
768.0,0.00010461365309311077
832.0,-9.238316852133721e-05
896.0,0.0003193939628545195
960.0,-2.8874092095065862e-05
1024.0,-0.0001046062316163443
1152.0,-9.750773460837081e-05
1280.0,-3.518093581078574e-05
1408.0,-0.00014642863243352622
1536.0,-0.0002110515342792496
1664.0,-0.00023393651645164937
1792.0,-5.0950926379300654e-05
1920.0,-0.00036070606438443065
2048.0,0.0004109682631678879
2304.0,-3.007191844517365e-05
2560.0,0.00016892675193957984
2816.0,0.00023985846200957894
3072.0,-0.00028419774025678635
3328.0,-0.0004409944813232869
3584.0,-0.0002788359415717423
3840.0,8.725625229999423e-05
4096.0,1.2186707863293123e-05
4608.0,1.430362681276165e-05
5120.0,-0.00025832909159362316
5632.0,-0.00020026962738484144
6144.0,-0.0004070774302817881
6656.0,0.00014498484961222857
7168.0,-0.00012862836592830718
7680.0,5.613998837361578e-06
8192.0,0.00010534007742535323
9216.0,0.00010126693814527243
10240.0,-0.00013348749780561775
11264.0,0.0001576793729327619
12288.0,6.0958558606216684e-05
13312.0,-0.00016350772057194263
14336.0,0.0001568962907185778
end
