version,3.0
numOfCh,1
type,point
parent_name,20-cuts
ch_type,1_1
kcount,1
numberNandB,1
brightnessNandB,1
carpet pos,0
pc,0
Time (ms),CH1 Auto-Correlation
1.0,0.025886232033371925
2.0,0.021184347569942474
3.0,0.017715485766530037
4.0,0.01527367439121008
5.0,0.01343518402427435
6.0,0.01212706696242094
7.0,0.010916285216808319
8.0,0.009943165816366673
9.0,0.009132989682257175
10.0,0.00828629545867443
11.0,0.007650737650692463
12.0,0.006958299316465855
13.0,0.006429539993405342
14.0,0.005947152618318796
15.0,0.005464269779622555
16.0,0.00504703214392066
18.0,0.004246491938829422
20.0,0.003979443106800318
22.0,0.003492007963359356
24.0,0.0030545848421752453
26.0,0.0026199507992714643
28.0,0.002183469943702221
30.0,0.001811032765544951
32.0,0.0014999606646597385
36.0,0.0013487443793565035
40.0,0.0007093133754096925
44.0,0.0006858074339106679
48.0,0.00030975707340985537
52.0,4.0297927625942975e-05
56.0,3.884167017531581e-05
60.0,6.214279710547999e-05
64.0,0.00024029969063121825
72.0,-0.00037923568743281066
80.0,-0.0005191431846469641
88.0,1.0821830983331893e-05
96.0,0.000487925426568836
104.0,0.0003785352746490389
112.0,0.00023255436099134386
120.0,0.00018904086027760059
128.0,0.00010451156413182616
144.0,0.0002957382530439645
160.0,0.0007207271992228925
176.0,0.0009360849508084357
192.0,0.0009349336032755673
208.0,0.0007642057025805116
224.0,0.0004952721646986902
240.0,0.0004571234167087823
256.0,-0.0003322435077279806
288.0,-0.0006755967624485493
320.0,-0.0004933004383929074
352.0,-0.0005453880876302719
384.0,-9.501539352640975e-06
416.0,0.0004799727175850421
448.0,-9.602570935385302e-05
480.0,-0.0005168873467482626
512.0,-0.00047752648242749274
576.0,-0.00014835847832728177
640.0,0.0004953102325089276
704.0,-0.00018485072359908372
768.0,-0.00048786713159643114
832.0,0.0004135009949095547
896.0,-0.0002617640420794487
960.0,0.0005019630771130323
1024.0,0.0003048610233236104
1152.0,-9.723592665977776e-05
1280.0,-0.00010414863209007308
1408.0,-0.00028775964165106416
1536.0,-0.00015253998572006822
1664.0,6.141371704870835e-05
1792.0,0.00015510311641264707
1920.0,-0.00022913985594641417
2048.0,-0.00010535773617448285
2304.0,-0.0003134421131107956
2560.0,-5.1346509280847386e-05
2816.0,7.48103266232647e-05
3072.0,-0.0002966340398415923
3328.0,-0.00018162409833166748
3584.0,-0.00020783886429853737
3840.0,0.00030520797008648515
4096.0,6.362092972267419e-05
4608.0,0.00019823538605123758
5120.0,-5.463078559841961e-05
5632.0,0.00029019618523307145
6144.0,-0.0002816444612108171
6656.0,-1.4768964319955558e-05
7168.0,-0.00016377911379095167
7680.0,4.9688991566654295e-05
8192.0,-2.4425427909591235e-05
9216.0,0.00020129889890085906
10240.0,9.329798922408372e-05
11264.0,-0.0005024214624427259
12288.0,-0.0002969837514683604
13312.0,-0.00015650596469640732
14336.0,0.0003805598244071007
end
