version,3.0
numOfCh,1
type,point
parent_name,20-cuts
ch_type,1_1
kcount,1
numberNandB,1
brightnessNandB,1
carpet pos,0
pc,0
Time (ms),CH1 Auto-Correlation
1.0,0.01605568267405033
2.0,0.012974428944289684
3.0,0.010801383294165134
4.0,0.0093167619779706
5.0,0.008149046450853348
6.0,0.007236876059323549
7.0,0.006461200769990683
8.0,0.0057051824405789375
9.0,0.005172761622816324
10.0,0.004711541812866926
11.0,0.004383513238281012
12.0,0.004152428824454546
13.0,0.003915834240615368
14.0,0.0036938744597136974
15.0,0.003551625646650791
16.0,0.0033457716926932335
18.0,0.0029531733598560095
20.0,0.0025174187030643225
22.0,0.0022555298637598753
24.0,0.0019930233247578144
26.0,0.0018663383089005947
28.0,0.0017930464819073677
30.0,0.0015540716703981161
32.0,0.0012440074933692813
36.0,0.0009796463418751955
40.0,0.0009326574509032071
44.0,0.0011320547200739384
48.0,0.0013210915494710207
52.0,0.0009486357448622584
56.0,0.0006938052247278392
60.0,0.0004574647464323789
64.0,0.00021225045202299953
72.0,-1.209711808769498e-05
80.0,-4.38882052549161e-05
88.0,8.021133544389158e-05
96.0,0.0001921889343066141
104.0,0.000369813060387969
112.0,0.00023243730538524687
120.0,0.00020232488168403506
128.0,-0.00018931220984086394
144.0,-0.0006656079785898328
160.0,-0.0006544050993397832
176.0,-0.0005059961695224047
192.0,-0.000444970210082829
208.0,-0.0002539483248256147
224.0,8.545115269953385e-05
240.0,-0.00019798128050751984
256.0,-0.000723315286450088
288.0,-0.00045661648618988693
320.0,0.00011883998377015814
352.0,6.896978447912261e-05
384.0,-0.00020044368284288794
416.0,-4.817385342903435e-05
448.0,-0.0002708901301957667
480.0,5.499168037204072e-05
512.0,-0.00014570516941603273
576.0,-7.852896669646725e-05
640.0,0.00013481210044119507
704.0,3.667542478069663e-05
768.0,5.304736987454817e-05
832.0,-0.0003490505332592875
896.0,-7.751154771540314e-05
960.0,-0.0002243102208012715
1024.0,-0.00027995536220259964
1152.0,2.6727107979240827e-05
1280.0,-0.0002991052169818431
1408.0,-7.049436680972576e-05
1536.0,0.0001841597695602104
1664.0,0.0001900615607155487
1792.0,-0.00010913380538113415
1920.0,8.748581421968993e-06
2048.0,0.00018165075744036585
2304.0,-0.00011109997285529971
2560.0,0.00014393019955605268
2816.0,-0.0002035707439063117
3072.0,-3.073630796279758e-05
3328.0,0.00027627157396636903
3584.0,-7.28943050489761e-05
3840.0,-0.00017759502225089818
4096.0,-0.00012500674347393215
4608.0,1.0191422916250303e-05
5120.0,7.275192183442414e-05
5632.0,-0.00015550214448012412
6144.0,-0.00019015958241652697
6656.0,0.0002181352028856054
7168.0,0.00013743317686021328
7680.0,-0.00020390369172673672
8192.0,7.200054824352264e-05
9216.0,-6.0475198552012444e-05
10240.0,4.2567826312733814e-05
11264.0,-0.00010141581151401624
12288.0,-5.606941704172641e-05
13312.0,0.0001343025651294738
14336.0,-0.00014504598220810294
end
