version,3.0
numOfCh,1
type,point
parent_name,20-cuts
ch_type,1_1
kcount,1
numberNandB,1
brightnessNandB,1
carpet pos,0
pc,0
Time (ms),CH1 Auto-Correlation
1.0,0.01798929274082184
2.0,0.014956600964069366
3.0,0.012823755852878094
4.0,0.011250432580709457
5.0,0.010129001922905445
6.0,0.009186643175780773
7.0,0.008332232013344765
8.0,0.007524237502366304
9.0,0.0067780353128910065
10.0,0.006131639238446951
11.0,0.005557367578148842
12.0,0.005176743026822805
13.0,0.004897081293165684
14.0,0.004535695072263479
15.0,0.00416494719684124
16.0,0.003869652049615979
18.0,0.0035480486694723368
20.0,0.003334991168230772
22.0,0.0030620063189417124
24.0,0.002715226961299777
26.0,0.0025566420517861843
28.0,0.00246612960472703
30.0,0.002269502030685544
32.0,0.002104841871187091
36.0,0.0017700138268992305
40.0,0.0020221977028995752
44.0,0.0019232030026614666
48.0,0.001590993138961494
52.0,0.001318886992521584
56.0,0.0011790518183261156
60.0,0.0011494040954858065
64.0,0.0012898272834718227
72.0,0.0011381309013813734
80.0,0.0010049109114333987
88.0,0.0012157486053183675
96.0,0.0009556767763569951
104.0,0.0005182300228625536
112.0,0.0005896684597246349
120.0,0.0007909229025244713
128.0,0.0006231917068362236
144.0,0.0007303775055333972
160.0,0.0008440118981525302
176.0,-0.00012559218157548457
192.0,-0.0004385837528388947
208.0,-4.680924757849425e-05
224.0,-1.1325297236908227e-05
240.0,0.00037684146082028747
256.0,0.000540318840648979
288.0,0.0003384036826901138
320.0,0.00020929999300278723
352.0,0.0005726992967538536
384.0,0.0006522221374325454
416.0,0.00022056509624235332
448.0,-2.828444485203363e-05
480.0,-0.00011238396109547466
512.0,-0.00037813608651049435
576.0,-0.00029129741596989334
640.0,-7.05983693478629e-05
704.0,-0.00014350685523822904
768.0,-0.0001355964195681736
832.0,9.148144454229623e-05
896.0,-2.4847135136951692e-05
960.0,1.4287172234617174e-05
1024.0,0.0004955577314831316
1152.0,0.0005046079168096185
1280.0,-2.2495096345664933e-05
1408.0,0.00025126541731879115
1536.0,-0.0003711534372996539
1664.0,-0.0003873212554026395
1792.0,6.306955765467137e-05
1920.0,-0.0002880915126297623
2048.0,3.585898957680911e-05
2304.0,3.811682836385444e-05
2560.0,0.0003226783883292228
2816.0,5.789623537566513e-05
3072.0,-0.0003077097935602069
3328.0,0.00018032283696811646
3584.0,0.0006126693915575743
3840.0,-5.950587728875689e-05
4096.0,-0.00039260296034626663
4608.0,-0.0001958881039172411
5120.0,-0.000661137921269983
5632.0,-0.00021567392104770988
6144.0,-0.0003258459910284728
6656.0,0.00019245827570557594
7168.0,-0.00019775402324739844
7680.0,-7.006077794358134e-05
8192.0,-0.00023150497872848064
9216.0,0.00011583046580199152
10240.0,0.0004073711752425879
11264.0,-0.0001183941203635186
12288.0,0.0002145416074199602
13312.0,0.00013146955461706966
14336.0,-0.000599763123318553
end
