version,3.0
numOfCh,1
type,point
parent_name,20-cuts
ch_type,1_1
kcount,1
numberNandB,1
brightnessNandB,1
carpet pos,0
pc,0
Time (ms),CH1 Auto-Correlation
1.0,0.01577753759920597
2.0,0.012974393554031849
3.0,0.010925253853201866
4.0,0.009341558441519737
5.0,0.00813988409936428
6.0,0.007273434661328793
7.0,0.006577210500836372
8.0,0.0060240826569497585
9.0,0.005565012339502573
10.0,0.005237402860075235
11.0,0.0048785461112856865
12.0,0.004552572499960661
13.0,0.004267091862857342
14.0,0.00391632504761219
15.0,0.0035641014110296965
16.0,0.0032783409114927053
18.0,0.002883101347833872
20.0,0.002685217186808586
22.0,0.0025644423440098763
24.0,0.0024594825226813555
26.0,0.002165250014513731
28.0,0.0021246185060590506
30.0,0.0020583223085850477
32.0,0.002013249322772026
36.0,0.0017744044307619333
40.0,0.0016754171811044216
44.0,0.0015346717555075884
48.0,0.0013156906934455037
52.0,0.0010141623206436634
56.0,0.0008407110581174493
60.0,0.0009677765774540603
64.0,0.0009966384386643767
72.0,0.0009399825357832015
80.0,0.0007608869927935302
88.0,0.0008484027348458767
96.0,0.00044967641588300467
104.0,0.0005377123015932739
112.0,0.000531309749931097
120.0,0.00028498799656517804
128.0,0.00040447176434099674
144.0,0.0001824590435717255
160.0,-2.1927708075963892e-05
176.0,-8.617383718956262e-05
192.0,-0.00013376247079577297
208.0,-0.0002420663950033486
224.0,-0.00010928652773145586
240.0,0.00028774485690519214
256.0,0.00033140057348646224
288.0,-0.0003293217159807682
320.0,-0.0002507254248484969
352.0,0.00018035617540590465
384.0,-0.00015176656597759575
416.0,-0.0006892755045555532
448.0,-0.00016306947509292513
480.0,-0.00016879818576853722
512.0,-0.00030183311901055276
576.0,-0.0003313527558930218
640.0,0.00012124399654567242
704.0,-0.000440718955360353
768.0,-0.00027124382904730737
832.0,0.00031835149275138974
896.0,0.000121178942208644
960.0,0.0001116026469389908
1024.0,-6.924391072971048e-06
1152.0,3.0301893275463954e-05
1280.0,-0.00010112226300407201
1408.0,2.3649938896141975e-07
1536.0,-9.710197446111124e-06
1664.0,0.00015216493920888752
1792.0,-3.8971966205281205e-06
1920.0,3.055706838495098e-05
2048.0,5.757273902418092e-05
2304.0,0.00032879612990655005
2560.0,0.00017604511231184006
2816.0,-0.00020842734375037253
3072.0,0.00013417786976788193
3328.0,0.00021841615671291947
3584.0,2.803141796903219e-05
3840.0,-0.00021935363474767655
4096.0,-0.00028650008607655764
4608.0,0.0004218117392156273
5120.0,-0.0004201748815830797
5632.0,0.00022813130635768175
6144.0,-0.00026018882635980844
6656.0,-0.00024445168673992157
7168.0,-5.4211686801863834e-05
7680.0,8.277775486931205e-05
8192.0,-0.00018653774168342352
9216.0,-0.0001123929614550434
10240.0,-7.74288346292451e-05
11264.0,6.0281206970103085e-05
12288.0,0.00014668759831693023
13312.0,-0.0001845113729359582
14336.0,0.00011854678450617939
end
