version,3.0
numOfCh,1
type,point
parent_name,20-cuts
ch_type,1_1
kcount,1
numberNandB,1
brightnessNandB,1
carpet pos,0
pc,0
Time (ms),CH1 Auto-Correlation
1.0,0.026803066954016685
2.0,0.02212982065975666
3.0,0.018918441608548164
4.0,0.01649443246424198
5.0,0.014530466869473457
6.0,0.012950154952704906
7.0,0.011488540098071098
8.0,0.01036135759204626
9.0,0.009473615325987339
10.0,0.008668322116136551
11.0,0.007821555249392986
12.0,0.007203339599072933
13.0,0.006775785703212023
14.0,0.006574824918061495
15.0,0.006135113537311554
16.0,0.005762520711869001
18.0,0.005226977169513702
20.0,0.004705814179033041
22.0,0.0042489077895879745
24.0,0.003856442403048277
26.0,0.0032078432850539684
28.0,0.0027084851171821356
30.0,0.0026563601568341255
32.0,0.0024706635158509016
36.0,0.002140751341357827
40.0,0.0015087717911228538
44.0,0.001281752367503941
48.0,0.0015891999937593937
52.0,0.0012456421973183751
56.0,0.0007283425075002015
60.0,0.0005191628006286919
64.0,0.00019807326316367835
72.0,0.000329118367517367
80.0,-0.00039725686656311154
88.0,-0.00022990071738604456
96.0,-2.8732230930472724e-05
104.0,-2.5875782739603892e-05
112.0,0.0005347700789570808
120.0,0.0006409046472981572
128.0,0.001186111243441701
144.0,0.0012217460898682475
160.0,0.0009348099119961262
176.0,0.0012297770008444786
192.0,0.0009215364698320627
208.0,0.0006715571507811546
224.0,0.0005927845486439764
240.0,0.00045174345723353326
256.0,3.5493039831635542e-06
288.0,-0.0006435899995267391
320.0,0.0004973930190317333
352.0,0.000937473145313561
384.0,0.0006552271079272032
416.0,-4.793906191480346e-05
448.0,-0.000607169175054878
480.0,-0.00041786624933592975
512.0,3.764931170735508e-05
576.0,0.00016611936734989285
640.0,-4.809875099454075e-05
704.0,-0.00022992014419287443
768.0,-6.861307338112965e-05
832.0,-0.0009808604372665286
896.0,-0.0006226809346117079
960.0,-0.0009939799783751369
1024.0,-0.0013419699389487505
1152.0,-0.0005164860631339252
1280.0,2.9680713851121254e-06
1408.0,-0.000390573259210214
1536.0,5.401111411629245e-05
1664.0,9.283415420213714e-05
1792.0,0.000432220142101869
1920.0,0.0008475070353597403
2048.0,0.0007579098455607891
2304.0,0.00011255060962866992
2560.0,0.00048490235349163413
2816.0,-0.0006147620151750743
3072.0,-0.0003934583510272205
3328.0,-0.00039089692290872335
3584.0,-0.00027801026590168476
3840.0,0.00039150574593804777
4096.0,0.00044609239557757974
4608.0,1.1919636563106906e-05
5120.0,-0.0005184183828532696
5632.0,-0.00030600279569625854
6144.0,0.0006050210213288665
6656.0,0.00019104915554635227
7168.0,-0.0007281358703039587
7680.0,2.218932650066563e-06
8192.0,6.90687884343788e-05
9216.0,-7.862191705498844e-05
10240.0,0.0002588691422715783
11264.0,-1.9991555745946243e-05
12288.0,-6.142208349046996e-06
13312.0,-0.00011822055967058986
14336.0,-0.0004747401981148869
end
