version,3.0
numOfCh,1
type,point
parent_name,20-cuts
ch_type,1_1
kcount,1
numberNandB,1
brightnessNandB,1
carpet pos,0
pc,0
Time (ms),CH1 Auto-Correlation
1.0,0.01675534062087536
2.0,0.013691823929548264
3.0,0.011510128155350685
4.0,0.009967809543013573
5.0,0.00885773915797472
6.0,0.007908688858151436
7.0,0.00707832770422101
8.0,0.006406218744814396
9.0,0.005887873005121946
10.0,0.005392399150878191
11.0,0.005037917289882898
12.0,0.004698603879660368
13.0,0.004350816830992699
14.0,0.004071401432156563
15.0,0.003910863772034645
16.0,0.0037294437643140554
18.0,0.0033767197746783495
20.0,0.0031130157876759768
22.0,0.0030117023270577192
24.0,0.0029894127510488033
26.0,0.0028718856628984213
28.0,0.002575863152742386
30.0,0.0024047638289630413
32.0,0.002160977106541395
36.0,0.001549400738440454
40.0,0.0013352088863030076
44.0,0.0013180695241317153
48.0,0.0012675118632614613
52.0,0.0007724944734945893
56.0,0.0005136399413459003
60.0,0.0006476840935647488
64.0,0.0007908023544587195
72.0,0.0007926634862087667
80.0,0.0006269909208640456
88.0,0.0007226085290312767
96.0,0.0006324521964415908
104.0,0.00028756767278537154
112.0,0.0004492785665206611
120.0,0.0007444666116498411
128.0,0.0006905037444084883
144.0,0.0007212651544250548
160.0,2.992821919178823e-06
176.0,0.00013163205585442483
192.0,4.001923662144691e-05
208.0,-0.00022259054821915925
224.0,0.00011560368875507265
240.0,0.0004134599003009498
256.0,0.00022038191673345864
288.0,0.00017519113316666335
320.0,-0.00035874827881343663
352.0,0.0001075861364370212
384.0,0.000589588365983218
416.0,0.0002513169893063605
448.0,0.00028643751284107566
480.0,-0.00038308845250867307
512.0,-0.00030580683960579336
576.0,0.00029050392913632095
640.0,-0.00015580335457343608
704.0,-0.0007450944394804537
768.0,-0.00031944960937835276
832.0,-0.00011647399514913559
896.0,0.00019237748347222805
960.0,0.00020546274026855826
1024.0,0.0003793750947806984
1152.0,-0.00022147491108626127
1280.0,0.00020717590814456344
1408.0,0.0004420771438162774
1536.0,-0.000389207067200914
1664.0,-0.00044430632260628045
1792.0,-0.0003017749695573002
1920.0,0.0005563943996094167
2048.0,0.00030600171885453165
2304.0,7.302252197405323e-05
2560.0,-0.0006903384928591549
2816.0,-0.0002016948419623077
3072.0,-0.00021109165390953422
3328.0,0.0001620389666641131
3584.0,-8.55791149660945e-05
3840.0,-0.0002651096147019416
4096.0,1.5961060853442177e-05
4608.0,-6.233072781469673e-05
5120.0,-9.530338138574734e-05
5632.0,0.00022200040984898806
6144.0,-0.00010641892004059628
6656.0,-0.0002362389932386577
7168.0,-9.145289823209168e-07
7680.0,0.00016667545423842967
8192.0,0.00014038142398931086
9216.0,0.0002803055103868246
10240.0,-2.0171688447589986e-05
11264.0,-0.00021786258730571717
12288.0,-0.0004006299132015556
13312.0,-4.016651189431286e-08
14336.0,0.0003325421130284667
end
