version,3.0
numOfCh,1
type,point
parent_name,20-cuts
ch_type,1_1
kcount,1
numberNandB,1
brightnessNandB,1
carpet pos,0
pc,0
Time (ms),CH1 Auto-Correlation
1.0,0.02842952124774456
2.0,0.02362227998673916
3.0,0.020298896357417107
4.0,0.017890801653265953
5.0,0.015944473445415497
6.0,0.01438137423247099
7.0,0.01315226685255766
8.0,0.012093981727957726
9.0,0.011121402494609356
10.0,0.010194765403866768
11.0,0.009370404295623302
12.0,0.008823027834296227
13.0,0.008484442718327045
14.0,0.008051731623709202
15.0,0.0075963460840284824
16.0,0.007134783547371626
18.0,0.006145082414150238
20.0,0.0054500289261341095
22.0,0.005008111707866192
24.0,0.0048930952325463295
26.0,0.004785386845469475
28.0,0.004572340752929449
30.0,0.004169229883700609
32.0,0.003778515849262476
36.0,0.0031098038889467716
40.0,0.0023933222983032465
44.0,0.0019829387310892344
48.0,0.0019537112675607204
52.0,0.0015692763263359666
56.0,0.0014160939026623964
60.0,0.0011475232895463705
64.0,0.0009566775406710804
72.0,0.0005416495841927826
80.0,-5.824481195304543e-05
88.0,-9.819284605327994e-05
96.0,-0.0007534527685493231
104.0,-0.0010968860005959868
112.0,-0.0010391386458650231
120.0,-0.001136028440669179
128.0,-0.001773518742993474
144.0,-0.0004343997279647738
160.0,0.0003050322411581874
176.0,0.0008014080231077969
192.0,0.001393617712892592
208.0,0.0009573890129104257
224.0,0.0012769470922648907
240.0,0.000513839244376868
256.0,0.0003847542102448642
288.0,-0.00010058953193947673
320.0,-2.1291951270541176e-05
352.0,-0.0006266197306104004
384.0,-0.0007727128104306757
416.0,-0.0003933193802367896
448.0,-0.00012118974700570107
480.0,-7.7034295827616e-05
512.0,0.00035601502167992294
576.0,-0.00047762057511135936
640.0,0.00014147501497063786
704.0,-0.0003043475153390318
768.0,-0.00040572177385911345
832.0,-0.00035331258550286293
896.0,-0.0006378380348905921
960.0,4.0615308535052463e-05
1024.0,0.0007720342255197465
1152.0,-0.0003650546132121235
1280.0,-0.00019416546274442226
1408.0,-0.0004100541118532419
1536.0,0.0011040217941626906
1664.0,0.0006370688788592815
1792.0,0.0007833376876078546
1920.0,0.0002625228080432862
2048.0,-0.0002583203313406557
2304.0,-0.0008488321909680963
2560.0,-0.000493330997414887
2816.0,-0.0005016708164475858
3072.0,-8.079819053818937e-06
3328.0,0.00018156743317376822
3584.0,0.0002703704230953008
3840.0,-0.0006805789307691157
4096.0,-0.0007313120877370238
4608.0,-8.347741095349193e-05
5120.0,6.620837666559964e-05
5632.0,8.397972123930231e-05
6144.0,6.412852962967008e-05
6656.0,0.00020504817075561732
7168.0,0.00048668516683392227
7680.0,0.00012019582209177315
8192.0,5.245550346444361e-05
9216.0,-0.00019380693265702575
10240.0,-0.00017140315321739763
11264.0,-1.75212808244396e-05
12288.0,4.681318750954233e-05
13312.0,-5.790639534097863e-06
14336.0,-3.3964592148549855e-05
end
