version,3.0
numOfCh,1
type,point
parent_name,20-cuts
ch_type,1_1
kcount,1
numberNandB,1
brightnessNandB,1
carpet pos,0
pc,0
Time (ms),CH1 Auto-Correlation
1.0,0.016754839569330215
2.0,0.013780691660940647
3.0,0.011629956774413586
4.0,0.010154900141060352
5.0,0.008990108966827393
6.0,0.00797521136701107
7.0,0.007178951054811478
8.0,0.006529049016535282
9.0,0.006010950077325106
10.0,0.005715393461287022
11.0,0.005400469526648521
12.0,0.005133395548909903
13.0,0.004776568617671728
14.0,0.004489483777433634
15.0,0.004262561909854412
16.0,0.0039115529507398605
18.0,0.003489472670480609
20.0,0.0031620676163583994
22.0,0.0028810228686779737
24.0,0.002698793075978756
26.0,0.002368325600400567
28.0,0.002079196274280548
30.0,0.0019310355419293046
32.0,0.0018899039132520556
36.0,0.001962654059752822
40.0,0.002050053793936968
44.0,0.00221272767521441
48.0,0.0018874916713684797
52.0,0.0015531897079199553
56.0,0.001397382584400475
60.0,0.0011171813821420074
64.0,0.000975310686044395
72.0,0.0007699836860410869
80.0,0.0007928252452984452
88.0,0.0004633496282622218
96.0,0.0005940213450230658
104.0,0.000556491781026125
112.0,0.0002485406876076013
120.0,0.00018204805382993072
128.0,0.00023553856590297073
144.0,4.644281943910755e-05
160.0,-6.378602120094001e-05
176.0,2.2817122953711078e-05
192.0,2.9919106964371167e-05
208.0,0.00023866939591243863
224.0,0.00016593803593423218
240.0,-8.19479173514992e-05
256.0,0.00014316693705040962
288.0,-0.00033267997787334025
320.0,-0.0005784869426861405
352.0,-7.451546844094992e-05
384.0,-7.44404605939053e-05
416.0,0.0006307386211119592
448.0,0.000518440967425704
480.0,0.00020036051864735782
512.0,-6.542615301441401e-05
576.0,-0.00015101373719517142
640.0,-0.0004769916122313589
704.0,-0.0008038230589590967
768.0,-0.0007535096956416965
832.0,-0.0004741587326861918
896.0,0.00027515797410160303
960.0,0.0003382929426152259
1024.0,0.00040305510628968477
1152.0,-0.000576367718167603
1280.0,-6.438534910557792e-05
1408.0,0.0005335820023901761
1536.0,0.00016816971765365452
1664.0,-0.00014644695329479873
1792.0,4.3465282942634076e-05
1920.0,0.0003322913544252515
2048.0,-0.0002448630693834275
2304.0,-8.921597327571362e-05
2560.0,-0.0001376081636408344
2816.0,5.461524415295571e-05
3072.0,6.341141124721617e-05
3328.0,0.00038386188680306077
3584.0,0.00011084524157922715
3840.0,-0.0001773114054230973
4096.0,0.00010044486407423392
4608.0,-0.00040813483064994216
5120.0,0.00018053740495815873
5632.0,7.90686608524993e-05
6144.0,-0.0003825211024377495
6656.0,0.00018358122906647623
7168.0,-4.846859610552201e-06
7680.0,-0.00032495218329131603
8192.0,0.00017868753639049828
9216.0,6.743627454852685e-05
10240.0,-0.0001292852684855461
11264.0,-9.020730067277327e-05
12288.0,5.5432978115277365e-05
13312.0,-4.5108543417882174e-05
14336.0,9.426456017536111e-06
end
