version,3.0
numOfCh,1
type,point
parent_name,20-cuts
ch_type,1_1
kcount,1
numberNandB,1
brightnessNandB,1
carpet pos,0
pc,0
Time (ms),CH1 Auto-Correlation
1.0,0.026164157316088676
2.0,0.021100850775837898
3.0,0.01764936000108719
4.0,0.01512827631086111
5.0,0.013138187117874622
6.0,0.011551891453564167
7.0,0.01043242309242487
8.0,0.009444452822208405
9.0,0.00839966256171465
10.0,0.007663855329155922
11.0,0.0070180995389819145
12.0,0.006360053550451994
13.0,0.005905296187847853
14.0,0.005505926441401243
15.0,0.005106602795422077
16.0,0.00476920697838068
18.0,0.004253249149769545
20.0,0.003730953438207507
22.0,0.003341460833325982
24.0,0.0030536516569554806
26.0,0.002733888104557991
28.0,0.002518638502806425
30.0,0.0024483453016728163
32.0,0.002453658962622285
36.0,0.002501924755051732
40.0,0.0021907445043325424
44.0,0.0018950138473883271
48.0,0.001588379149325192
52.0,0.0011451959144324064
56.0,0.000891455973032862
60.0,0.000996145186945796
64.0,0.0008072983473539352
72.0,0.00038632185896858573
80.0,0.00015267137496266514
88.0,0.0001134202757384628
96.0,0.0005666140932589769
104.0,0.00020574129302985966
112.0,0.0007390448590740561
120.0,0.0004046141402795911
128.0,0.0007922358345240355
144.0,0.0011930795153602958
160.0,0.000719386269338429
176.0,0.0005507388850674033
192.0,0.00021602807100862265
208.0,4.7906632971717045e-05
224.0,-5.174482794245705e-05
240.0,-0.00013566490088123828
256.0,0.0002496203815098852
288.0,0.00041020373464562
320.0,0.001132921315729618
352.0,-2.0871160813840106e-05
384.0,0.00048272934509441257
416.0,0.0007608258747495711
448.0,0.001291877357289195
480.0,0.0007867105887271464
512.0,0.0010890717385336757
576.0,0.00020639919966924936
640.0,0.00021850934717804193
704.0,0.0006450802902691066
768.0,0.00017598166596144438
832.0,-0.0004090102738700807
896.0,-0.000225455776671879
960.0,4.1070572478929535e-05
1024.0,-0.00022004144557286054
1152.0,0.0004740093136206269
1280.0,-4.6461587999147014e-07
1408.0,0.00040118626202456653
1536.0,0.0001329087681369856
1664.0,-0.00012610804697033018
1792.0,-0.00025787262711673975
1920.0,-0.0003590569831430912
2048.0,5.949626211076975e-05
2304.0,-0.00017011720046866685
2560.0,0.00022913457360118628
2816.0,-0.00010905591625487432
3072.0,-0.00012875381798949093
3328.0,-0.00016886451339814812
3584.0,-0.00036107705091126263
3840.0,-8.028883894439787e-05
4096.0,-3.7406782212201506e-05
4608.0,-0.0002443261328153312
5120.0,0.00016087635594885796
5632.0,6.736882824043278e-06
6144.0,-9.309079359809402e-06
6656.0,9.49176410358632e-06
7168.0,-9.199578198604286e-05
7680.0,-3.0950744985602796e-05
8192.0,-0.00039676213054917753
9216.0,-0.0006946637877263129
10240.0,0.00013460426998790354
11264.0,-0.00044704077299684286
12288.0,0.00042649844544939697
13312.0,0.0008202712633647025
14336.0,0.00038518349174410105
end
