version,3.0
numOfCh,1
type,point
parent_name,20-cuts
ch_type,1_1
kcount,1
numberNandB,1
brightnessNandB,1
carpet pos,0
pc,0
Time (ms),CH1 Auto-Correlation
1.0,0.01644911803305149
2.0,0.013548057526350021
3.0,0.011367077939212322
4.0,0.009801054373383522
5.0,0.008655435405671597
6.0,0.007707329001277685
7.0,0.007051280699670315
8.0,0.006488005630671978
9.0,0.005907408427447081
10.0,0.005468558520078659
11.0,0.005068542901426554
12.0,0.004686238244175911
13.0,0.004268479999154806
14.0,0.0038565497379750013
15.0,0.003513541305437684
16.0,0.003278365358710289
18.0,0.00286451680585742
20.0,0.002442350145429373
22.0,0.0022553033195436
24.0,0.002083354629576206
26.0,0.0018325534183532
28.0,0.0016184442210942507
30.0,0.0014537422684952617
32.0,0.0011791844153776765
36.0,0.001087483949959278
40.0,0.001267033047042787
44.0,0.0013321662554517388
48.0,0.0009111324907280505
52.0,0.00047822820488363504
56.0,0.00025820787413977087
60.0,0.0006365614826790988
64.0,0.0007515126490034163
72.0,0.00035829751868732274
80.0,-0.00011736399756046012
88.0,-0.0002090179332299158
96.0,-0.00033266196260228753
104.0,0.00019851201795972884
112.0,0.000518205517437309
120.0,0.00021323638793546706
128.0,0.00021494041720870882
144.0,-0.0005303780781105161
160.0,-0.0006255842745304108
176.0,1.652637183724437e-05
192.0,0.000116083407192491
208.0,-8.818612695904449e-05
224.0,5.904196223127656e-05
240.0,0.0003586201637517661
256.0,-5.207501999393571e-06
288.0,-0.00016497186152264476
320.0,-0.00030236909515224397
352.0,-0.0002793934545479715
384.0,-0.0003646384575404227
416.0,-0.00018541925237514079
448.0,-9.499015868641436e-05
480.0,0.00030127528589218855
512.0,4.0829734643921256e-05
576.0,0.00022510040435008705
640.0,-9.798206519917585e-06
704.0,0.00021443021250888705
768.0,-2.4635912268422544e-05
832.0,-0.00045199040323495865
896.0,-0.00026927932049147785
960.0,6.4049381762743e-05
1024.0,0.00040256662759929895
1152.0,-0.00026052739121951163
1280.0,4.606791844707914e-05
1408.0,-0.0004182100237812847
1536.0,0.00011157502012792975
1664.0,0.000301583408145234
1792.0,-0.00022810623340774328
1920.0,-1.136152604885865e-05
2048.0,-0.0001945927506312728
2304.0,-2.6606814572005533e-05
2560.0,0.0001531783927930519
2816.0,3.1190916160994675e-06
3072.0,0.0001773406838765368
3328.0,-0.0002724696241784841
3584.0,9.82867568382062e-05
3840.0,-0.00020530790789052844
4096.0,-4.107485801796429e-05
4608.0,-8.549880476493854e-06
5120.0,-0.00013829744420945644
5632.0,0.000192377861822024
6144.0,0.00010497042239876464
6656.0,1.594761124579236e-05
7168.0,2.3304704882320948e-05
7680.0,-8.321547647938132e-05
8192.0,-0.00022639241069555283
9216.0,3.196316902176477e-05
10240.0,-0.0002190305822296068
11264.0,7.622703560627997e-05
12288.0,-7.069548883009702e-05
13312.0,0.00023142951249610633
14336.0,-0.00020355815649963915
end
