version,3.0
numOfCh,1
type,point
parent_name,20-cuts
ch_type,1_1
kcount,1
numberNandB,1
brightnessNandB,1
carpet pos,0
pc,0
Time (ms),CH1 Auto-Correlation
1.0,0.0157668124884367
2.0,0.012948818504810333
3.0,0.010837114416062832
4.0,0.009306827560067177
5.0,0.008064769208431244
6.0,0.0070413644425570965
7.0,0.006275166291743517
8.0,0.005534682422876358
9.0,0.005062056705355644
10.0,0.004623080603778362
11.0,0.004374833777546883
12.0,0.004163020756095648
13.0,0.003895587520673871
14.0,0.003701142268255353
15.0,0.0034517936874181032
16.0,0.0032747217919677496
18.0,0.0029694191180169582
20.0,0.002738310256972909
22.0,0.0024398311506956816
24.0,0.002111388137564063
26.0,0.0020092655904591084
28.0,0.0018764168489724398
30.0,0.0017801611684262753
32.0,0.0015953200636431575
36.0,0.0013377548893913627
40.0,0.0013360471930354834
44.0,0.0014021976385265589
48.0,0.001548023778013885
52.0,0.001636255532503128
56.0,0.0015958211151883006
60.0,0.0016575903864577413
64.0,0.0016513146692886949
72.0,0.0012508830986917019
80.0,0.0010049270931631327
88.0,0.0008255349821411073
96.0,0.0008077277452684939
104.0,0.000764296215493232
112.0,0.0004462326178327203
120.0,0.0002920264087151736
128.0,3.596657552407123e-05
144.0,-3.318094240967184e-05
160.0,-0.00016635379870422184
176.0,-0.00012453050294425339
192.0,-1.1510102012834977e-05
208.0,-7.263234874699265e-05
224.0,-0.00035403334186412394
240.0,-0.0003862316079903394
256.0,-0.000331755552906543
288.0,-0.0006838970584794879
320.0,-0.0005157252307981253
352.0,-0.0003974938590545207
384.0,-0.00042332641896791756
416.0,5.6252229114761576e-05
448.0,-0.00021289662981871516
480.0,-0.00046873220708221197
512.0,-0.00040134190930984914
576.0,0.0002862257824745029
640.0,0.00041863153455778956
704.0,0.00014319074398372322
768.0,0.00016982675879262388
832.0,-0.0003713509067893028
896.0,-0.00037327551399357617
960.0,-0.0005108453333377838
1024.0,-0.000343580060871318
1152.0,9.232379670720547e-05
1280.0,-0.00012531391985248774
1408.0,-0.00024942043819464743
1536.0,-0.0001345025229966268
1664.0,0.00024180096806958318
1792.0,-6.557486631209031e-05
1920.0,0.00017264629423152655
2048.0,3.690054654725827e-05
2304.0,-0.00014275273133534938
2560.0,1.1417681662351242e-06
2816.0,-8.596490260970313e-06
3072.0,-0.0001252776273759082
3328.0,8.098805119516328e-05
3584.0,-0.00040264177368953824
3840.0,0.00029123303829692304
4096.0,-0.00022534232994075865
4608.0,0.00019237739616073668
5120.0,-0.00016129485447891057
5632.0,6.435586328734644e-06
6144.0,-6.833119550719857e-05
6656.0,0.0002557436819188297
7168.0,4.931448711431585e-05
7680.0,5.5712393077556044e-05
8192.0,-0.00017674415721558034
9216.0,6.138915341580287e-05
10240.0,-0.00023312962730415165
11264.0,0.00022826928761787713
12288.0,-0.00010519086208660156
13312.0,-0.00016562109522055835
14336.0,5.158367639523931e-05
end
