version,3.0
numOfCh,1
type,point
parent_name,20-cuts
ch_type,1_1
kcount,1
numberNandB,1
brightnessNandB,1
carpet pos,0
pc,0
Time (ms),CH1 Auto-Correlation
1.0,0.0164659284055233
2.0,0.013665719889104366
3.0,0.011542306281626225
4.0,0.009991219267249107
5.0,0.00878705084323883
6.0,0.007757114712148905
7.0,0.007083238568156958
8.0,0.006485693156719208
9.0,0.006081152241677046
10.0,0.005586464889347553
11.0,0.005269825924187899
12.0,0.005135579966008663
13.0,0.004888562951236963
14.0,0.004619232378900051
15.0,0.0045257615856826305
16.0,0.004341157618910074
18.0,0.0039276541210711
20.0,0.0034165927208960056
22.0,0.00305004371330142
24.0,0.0028580345679074526
26.0,0.002700473414734006
28.0,0.002702859928831458
30.0,0.002696726471185684
32.0,0.0025423543993383646
36.0,0.0023347323294728994
40.0,0.002028264105319977
44.0,0.0020218128338456154
48.0,0.0020493592601269484
52.0,0.0017867425922304392
56.0,0.0016550457803532481
60.0,0.0015375959919765592
64.0,0.001313953660428524
72.0,0.0007059779018163681
80.0,0.0005923958378843963
88.0,0.0008942104177549481
96.0,0.0006057674181647599
104.0,0.0007502704975195229
112.0,0.0009162858477793634
120.0,0.0007909908308647573
128.0,0.000549518910702318
144.0,0.0006946674548089504
160.0,0.0004151965258643031
176.0,0.00021753409237135202
192.0,-0.00010434755677124485
208.0,-0.00022531652939505875
224.0,-0.00021603306231554598
240.0,-0.0003965851792600006
256.0,-0.00024142989423125982
288.0,-3.354205910000019e-05
320.0,-0.0003753550990950316
352.0,-0.00031029211822897196
384.0,-0.00012724670523311943
416.0,-0.00048765275278128684
448.0,-0.0002904408029280603
480.0,-0.0006953098927624524
512.0,-0.0004253700317349285
576.0,-0.0005854849587194622
640.0,6.269193818297936e-06
704.0,-0.0002655689313542098
768.0,-0.0007971608429215848
832.0,9.434956155018881e-05
896.0,0.00021290965378284454
960.0,-0.0004113799659535289
1024.0,8.38605483295396e-05
1152.0,0.00027662242064252496
1280.0,-0.0002498029498383403
1408.0,-1.965059527719859e-05
1536.0,0.0001532856113044545
1664.0,-0.0003504295600578189
1792.0,-0.00029482709942385554
1920.0,-0.00018633456784300506
2048.0,-0.00015531122335232794
2304.0,-0.00014225568156689405
2560.0,-6.501711322925985e-05
2816.0,-0.0004431644338183105
3072.0,0.00027750141452997923
3328.0,0.00033999484730884433
3584.0,-0.00020563206635415554
3840.0,-0.00012479504221118987
4096.0,-5.3266616305336356e-05
4608.0,0.00016729458002373576
5120.0,-0.0005278888856992126
5632.0,0.0002467893064022064
6144.0,0.000343195628374815
6656.0,-0.0001374833518639207
7168.0,-0.00010713594383560121
7680.0,0.0005036861984990537
8192.0,-0.0005499798571690917
9216.0,-4.66064875581651e-06
10240.0,0.0002551595971453935
11264.0,-0.0004356283461675048
12288.0,-6.30155554972589e-05
13312.0,0.0004524485266301781
14336.0,3.615562309278175e-05
end
