version,3.0
numOfCh,1
type,point
parent_name,20-cuts
ch_type,1_1
kcount,1
numberNandB,1
brightnessNandB,1
carpet pos,0
pc,0
Time (ms),CH1 Auto-Correlation
1.0,0.01763567142188549
2.0,0.014686708338558674
3.0,0.012538537383079529
4.0,0.010892431251704693
5.0,0.009615818969905376
6.0,0.00869231391698122
7.0,0.007925905287265778
8.0,0.007172405254095793
9.0,0.006556104868650436
10.0,0.006056445185095072
11.0,0.005634010769426823
12.0,0.005187135189771652
13.0,0.0048064300790429115
14.0,0.004498894326388836
15.0,0.004271980375051498
16.0,0.004161833319813013
18.0,0.003915606066584587
20.0,0.003640952752903104
22.0,0.0034243077971041203
24.0,0.0032030537258833647
26.0,0.0030563848558813334
28.0,0.0027922242879867554
30.0,0.002583635039627552
32.0,0.0025495397858321667
36.0,0.002643472282215953
40.0,0.002514562103897333
44.0,0.0022882232442498207
48.0,0.0019346987828612328
52.0,0.0017011517193168402
56.0,0.0015579522587358952
60.0,0.001655985601246357
64.0,0.001731878612190485
72.0,0.0015925857005640864
80.0,0.0010340953012928367
88.0,0.0009078826406039298
96.0,0.0007470191339962184
104.0,0.0004045690002385527
112.0,0.0003544350038282573
120.0,0.0007305308245122433
128.0,0.0005891983164474368
144.0,0.00021946414199192077
160.0,0.00046065784408710897
176.0,0.0004084378306288272
192.0,0.0003892023814842105
208.0,0.00021126058709342033
224.0,0.00021279478096403182
240.0,0.0003168643161188811
256.0,0.0002193100081058219
288.0,0.000327073794323951
320.0,0.0001978946093004197
352.0,0.0007466271636076272
384.0,0.0004087113484274596
416.0,5.436005494630081e-07
448.0,-6.610592390643433e-05
480.0,-1.130995497078402e-05
512.0,5.1271854317747056e-05
576.0,-5.758183397119865e-05
640.0,-4.247483593644574e-05
704.0,-0.00031106118694879115
768.0,0.00026555301155894995
832.0,0.00022739263658877462
896.0,-0.00030472083017230034
960.0,-6.957615551073104e-05
1024.0,-0.0003982575435657054
1152.0,-0.00022638826339971274
1280.0,-0.0005310560809448361
1408.0,-0.0004973728791810572
1536.0,-0.0005905660800635815
1664.0,-0.0004045460664201528
1792.0,-0.0003678367065731436
1920.0,-0.0003132052952423692
2048.0,-3.4053016861435026e-05
2304.0,-0.00014632211241405457
2560.0,-0.0003059281734749675
2816.0,1.6670519471517764e-05
3072.0,0.00015265349065884948
3328.0,0.0003253093163948506
3584.0,0.0003156824386678636
3840.0,0.00039032939821481705
4096.0,0.00032069889130070806
4608.0,-0.0003143653448205441
5120.0,-0.0004314511315897107
5632.0,-5.8431528486835305e-06
6144.0,-1.638872163312044e-05
6656.0,5.073845386505127e-05
7168.0,0.00022173667093738914
7680.0,0.0001804650091798976
8192.0,-7.539294165326282e-05
9216.0,-0.00018384429858997464
10240.0,0.0006264272378757596
11264.0,-4.1146828152704984e-05
12288.0,-0.0005325140664353967
13312.0,0.0004605741996783763
14336.0,6.552389822900295e-05
end
