version,3.0
numOfCh,1
type,point
parent_name,20-cuts
ch_type,1_1
kcount,1
numberNandB,1
brightnessNandB,1
carpet pos,0
pc,0
Time (ms),CH1 Auto-Correlation
1.0,0.015542433597147465
2.0,0.012798541225492954
3.0,0.01091922726482153
4.0,0.009464400820434093
5.0,0.008344735950231552
6.0,0.00736918905749917
7.0,0.006678528152406216
8.0,0.006092873867601156
9.0,0.005722442641854286
10.0,0.005180086009204388
11.0,0.004800799302756786
12.0,0.004424738697707653
13.0,0.004151211120188236
14.0,0.003841887228190899
15.0,0.0035513085313141346
16.0,0.0033262474462389946
18.0,0.002872466342523694
20.0,0.0026224919129163027
22.0,0.002480516443029046
24.0,0.0024350059684365988
26.0,0.0023031660821288824
28.0,0.0022320894058793783
30.0,0.0020050271414220333
32.0,0.0018307100981473923
36.0,0.0013879884500056505
40.0,0.0012540258467197418
44.0,0.0009894323302432895
48.0,0.0007699366542510688
52.0,0.0006451035151258111
56.0,0.0006149496184661984
60.0,0.00034526438685134053
64.0,0.0002068534813588485
72.0,0.00012104112101951614
80.0,0.00010910287528531626
88.0,-6.655981997027993e-05
96.0,1.3775864317722153e-05
104.0,-0.0002477249945513904
112.0,-0.00015610478294547647
120.0,-6.608021794818342e-05
128.0,-0.00022407068172469735
144.0,-0.0007709994679316878
160.0,-0.0004218129615765065
176.0,-0.0007721138535998762
192.0,-0.0002310741547262296
208.0,-0.0002875112695619464
224.0,-0.00025836715940386057
240.0,-0.00010454629227751866
256.0,-3.987556556239724e-05
288.0,0.000717510876711458
320.0,0.0012812318746000528
352.0,0.0003325339057482779
384.0,0.0004406704392749816
416.0,-0.00013934390153735876
448.0,-0.00033928887569345534
480.0,4.675609670812264e-05
512.0,-0.0001264509919565171
576.0,-7.932809239719063e-05
640.0,8.11264690128155e-05
704.0,0.0002647975634317845
768.0,-3.3674506994429976e-05
832.0,2.0367444449220784e-05
896.0,0.00023633094679098576
960.0,0.00033574586268514395
1024.0,-0.0001410128315910697
1152.0,-2.1329897208488546e-05
1280.0,0.00039799799560569227
1408.0,-0.00019506267562974244
1536.0,0.0004798509180545807
1664.0,-5.28910277353134e-05
1792.0,4.7434082262043376e-06
1920.0,0.0007296803523786366
2048.0,0.00019905316003132612
2304.0,5.6642285926500335e-05
2560.0,-4.178292783763027e-06
2816.0,0.00013961245713289827
3072.0,4.062932566739619e-05
3328.0,4.9299374950351194e-05
3584.0,-3.3490225632704096e-06
3840.0,7.164753333199769e-05
4096.0,-2.275329825351946e-05
4608.0,-0.00023029586009215564
5120.0,8.23165009933291e-06
5632.0,0.00018058800196740776
6144.0,-2.5676743462099694e-05
6656.0,-0.00030293126474134624
7168.0,0.00016442012565676123
7680.0,-8.863923721946776e-05
8192.0,-0.00010108099377248436
9216.0,0.00016003854398149997
10240.0,-0.0004827708762604743
11264.0,2.9371853088377975e-05
12288.0,-0.0004924297099933028
13312.0,-0.00038829699042253196
14336.0,-6.510340608656406e-05
end
