version,3.0
numOfCh,1
type,point
parent_name,20-cuts
ch_type,1_1
kcount,1
numberNandB,1
brightnessNandB,1
carpet pos,0
pc,0
Time (ms),CH1 Auto-Correlation
1.0,0.026596328243613243
2.0,0.0216971468180418
3.0,0.018175901845097542
4.0,0.015735842287540436
5.0,0.013843527063727379
6.0,0.01226994302123785
7.0,0.011206371709704399
8.0,0.010346807539463043
9.0,0.009563304483890533
10.0,0.008873747661709785
11.0,0.008466801606118679
12.0,0.007929493673145771
13.0,0.007364487275481224
14.0,0.006881456822156906
15.0,0.006410493515431881
16.0,0.006147334817796946
18.0,0.0055804261937737465
20.0,0.004853024147450924
22.0,0.004567548632621765
24.0,0.0043511101976037025
26.0,0.003899840172380209
28.0,0.003550639608874917
30.0,0.0032563512213528156
32.0,0.0029611196368932724
36.0,0.002237187698483467
40.0,0.0018276793416589499
44.0,0.0020196305122226477
48.0,0.0017529461765661836
52.0,0.0014326926320791245
56.0,0.0015205229865387082
60.0,0.0011209907243028283
64.0,0.0009215996833518147
72.0,0.0004805436183232814
80.0,0.00027285859687253833
88.0,0.0005821601953357458
96.0,0.0003944351919926703
104.0,0.0008139467099681497
112.0,0.0012248900020495057
120.0,0.0014406180707737803
128.0,0.001286669634282589
144.0,0.0005882615805603564
160.0,0.0004249702033121139
176.0,7.313841342693195e-05
192.0,-2.7411324481363408e-05
208.0,-4.94774867547676e-05
224.0,0.0006643023225478828
240.0,0.00031378265703096986
256.0,0.00017396917974110693
288.0,5.244323347142199e-06
320.0,-0.00033292965963482857
352.0,-0.001034090993925929
384.0,0.00012369932665023953
416.0,-0.0003407861804589629
448.0,0.000920721678994596
480.0,0.00028469646349549294
512.0,0.00018159134197048843
576.0,-0.00016737607074901462
640.0,0.00014640783774666488
704.0,-0.0007616530056111515
768.0,-0.0005954680382274091
832.0,-0.00036014802753925323
896.0,-0.00020496631623245776
960.0,-9.921269338519778e-06
1024.0,0.00037447799695655704
1152.0,0.00032234701211564243
1280.0,0.0001499183417763561
1408.0,0.0008631183300167322
1536.0,0.0010327857453376055
1664.0,0.00022399993031285703
1792.0,-1.97520184883615e-05
1920.0,-0.00048999855061993
2048.0,-0.0006858452688902617
2304.0,-0.0004860245680902153
2560.0,0.00046946413931436837
2816.0,0.00030795016209594905
3072.0,-0.0002753106819000095
3328.0,-0.00013604643754661083
3584.0,-0.0003167693503201008
3840.0,-0.00042874939390458167
4096.0,0.0003147706447634846
4608.0,-0.00037314649671316147
5120.0,-0.000395797862438485
5632.0,-0.00020713261619675905
6144.0,-0.0002248899982078001
6656.0,-0.00029106930014677346
7168.0,-0.00023120251717045903
7680.0,0.00022302221623249352
8192.0,-6.904700512677664e-06
9216.0,0.00037586528924293816
10240.0,0.00033214801806025207
11264.0,0.00021424656733870506
12288.0,7.766451017232612e-05
13312.0,-0.0003686153795570135
14336.0,-0.00031698105158284307
end
