version,3.0
numOfCh,1
type,point
parent_name,20-cuts
ch_type,1_1
kcount,1
numberNandB,1
brightnessNandB,1
carpet pos,0
pc,0
Time (ms),CH1 Auto-Correlation
1.0,0.02474372461438179
2.0,0.019989684224128723
3.0,0.016764119267463684
4.0,0.014348701573908329
5.0,0.012400270439684391
6.0,0.010810364037752151
7.0,0.009550731629133224
8.0,0.008523100055754185
9.0,0.007574479561299086
10.0,0.006914969068020582
11.0,0.00632193498313427
12.0,0.005948598962277174
13.0,0.0055358815006911755
14.0,0.005200894549489021
15.0,0.005012387875467539
16.0,0.0046961549669504166
18.0,0.003862574929371476
20.0,0.002913265721872449
22.0,0.0023691023234277964
24.0,0.0021544441115111113
26.0,0.001882706768810749
28.0,0.0017060156678780913
30.0,0.0016550732543691993
32.0,0.0013909394619986415
36.0,0.001242923317477107
40.0,0.0014922359259799123
44.0,0.0015016186516731977
48.0,0.0012786849401891232
52.0,0.0012535977875813842
56.0,0.0011294001014903188
60.0,0.0008895277278497815
64.0,0.0005500414990819991
72.0,0.0003012141096405685
80.0,0.0005682437331415713
88.0,0.0007453002035617828
96.0,0.00033602333860471845
104.0,8.46339844429167e-06
112.0,-0.0005035900976508856
120.0,-0.0012180146295577288
128.0,-0.0009797330712899566
144.0,-0.0004938059719279408
160.0,-0.000748378224670887
176.0,-0.0007954338798299432
192.0,-0.0003164557565469295
208.0,-0.0003588117251638323
224.0,-0.00010472917347215116
240.0,0.000308318471070379
256.0,0.0003651045262813568
288.0,-0.000565653492230922
320.0,-0.0003488873189780861
352.0,-0.0005071818013675511
384.0,9.109271195484325e-05
416.0,0.0005516094388440251
448.0,0.0013354640686884522
480.0,0.0008659540908411145
512.0,0.0008770471904426813
576.0,0.000273769604973495
640.0,-0.00021583399211522192
704.0,-8.097297541098669e-05
768.0,-0.00020720440079458058
832.0,0.0004065404355060309
896.0,-0.00023522248375229537
960.0,4.725321923615411e-05
1024.0,-1.3478316759574227e-05
1152.0,-9.144253999693319e-05
1280.0,0.00044347625225782394
1408.0,-0.0006912499666213989
1536.0,-1.3590082744485699e-05
1664.0,-0.00045692577259615064
1792.0,-0.00016144606343004853
1920.0,0.00030348089057952166
2048.0,-0.0005482734413817525
2304.0,-0.0003397536347620189
2560.0,4.7279118007281795e-05
2816.0,-0.0003799289115704596
3072.0,0.00030995855922810733
3328.0,-0.0004121079691685736
3584.0,-6.325514277705224e-06
3840.0,0.00011929448373848572
4096.0,0.00022935110609978437
4608.0,0.00023858882195781916
5120.0,-1.2809837244276423e-05
5632.0,4.874334263149649e-05
6144.0,-0.00014121047570370138
6656.0,-0.00017508791643194854
7168.0,-0.00012372661149129272
7680.0,-0.00013039083569310606
8192.0,-1.825040453695692e-05
9216.0,0.00031546145328320563
10240.0,-0.0001708220806904137
11264.0,-0.00033794870250858366
12288.0,-3.5966619179816917e-05
13312.0,0.00014474630006588995
14336.0,4.859549881075509e-05
end
