version,3.0
numOfCh,1
type,point
parent_name,20-cuts
ch_type,1_1
kcount,1
numberNandB,1
brightnessNandB,1
carpet pos,0
pc,0
Time (ms),CH1 Auto-Correlation
1.0,0.015938444063067436
2.0,0.012941750697791576
3.0,0.010765128768980503
4.0,0.009176118299365044
5.0,0.007976164110004902
6.0,0.006995837669819593
7.0,0.006240976508706808
8.0,0.005601033568382263
9.0,0.005118801724165678
10.0,0.0047697024419903755
11.0,0.0044366829097270966
12.0,0.004109557252377272
13.0,0.0038359242025762796
14.0,0.003615311346948147
15.0,0.00341450865380466
16.0,0.0033218127209693193
18.0,0.003054846776649356
20.0,0.0027736660558730364
22.0,0.002525569871068001
24.0,0.002371660666540265
26.0,0.0022623620461672544
28.0,0.00212857942096889
30.0,0.0020919754169881344
32.0,0.0019122192170470953
36.0,0.0012603754876181483
40.0,0.000810004014056176
44.0,0.0007727780030108988
48.0,0.000677935138810426
52.0,0.0006170958513393998
56.0,0.0005826743436045945
60.0,0.00046722005936317146
64.0,0.000464417680632323
72.0,0.0001720232976367697
80.0,0.000484732910990715
88.0,0.0003890672523993999
96.0,0.00028753053629770875
104.0,8.21679932414554e-05
112.0,-0.00013988580030854791
120.0,-0.0007017890457063913
128.0,-0.0004664442385546863
144.0,-0.0003933906555175781
160.0,-0.0003615744935814291
176.0,6.211608706507832e-05
192.0,-0.00012396583042573184
208.0,-0.00018652330618351698
224.0,-1.2465734471334144e-05
240.0,-0.000284986337646842
256.0,-0.0006566777592524886
288.0,-0.0004629139439202845
320.0,-1.9981333025498316e-05
352.0,-0.0005190611118450761
384.0,9.53594280872494e-06
416.0,5.3232020036375616e-06
448.0,8.513829379808158e-05
480.0,5.608626452158205e-05
512.0,-0.0002981987490784377
576.0,-3.342379204696044e-05
640.0,9.295610652770847e-05
704.0,4.67616664536763e-05
768.0,3.982825728598982e-05
832.0,3.8320104067679495e-05
896.0,-0.00042054554796777666
960.0,-0.00022631075989920646
1024.0,0.00028256027144379914
1152.0,-1.3742839655606076e-05
1280.0,0.0005370043218135834
1408.0,0.000450197490863502
1536.0,0.00015513844846282154
1664.0,-0.0002400937519269064
1792.0,-0.0001259183045476675
1920.0,-0.0003880620643030852
2048.0,-0.0001300221192650497
2304.0,0.00040510777034796774
2560.0,0.0003187709953635931
2816.0,-9.821240382734686e-05
3072.0,-0.0001499337813584134
3328.0,-0.00020662481256294996
3584.0,0.0003533516719471663
3840.0,0.0003289807355031371
4096.0,-0.00016027828678488731
4608.0,-9.107033838517964e-05
5120.0,0.00013542702072300017
5632.0,-7.685286254854873e-05
6144.0,0.00012844271259382367
6656.0,-7.192909833975136e-05
7168.0,-0.0002544796443544328
7680.0,4.454986265045591e-05
8192.0,6.998666503932327e-05
9216.0,-0.00023118774697650224
10240.0,-4.267581243766472e-05
11264.0,-1.7649741494096816e-05
12288.0,-0.0002797220950014889
13312.0,-0.00028927874518558383
14336.0,0.00015604993677698076
end
