version,3.0
numOfCh,1
type,point
parent_name,20-cuts
ch_type,1_1
kcount,1
numberNandB,1
brightnessNandB,1
carpet pos,0
pc,0
Time (ms),CH1 Auto-Correlation
1.0,0.01625947467982769
2.0,0.013359179720282555
3.0,0.011360631324350834
4.0,0.009900548495352268
5.0,0.008722469210624695
6.0,0.007735017687082291
7.0,0.007052290253341198
8.0,0.0064704217948019505
9.0,0.005935363937169313
10.0,0.005527769215404987
11.0,0.005220449063926935
12.0,0.0049944184720516205
13.0,0.004625934641808271
14.0,0.004367643967270851
15.0,0.004137418232858181
16.0,0.0038760227616876364
18.0,0.0034444283228367567
20.0,0.003009011270478368
22.0,0.0026986603625118732
24.0,0.0024888988118618727
26.0,0.0021707413252443075
28.0,0.0019564044196158648
30.0,0.0018248844426125288
32.0,0.0017121753189712763
36.0,0.001734458259306848
40.0,0.001547055784612894
44.0,0.0013010059483349323
48.0,0.0012317228829488158
52.0,0.0010129512520506978
56.0,0.0008024430717341602
60.0,0.0004822008195333183
64.0,0.0005969887715764344
72.0,0.0006710595334880054
80.0,0.001010734704323113
88.0,0.0010058835614472628
96.0,0.0011100490810349584
104.0,0.001051984028890729
112.0,0.0008511824416927993
120.0,0.0006092559196986258
128.0,0.0003578315954655409
144.0,-0.0001277955889236182
160.0,9.730838792165741e-05
176.0,0.0002885775174945593
192.0,0.00030185788637027144
208.0,0.00034530667471699417
224.0,0.0004825283249374479
240.0,0.00039197338628582656
256.0,5.470351243275218e-05
288.0,-6.752546323696151e-05
320.0,-0.00034981794306077063
352.0,-8.758292096899822e-05
384.0,8.016874198801816e-05
416.0,-0.0002703481004573405
448.0,0.00011744585208361968
480.0,5.08253178850282e-05
512.0,-0.00022825431369710714
576.0,3.797691169893369e-05
640.0,-0.00014253541303332895
704.0,-7.800402818247676e-05
768.0,-3.3961026929318905e-05
832.0,-1.1058299605792854e-05
896.0,2.468285310897045e-05
960.0,-0.00010099476639879867
1024.0,-0.0004526024276856333
1152.0,0.00030241216882131994
1280.0,0.0003409183700568974
1408.0,0.0002477541856933385
1536.0,5.33975035068579e-05
1664.0,0.0001100530062103644
1792.0,0.0002476258378010243
1920.0,0.00015176241868175566
2048.0,-0.0005343044176697731
2304.0,-0.00017375343304593116
2560.0,-0.00013881584163755178
2816.0,-0.0004179186071269214
3072.0,-0.00010429034591652453
3328.0,0.00040442647878080606
3584.0,-0.00033182158949784935
3840.0,-0.0005580237484537065
4096.0,-0.0004961230442859232
4608.0,6.199374911375344e-05
5120.0,0.00015639948833268136
5632.0,-0.00026452410384081304
6144.0,0.00021773162006866187
6656.0,9.210655116476119e-05
7168.0,-0.0003609012346714735
7680.0,0.0002951851056423038
8192.0,-0.00033446811721660197
9216.0,0.00025543320225551724
10240.0,-5.163662717677653e-05
11264.0,0.00025886824005283415
12288.0,0.00023758715542498976
13312.0,-0.0004289091448299587
14336.0,0.00016897721798159182
end
