version,3.0
numOfCh,1
type,point
parent_name,20-cuts
ch_type,1_1
kcount,1
numberNandB,1
brightnessNandB,1
carpet pos,0
pc,0
Time (ms),CH1 Auto-Correlation
1.0,0.02655833028256893
2.0,0.021673303097486496
3.0,0.018313469365239143
4.0,0.01579701527953148
5.0,0.013982158154249191
6.0,0.012657652609050274
7.0,0.011560398153960705
8.0,0.010453819297254086
9.0,0.009617721661925316
10.0,0.009130767546594143
11.0,0.00847475416958332
12.0,0.007984183728694916
13.0,0.007425476796925068
14.0,0.007024366874247789
15.0,0.006626276299357414
16.0,0.006347608286887407
18.0,0.005889734253287315
20.0,0.0056049758568406105
22.0,0.005417661275714636
24.0,0.004994885064661503
26.0,0.004552971106022596
28.0,0.004210174549371004
30.0,0.003927572164684534
32.0,0.0036029128823429346
36.0,0.002950209192931652
40.0,0.003025963669642806
44.0,0.0030576603021472692
48.0,0.0030925318133085966
52.0,0.0029010772705078125
56.0,0.002185435965657234
60.0,0.002059892052784562
64.0,0.0017460354138165712
72.0,0.0014601575676351786
80.0,0.001236212207004428
88.0,0.0006075665587559342
96.0,0.00020777185272891074
104.0,0.0003297622315585613
112.0,-0.00018399165128357708
120.0,-0.00015745454584248364
128.0,-0.00017025199485942721
144.0,-5.084289296064526e-05
160.0,0.0003172619908582419
176.0,-0.0004626998270396143
192.0,-0.0007316055125556886
208.0,-0.0005277901655063033
224.0,-0.00016673510253895074
240.0,-0.0005243284394964576
256.0,-0.0008526179590262473
288.0,-0.00013305582979228348
320.0,-0.0002886317961383611
352.0,-0.000665679108351469
384.0,-0.0015797975938767195
416.0,-0.00038056791527196765
448.0,-0.00019549958233255893
480.0,-0.00024994928389787674
512.0,-9.782663255464286e-05
576.0,0.00017411820590496063
640.0,0.00010718456178437918
704.0,-0.0003821462159976363
768.0,-0.00016067567048594356
832.0,-0.000483813404571265
896.0,-7.188216841313988e-05
960.0,-7.060208736220375e-05
1024.0,-0.0002452628978062421
1152.0,-0.0008044214337132871
1280.0,0.00011915239883819595
1408.0,5.140028952155262e-05
1536.0,0.0002993871457874775
1664.0,-0.0011173610109835863
1792.0,8.496094233123586e-05
1920.0,0.0007080097566358745
2048.0,-0.00019886856898665428
2304.0,-0.0004983184044249356
2560.0,0.00023740269534755498
2816.0,0.0002968947810586542
3072.0,8.246614743256941e-05
3328.0,-7.231132622109726e-05
3584.0,0.00023988191969692707
3840.0,7.233478390844539e-05
4096.0,0.00035123666748404503
4608.0,6.0617323470069095e-05
5120.0,-9.554542339174077e-05
5632.0,4.365651875559706e-06
6144.0,-0.0005005733692087233
6656.0,-0.00023510972096119076
7168.0,0.0005037967348471284
7680.0,0.00015657494077458978
8192.0,0.00012297264765948057
9216.0,-0.00029816769529134035
10240.0,-6.687391578452662e-05
11264.0,0.00020241731544956565
12288.0,-0.0001326161582255736
13312.0,-0.00013760243018623441
14336.0,-0.00018904800526797771
end
