version,3.0
numOfCh,1
type,point
parent_name,20-cuts
ch_type,1_1
kcount,1
numberNandB,1
brightnessNandB,1
carpet pos,0
pc,0
Time (ms),CH1 Auto-Correlation
1.0,0.015234955586493015
2.0,0.012522874400019646
3.0,0.01068622712045908
4.0,0.009258884005248547
5.0,0.00820116139948368
6.0,0.007345337886363268
7.0,0.006558621302247047
8.0,0.0058812340721488
9.0,0.005328623577952385
10.0,0.00498926592990756
11.0,0.0046980492770671844
12.0,0.004393961746245623
13.0,0.004167947452515364
14.0,0.003954343032091856
15.0,0.0037045457866042852
16.0,0.0034892268013209105
18.0,0.0031320860143750906
20.0,0.0027078259736299515
22.0,0.0023081067483872175
24.0,0.0020413976162672043
26.0,0.0019543557427823544
28.0,0.001791754737496376
30.0,0.0017011897871270776
32.0,0.0015992845874279737
36.0,0.0015583570348098874
40.0,0.0013994701439514756
44.0,0.0012793311616405845
48.0,0.0010251429630443454
52.0,0.0008341050706803799
56.0,0.0007986034033820033
60.0,0.0007329877116717398
64.0,0.0007383717456832528
72.0,0.0006821913411840796
80.0,0.0007636149530299008
88.0,0.0003262455284129828
96.0,0.00034155449247919023
104.0,0.00011756290768971667
112.0,0.0001772116229403764
120.0,0.00012781289115082473
128.0,-0.00017190363723784685
144.0,0.00010029588884208351
160.0,-0.0002594235702417791
176.0,-0.0007377173751592636
192.0,-0.0004815351276192814
208.0,-0.0003699277003761381
224.0,-0.00028319828561507165
240.0,-0.00020127187599427998
256.0,-0.00016170299204532057
288.0,-3.0709527436556527e-06
320.0,0.00015160447219386697
352.0,0.0002892143093049526
384.0,0.00016359837900381535
416.0,0.0003434110840316862
448.0,-6.158958422020078e-05
480.0,-0.0003286304126959294
512.0,-0.0003373193321749568
576.0,-0.00012712298484984785
640.0,0.0001226939493790269
704.0,0.0007010108674876392
768.0,-0.0001698943815426901
832.0,-0.0003553091373760253
896.0,-0.0007563971448689699
960.0,-0.0002179719740524888
1024.0,-8.661102037876844e-05
1152.0,-5.082419647806091e-06
1280.0,0.00025122633087448776
1408.0,0.00020751812553498894
1536.0,0.0002459383977111429
1664.0,-0.00031032130937092006
1792.0,-3.7418241845443845e-05
1920.0,-0.00012538819282781333
2048.0,0.0006609295960515738
2304.0,-5.578718628385104e-05
2560.0,9.150847290584352e-06
2816.0,-0.0002334991586394608
3072.0,-0.00017908279551193118
3328.0,-0.00015116379654500633
3584.0,-4.401608384796418e-05
3840.0,-7.059233757900074e-05
4096.0,0.00015268349670805037
4608.0,-0.00017705030040815473
5120.0,-0.00013380618474911898
5632.0,0.00020362318900879472
6144.0,-0.0001097968706744723
6656.0,-0.0001636513916309923
7168.0,0.0001671389036346227
7680.0,-3.0291050279629417e-05
8192.0,3.677454515127465e-05
9216.0,6.803137512179092e-05
10240.0,0.000106858104118146
11264.0,-3.5456167097436264e-05
12288.0,-9.937159484252334e-05
13312.0,2.3606948161614127e-05
14336.0,4.2894749640254304e-05
end
