version,3.0
numOfCh,1
type,point
parent_name,20-cuts
ch_type,1_1
kcount,1
numberNandB,1
brightnessNandB,1
carpet pos,0
pc,0
Time (ms),CH1 Auto-Correlation
1.0,0.016424715518951416
2.0,0.013544680550694466
3.0,0.01154972892254591
4.0,0.01005489006638527
5.0,0.008817591704428196
6.0,0.00785801000893116
7.0,0.007180593907833099
8.0,0.006693877279758453
9.0,0.006277089007198811
10.0,0.00581090385094285
11.0,0.005434270016849041
12.0,0.0051901740953326225
13.0,0.0049279979430139065
14.0,0.004648670554161072
15.0,0.0044321538880467415
16.0,0.004225545562803745
18.0,0.0037758511025458574
20.0,0.003373960731551051
22.0,0.0030390284955501556
24.0,0.0027348364237695932
26.0,0.002551010577008128
28.0,0.0023068017326295376
30.0,0.0020611267536878586
32.0,0.0018491169903427362
36.0,0.001603481243364513
40.0,0.0015020073624327779
44.0,0.001492691459134221
48.0,0.0014072273625060916
52.0,0.0010167323052883148
56.0,0.0007291994406841695
60.0,0.0007312897359952331
64.0,0.001091750804334879
72.0,0.00127702159807086
80.0,0.0008288919925689697
88.0,0.0005901613039895892
96.0,0.00029436449403874576
104.0,0.00035996525548398495
112.0,0.0006696279160678387
120.0,0.0003783736901823431
128.0,-0.000168213460710831
144.0,0.00028123537776991725
160.0,0.0004504074458964169
176.0,0.00035709692747332156
192.0,0.000699211610481143
208.0,0.000377813441446051
224.0,0.0004872091521974653
240.0,0.0006518648006021976
256.0,0.00011979800183326006
288.0,0.00041333300760015845
320.0,0.000281172979157418
352.0,0.00041989877354353666
384.0,0.0006265936535783112
416.0,0.0005796507466584444
448.0,-0.00015197221364360303
480.0,0.0005076536908745766
512.0,0.00024832607596181333
576.0,2.2265132429311052e-05
640.0,-0.0004654013318940997
704.0,-0.00036299903877079487
768.0,-0.00011291478585917503
832.0,-0.0004699925775639713
896.0,0.000384557613870129
960.0,-0.0002389139262959361
1024.0,-0.00027302070520818233
1152.0,6.297832442214713e-05
1280.0,0.0005296098534017801
1408.0,0.0008519080583937466
1536.0,0.00033740000799298286
1664.0,0.0005881099496036768
1792.0,0.0004397699376568198
1920.0,0.00019823342154268175
2048.0,2.1280673536239192e-05
2304.0,-0.0002451683103572577
2560.0,-3.491891402518377e-05
2816.0,2.1755833586212248e-05
3072.0,9.05655906535685e-05
3328.0,-0.00016931653954088688
3584.0,3.0713727028341964e-05
3840.0,-0.0002644487249199301
4096.0,-0.0001370632671751082
4608.0,-0.00021011503122281283
5120.0,-0.0002211127575719729
5632.0,0.00015420220734085888
6144.0,-6.970905815251172e-05
6656.0,-0.00025886468938551843
7168.0,-0.00016203268023673445
7680.0,9.041724115377292e-05
8192.0,5.9017234889324754e-05
9216.0,-0.0001848749816417694
10240.0,-0.000119370648462791
11264.0,-5.591227090917528e-05
12288.0,-0.0004100746591575444
13312.0,-0.00017372891306877136
14336.0,-0.00013977993512526155
end
