version,3.0
numOfCh,1
type,point
parent_name,200-cuts
ch_type,1_1
kcount,1
numberNandB,1
brightnessNandB,1
carpet pos,0
pc,0
Time (ms),CH1 Auto-Correlation
1.0,0.03329939767718315
2.0,0.03267127647995949
3.0,0.03205854818224907
4.0,0.03144261613488197
5.0,0.030826503410935402
6.0,0.03022894449532032
7.0,0.029637513682246208
8.0,0.029044438153505325
9.0,0.028486119583249092
10.0,0.027925563976168633
11.0,0.027374807745218277
12.0,0.026837360113859177
13.0,0.026314841583371162
14.0,0.025795919820666313
15.0,0.025287771597504616
16.0,0.024770572781562805
18.0,0.02377849817276001
20.0,0.022816967219114304
22.0,0.021888671442866325
24.0,0.021035129204392433
26.0,0.020267050713300705
28.0,0.01953781023621559
30.0,0.01881665736436844
32.0,0.01812833361327648
36.0,0.016890089958906174
40.0,0.015706747770309448
44.0,0.014582344330847263
48.0,0.01361333392560482
52.0,0.012767273001372814
56.0,0.011964693665504456
60.0,0.011143411509692669
64.0,0.010349457152187824
72.0,0.009059261530637741
80.0,0.007965171709656715
88.0,0.006919799372553825
96.0,0.005944323260337114
104.0,0.004997002426534891
112.0,0.0040025608614087105
120.0,0.0032968875020742416
128.0,0.002902196953073144
144.0,0.0018392017809674144
160.0,0.0009846193715929985
176.0,0.00012159604375483468
192.0,-8.435421477770433e-05
208.0,0.00018785071733873338
224.0,0.00039675156585872173
240.0,0.0006679244106635451
256.0,0.0009993595303967595
288.0,0.0005467505543492734
320.0,0.00044840603368356824
352.0,0.0005065200384706259
384.0,-0.0006490368396043777
416.0,-0.0009279869846068323
448.0,0.00013534975005313754
480.0,0.0007663928554393351
512.0,0.000763202493544668
576.0,0.0006723257247358561
640.0,0.0009815105004236102
704.0,0.00022435899882111698
768.0,-0.0012202876387163997
832.0,-0.001865306869149208
896.0,-0.001856092014349997
960.0,0.000765158561989665
1024.0,0.003252135356888175
1152.0,0.0007797253783792257
1280.0,0.0004955300828441978
1408.0,-0.0011284536449238658
1536.0,0.001399181317538023
1664.0,-0.000913711148314178
1792.0,-0.0007124858093447983
1920.0,-0.0027328331489115953
2048.0,-0.002058229176327586
2304.0,-0.001229878980666399
2560.0,-0.0006524171913042665
2816.0,0.00032913408358581364
3072.0,-0.0010841181501746178
3328.0,-0.00047662510769441724
3584.0,-0.0009292316972278059
3840.0,0.0014652018435299397
4096.0,0.0016930279089137912
4608.0,0.0007297682459466159
5120.0,0.000738716684281826
5632.0,-0.0003490084200166166
6144.0,-0.0015802341513335705
6656.0,-0.0022325615864247084
7168.0,-0.0017839178908616304
7680.0,-0.0023674641270190477
8192.0,-0.00031515798764303327
9216.0,0.0007078577764332294
10240.0,-0.0008731996058486402
11264.0,-0.001982230693101883
12288.0,0.002853754675015807
13312.0,0.0022217060904949903
14336.0,-0.0020398388151079416
end
