version,3.0
numOfCh,1
type,point
parent_name,200-cuts
ch_type,1_1
kcount,1
numberNandB,1
brightnessNandB,1
carpet pos,0
pc,0
Time (ms),CH1 Auto-Correlation
1.0,0.0655844584107399
2.0,0.06449974328279495
3.0,0.06341403722763062
4.0,0.06236826255917549
5.0,0.0613429881632328
6.0,0.06033697351813316
7.0,0.059340544044971466
8.0,0.05836524814367294
9.0,0.05738525465130806
10.0,0.05642097815871239
11.0,0.0554756261408329
12.0,0.054560910910367966
13.0,0.053658489137887955
14.0,0.05281459912657738
15.0,0.05200178176164627
16.0,0.05117632821202278
18.0,0.049532223492860794
20.0,0.04809877648949623
22.0,0.04671988636255264
24.0,0.04539128765463829
26.0,0.044121261686086655
28.0,0.04290970787405968
30.0,0.04167483374476433
32.0,0.040466390550136566
36.0,0.038310300558805466
40.0,0.036446575075387955
44.0,0.034698862582445145
48.0,0.032949645072221756
52.0,0.031286463141441345
56.0,0.02961781434714794
60.0,0.027947591617703438
64.0,0.026280296966433525
72.0,0.023369628936052322
80.0,0.020717164501547813
88.0,0.01879374496638775
96.0,0.01764759235084057
104.0,0.01645786128938198
112.0,0.015082725323736668
120.0,0.01368220616132021
128.0,0.01213289238512516
144.0,0.010300856083631516
160.0,0.00846522394567728
176.0,0.007211863994598389
192.0,0.006945681758224964
208.0,0.0068561905063688755
224.0,0.0072524514980614185
240.0,0.0076124221086502075
256.0,0.0081717474386096
288.0,0.00668311258777976
320.0,0.003054937580600381
352.0,0.001904305419884622
384.0,-0.0008289882098324597
416.0,-0.002854230348020792
448.0,-0.0044695655815303326
480.0,-0.004666031338274479
512.0,-0.0034539627376943827
576.0,-0.001194871379993856
640.0,0.00015699007781222463
704.0,-0.0014208118664100766
768.0,-0.0008779742638580501
832.0,0.00032318258308805525
896.0,0.0008828147547319531
960.0,-0.003588224994018674
1024.0,-0.006679859943687916
1152.0,-0.004550755489617586
1280.0,-0.0069712018594145775
1408.0,0.0010674629593268037
1536.0,-0.002091275295242667
1664.0,-0.0015702040400356054
1792.0,0.0003992998390458524
1920.0,0.00019415776478126645
2048.0,0.0034207021817564964
2304.0,-0.00035585122532211244
2560.0,-0.0025091134011745453
2816.0,-0.0009961733594536781
3072.0,-0.002736232476308942
3328.0,-0.0023517857771366835
3584.0,5.203029286349192e-05
3840.0,0.0013451280537992716
4096.0,0.0003589114057831466
4608.0,-0.00785423256456852
5120.0,-0.0014467386063188314
5632.0,0.004472467117011547
6144.0,-0.001637764391489327
6656.0,-0.0035822326317429543
7168.0,4.685139356297441e-05
7680.0,-0.0003018401621375233
8192.0,-0.003276798641309142
9216.0,0.00914028286933899
10240.0,-0.0024282666854560375
11264.0,-0.0032090162858366966
12288.0,0.004986779298633337
13312.0,-0.008785315789282322
14336.0,0.004466785583645105
end
