version,3.0
numOfCh,1
type,point
parent_name,200-cuts
ch_type,1_1
kcount,1
numberNandB,1
brightnessNandB,1
carpet pos,0
pc,0
Time (ms),CH1 Auto-Correlation
1.0,0.02850853092968464
2.0,0.028047382831573486
3.0,0.0275889839977026
4.0,0.027139892801642418
5.0,0.026702342554926872
6.0,0.02628064900636673
7.0,0.025863470509648323
8.0,0.025457492098212242
9.0,0.02506045252084732
10.0,0.024671953171491623
11.0,0.024297336116433144
12.0,0.023934535682201385
13.0,0.023581085726618767
14.0,0.02322755567729473
15.0,0.0228896327316761
16.0,0.02255477011203766
18.0,0.021909566596150398
20.0,0.021297136321663857
22.0,0.020712126046419144
24.0,0.020146887749433517
26.0,0.019579140469431877
28.0,0.019008507952094078
30.0,0.018443668261170387
32.0,0.01787610352039337
36.0,0.016728904098272324
40.0,0.0156380757689476
44.0,0.01462957076728344
48.0,0.013704109936952591
52.0,0.012883851304650307
56.0,0.012108784168958664
60.0,0.01133065577596426
64.0,0.010611035861074924
72.0,0.009445663541555405
80.0,0.008529188111424446
88.0,0.007773191202431917
96.0,0.0070926733314991
104.0,0.006331956014037132
112.0,0.005634987261146307
120.0,0.0048469738103449345
128.0,0.0041483668610453606
144.0,0.0029810669366270304
160.0,0.0023285129573196173
176.0,0.0021424517035484314
192.0,0.002160321455448866
208.0,0.002200004644691944
224.0,0.0018672782462090254
240.0,0.0016536690527573228
256.0,0.0013428127858787775
288.0,0.0004509566933847964
320.0,-0.0006251416634768248
352.0,-0.0014391102595254779
384.0,-0.0021108542568981647
416.0,-0.0019182440591976047
448.0,2.297807986906264e-05
480.0,0.0025433909613639116
512.0,0.003436736762523651
576.0,0.001978514017537236
640.0,0.0014596317196264863
704.0,0.002810562262311578
768.0,0.002834686543792486
832.0,0.0006345455767586827
896.0,-0.000546473718713969
960.0,-0.001533555332571268
1024.0,-0.0021871812641620636
1152.0,-0.0015009768540039659
1280.0,0.0007841184851713479
1408.0,0.0021055920515209436
1536.0,0.0015215148450806737
1664.0,0.002211423125118017
1792.0,0.0020404881797730923
1920.0,0.0008359350031241775
2048.0,-0.00028395175468176603
2304.0,0.0016218768432736397
2560.0,-0.0006194221787154675
2816.0,-0.000527077354490757
3072.0,-1.979739317903295e-05
3328.0,-0.0015571782132610679
3584.0,-0.00020896061323583126
3840.0,0.001114576356485486
4096.0,-4.8778023483464494e-05
4608.0,-2.079178193525877e-05
5120.0,0.00020685950585175306
5632.0,-0.001105784671381116
6144.0,4.589057789416984e-05
6656.0,0.001695802086032927
7168.0,-0.0010573226027190685
7680.0,-0.0005400723312050104
8192.0,0.002847318071871996
9216.0,-0.00036280916538089514
10240.0,-0.0020208272617310286
11264.0,-0.0016079822089523077
12288.0,-0.0043113501742482185
13312.0,-0.0028442605398595333
14336.0,-0.0027943230234086514
end
