version,3.0
numOfCh,1
type,point
parent_name,200-cuts
ch_type,1_1
kcount,1
numberNandB,1
brightnessNandB,1
carpet pos,0
pc,0
Time (ms),CH1 Auto-Correlation
1.0,0.06547602266073227
2.0,0.06422469019889832
3.0,0.06301035732030869
4.0,0.061887044459581375
5.0,0.060755904763936996
6.0,0.05962426960468292
7.0,0.05851174518465996
8.0,0.057427383959293365
9.0,0.056361082941293716
10.0,0.05531412363052368
11.0,0.05425962060689926
12.0,0.05325273051857948
13.0,0.052258461713790894
14.0,0.051254529505968094
15.0,0.050294872373342514
16.0,0.049357037991285324
18.0,0.047574255615472794
20.0,0.04586368426680565
22.0,0.04418458789587021
24.0,0.04258907213807106
26.0,0.041027285158634186
28.0,0.039525389671325684
30.0,0.03814677894115448
32.0,0.03683552145957947
36.0,0.03458332270383835
40.0,0.03263378515839577
44.0,0.030772464349865913
48.0,0.029089905321598053
52.0,0.027594363316893578
56.0,0.026097910478711128
60.0,0.024689679965376854
64.0,0.023413561284542084
72.0,0.020955156534910202
80.0,0.018863243982195854
88.0,0.017331808805465698
96.0,0.015713781118392944
104.0,0.014439636841416359
112.0,0.01392876822501421
120.0,0.01352709624916315
128.0,0.013020232319831848
144.0,0.011571352370083332
160.0,0.01003460306674242
176.0,0.008174682036042213
192.0,0.006790732964873314
208.0,0.006387221161276102
224.0,0.005960572976619005
240.0,0.005463629495352507
256.0,0.006092059426009655
288.0,0.006994699593633413
320.0,0.007101184688508511
352.0,0.0033179139718413353
384.0,-7.361092866631225e-05
416.0,-0.002979711629450321
448.0,-0.002813427010551095
480.0,-0.002324181841686368
512.0,-0.002146187936887145
576.0,-0.00546331238001585
640.0,-0.005273215007036924
704.0,-0.0031831045635044575
768.0,-0.002205121796578169
832.0,-0.00356616685166955
896.0,-0.004391175229102373
960.0,-0.0021870885975658894
1024.0,0.005548108834773302
1152.0,0.005491853691637516
1280.0,0.002883724169805646
1408.0,0.0018184935906901956
1536.0,0.004941385239362717
1664.0,0.0023595199454575777
1792.0,-0.0014819246716797352
1920.0,-0.002578677609562874
2048.0,-0.0029205905739217997
2304.0,-0.0028320099227130413
2560.0,-0.002947095315903425
2816.0,-0.003474727040156722
3072.0,0.004948381334543228
3328.0,0.00417724484577775
3584.0,-0.00114463921636343
3840.0,-0.004352488089352846
4096.0,-0.0005741978529840708
4608.0,-0.001560673932544887
5120.0,-0.0006983661442063749
5632.0,-0.006110841408371925
6144.0,-0.002234300132840872
6656.0,-0.00241356180049479
7168.0,-0.0011667078360915184
7680.0,-0.004806197714060545
8192.0,0.006009545177221298
9216.0,-0.0028272713534533978
10240.0,0.0005687194061465561
11264.0,0.006434057839214802
12288.0,0.0039021573029458523
13312.0,-0.0009808717295527458
14336.0,-0.003037035930901766
end
