version,3.0
numOfCh,1
type,point
parent_name,200-cuts
ch_type,1_1
kcount,1
numberNandB,1
brightnessNandB,1
carpet pos,0
pc,0
Time (ms),CH1 Auto-Correlation
1.0,0.06809194386005402
2.0,0.06677190959453583
3.0,0.06549521535634995
4.0,0.0642385333776474
5.0,0.06300068646669388
6.0,0.061855580657720566
7.0,0.06075508892536163
8.0,0.05969154089689255
9.0,0.0586070790886879
10.0,0.05755758658051491
11.0,0.05652841553092003
12.0,0.05551087483763695
13.0,0.05450504645705223
14.0,0.053532667458057404
15.0,0.052602168172597885
16.0,0.051685042679309845
18.0,0.04985416308045387
20.0,0.04805372655391693
22.0,0.04630071297287941
24.0,0.04463145136833191
26.0,0.042997006326913834
28.0,0.04146912693977356
30.0,0.040005579590797424
32.0,0.03862655907869339
36.0,0.035999733954668045
40.0,0.033551283180713654
44.0,0.03128959983587265
48.0,0.029118288308382034
52.0,0.02706410549581051
56.0,0.0252924133092165
60.0,0.02371797151863575
64.0,0.02239605039358139
72.0,0.019823141396045685
80.0,0.017631109803915024
88.0,0.015848955139517784
96.0,0.014132862910628319
104.0,0.012543660588562489
112.0,0.011021186597645283
120.0,0.009339427575469017
128.0,0.007685078773647547
144.0,0.004902104381471872
160.0,0.003156025893986225
176.0,0.0016127228736877441
192.0,0.0004844465584028512
208.0,-0.0005770953139290214
224.0,-0.0008648463408462703
240.0,-0.0015137841692194343
256.0,-0.0009651657892391086
288.0,-0.0008293099235743284
320.0,-0.0021227828692644835
352.0,-0.0035017498303204775
384.0,-0.004273139871656895
416.0,-0.0031857378780841827
448.0,-0.0016853926936164498
480.0,0.00044957699719816446
512.0,0.0019951420836150646
576.0,0.0006746126455254853
640.0,-0.0015859334962442517
704.0,-0.0026349748950451612
768.0,0.0006467814091593027
832.0,-0.0005434931954368949
896.0,-0.0013064794475212693
960.0,-0.0014725030632689595
1024.0,-0.004187167156487703
1152.0,-0.003416413441300392
1280.0,0.0012209488777443767
1408.0,-0.0002669096284080297
1536.0,6.028109282851801e-07
1664.0,-0.00016712030628696084
1792.0,0.0006757529336027801
1920.0,0.0008035133359953761
2048.0,0.0034771531354635954
2304.0,-0.00037261456600390375
2560.0,0.002630805131047964
2816.0,-0.007823926396667957
3072.0,-0.005925836972892284
3328.0,-0.0025464962236583233
3584.0,0.001550800632685423
3840.0,0.00499329250305891
4096.0,0.005042579490691423
4608.0,0.00027566918288357556
5120.0,-0.0012606855016201735
5632.0,0.002580575179308653
6144.0,0.0008798541966825724
6656.0,-0.006974881049245596
7168.0,-0.0032165409065783024
7680.0,0.003920628689229488
8192.0,-0.0022054410073906183
9216.0,0.003715144470334053
10240.0,-0.005976411048322916
11264.0,-0.0002136300172423944
12288.0,-0.006928996182978153
13312.0,0.009061223827302456
14336.0,-0.0060430485755205154
end
