version,3.0
numOfCh,1
type,point
parent_name,200-cuts
ch_type,1_1
kcount,1
numberNandB,1
brightnessNandB,1
carpet pos,0
pc,0
Time (ms),CH1 Auto-Correlation
1.0,0.06200645864009857
2.0,0.06085414066910744
3.0,0.059713833034038544
4.0,0.058590929955244064
5.0,0.05749277025461197
6.0,0.05642349272966385
7.0,0.05536549165844917
8.0,0.05431307107210159
9.0,0.053285323083400726
10.0,0.05227114260196686
11.0,0.05127539485692978
12.0,0.05029553547501564
13.0,0.04937127232551575
14.0,0.04848652705550194
15.0,0.0476287305355072
16.0,0.04679015278816223
18.0,0.04516514390707016
20.0,0.04359418526291847
22.0,0.04204144701361656
24.0,0.04058254510164261
26.0,0.039106857031583786
28.0,0.03768467903137207
30.0,0.03632518649101257
32.0,0.03504578396677971
36.0,0.03267959877848625
40.0,0.030554695054888725
44.0,0.028714299201965332
48.0,0.027090519666671753
52.0,0.025591732934117317
56.0,0.024159666150808334
60.0,0.02297321707010269
64.0,0.02195427194237709
72.0,0.01966220885515213
80.0,0.017384249716997147
88.0,0.01551990956068039
96.0,0.01413670927286148
104.0,0.012812705710530281
112.0,0.011340838856995106
120.0,0.010002545081079006
128.0,0.008922089822590351
144.0,0.006260907277464867
160.0,0.0034020324237644672
176.0,0.0014156176475808024
192.0,-0.00024442822905257344
208.0,-0.0008642708999104798
224.0,-0.0009807129390537739
240.0,-0.0010934632737189531
256.0,-0.0015519090229645371
288.0,-0.0018222251674160361
320.0,-0.0016196625074371696
352.0,-0.0021111462265253067
384.0,-0.002404706086963415
416.0,-0.0023786581587046385
448.0,-0.0016905345255509019
480.0,-0.0012770689791068435
512.0,-0.002408296102657914
576.0,-0.005208092276006937
640.0,-0.0015569896204397082
704.0,-0.0012303286930546165
768.0,-0.004645376466214657
832.0,-0.008367463015019894
896.0,-0.004920050967484713
960.0,-0.0038705337792634964
1024.0,-0.0019160103984177113
1152.0,-0.004250198137015104
1280.0,-0.0013353789690881968
1408.0,0.0009859174024313688
1536.0,0.00070288369897753
1664.0,0.00025347963673993945
1792.0,-0.0021643892396241426
1920.0,-0.001850623288191855
2048.0,0.0003446160117164254
2304.0,0.0004106488195247948
2560.0,-0.0005016872892156243
2816.0,-9.465378388995305e-05
3072.0,0.0002691411355044693
3328.0,-0.0006606766255572438
3584.0,0.0032122235279530287
3840.0,0.006190840620547533
4096.0,0.0017655439442023635
4608.0,-0.001559482072480023
5120.0,-0.0028752083890140057
5632.0,-0.0026705805212259293
6144.0,0.005281706806272268
6656.0,-0.0002308677212568
7168.0,-0.0021586825605481863
7680.0,0.0018445811001583934
8192.0,-0.0015168522950261831
9216.0,-9.685796248959377e-05
10240.0,-0.00038628376205451787
11264.0,0.0007586024003103375
12288.0,-0.00016301407595165074
13312.0,0.000576424936298281
14336.0,0.00020933046471327543
end
