version,3.0
numOfCh,1
type,point
parent_name,200-cuts
ch_type,1_1
kcount,1
numberNandB,1
brightnessNandB,1
carpet pos,0
pc,0
Time (ms),CH1 Auto-Correlation
1.0,0.09706208854913712
2.0,0.09520907700061798
3.0,0.09336695820093155
4.0,0.09153406322002411
5.0,0.08976144343614578
6.0,0.08797919005155563
7.0,0.08625815063714981
8.0,0.08456991612911224
9.0,0.08291136473417282
10.0,0.08130228519439697
11.0,0.07974319905042648
12.0,0.07817673683166504
13.0,0.07664801180362701
14.0,0.0751618891954422
15.0,0.07375985383987427
16.0,0.07240162044763565
18.0,0.06975103914737701
20.0,0.06715675443410873
22.0,0.06464725732803345
24.0,0.06211752071976662
26.0,0.05969272181391716
28.0,0.05742335692048073
30.0,0.05522804334759712
32.0,0.053245797753334045
36.0,0.049463123083114624
40.0,0.04596356302499771
44.0,0.04274216294288635
48.0,0.039815504103899
52.0,0.03714481368660927
56.0,0.034564726054668427
60.0,0.03202594071626663
64.0,0.02979799173772335
72.0,0.026303937658667564
80.0,0.023601491004228592
88.0,0.020952939987182617
96.0,0.018721899017691612
104.0,0.017703073099255562
112.0,0.01668306440114975
120.0,0.015264623798429966
128.0,0.013595971278846264
144.0,0.010785697028040886
160.0,0.007949435152113438
176.0,0.005942147225141525
192.0,0.00539598660543561
208.0,0.004862204659730196
224.0,0.0029966302681714296
240.0,-0.0006520238821394742
256.0,-0.004701999016106129
288.0,-0.009071937762200832
320.0,-0.009639955125749111
352.0,-0.006218268536031246
384.0,-0.001305914018303156
416.0,0.0030270200222730637
448.0,0.002044891007244587
480.0,0.002445994410663843
512.0,0.0056501589715480804
576.0,9.443113958695903e-05
640.0,-0.005153005477041006
704.0,-0.007470015902072191
768.0,-0.005410847719758749
832.0,0.0014788433909416199
896.0,-0.0007669075857847929
960.0,0.00017574687080923468
1024.0,-0.0020401731599122286
1152.0,-0.009889712557196617
1280.0,-0.0022753430530428886
1408.0,-0.002433705609291792
1536.0,-0.007405839394778013
1664.0,-0.00490510044619441
1792.0,-0.0026657155249267817
1920.0,-0.0034269834868609905
2048.0,0.0009480121079832315
2304.0,0.005217345431447029
2560.0,-0.0004830402322113514
2816.0,-0.0037288216408342123
3072.0,-0.0009478586143814027
3328.0,-0.006229279562830925
3584.0,0.006647689733654261
3840.0,0.004001420456916094
4096.0,0.0022459805477410555
4608.0,-0.0013216594234108925
5120.0,-0.008563948795199394
5632.0,-0.003491603070870042
6144.0,0.008283210918307304
6656.0,0.007040842901915312
7168.0,-0.0021871309727430344
7680.0,-0.006547417026013136
8192.0,-0.0007401117472909391
9216.0,-0.0014233586844056845
10240.0,0.0052706217393279076
11264.0,-0.0061017428524792194
12288.0,0.0033432256896048784
13312.0,-0.0026885438710451126
14336.0,-0.002488838043063879
end
