version,3.0
numOfCh,1
type,point
parent_name,200-cuts
ch_type,1_1
kcount,1
numberNandB,1
brightnessNandB,1
carpet pos,0
pc,0
Time (ms),CH1 Auto-Correlation
1.0,0.026751503348350525
2.0,0.02626189775764942
3.0,0.02579846978187561
4.0,0.025346843525767326
5.0,0.024898122996091843
6.0,0.024445459246635437
7.0,0.023994628340005875
8.0,0.02354269288480282
9.0,0.023111887276172638
10.0,0.022683797404170036
11.0,0.022268790751695633
12.0,0.021861951798200607
13.0,0.021471304818987846
14.0,0.02109803631901741
15.0,0.020737478509545326
16.0,0.020392250269651413
18.0,0.0197355467826128
20.0,0.019150812178850174
22.0,0.01860763318836689
24.0,0.018080973997712135
26.0,0.017577126622200012
28.0,0.01708497665822506
30.0,0.01663130708038807
32.0,0.016218233853578568
36.0,0.015389487147331238
40.0,0.014555760659277439
44.0,0.013727516867220402
48.0,0.012931307777762413
52.0,0.012184354476630688
56.0,0.011472346261143684
60.0,0.01076311245560646
64.0,0.010124536231160164
72.0,0.009031698107719421
80.0,0.008019589819014072
88.0,0.007111511193215847
96.0,0.006242852192372084
104.0,0.005469431634992361
112.0,0.00467817485332489
120.0,0.004049734212458134
128.0,0.0036417332012206316
144.0,0.0029372305143624544
160.0,0.0026786085218191147
176.0,0.0025403867475688457
192.0,0.002076820470392704
208.0,0.0013596154749393463
224.0,0.00035483771353028715
240.0,-0.00025009686942212284
256.0,-5.07137447129935e-05
288.0,0.00041388391400687397
320.0,0.0007400191971100867
352.0,0.00012497970601543784
384.0,-0.0002552852383814752
416.0,-7.661989366170019e-05
448.0,0.0003791432536672801
480.0,0.001010277308523655
512.0,0.0007188935414887965
576.0,0.000449588755145669
640.0,0.0008176868432201445
704.0,0.0016981113003566861
768.0,0.002766345627605915
832.0,0.0033995970152318478
896.0,0.00456194207072258
960.0,0.004113348666578531
1024.0,0.001575659029185772
1152.0,-0.00021867464238312095
1280.0,-0.00034599826904013753
1408.0,0.0008416291093453765
1536.0,0.0015936706913635135
1664.0,0.0033331653103232384
1792.0,0.0005109606427140534
1920.0,-0.0008066227310337126
2048.0,-4.9179593588633e-06
2304.0,-0.000648156856186688
2560.0,0.0018726133275777102
2816.0,0.00114390067756176
3072.0,-0.0018325261771678925
3328.0,-0.001430572709068656
3584.0,-0.0012925101909786463
3840.0,-0.002319308929145336
4096.0,-0.0020448490977287292
4608.0,-0.002042999491095543
5120.0,-0.002722515258938074
5632.0,0.000640584621578455
6144.0,-0.0032225854229182005
6656.0,-0.0007321690209209919
7168.0,0.0013535689795389771
7680.0,-0.0028765774331986904
8192.0,0.0016200559912249446
9216.0,0.00018824750441126525
10240.0,0.0012763736303895712
11264.0,-0.000343204359523952
12288.0,0.0013620887184515595
13312.0,0.0006069855880923569
14336.0,-0.0015939491568133235
end
