version,3.0
numOfCh,1
type,point
parent_name,200-cuts
ch_type,1_1
kcount,1
numberNandB,1
brightnessNandB,1
carpet pos,0
pc,0
Time (ms),CH1 Auto-Correlation
1.0,0.11980236321687698
2.0,0.11798223853111267
3.0,0.11620009690523148
4.0,0.11445548385381699
5.0,0.11271432787179947
6.0,0.11097169667482376
7.0,0.10929650068283081
8.0,0.10757879167795181
9.0,0.10588086396455765
10.0,0.10422840714454651
11.0,0.10257817059755325
12.0,0.10092867165803909
13.0,0.09929950535297394
14.0,0.0977216362953186
15.0,0.09613235294818878
16.0,0.09458804875612259
18.0,0.09152857214212418
20.0,0.0885995626449585
22.0,0.08583385497331619
24.0,0.08315906673669815
26.0,0.08059479296207428
28.0,0.07813450694084167
30.0,0.075717993080616
32.0,0.07333079725503922
36.0,0.06874807178974152
40.0,0.06443998962640762
44.0,0.060601990669965744
48.0,0.05685095861554146
52.0,0.05324120074510574
56.0,0.049917951226234436
60.0,0.04677741229534149
64.0,0.043953198939561844
72.0,0.038890279829502106
80.0,0.03433315455913544
88.0,0.030136220157146454
96.0,0.026531577110290527
104.0,0.023013979196548462
112.0,0.019679004326462746
120.0,0.01637432910501957
128.0,0.013528387993574142
144.0,0.007948514074087143
160.0,0.002327675698325038
176.0,-0.0013757579727098346
192.0,-0.0027007085736840963
208.0,-0.0019294341327622533
224.0,0.0005782986409030855
240.0,0.002410818822681904
256.0,0.0032248375937342644
288.0,0.00347685138694942
320.0,0.0008348090923391283
352.0,0.0011003812542185187
384.0,0.0025200641248375177
416.0,-0.0006759167299605906
448.0,-0.005338834598660469
480.0,-0.00831832829862833
512.0,-0.00630085077136755
576.0,-0.0016750880749896169
640.0,0.00044403408537618816
704.0,-0.002816673368215561
768.0,-0.0021198750473558903
832.0,-0.004262133967131376
896.0,-0.002919405233114958
960.0,0.0025582569651305676
1024.0,0.011476883664727211
1152.0,0.004360511898994446
1280.0,0.000800806621555239
1408.0,-0.0007982342503964901
1536.0,-0.005181948654353619
1664.0,-0.0062485067173838615
1792.0,0.011609532870352268
1920.0,-0.005349856801331043
2048.0,-0.011800161562860012
2304.0,0.005471889860928059
2560.0,0.005560057237744331
2816.0,-0.0012719952501356602
3072.0,0.001003060955554247
3328.0,-0.005417997948825359
3584.0,-0.00978231243789196
3840.0,-0.0029743420891463757
4096.0,0.006562861613929272
4608.0,-0.008603557012975216
5120.0,0.011137047782540321
5632.0,0.0079370541498065
6144.0,-0.0051153674721717834
6656.0,-0.001593693275935948
7168.0,-0.0013488787226378918
7680.0,-0.00965563952922821
8192.0,0.006215963046997786
9216.0,0.00028055536677129567
10240.0,0.004089368507266045
11264.0,-0.0023676101118326187
12288.0,-0.00693765701726079
13312.0,-0.010613596998155117
14336.0,-0.0004064659879077226
end
