version,3.0
numOfCh,1
type,point
parent_name,200-cuts
ch_type,1_1
kcount,1
numberNandB,1
brightnessNandB,1
carpet pos,0
pc,0
Time (ms),CH1 Auto-Correlation
1.0,0.032830070704221725
2.0,0.032247334718704224
3.0,0.03167516738176346
4.0,0.031107978895306587
5.0,0.03056143783032894
6.0,0.030032170936465263
7.0,0.02951325662434101
8.0,0.029010089114308357
9.0,0.02850355952978134
10.0,0.028022488579154015
11.0,0.02755037322640419
12.0,0.02708904817700386
13.0,0.026632649824023247
14.0,0.026198644191026688
15.0,0.02576342411339283
16.0,0.025322310626506805
18.0,0.024476632475852966
20.0,0.023654045537114143
22.0,0.022857267409563065
24.0,0.02211013436317444
26.0,0.02137122116982937
28.0,0.020656079053878784
30.0,0.0199960395693779
32.0,0.01935931108891964
36.0,0.018052730709314346
40.0,0.016701964661478996
44.0,0.015383236110210419
48.0,0.014120060950517654
52.0,0.012913869693875313
56.0,0.011827036738395691
60.0,0.01090291142463684
64.0,0.010055789723992348
72.0,0.008479505777359009
80.0,0.0069746943190693855
88.0,0.005531751550734043
96.0,0.004359766375273466
104.0,0.0034888058435171843
112.0,0.0027286901604384184
120.0,0.0020210961811244488
128.0,0.00153226254042238
144.0,0.0011724139330908656
160.0,0.0013234431389719248
176.0,0.0015688104322180152
192.0,0.0017587917391210794
208.0,0.0013836175203323364
224.0,0.001038195681758225
240.0,0.00041841910569928586
256.0,-0.0005408148281276226
288.0,-0.0019397971918806434
320.0,-0.002831023186445236
352.0,-0.0022620083764195442
384.0,-0.0005619638832286
416.0,0.0003780333208851516
448.0,0.0007144505507312715
480.0,0.0014907649019733071
512.0,0.0029785765800625086
576.0,0.003229837166145444
640.0,0.0024456745013594627
704.0,0.003624196397140622
768.0,0.0028068246319890022
832.0,0.0015530544333159924
896.0,-0.00014942025882191956
960.0,-0.002136323833838105
1024.0,-0.0011403757380321622
1152.0,-0.0020618147682398558
1280.0,-0.001671210047788918
1408.0,0.0004093014285899699
1536.0,0.0015792459016665816
1664.0,0.00021901470609009266
1792.0,-0.001028385479003191
1920.0,-0.003908130805939436
2048.0,-0.002570764161646366
2304.0,-0.0013070949353277683
2560.0,-0.0006847541662864387
2816.0,-0.0013887009117752314
3072.0,0.00013498547195922583
3328.0,-0.001060120644979179
3584.0,-0.0008347794064320624
3840.0,-0.0009210946736857295
4096.0,-0.0019161904929205775
4608.0,-0.0009173753205686808
5120.0,4.598173109116033e-05
5632.0,0.0002310454292455688
6144.0,0.0016436558216810226
6656.0,0.0015115902060642838
7168.0,-0.0010586155112832785
7680.0,0.00041071040323004127
8192.0,0.0010149228619411588
9216.0,-0.0005591223016381264
10240.0,-0.00035753403790295124
11264.0,0.00010507716069696471
12288.0,0.0007473563309758902
13312.0,-0.0004600566462613642
14336.0,-0.0006317882216535509
end
