version,3.0
numOfCh,1
type,point
parent_name,200-cuts
ch_type,1_1
kcount,1
numberNandB,1
brightnessNandB,1
carpet pos,0
pc,0
Time (ms),CH1 Auto-Correlation
1.0,0.029561281204223633
2.0,0.029020190238952637
3.0,0.02850295789539814
4.0,0.028003273531794548
5.0,0.027496328577399254
6.0,0.027002915740013123
7.0,0.02652248553931713
8.0,0.026056071743369102
9.0,0.025591861456632614
10.0,0.025137824937701225
11.0,0.024693535640835762
12.0,0.02424786053597927
13.0,0.02381150797009468
14.0,0.02338334359228611
15.0,0.02298351749777794
16.0,0.02259000763297081
18.0,0.021824438124895096
20.0,0.021070163697004318
22.0,0.020344922319054604
24.0,0.019623681902885437
26.0,0.018940556794404984
28.0,0.01825840398669243
30.0,0.01759735681116581
32.0,0.016974983736872673
36.0,0.01586465910077095
40.0,0.014812078326940536
44.0,0.013829187490046024
48.0,0.012896130792796612
52.0,0.012012971565127373
56.0,0.011148766614496708
60.0,0.010335268452763557
64.0,0.009620080702006817
72.0,0.008458476513624191
80.0,0.007603748701512814
88.0,0.00683356449007988
96.0,0.0061511998064816
104.0,0.005598035175353289
112.0,0.005095823667943478
120.0,0.004763664677739143
128.0,0.004561979789286852
144.0,0.0038133172784000635
160.0,0.002992943162098527
176.0,0.0022659962996840477
192.0,0.001773879979737103
208.0,0.0014738518511876464
224.0,0.001055580796673894
240.0,0.00029475928749889135
256.0,-7.927972183097154e-05
288.0,0.00027614342980086803
320.0,0.00035140005638822913
352.0,-0.00036899163387715816
384.0,-0.0010538076749071479
416.0,-0.0015606021042913198
448.0,-0.0014875680208206177
480.0,-0.00037692690966650844
512.0,0.0009162474889308214
576.0,0.0019099415512755513
640.0,-0.0002648333611432463
704.0,-3.3743606763891876e-05
768.0,-0.00021211823332123458
832.0,-0.0013515244936570525
896.0,-0.002282871166244149
960.0,-0.0031123885419219732
1024.0,-0.0019815578125417233
1152.0,-0.0030168676748871803
1280.0,-0.002766394754871726
1408.0,-0.0005241112085059285
1536.0,0.0023141882847994566
1664.0,0.0009031806839630008
1792.0,-0.003191713709384203
1920.0,-0.002621397841721773
2048.0,0.0014006284764036536
2304.0,0.0020704190246760845
2560.0,0.003355524269863963
2816.0,0.0016950540011748672
3072.0,-0.0008728198008611798
3328.0,-0.003462224965915084
3584.0,-0.002902393927797675
3840.0,0.0002466239675413817
4096.0,-0.00022508551774080843
4608.0,0.0021527400240302086
5120.0,0.0013851586263626814
5632.0,-0.0014704074710607529
6144.0,-0.002193331951275468
6656.0,-0.00014266262587625533
7168.0,0.0016474189469590783
7680.0,-0.0008184292237274349
8192.0,-0.001374834799207747
9216.0,-0.0008392255986109376
10240.0,0.00016349274665117264
11264.0,-0.0026383353397250175
12288.0,0.0006398362456820905
13312.0,0.00036055795499123633
14336.0,-0.0019119033822789788
end
