version,3.0
numOfCh,1
type,point
parent_name,200-cuts
ch_type,1_1
kcount,1
numberNandB,1
brightnessNandB,1
carpet pos,0
pc,0
Time (ms),CH1 Auto-Correlation
1.0,0.06392334401607513
2.0,0.06261882930994034
3.0,0.061330437660217285
4.0,0.060064516961574554
5.0,0.05881419777870178
6.0,0.05757462978363037
7.0,0.05635780096054077
8.0,0.055215902626514435
9.0,0.054065752774477005
10.0,0.05292058363556862
11.0,0.05179223045706749
12.0,0.05065752938389778
13.0,0.04957021400332451
14.0,0.04850956052541733
15.0,0.04747682809829712
16.0,0.046501558274030685
18.0,0.04465586319565773
20.0,0.0428217388689518
22.0,0.040993910282850266
24.0,0.03926100954413414
26.0,0.03758372366428375
28.0,0.036010321229696274
30.0,0.03449474275112152
32.0,0.03297598659992218
36.0,0.030061444267630577
40.0,0.027199095115065575
44.0,0.02438647858798504
48.0,0.021714607253670692
52.0,0.019265104085206985
56.0,0.0168298352509737
60.0,0.014372197911143303
64.0,0.011903669685125351
72.0,0.00817251019179821
80.0,0.005767827853560448
88.0,0.004379699006676674
96.0,0.0035381156485527754
104.0,0.0032301913015544415
112.0,0.003518679179251194
120.0,0.003595363348722458
128.0,0.003791782772168517
144.0,0.005136458668857813
160.0,0.006638990715146065
176.0,0.0077753146179020405
192.0,0.008628628216683865
208.0,0.008534071035683155
224.0,0.007119857240468264
240.0,0.006321530789136887
256.0,0.003704447764903307
288.0,-0.0007446452509611845
320.0,-0.0015456868568435311
352.0,-0.001003007753752172
384.0,0.00172211485914886
416.0,0.004753847606480122
448.0,0.006850424688309431
480.0,0.006912117823958397
512.0,0.0039413184858858585
576.0,0.0003642075462266803
640.0,0.0018552779220044613
704.0,0.000393746915506199
768.0,-0.0009334078640677035
832.0,0.0025335040409117937
896.0,-0.00046450100489892066
960.0,0.0020544505678117275
1024.0,0.0034619211219251156
1152.0,-0.0023352487478405237
1280.0,-0.0016849224921315908
1408.0,0.00016947963740676641
1536.0,-0.0023499783128499985
1664.0,-0.0013726050965487957
1792.0,-0.0002416798670310527
1920.0,-0.0015944319311529398
2048.0,-0.00024163925263565034
2304.0,0.0023302347399294376
2560.0,0.0003221769875381142
2816.0,0.00301753100939095
3072.0,-0.0008990592905320227
3328.0,0.0020428039133548737
3584.0,-0.0008336956379935145
3840.0,0.0008209401275962591
4096.0,-0.0010938254417851567
4608.0,-0.003832538379356265
5120.0,-0.0040562208741903305
5632.0,0.001022545387968421
6144.0,0.0016648431774228811
6656.0,0.001628413680009544
7168.0,0.0025814922992140055
7680.0,6.811218190705404e-05
8192.0,0.0002596556441858411
9216.0,0.0022897825110703707
10240.0,-0.00015348775195889175
11264.0,-0.0014273610431700945
12288.0,-0.008001197129487991
13312.0,-0.0011678698938339949
14336.0,-0.009348501451313496
end
