version,3.0
numOfCh,1
type,point
parent_name,200-cuts
ch_type,1_1
kcount,1
numberNandB,1
brightnessNandB,1
carpet pos,0
pc,0
Time (ms),CH1 Auto-Correlation
1.0,0.08250274509191513
2.0,0.08087808638811111
3.0,0.07934976369142532
4.0,0.07783827185630798
5.0,0.07633750885725021
6.0,0.0748339593410492
7.0,0.07335473597049713
8.0,0.07192658632993698
9.0,0.07053175568580627
10.0,0.06917193531990051
11.0,0.06779806315898895
12.0,0.06647694855928421
13.0,0.06518202275037766
14.0,0.06392725557088852
15.0,0.06265407800674438
16.0,0.06138214096426964
18.0,0.05889533832669258
20.0,0.05643033608794212
22.0,0.05400765687227249
24.0,0.05182512477040291
26.0,0.04977302625775337
28.0,0.04792250692844391
30.0,0.04625323414802551
32.0,0.04467734694480896
36.0,0.04186057299375534
40.0,0.03919951990246773
44.0,0.03662111610174179
48.0,0.03424673527479172
52.0,0.032162487506866455
56.0,0.030633091926574707
60.0,0.029165571555495262
64.0,0.027788100764155388
72.0,0.025692157447338104
80.0,0.02364230901002884
88.0,0.021917276084423065
96.0,0.0205348189920187
104.0,0.019400926306843758
112.0,0.01833439990878105
120.0,0.016898490488529205
128.0,0.015801625326275826
144.0,0.013047529384493828
160.0,0.00968664325773716
176.0,0.006920012179762125
192.0,0.004848591983318329
208.0,0.0031509213149547577
224.0,0.0026498991064727306
240.0,0.0018231570720672607
256.0,-0.0001371933176415041
288.0,-0.0034351146314293146
320.0,-0.00319883250631392
352.0,-0.0017673730617389083
384.0,-0.002397967968136072
416.0,-0.002265684539452195
448.0,-0.0006723987171426415
480.0,-0.0024757911451160908
512.0,-0.0027847543824464083
576.0,-0.003366079879924655
640.0,0.00019354057440068573
704.0,0.005936565808951855
768.0,0.003813185729086399
832.0,0.0013210737379267812
896.0,-0.0016604025149717927
960.0,-0.003505395958200097
1024.0,-0.0013603491242974997
1152.0,-0.0004472329164855182
1280.0,0.00025433668633922935
1408.0,-0.0009609495755285025
1536.0,-0.002554378705099225
1664.0,-0.0037347162142395973
1792.0,-0.0044606709852814674
1920.0,-0.005795279052108526
2048.0,-0.0012515140697360039
2304.0,0.000795663392636925
2560.0,0.0015339141245931387
2816.0,-0.0012139450991526246
3072.0,-0.0007429392426274717
3328.0,-0.006426692008972168
3584.0,-0.003100374946370721
3840.0,0.002208257094025612
4096.0,0.0011901584221050143
4608.0,0.002391423564404249
5120.0,-0.00010903301881626248
5632.0,0.006346570793539286
6144.0,-0.0015604071086272597
6656.0,0.0009814087534323335
7168.0,0.0001817746669985354
7680.0,-0.0012950045056641102
8192.0,0.0034125628881156445
9216.0,-0.0035519953817129135
10240.0,0.0026013150345534086
11264.0,-0.008463254198431969
12288.0,0.006265615113079548
13312.0,-0.005703560542315245
14336.0,0.0022279222030192614
end
