version,3.0
numOfCh,1
type,point
parent_name,200-cuts
ch_type,1_1
kcount,1
numberNandB,1
brightnessNandB,1
carpet pos,0
pc,0
Time (ms),CH1 Auto-Correlation
1.0,0.07339795678853989
2.0,0.07168682664632797
3.0,0.0700419470667839
4.0,0.06845390051603317
5.0,0.06693382561206818
6.0,0.06543996185064316
7.0,0.06400208920240402
8.0,0.0625409185886383
9.0,0.06109427660703659
10.0,0.059661149978637695
11.0,0.05827222764492035
12.0,0.056939318776130676
13.0,0.05570215731859207
14.0,0.05451395362615585
15.0,0.05340315029025078
16.0,0.05231333151459694
18.0,0.05031605064868927
20.0,0.04840388149023056
22.0,0.04656036198139191
24.0,0.04477553814649582
26.0,0.04302314668893814
28.0,0.04125385358929634
30.0,0.039493296295404434
32.0,0.037903085350990295
36.0,0.03509017080068588
40.0,0.03233933821320534
44.0,0.029643118381500244
48.0,0.02725074253976345
52.0,0.025201547890901566
56.0,0.023298995569348335
60.0,0.021932117640972137
64.0,0.02077885903418064
72.0,0.018046369776129723
80.0,0.015466536395251751
88.0,0.012896726839244366
96.0,0.011041118763387203
104.0,0.010025479830801487
112.0,0.009158767759799957
120.0,0.008503380231559277
128.0,0.007882833480834961
144.0,0.006600647699087858
160.0,0.005382814910262823
176.0,0.00495844567194581
192.0,0.004770210944116116
208.0,0.003532331669703126
224.0,0.0027270205318927765
240.0,0.0028317878022789955
256.0,0.003995499573647976
288.0,0.006875068414956331
320.0,0.006750407628715038
352.0,0.0024813723284751177
384.0,-0.0004387154767755419
416.0,0.0006626173853874207
448.0,0.0005311499699018896
480.0,-0.0020356387831270695
512.0,-0.0030548039358109236
576.0,-0.0026056021451950073
640.0,-0.00795609038323164
704.0,-0.008214548230171204
768.0,-0.003812081879004836
832.0,-0.0037719663232564926
896.0,-0.005631125997751951
960.0,-0.010307744145393372
1024.0,-0.011665856465697289
1152.0,-0.007398609071969986
1280.0,-0.0068228887394070625
1408.0,-0.0036746924743056297
1536.0,-0.0031338511034846306
1664.0,0.0024882741272449493
1792.0,0.002337694400921464
1920.0,0.0023614484816789627
2048.0,0.004540425259619951
2304.0,0.001507248030975461
2560.0,0.0052697244100272655
2816.0,0.0025273277424275875
3072.0,-0.005004311911761761
3328.0,-0.010358734056353569
3584.0,-0.005596452858299017
3840.0,-8.873936167219654e-05
4096.0,0.0022281098645180464
4608.0,0.010398844256997108
5120.0,-0.0023911320604383945
5632.0,-0.008993340656161308
6144.0,-0.0028860506135970354
6656.0,0.006369945127516985
7168.0,0.0048418063670396805
7680.0,-0.01222231239080429
8192.0,0.0018380985129624605
9216.0,0.005237962119281292
10240.0,-0.005073249340057373
11264.0,0.004530655685812235
12288.0,-0.0037270020693540573
13312.0,0.0037698023952543736
14336.0,-0.0029756517615169287
end
