version,3.0
numOfCh,1
type,point
parent_name,200-cuts
ch_type,1_1
kcount,1
numberNandB,1
brightnessNandB,1
carpet pos,0
pc,0
Time (ms),CH1 Auto-Correlation
1.0,0.02938280813395977
2.0,0.028802627697587013
3.0,0.028217121958732605
4.0,0.027637766674160957
5.0,0.027076369151473045
6.0,0.026522139087319374
7.0,0.025966813787817955
8.0,0.02543456479907036
9.0,0.024913791567087173
10.0,0.02440479025244713
11.0,0.02392462082207203
12.0,0.023457033559679985
13.0,0.023013176396489143
14.0,0.022598767653107643
15.0,0.022195585072040558
16.0,0.02179659716784954
18.0,0.021033212542533875
20.0,0.02031715027987957
22.0,0.019640181213617325
24.0,0.018974702805280685
26.0,0.018315784633159637
28.0,0.017674414440989494
30.0,0.017006101086735725
32.0,0.016348807141184807
36.0,0.015056352131068707
40.0,0.013866156339645386
44.0,0.012793852016329765
48.0,0.011846240609884262
52.0,0.010918962769210339
56.0,0.010030101984739304
60.0,0.009258225560188293
64.0,0.008511875756084919
72.0,0.006897779647260904
80.0,0.0056402976624667645
88.0,0.004460159223526716
96.0,0.00349611253477633
104.0,0.0029375115409493446
112.0,0.0024585281498730183
120.0,0.0019518006592988968
128.0,0.0015859175473451614
144.0,0.0008313226280733943
160.0,0.00029443460516631603
176.0,-0.00015402684221044183
192.0,-0.00041766930371522903
208.0,-0.00041466933907940984
224.0,0.0001698430860415101
240.0,0.0007373793632723391
256.0,0.0008803547243587673
288.0,-0.00041771336691454053
320.0,-0.0008239171002060175
352.0,0.00028694316279143095
384.0,0.0015446734614670277
416.0,0.0024561649188399315
448.0,0.0031615844927728176
480.0,0.0030073204543441534
512.0,0.0024774603080004454
576.0,0.002320161322131753
640.0,0.0011131026549264789
704.0,0.0002828270080499351
768.0,0.0002969384950120002
832.0,0.0003690502780955285
896.0,0.0011120166163891554
960.0,0.0019811189267784357
1024.0,0.00048794830217957497
1152.0,-0.00021467624173965305
1280.0,-0.0005687082884833217
1408.0,0.000540909415576607
1536.0,-0.001007014769129455
1664.0,-0.0017929255263879895
1792.0,-0.0025377916172146797
1920.0,0.0007658804534003139
2048.0,0.0013864303473383188
2304.0,0.00015066411287989467
2560.0,0.0008615828701294959
2816.0,0.0002814347390085459
3072.0,2.284443144162651e-05
3328.0,0.000331061368342489
3584.0,-0.0010893723228946328
3840.0,-0.000387383479392156
4096.0,-0.0006292140460573137
4608.0,0.0005685822106897831
5120.0,0.0004341526364441961
5632.0,0.00014097013627178967
6144.0,-0.0026950212195515633
6656.0,-0.002681516343727708
7168.0,-0.002889325376600027
7680.0,-2.456205947964918e-05
8192.0,0.00011514454672578722
9216.0,-0.0013037135358899832
10240.0,0.0007254640804603696
11264.0,-0.0008816393674351275
12288.0,-0.0006570804980583489
13312.0,0.0031541017815470695
14336.0,0.0015064767794683576
end
