version,3.0
numOfCh,1
type,point
parent_name,200-cuts
ch_type,1_1
kcount,1
numberNandB,1
brightnessNandB,1
carpet pos,0
pc,0
Time (ms),CH1 Auto-Correlation
1.0,0.08515240252017975
2.0,0.08371227979660034
3.0,0.08230118453502655
4.0,0.08092807233333588
5.0,0.07957381010055542
6.0,0.07824678719043732
7.0,0.07695908099412918
8.0,0.07570166885852814
9.0,0.07450997829437256
10.0,0.07337386906147003
11.0,0.07225615531206131
12.0,0.07113480567932129
13.0,0.07003453373908997
14.0,0.06895366311073303
15.0,0.06789614260196686
16.0,0.0668567568063736
18.0,0.06483951956033707
20.0,0.06291722506284714
22.0,0.06111016497015953
24.0,0.05929813161492348
26.0,0.05756029859185219
28.0,0.05586143583059311
30.0,0.054175298660993576
32.0,0.052588704973459244
36.0,0.04962291195988655
40.0,0.046858616173267365
44.0,0.04452534392476082
48.0,0.04238284006714821
52.0,0.04033951461315155
56.0,0.03830040991306305
60.0,0.03625055029988289
64.0,0.034217335283756256
72.0,0.03049273043870926
80.0,0.02707243524491787
88.0,0.024049364030361176
96.0,0.02160022407770157
104.0,0.01937970705330372
112.0,0.017008885741233826
120.0,0.014580653980374336
128.0,0.012507486157119274
144.0,0.009656216949224472
160.0,0.007697439286857843
176.0,0.006561848800629377
192.0,0.005054119508713484
208.0,0.0039847129955887794
224.0,0.0038093116600066423
240.0,0.0033136990386992693
256.0,0.0032147569581866264
288.0,0.0011320464545860887
320.0,0.0007615666836500168
352.0,0.00030327579588629305
384.0,0.0018857320537790656
416.0,0.002024218440055847
448.0,0.0001912065636133775
480.0,-0.0013571123126894236
512.0,-0.0028170496225357056
576.0,-0.004801626317203045
640.0,-0.0016441295156255364
704.0,0.0010721235303208232
768.0,0.008583370596170425
832.0,0.0065899137407541275
896.0,0.005760204046964645
960.0,0.00352806830778718
1024.0,0.004364740569144487
1152.0,0.0036834776401519775
1280.0,0.004476281348615885
1408.0,0.0014625955373048782
1536.0,-0.00038924862747080624
1664.0,-0.004846071358770132
1792.0,0.0022337136324495077
1920.0,-0.001221429673023522
2048.0,-0.0023083756677806377
2304.0,0.0034443882759660482
2560.0,-0.002001096960157156
2816.0,-0.007144697941839695
3072.0,-0.004064234904944897
3328.0,-0.004183853045105934
3584.0,0.0037808376364409924
3840.0,0.0010372211690992117
4096.0,0.003454898949712515
4608.0,0.0007276047253981233
5120.0,-0.003892807522788644
5632.0,-0.0013657603412866592
6144.0,-0.00258521712385118
6656.0,-0.00813311617821455
7168.0,-0.006750975735485554
7680.0,-0.003571500536054373
8192.0,0.002041530329734087
9216.0,0.0009299716912209988
10240.0,0.003108465578407049
11264.0,-0.0011795546161010861
12288.0,-0.0016237909439951181
13312.0,-0.0011452644830569625
14336.0,0.0013950429856777191
end
