version,3.0
numOfCh,1
type,point
parent_name,200-cuts
ch_type,1_1
kcount,1
numberNandB,1
brightnessNandB,1
carpet pos,0
pc,0
Time (ms),CH1 Auto-Correlation
1.0,0.027268145233392715
2.0,0.02674788050353527
3.0,0.026229361072182655
4.0,0.025725506246089935
5.0,0.025226423516869545
6.0,0.024734068661928177
7.0,0.024265369400382042
8.0,0.023802464827895164
9.0,0.023349057883024216
10.0,0.022892767563462257
11.0,0.022429324686527252
12.0,0.02196989208459854
13.0,0.02153407596051693
14.0,0.02112780697643757
15.0,0.020732345059514046
16.0,0.02034660056233406
18.0,0.01959802582859993
20.0,0.01889570988714695
22.0,0.018214721232652664
24.0,0.017595630139112473
26.0,0.017022132873535156
28.0,0.016473522409796715
30.0,0.015941906720399857
32.0,0.01540030911564827
36.0,0.014372014440596104
40.0,0.013445292599499226
44.0,0.012548048049211502
48.0,0.011643491685390472
52.0,0.010822471231222153
56.0,0.010015186853706837
60.0,0.009268381632864475
64.0,0.008624731563031673
72.0,0.007471519056707621
80.0,0.00650634802877903
88.0,0.005628523882478476
96.0,0.004657710902392864
104.0,0.0037763805594295263
112.0,0.0031824992038309574
120.0,0.0025725760497152805
128.0,0.0018420949345454574
144.0,0.0005654640845023096
160.0,-5.248808884061873e-05
176.0,-0.00048444431740790606
192.0,-0.0007964863325469196
208.0,-0.0007738236454315484
224.0,-0.0007943400414660573
240.0,-0.0006154879811219871
256.0,0.0001651102938922122
288.0,0.0011474575148895383
320.0,0.00044024077942594886
352.0,-0.0007002494530752301
384.0,-0.00107539352029562
416.0,-0.0011826379923149943
448.0,-0.0005743160145357251
480.0,0.0008020152454264462
512.0,0.0014072738122195005
576.0,0.0009543895139358938
640.0,0.000339192250976339
704.0,0.001248905318789184
768.0,0.001147758448496461
832.0,0.0005269300891086459
896.0,0.0006747833685949445
960.0,0.0005175938713364303
1024.0,0.00035579357063397765
1152.0,-0.0012350103352218866
1280.0,-0.0008663861663080752
1408.0,-0.0010342586319893599
1536.0,0.001436001155525446
1664.0,0.0013538089115172625
1792.0,0.0005194495897740126
1920.0,-0.0013245131121948361
2048.0,-0.0015954108675941825
2304.0,0.0009014417300932109
2560.0,0.0009293742477893829
2816.0,-4.252576036378741e-05
3072.0,-0.002691321074962616
3328.0,-0.00016181543469429016
3584.0,-0.0026616514660418034
3840.0,-0.0030714450404047966
4096.0,-6.247882993193343e-05
4608.0,-0.001432215329259634
5120.0,0.0005170238437131047
5632.0,-0.0009540326427668333
6144.0,-0.0006360119441524148
6656.0,0.0008306416566483676
7168.0,0.0004207317251712084
7680.0,0.001962525537237525
8192.0,0.0023261550813913345
9216.0,0.0006202856893651187
10240.0,-0.00029859947971999645
11264.0,-0.0012700262013822794
12288.0,-8.636176062282175e-05
13312.0,-0.0001467935653636232
14336.0,0.0006056982674635947
end
