version,3.0
numOfCh,1
type,point
parent_name,200-cuts
ch_type,1_1
kcount,1
numberNandB,1
brightnessNandB,1
carpet pos,0
pc,0
Time (ms),CH1 Auto-Correlation
1.0,0.08297170698642731
2.0,0.0815403014421463
3.0,0.08011280000209808
4.0,0.07869938760995865
5.0,0.07729993015527725
6.0,0.07591290026903152
7.0,0.07454893738031387
8.0,0.07318457216024399
9.0,0.07186798751354218
10.0,0.07060001790523529
11.0,0.06936588883399963
12.0,0.06815299391746521
13.0,0.06696020811796188
14.0,0.06574216485023499
15.0,0.06453389674425125
16.0,0.06333553791046143
18.0,0.061098210513591766
20.0,0.05897776782512665
22.0,0.056887246668338776
24.0,0.054833825677633286
26.0,0.05292882025241852
28.0,0.051198191940784454
30.0,0.0495341494679451
32.0,0.047911208122968674
36.0,0.04468625411391258
40.0,0.04177824780344963
44.0,0.039211906492710114
48.0,0.03682073578238487
52.0,0.034507401287555695
56.0,0.03237216919660568
60.0,0.03042389079928398
64.0,0.02869446389377117
72.0,0.025685543194413185
80.0,0.022547626867890358
88.0,0.01948924921452999
96.0,0.017102135345339775
104.0,0.015680283308029175
112.0,0.014797029085457325
120.0,0.013633180409669876
128.0,0.012363866902887821
144.0,0.01099751889705658
160.0,0.010165253654122353
176.0,0.009107481688261032
192.0,0.008982247672975063
208.0,0.008841815404593945
224.0,0.007321149576455355
240.0,0.004940586164593697
256.0,0.003994220867753029
288.0,0.005021508317440748
320.0,0.005237590055912733
352.0,0.0030360883101820946
384.0,-0.0004989436129108071
416.0,-0.0015078120632097125
448.0,0.0021793071646243334
480.0,0.002575117163360119
512.0,0.00031833411776460707
576.0,0.00441702688112855
640.0,0.007615919690579176
704.0,0.005280539393424988
768.0,0.006407007109373808
832.0,0.005602313671261072
896.0,0.0012538356240838766
960.0,0.0033671248238533735
1024.0,0.005427531898021698
1152.0,-0.0015807206509634852
1280.0,-0.001369883888401091
1408.0,0.0055556222796440125
1536.0,0.0048798490315675735
1664.0,0.0029429632704705
1792.0,-0.002103331731632352
1920.0,-9.108576341532171e-05
2048.0,-0.0007032584398984909
2304.0,0.0028484370559453964
2560.0,0.0008359418134205043
2816.0,-0.003989049699157476
3072.0,-0.004534887615591288
3328.0,-0.002764338394626975
3584.0,-0.003654037369415164
3840.0,-0.008625144138932228
4096.0,-0.00717196287587285
4608.0,-0.006415912881493568
5120.0,-8.461307879770175e-05
5632.0,-0.005429531913250685
6144.0,-0.005737503990530968
6656.0,-0.009558253921568394
7168.0,4.4349257223075256e-05
7680.0,0.003365074982866645
8192.0,0.006925779394805431
9216.0,0.0030134571716189384
10240.0,0.009300675243139267
11264.0,-0.002642192644998431
12288.0,-0.0031348164193332195
13312.0,-0.004105850122869015
14336.0,-0.007216631434857845
end
