version,3.0
numOfCh,1
type,point
parent_name,200-cuts
ch_type,1_1
kcount,1
numberNandB,1
brightnessNandB,1
carpet pos,0
pc,0
Time (ms),CH1 Auto-Correlation
1.0,0.0354863703250885
2.0,0.03478098660707474
3.0,0.03410409763455391
4.0,0.03342358022928238
5.0,0.032781943678855896
6.0,0.03215443715453148
7.0,0.031541451811790466
8.0,0.030945761129260063
9.0,0.030383244156837463
10.0,0.029824277386069298
11.0,0.02927478402853012
12.0,0.028727592900395393
13.0,0.028192736208438873
14.0,0.02765737473964691
15.0,0.027124231681227684
16.0,0.026603013277053833
18.0,0.025570325553417206
20.0,0.024592231959104538
22.0,0.023644093424081802
24.0,0.022716984152793884
26.0,0.021808123216032982
28.0,0.020891880616545677
30.0,0.02001841552555561
32.0,0.019196899607777596
36.0,0.017680903896689415
40.0,0.016253292560577393
44.0,0.014918586239218712
48.0,0.013772733509540558
52.0,0.012729672715067863
56.0,0.011723390780389309
60.0,0.010763686150312424
64.0,0.009841267950832844
72.0,0.008398709818720818
80.0,0.007274232339113951
88.0,0.006241962313652039
96.0,0.005382934585213661
104.0,0.00480693718418479
112.0,0.00423732353374362
120.0,0.0037196665070950985
128.0,0.0034507131204009056
144.0,0.002928058849647641
160.0,0.002086571417748928
176.0,0.001305437763221562
192.0,0.0005809520953334868
208.0,-0.0005665944772772491
224.0,-0.0019180775852873921
240.0,-0.002413972048088908
256.0,-0.002283011097460985
288.0,-0.0017670743400231004
320.0,-0.0025489346589893103
352.0,-0.0031552740838378668
384.0,-0.003418601816520095
416.0,-0.003698865883052349
448.0,-0.004428263753652573
480.0,-0.004604621324688196
512.0,-0.003690732177346945
576.0,-0.0012671449221670628
640.0,-0.0016714967787265778
704.0,-0.0002441869582980871
768.0,0.000899936247151345
832.0,0.0010519330389797688
896.0,0.0014549697516486049
960.0,0.0015907639171928167
1024.0,7.876013842178509e-05
1152.0,0.0005724629736505449
1280.0,0.0017309702234342694
1408.0,0.0007144109113141894
1536.0,-0.0003045022895094007
1664.0,-0.0020226603373885155
1792.0,-0.0021695399191230536
1920.0,-0.0006211998406797647
2048.0,-0.00010267566540278494
2304.0,0.0007840553880669177
2560.0,-0.0006390931666828692
2816.0,-0.0008338051266036928
3072.0,-0.000583990418817848
3328.0,0.0007744287722744048
3584.0,-0.00023803110525477678
3840.0,-0.00242737028747797
4096.0,-0.0012675480684265494
4608.0,0.0028423378244042397
5120.0,-0.0021418018732219934
5632.0,0.0036787833087146282
6144.0,-0.002115737646818161
6656.0,0.002249273704364896
7168.0,-0.0017227721400558949
7680.0,0.0005239545716904104
8192.0,-0.0011534823570400476
9216.0,-0.0011242538457736373
10240.0,-0.00013403932098299265
11264.0,0.0004536494379863143
12288.0,0.0012713813921436667
13312.0,-0.0019488576799631119
14336.0,8.783389785094187e-05
end
