version,3.0
numOfCh,1
type,point
parent_name,200-cuts
ch_type,1_1
kcount,1
numberNandB,1
brightnessNandB,1
carpet pos,0
pc,0
Time (ms),CH1 Auto-Correlation
1.0,0.055547431111335754
2.0,0.054516036063432693
3.0,0.0535174123942852
4.0,0.05253041535615921
5.0,0.05156196281313896
6.0,0.05063873529434204
7.0,0.04975820705294609
8.0,0.04889494925737381
9.0,0.04803762212395668
10.0,0.047183554619550705
11.0,0.04635738953948021
12.0,0.04554302617907524
13.0,0.04475754126906395
14.0,0.0439758338034153
15.0,0.04320144280791283
16.0,0.04244789853692055
18.0,0.041049275547266006
20.0,0.03971467912197113
22.0,0.03849496692419052
24.0,0.0372941680252552
26.0,0.0360698327422142
28.0,0.03485259786248207
30.0,0.03367769718170166
32.0,0.03256592899560928
36.0,0.030508430674672127
40.0,0.02841237187385559
44.0,0.02628711424767971
48.0,0.02436351589858532
52.0,0.022640405222773552
56.0,0.020998630672693253
60.0,0.019366510212421417
64.0,0.017752325162291527
72.0,0.014769310131669044
80.0,0.01219809427857399
88.0,0.010547366924583912
96.0,0.009867136366665363
104.0,0.009170807898044586
112.0,0.00809909962117672
120.0,0.007220324594527483
128.0,0.006517036352306604
144.0,0.005849804263561964
160.0,0.005567437037825584
176.0,0.004166997969150543
192.0,0.0033335566986352205
208.0,0.0020542433485388756
224.0,0.0012020223075523973
240.0,0.0002638169389683753
256.0,-0.0006640611100010574
288.0,-0.0014161515282467008
320.0,-0.0003788972971960902
352.0,0.00048027103184722364
384.0,-0.0002865645510610193
416.0,0.00043412239756435156
448.0,-0.001139401807449758
480.0,-0.0013461706694215536
512.0,-0.00016708543989807367
576.0,-0.00343529530800879
640.0,-0.001938273780979216
704.0,0.0009510853560641408
768.0,0.0032790431287139654
832.0,0.0019206624710932374
896.0,0.001152253826148808
960.0,0.0026316444855183363
1024.0,0.0026729137171059847
1152.0,0.004726204089820385
1280.0,0.0037706815637648106
1408.0,0.0016293689841404557
1536.0,-0.0013705602614209056
1664.0,-0.004285771399736404
1792.0,0.0002857895742636174
1920.0,0.0017497411463409662
2048.0,8.984460146166384e-05
2304.0,0.0010636248625814915
2560.0,-7.82636197982356e-05
2816.0,-0.006119517609477043
3072.0,-0.0033325320109725
3328.0,0.001347118872217834
3584.0,-0.005348212085664272
3840.0,-0.0008826808771118522
4096.0,-0.00179102027323097
4608.0,-0.0004835943691432476
5120.0,0.002076233271509409
5632.0,-0.003516513854265213
6144.0,0.003805627580732107
6656.0,0.0009417738765478134
7168.0,0.0049263229593634605
7680.0,0.0025996032636612654
8192.0,-0.001018462236970663
9216.0,6.669083813903853e-05
10240.0,-0.004539848770946264
11264.0,-0.0029593680519610643
12288.0,-0.0033722706139087677
13312.0,0.0008948167087510228
14336.0,-0.0018975662533193827
end
