version,3.0
numOfCh,1
type,point
parent_name,200-cuts
ch_type,1_1
kcount,1
numberNandB,1
brightnessNandB,1
carpet pos,0
pc,0
Time (ms),CH1 Auto-Correlation
1.0,0.07270872592926025
2.0,0.07146497815847397
3.0,0.07025015354156494
4.0,0.06905569136142731
5.0,0.06786522269248962
6.0,0.06667739152908325
7.0,0.06552600115537643
8.0,0.06439879536628723
9.0,0.06328074634075165
10.0,0.06218934431672096
11.0,0.06114518642425537
12.0,0.06012636050581932
13.0,0.05908966064453125
14.0,0.058076828718185425
15.0,0.057052530348300934
16.0,0.0560387559235096
18.0,0.0541478767991066
20.0,0.05238783732056618
22.0,0.05071635544300079
24.0,0.049203235656023026
26.0,0.047706931829452515
28.0,0.04625402390956879
30.0,0.044769879430532455
32.0,0.04329890012741089
36.0,0.04056559130549431
40.0,0.037937335669994354
44.0,0.035452280193567276
48.0,0.03329243138432503
52.0,0.03142179921269417
56.0,0.029633507132530212
60.0,0.02799500711262226
64.0,0.02641182951629162
72.0,0.023418281227350235
80.0,0.02042277716100216
88.0,0.017815640196204185
96.0,0.015137352980673313
104.0,0.012510444037616253
112.0,0.010278543457388878
120.0,0.008810368366539478
128.0,0.007695151027292013
144.0,0.004664127249270678
160.0,0.0017998869298025966
176.0,-8.66473710630089e-05
192.0,-0.001297720125876367
208.0,-0.0016270963242277503
224.0,-0.0010761660523712635
240.0,-0.0003940923197660595
256.0,0.0004926283145323396
288.0,-0.0002879250969272107
320.0,-0.0017228095093742013
352.0,-0.003364892676472664
384.0,-0.003906314726918936
416.0,-0.005223142448812723
448.0,-0.005004390608519316
480.0,-0.004716843832284212
512.0,-0.0039350795559585094
576.0,-0.0024307393468916416
640.0,0.0005775730824097991
704.0,0.0036384991835802794
768.0,0.0012012431398034096
832.0,-0.0011440960224717855
896.0,-0.0024010820779949427
960.0,-0.002509745769202709
1024.0,-0.0018901601433753967
1152.0,-0.0012845153687521815
1280.0,-0.005477882456034422
1408.0,0.0018281779484823346
1536.0,-0.0003328297461848706
1664.0,0.0011029363377019763
1792.0,-0.003150754841044545
1920.0,-0.00492645800113678
2048.0,-0.006911647040396929
2304.0,-0.0037921390030533075
2560.0,-0.003101445036008954
2816.0,-0.00027807982405647635
3072.0,-0.0023469540756195784
3328.0,0.0005940695991739631
3584.0,0.004058128222823143
3840.0,0.003701919224113226
4096.0,0.0003241233353037387
4608.0,0.0027633393183350563
5120.0,0.0025881349574774504
5632.0,-0.00031049607787281275
6144.0,-0.006742700468748808
6656.0,-0.00462625827640295
7168.0,0.0010555520420894027
7680.0,-0.0041662417352199554
8192.0,0.007802257779985666
9216.0,0.0009959526360034943
10240.0,-0.004587111994624138
11264.0,-0.00300964480265975
12288.0,0.005289810709655285
13312.0,0.0022156620398163795
14336.0,0.004140345845371485
end
