version,3.0
numOfCh,1
type,point
parent_name,200-cuts
ch_type,1_1
kcount,1
numberNandB,1
brightnessNandB,1
carpet pos,0
pc,0
Time (ms),CH1 Auto-Correlation
1.0,0.11093144118785858
2.0,0.10915589332580566
3.0,0.10738915950059891
4.0,0.10564600676298141
5.0,0.10400514304637909
6.0,0.10243044793605804
7.0,0.10089615732431412
8.0,0.09942115098237991
9.0,0.09801208227872849
10.0,0.09665588289499283
11.0,0.09533984959125519
12.0,0.09406374394893646
13.0,0.09275221079587936
14.0,0.09145462512969971
15.0,0.09019363671541214
16.0,0.08890693634748459
18.0,0.0863269492983818
20.0,0.08381754159927368
22.0,0.08137830346822739
24.0,0.079054094851017
26.0,0.07680944353342056
28.0,0.07452338188886642
30.0,0.07218274474143982
32.0,0.0698125883936882
36.0,0.06549572944641113
40.0,0.061480894684791565
44.0,0.057736970484256744
48.0,0.054017871618270874
52.0,0.050532273948192596
56.0,0.04721604660153389
60.0,0.04400116205215454
64.0,0.04098864272236824
72.0,0.03554554656147957
80.0,0.030272431671619415
88.0,0.024973833933472633
96.0,0.019787438213825226
104.0,0.014897425659000874
112.0,0.011148793622851372
120.0,0.008024279959499836
128.0,0.004988450091332197
144.0,0.00108161976095289
160.0,-0.0006696988712064922
176.0,-0.0007556772907264531
192.0,-0.0011823797831311822
208.0,-0.0018049831269308925
224.0,-0.002399410353973508
240.0,-0.0020897076465189457
256.0,-0.002209477126598358
288.0,-0.002255343133583665
320.0,-0.00013495152234099805
352.0,0.002850000746548176
384.0,0.006530999206006527
416.0,0.008249635808169842
448.0,0.008174551650881767
480.0,0.009836746379733086
512.0,0.006247677840292454
576.0,-0.00404564430937171
640.0,-0.008451553992927074
704.0,-0.005023276433348656
768.0,0.000692865636665374
832.0,0.0022988636046648026
896.0,0.0005593374371528625
960.0,0.0046363715082407
1024.0,0.0050676316022872925
1152.0,-0.0018089725635945797
1280.0,0.006819036789238453
1408.0,0.0011655851267278194
1536.0,0.004684862680733204
1664.0,-0.005813421681523323
1792.0,0.0038057162892073393
1920.0,-0.00021413118520285934
2048.0,0.002737776841968298
2304.0,-0.0034363747108727694
2560.0,-0.006662428379058838
2816.0,-0.005789920687675476
3072.0,-0.005877904128283262
3328.0,-0.003625354962423444
3584.0,-0.007273244671523571
3840.0,-0.010167733766138554
4096.0,-0.004769022576510906
4608.0,-0.004532263148576021
5120.0,0.0024411280173808336
5632.0,-0.00871714111417532
6144.0,0.007858560420572758
6656.0,0.00911044329404831
7168.0,0.00562858022749424
7680.0,0.0017606659093871713
8192.0,0.01009934302419424
9216.0,-0.004284298978745937
10240.0,-0.004372036550194025
11264.0,-0.0036779444199055433
12288.0,-0.005718874745070934
13312.0,0.0012059578439220786
14336.0,0.0030422431882470846
end
