version,3.0
numOfCh,1
type,point
parent_name,200-cuts
ch_type,1_1
kcount,1
numberNandB,1
brightnessNandB,1
carpet pos,0
pc,0
Time (ms),CH1 Auto-Correlation
1.0,0.07251079380512238
2.0,0.0711725503206253
3.0,0.06987287104129791
4.0,0.06859428435564041
5.0,0.06736741214990616
6.0,0.06619853526353836
7.0,0.06502046436071396
8.0,0.06387004256248474
9.0,0.06275385618209839
10.0,0.061649762094020844
11.0,0.060563892126083374
12.0,0.05952126905322075
13.0,0.05849572643637657
14.0,0.05747681483626366
15.0,0.056534893810749054
16.0,0.05561773106455803
18.0,0.05383967235684395
20.0,0.05211037024855614
22.0,0.05053573101758957
24.0,0.04908394813537598
26.0,0.04770513251423836
28.0,0.04635850340127945
30.0,0.04507097974419594
32.0,0.04384952038526535
36.0,0.041500627994537354
40.0,0.0392330102622509
44.0,0.03714993968605995
48.0,0.035340316593647
52.0,0.03363310173153877
56.0,0.032140810042619705
60.0,0.030700668692588806
64.0,0.029334409162402153
72.0,0.026894573122262955
80.0,0.024322472512722015
88.0,0.02157759666442871
96.0,0.019127726554870605
104.0,0.01665678806602955
112.0,0.014208115637302399
120.0,0.011618535034358501
128.0,0.009136785753071308
144.0,0.0048398664221167564
160.0,0.000748520134948194
176.0,-0.003221349325031042
192.0,-0.005820100195705891
208.0,-0.007300926838070154
224.0,-0.008099428378045559
240.0,-0.008406784385442734
256.0,-0.009115469641983509
288.0,-0.009067370556294918
320.0,-0.010394618846476078
352.0,-0.009793149307370186
384.0,-0.008160894736647606
416.0,-0.004248554352670908
448.0,-0.0008999060373753309
480.0,0.0017661027377471328
512.0,0.003158607054501772
576.0,0.00304849143140018
640.0,0.0008958042599260807
704.0,-0.0016525320243090391
768.0,-0.007110519800335169
832.0,-0.005327013786882162
896.0,-0.002946397289633751
960.0,0.004384669940918684
1024.0,0.01042530033737421
1152.0,0.011149603873491287
1280.0,0.002220587572082877
1408.0,-0.005147092510014772
1536.0,-0.0026569743640720844
1664.0,-0.0009315065108239651
1792.0,-0.00637233117595315
1920.0,-0.00568754505366087
2048.0,-0.0025431097019463778
2304.0,0.003549525747075677
2560.0,0.0008544244919903576
2816.0,-0.0043514445424079895
3072.0,-3.840812496491708e-05
3328.0,-0.001390215940773487
3584.0,0.0006671520532108843
3840.0,-0.0015689365100115538
4096.0,-0.005869840271770954
4608.0,0.0002945803862530738
5120.0,-0.0048283906653523445
5632.0,-0.00047723142779432237
6144.0,-0.002919490449130535
6656.0,-0.0016243455465883017
7168.0,-0.0006038356223143637
7680.0,-0.0006400840356945992
8192.0,0.001397356390953064
9216.0,0.0008093596552498639
10240.0,0.0023387991823256016
11264.0,2.7304682589601725e-05
12288.0,0.002589931944385171
13312.0,-0.0008574822568334639
14336.0,0.001840489450842142
end
