version,3.0
numOfCh,1
type,point
parent_name,200-cuts
ch_type,1_1
kcount,1
numberNandB,1
brightnessNandB,1
carpet pos,0
pc,0
Time (ms),CH1 Auto-Correlation
1.0,0.08396755158901215
2.0,0.08249411731958389
3.0,0.08107545226812363
4.0,0.07966591417789459
5.0,0.07826830446720123
6.0,0.0769047662615776
7.0,0.07555906474590302
8.0,0.07424435764551163
9.0,0.07298003882169724
10.0,0.07174025475978851
11.0,0.07054445147514343
12.0,0.06936394423246384
13.0,0.06820515543222427
14.0,0.06704793870449066
15.0,0.0659409612417221
16.0,0.06486867368221283
18.0,0.06273674219846725
20.0,0.060689777135849
22.0,0.058783698827028275
24.0,0.05704725161194801
26.0,0.055536724627017975
28.0,0.05407038703560829
30.0,0.05261684209108353
32.0,0.05117521062493324
36.0,0.048411861062049866
40.0,0.04595496132969856
44.0,0.04365141689777374
48.0,0.04148544371128082
52.0,0.03958924487233162
56.0,0.037818543612957
60.0,0.03627315163612366
64.0,0.03501405566930771
72.0,0.03275877609848976
80.0,0.03061808831989765
88.0,0.028081661090254784
96.0,0.02530691586434841
104.0,0.023173458874225616
112.0,0.02112729661166668
120.0,0.018836239352822304
128.0,0.016215208917856216
144.0,0.010970179922878742
160.0,0.006982635706663132
176.0,0.005806589033454657
192.0,0.005120309069752693
208.0,0.0038913835305720568
224.0,0.002292351797223091
240.0,0.0003330250910948962
256.0,-0.0012847258476540446
288.0,-0.0027054548263549805
320.0,-0.0045029339380562305
352.0,-0.00669737858697772
384.0,-0.00785540696233511
416.0,-0.010432001203298569
448.0,-0.011546324007213116
480.0,-0.011662624776363373
512.0,-0.013235948048532009
576.0,-0.009747365489602089
640.0,-0.0023376992903649807
704.0,0.001613402971997857
768.0,0.004091161303222179
832.0,0.004145433194935322
896.0,0.0018699333304539323
960.0,-0.0035545583814382553
1024.0,-0.010736129246652126
1152.0,-0.009464133530855179
1280.0,-0.0059674992226064205
1408.0,-0.0034886288922280073
1536.0,0.0013673878274857998
1664.0,0.0026584097649902105
1792.0,5.962890645605512e-05
1920.0,-0.0007187423179857433
2048.0,-0.0003700031666085124
2304.0,-0.004727138672024012
2560.0,0.004506122320890427
2816.0,0.0069607156328856945
3072.0,0.00020579677948262542
3328.0,0.0024927884805947542
3584.0,-0.003638369729742408
3840.0,-0.008618531748652458
4096.0,-0.002988589694723487
4608.0,0.000258875748841092
5120.0,-0.00479386281222105
5632.0,0.006858632899820805
6144.0,0.0057898228988051414
6656.0,-0.004608917981386185
7168.0,-0.003919411916285753
7680.0,0.003809694666415453
8192.0,-0.00017830889555625618
9216.0,0.0016009999671950936
10240.0,-0.0009830727940425277
11264.0,0.0007610039319843054
12288.0,-0.0016134297475218773
13312.0,-0.0011070159962400794
14336.0,0.0009239214123226702
end
