version,3.0
numOfCh,1
type,point
parent_name,200-cuts
ch_type,1_1
kcount,1
numberNandB,1
brightnessNandB,1
carpet pos,0
pc,0
Time (ms),CH1 Auto-Correlation
1.0,0.09156095236539841
2.0,0.09019289910793304
3.0,0.088873490691185
4.0,0.08761387318372726
5.0,0.08637548983097076
6.0,0.08515948802232742
7.0,0.08398221433162689
8.0,0.08280882984399796
9.0,0.08165404200553894
10.0,0.08056049048900604
11.0,0.07947666198015213
12.0,0.07843044400215149
13.0,0.0774008110165596
14.0,0.07635711878538132
15.0,0.0753626897931099
16.0,0.07440661638975143
18.0,0.072476826608181
20.0,0.07057283818721771
22.0,0.06866290420293808
24.0,0.06686978787183762
26.0,0.06514669209718704
28.0,0.06341667473316193
30.0,0.061686817556619644
32.0,0.06001284345984459
36.0,0.05686916783452034
40.0,0.05380997061729431
44.0,0.0507914237678051
48.0,0.04786180704832077
52.0,0.045204441994428635
56.0,0.04284132644534111
60.0,0.0405518114566803
64.0,0.03832176327705383
72.0,0.034279197454452515
80.0,0.03073391318321228
88.0,0.027699073776602745
96.0,0.02536875568330288
104.0,0.02317001111805439
112.0,0.02074490487575531
120.0,0.018897783011198044
128.0,0.017395377159118652
144.0,0.014601744711399078
160.0,0.012468141503632069
176.0,0.011123040691018105
192.0,0.010654156096279621
208.0,0.010670425370335579
224.0,0.009192182682454586
240.0,0.006741326302289963
256.0,0.005495018791407347
288.0,0.005166798830032349
320.0,0.004468871746212244
352.0,0.001962842419743538
384.0,-0.001068808720447123
416.0,-0.001353035680949688
448.0,-0.0014054365456104279
480.0,-0.0019411375978961587
512.0,-0.0017223305767402053
576.0,0.0007162506226450205
640.0,0.0047412230633199215
704.0,0.0061592101119458675
768.0,0.004213376436382532
832.0,-0.0007249056943692267
896.0,-0.0003940514870919287
960.0,-0.005048336461186409
1024.0,-0.008668631315231323
1152.0,-0.0034626901615411043
1280.0,0.0036927980836480856
1408.0,0.005672736093401909
1536.0,0.006978228688240051
1664.0,-0.00016660866094753146
1792.0,-0.010532359592616558
1920.0,-0.007521656341850758
2048.0,-0.001360827824100852
2304.0,0.0019391567911952734
2560.0,0.0014547754544764757
2816.0,-0.005580209661275148
3072.0,-0.005223811604082584
3328.0,0.0005995748797431588
3584.0,0.0042466348968446255
3840.0,0.010653258301317692
4096.0,0.008395854383707047
4608.0,-0.0006191961583681405
5120.0,-0.011347572319209576
5632.0,-0.010146912187337875
6144.0,-0.003125871531665325
6656.0,-0.005903991870582104
7168.0,-0.009184424765408039
7680.0,0.007498777937144041
8192.0,0.004110049922019243
9216.0,-0.001896758214570582
10240.0,-0.004418585915118456
11264.0,0.012795818038284779
12288.0,0.008517580106854439
13312.0,-0.009004413150250912
14336.0,-0.0036206275690346956
end
