version,3.0
numOfCh,1
type,point
parent_name,200-cuts
ch_type,1_1
kcount,1
numberNandB,1
brightnessNandB,1
carpet pos,0
pc,0
Time (ms),CH1 Auto-Correlation
1.0,0.06043331325054169
2.0,0.05901293829083443
3.0,0.05764535069465637
4.0,0.05632073059678078
5.0,0.0550033338367939
6.0,0.0537070594727993
7.0,0.05247391015291214
8.0,0.05129578709602356
9.0,0.050126105546951294
10.0,0.04898383095860481
11.0,0.04787585139274597
12.0,0.0468021035194397
13.0,0.045722007751464844
14.0,0.04470086470246315
15.0,0.043704744428396225
16.0,0.04273802042007446
18.0,0.04085547849535942
20.0,0.03899350017309189
22.0,0.03712046891450882
24.0,0.03522618114948273
26.0,0.033413808792829514
28.0,0.03172612935304642
30.0,0.030215468257665634
32.0,0.028796114027500153
36.0,0.026379533112049103
40.0,0.024167466908693314
44.0,0.022226395085453987
48.0,0.02021966688334942
52.0,0.018177475780248642
56.0,0.016302242875099182
60.0,0.014526772312819958
64.0,0.012773359194397926
72.0,0.009550090879201889
80.0,0.007038674782961607
88.0,0.005478873383253813
96.0,0.004442962817847729
104.0,0.0035285328049212694
112.0,0.002517156070098281
120.0,0.0013153988402336836
128.0,0.0008528311736881733
144.0,0.0009709357982501388
160.0,0.0015044404426589608
176.0,0.0014253197005018592
192.0,0.0017398654017597437
208.0,0.002294229343533516
224.0,0.0039953445084393024
240.0,0.004316333681344986
256.0,0.0050452169962227345
288.0,0.006793652661144733
320.0,0.005374021828174591
352.0,0.0021023890003561974
384.0,-0.0011419332586228848
416.0,-0.0024355321656912565
448.0,-0.0016275329980999231
480.0,-0.0008552950457669795
512.0,0.00013628850865643471
576.0,0.004324796609580517
640.0,0.002145592123270035
704.0,9.010986832436174e-05
768.0,-0.0009933527326211333
832.0,-0.004159053321927786
896.0,-0.0013379284646362066
960.0,9.141762711806223e-05
1024.0,-0.001983320340514183
1152.0,0.00019619952945504338
1280.0,-0.0025483076460659504
1408.0,-0.0005971637438051403
1536.0,0.003939188551157713
1664.0,0.00196729670278728
1792.0,0.0014415525365620852
1920.0,5.6346736528212205e-05
2048.0,0.0015220950590446591
2304.0,-0.001954081002622843
2560.0,-0.005088216159492731
2816.0,-0.001396502717398107
3072.0,0.0014683327171951532
3328.0,0.00012134066491853446
3584.0,0.00014861913223285228
3840.0,-7.539799116784707e-05
4096.0,-0.0028652637265622616
4608.0,-0.0027383111882954836
5120.0,-0.00010852735431399196
5632.0,-0.0014773192815482616
6144.0,7.330928201554343e-05
6656.0,0.0004907936090603471
7168.0,0.0004559975059237331
7680.0,-0.001745329238474369
8192.0,0.002605823799967766
9216.0,-0.000419977935962379
10240.0,-0.0011310481932014227
11264.0,-0.00137847731821239
12288.0,0.0038958315271884203
13312.0,-0.0028983508236706257
14336.0,0.002226924989372492
end
