version,3.0
numOfCh,1
type,point
parent_name,200-cuts
ch_type,1_1
kcount,1
numberNandB,1
brightnessNandB,1
carpet pos,0
pc,0
Time (ms),CH1 Auto-Correlation
1.0,0.02656850963830948
2.0,0.026051810011267662
3.0,0.025530779734253883
4.0,0.025018109008669853
5.0,0.02450704202055931
6.0,0.023999536409974098
7.0,0.023495642468333244
8.0,0.022989977151155472
9.0,0.022493857890367508
10.0,0.022015543654561043
11.0,0.021547619253396988
12.0,0.02109203301370144
13.0,0.020674649626016617
14.0,0.020263677462935448
15.0,0.019845256581902504
16.0,0.019429612904787064
18.0,0.018636228516697884
20.0,0.017895007506012917
22.0,0.017152883112430573
24.0,0.016424693167209625
26.0,0.015744730830192566
28.0,0.015100130811333656
30.0,0.014517348259687424
32.0,0.013981522992253304
36.0,0.012957176193594933
40.0,0.012068232521414757
44.0,0.011357693001627922
48.0,0.010798553004860878
52.0,0.01029419805854559
56.0,0.009850294329226017
60.0,0.009428680874407291
64.0,0.009017768315970898
72.0,0.008329933509230614
80.0,0.007799374870955944
88.0,0.0073856813833117485
96.0,0.006934160832315683
104.0,0.006313995458185673
112.0,0.005654833745211363
120.0,0.004909504670649767
128.0,0.004058575723320246
144.0,0.002825698349624872
160.0,0.0016669665928930044
176.0,0.0007411069818772376
192.0,0.00032045593252405524
208.0,0.00031135580502450466
224.0,0.0003131112898699939
240.0,5.9042140492238104e-05
256.0,-8.108202746370807e-05
288.0,1.4041113900020719e-05
320.0,-0.00042785724508576095
352.0,0.00040280245593748987
384.0,0.001288535655476153
416.0,0.0007495869649574161
448.0,0.00011344233644194901
480.0,-0.0002743539516814053
512.0,7.262424333021045e-05
576.0,-0.0008344189845956862
640.0,-0.0016687936149537563
704.0,-0.0018481183797121048
768.0,-0.0029307901859283447
832.0,-0.0026282675098627806
896.0,-0.0009917339775711298
960.0,0.0008026815485209227
1024.0,0.0010408414527773857
1152.0,0.0007424532668665051
1280.0,0.0013486349489539862
1408.0,0.0013072661822661757
1536.0,0.00011199784785276279
1664.0,0.0008019823580980301
1792.0,0.001382084097713232
1920.0,-0.0005836893105879426
2048.0,-0.00034942783531732857
2304.0,0.00010477558680577204
2560.0,-0.0003057483409065753
2816.0,0.0004880994383711368
3072.0,0.0008736298186704516
3328.0,-0.0006160117336548865
3584.0,-0.0020357004832476377
3840.0,-0.0015189797850325704
4096.0,-0.0036775004118680954
4608.0,-0.00017941808619070798
5120.0,-0.0006743660196661949
5632.0,-0.0030653015710413456
6144.0,5.866270657861605e-05
6656.0,-0.0005523322615772486
7168.0,0.0005545574240386486
7680.0,0.0013507617404684424
8192.0,0.00027031355421058834
9216.0,0.0009335276554338634
10240.0,0.0005861478275619447
11264.0,0.0003009666979778558
12288.0,0.00015116707072593272
13312.0,-0.0010876193409785628
14336.0,-0.0009641826036386192
end
