version,3.0
numOfCh,1
type,point
parent_name,200-cuts
ch_type,1_1
kcount,1
numberNandB,1
brightnessNandB,1
carpet pos,0
pc,0
Time (ms),CH1 Auto-Correlation
1.0,0.06423758715391159
2.0,0.06293847411870956
3.0,0.061681751161813736
4.0,0.0604604035615921
5.0,0.059284478425979614
6.0,0.05815526470541954
7.0,0.05711285397410393
8.0,0.056116532534360886
9.0,0.055157776921987534
10.0,0.054282717406749725
11.0,0.05339175462722778
12.0,0.05253158509731293
13.0,0.05168234556913376
14.0,0.05083191767334938
15.0,0.049998536705970764
16.0,0.04919585585594177
18.0,0.04767206311225891
20.0,0.0462835468351841
22.0,0.04498997703194618
24.0,0.043773699551820755
26.0,0.042513612657785416
28.0,0.041327524930238724
30.0,0.04018189385533333
32.0,0.039043914526700974
36.0,0.03690365329384804
40.0,0.03475910425186157
44.0,0.03252222016453743
48.0,0.03043638914823532
52.0,0.028458237648010254
56.0,0.02650381810963154
60.0,0.024683495983481407
64.0,0.02308221161365509
72.0,0.020499134436249733
80.0,0.01829906366765499
88.0,0.01700090989470482
96.0,0.016269389539957047
104.0,0.015847228467464447
112.0,0.015478352084755898
120.0,0.015267577022314072
128.0,0.015106198377907276
144.0,0.015216084197163582
160.0,0.01456469763070345
176.0,0.012532183900475502
192.0,0.01060921885073185
208.0,0.00928406696766615
224.0,0.008291677571833134
240.0,0.006848368793725967
256.0,0.00587838888168335
288.0,0.005686153657734394
320.0,0.004644155502319336
352.0,0.0031047784723341465
384.0,0.0006934888078831136
416.0,-0.00040169089334085584
448.0,-0.00010592213220661506
480.0,0.0010496582835912704
512.0,0.0026646023616194725
576.0,0.002694015158340335
640.0,0.0029570884071290493
704.0,0.00022341375006362796
768.0,-0.004605118650943041
832.0,-0.005109791178256273
896.0,-0.00806147325783968
960.0,-0.0077725909650325775
1024.0,-0.007766976486891508
1152.0,-0.008345887996256351
1280.0,-0.0052019571885466576
1408.0,-0.00493321567773819
1536.0,-0.005750730168074369
1664.0,-0.0036115485709160566
1792.0,-0.0019920310005545616
1920.0,-0.0030585734639316797
2048.0,-0.0002415691560599953
2304.0,0.0009965387871488929
2560.0,-0.0007245029555633664
2816.0,0.0017863227985799313
3072.0,0.0009426287724636495
3328.0,-0.0010163424303755164
3584.0,-0.0004099794605281204
3840.0,-0.006847514305263758
4096.0,-0.006568485870957375
4608.0,0.003381516318768263
5120.0,0.004322689026594162
5632.0,0.004288703668862581
6144.0,0.00028428464429453015
6656.0,-0.0069977776147425175
7168.0,0.0009414959349669516
7680.0,0.006394181866198778
8192.0,-0.002487889723852277
9216.0,-0.0023950226604938507
10240.0,0.0023526691365987062
11264.0,0.0026881208177655935
12288.0,-0.00016520946519449353
13312.0,-0.0024507835041731596
14336.0,-0.0006889192154631019
end
