version,3.0
numOfCh,1
type,point
parent_name,200-cuts
ch_type,1_1
kcount,1
numberNandB,1
brightnessNandB,1
carpet pos,0
pc,0
Time (ms),CH1 Auto-Correlation
1.0,0.05152301862835884
2.0,0.05058663338422775
3.0,0.04964941367506981
4.0,0.04872521758079529
5.0,0.04781199246644974
6.0,0.04692922905087471
7.0,0.0460759773850441
8.0,0.04523606225848198
9.0,0.04442436248064041
10.0,0.043620891869068146
11.0,0.04286038130521774
12.0,0.04210400581359863
13.0,0.041363898664712906
14.0,0.040642790496349335
15.0,0.039927948266267776
16.0,0.03925313428044319
18.0,0.037919625639915466
20.0,0.036637917160987854
22.0,0.03538013622164726
24.0,0.03417461737990379
26.0,0.03300339728593826
28.0,0.03185718134045601
30.0,0.03075377456843853
32.0,0.02969595231115818
36.0,0.027615349739789963
40.0,0.025642886757850647
44.0,0.02378191612660885
48.0,0.022064518183469772
52.0,0.020385099574923515
56.0,0.018797295168042183
60.0,0.017417719587683678
64.0,0.01616782695055008
72.0,0.013586747460067272
80.0,0.01128116250038147
88.0,0.009199867025017738
96.0,0.007565848529338837
104.0,0.005972257815301418
112.0,0.0042176214046776295
120.0,0.0027548547368496656
128.0,0.0015967240324243903
144.0,0.0004591245378833264
160.0,0.0005214317352510989
176.0,0.0012510799570009112
192.0,0.0016936330357566476
208.0,0.0022107011172920465
224.0,0.0026691481471061707
240.0,0.002314929151907563
256.0,0.001858984585851431
288.0,0.0013345322804525495
320.0,0.000284991372609511
352.0,-0.0008133683004416525
384.0,-0.0006391239585354924
416.0,-0.00018601778720039874
448.0,0.0001816417061490938
480.0,0.0009201915236189961
512.0,0.002408840926364064
576.0,0.003186930203810334
640.0,0.004467839375138283
704.0,0.00020982669957447797
768.0,-0.002828659489750862
832.0,-0.004721662495285273
896.0,-0.003046476049348712
960.0,0.00015573148266412318
1024.0,0.0034732993226498365
1152.0,0.00138988031540066
1280.0,0.002238465705886483
1408.0,-4.8649031668901443e-05
1536.0,0.0024429818149656057
1664.0,-0.00024247677356470376
1792.0,-0.005426699761301279
1920.0,-0.003182796761393547
2048.0,-0.0023472413886338472
2304.0,-0.0017002610256895423
2560.0,0.0012766129802912474
2816.0,-0.0015883074374869466
3072.0,0.0002973024093080312
3328.0,-0.0013808112125843763
3584.0,-0.0011810087598860264
3840.0,-0.0029474159236997366
4096.0,-0.003462456399574876
4608.0,-0.0006075769779272377
5120.0,-0.0004855812876485288
5632.0,0.00036639420432038605
6144.0,-0.0018277186900377274
6656.0,-0.0035911030136048794
7168.0,0.002203437266871333
7680.0,0.0002735366579145193
8192.0,0.0029512071050703526
9216.0,0.00018473029194865376
10240.0,-0.0006190627464093268
11264.0,-0.003921000752598047
12288.0,0.0013163215480744839
13312.0,0.005138480104506016
14336.0,-0.0022243524435907602
end
