version,3.0
numOfCh,1
type,point
parent_name,200-cuts
ch_type,1_1
kcount,1
numberNandB,1
brightnessNandB,1
carpet pos,0
pc,0
Time (ms),CH1 Auto-Correlation
1.0,0.07866521924734116
2.0,0.07722919434309006
3.0,0.07578619569540024
4.0,0.0743090882897377
5.0,0.07287105172872543
6.0,0.07148031890392303
7.0,0.07011044025421143
8.0,0.06877315044403076
9.0,0.0674537941813469
10.0,0.06613317131996155
11.0,0.06487975269556046
12.0,0.06361274421215057
13.0,0.062370434403419495
14.0,0.06118222326040268
15.0,0.06000429391860962
16.0,0.05882963538169861
18.0,0.05654513090848923
20.0,0.0543101541697979
22.0,0.05214188992977142
24.0,0.05006444454193115
26.0,0.047997452318668365
28.0,0.0459841750562191
30.0,0.04397304356098175
32.0,0.04212680831551552
36.0,0.038746029138565063
40.0,0.03553259000182152
44.0,0.03247162699699402
48.0,0.029634881764650345
52.0,0.027046745643019676
56.0,0.024590736255049706
60.0,0.022329309955239296
64.0,0.0200772937387228
72.0,0.015975071117281914
80.0,0.012466705404222012
88.0,0.00959683582186699
96.0,0.007050111889839172
104.0,0.004161889664828777
112.0,0.0011292865965515375
120.0,-0.0012915374245494604
128.0,-0.002650429029017687
144.0,-0.0039865924045443535
160.0,-0.00421752966940403
176.0,-0.004412095993757248
192.0,-0.004089355934411287
208.0,-0.0042520551942288876
224.0,-0.005021325778216124
240.0,-0.005187436938285828
256.0,-0.00508553721010685
288.0,-0.0007575065828859806
320.0,0.0032537218648940325
352.0,0.0036101210862398148
384.0,0.0039909048937261105
416.0,0.0009401834104210138
448.0,-0.002752346219494939
480.0,-0.005142910405993462
512.0,-0.007905454374849796
576.0,-0.0048104035668075085
640.0,0.0018466030014678836
704.0,0.007727892138063908
768.0,0.0036166172940284014
832.0,-0.0024565865751355886
896.0,-0.0046831164509058
960.0,-0.006783673539757729
1024.0,-0.004358609206974506
1152.0,0.004747024271637201
1280.0,0.003920356743037701
1408.0,0.0022460392210632563
1536.0,-0.0005085804150439799
1664.0,-0.002301174681633711
1792.0,0.0015586531953886151
1920.0,0.0023955400101840496
2048.0,-0.0013329042121767998
2304.0,-0.008639796636998653
2560.0,0.0018125853966921568
2816.0,-0.0010665971785783768
3072.0,-0.001099604880437255
3328.0,-0.000639346253592521
3584.0,-0.0009644614183343947
3840.0,-0.0010210613254457712
4096.0,-0.0014412341406568885
4608.0,0.00031900807516649365
5120.0,-7.439753244398162e-05
5632.0,-0.000618292368017137
6144.0,0.0022952579893171787
6656.0,0.0007857237942516804
7168.0,-0.004929547663778067
7680.0,-0.0010279861744493246
8192.0,-0.0008815987966954708
9216.0,-0.0016582205425947905
10240.0,0.004317852668464184
11264.0,-2.3589387637912296e-05
12288.0,0.002177536254748702
13312.0,-0.000273401674348861
14336.0,-0.0018407865427434444
end
