version,3.0
numOfCh,1
type,point
parent_name,200-cuts
ch_type,1_1
kcount,1
numberNandB,1
brightnessNandB,1
carpet pos,0
pc,0
Time (ms),CH1 Auto-Correlation
1.0,0.06058448553085327
2.0,0.05941331386566162
3.0,0.058275189250707626
4.0,0.057188309729099274
5.0,0.056109365075826645
6.0,0.05502546578645706
7.0,0.053947921842336655
8.0,0.05289518088102341
9.0,0.05186331644654274
10.0,0.05082625150680542
11.0,0.04983316734433174
12.0,0.0488571897149086
13.0,0.04789572209119797
14.0,0.04694532975554466
15.0,0.04602707922458649
16.0,0.045109789818525314
18.0,0.04334399849176407
20.0,0.04170014336705208
22.0,0.04012182354927063
24.0,0.03861517459154129
26.0,0.03713161498308182
28.0,0.03568129613995552
30.0,0.03435060754418373
32.0,0.03307649865746498
36.0,0.030804898589849472
40.0,0.02882133424282074
44.0,0.02700839377939701
48.0,0.025304177775979042
52.0,0.023602640256285667
56.0,0.022089235484600067
60.0,0.0208304263651371
64.0,0.019594335928559303
72.0,0.017395971342921257
80.0,0.015736659988760948
88.0,0.014491155743598938
96.0,0.013404744677245617
104.0,0.0123640401288867
112.0,0.011015571653842926
120.0,0.00946894008666277
128.0,0.007832031697034836
144.0,0.00493586715310812
160.0,0.0033967418130487204
176.0,0.0021570317912846804
192.0,0.0017992351204156876
208.0,0.0021004138980060816
224.0,0.001893941662274301
240.0,0.0006676770863123238
256.0,1.345498731097905e-06
288.0,-0.000842142675537616
320.0,-0.0018422071589156985
352.0,-0.0008471360197290778
384.0,0.002505202777683735
416.0,0.004699935670942068
448.0,0.004016817081719637
480.0,0.004286416340619326
512.0,0.0030386820435523987
576.0,0.003545651910826564
640.0,-0.0010922184446826577
704.0,-0.003065077355131507
768.0,0.0001375392748741433
832.0,0.0030668338295072317
896.0,0.0033786653075367212
960.0,0.004020955413579941
1024.0,0.0045175920240581036
1152.0,0.0028792889788746834
1280.0,0.004367666319012642
1408.0,0.0035898378118872643
1536.0,-3.276101779192686e-05
1664.0,0.00011742127389879897
1792.0,-0.00035634497180581093
1920.0,-0.0036496229004114866
2048.0,-0.0024932522792369127
2304.0,0.0005158142885193229
2560.0,0.0008829127764329314
2816.0,-0.0016409856034442782
3072.0,0.0041755675338208675
3328.0,-0.006907883565872908
3584.0,0.002363485051319003
3840.0,0.0031589355785399675
4096.0,-0.0017838506028056145
4608.0,0.0029342600610107183
5120.0,-0.0015935481060296297
5632.0,-0.00012042422167723998
6144.0,-0.004283423535525799
6656.0,-0.000695782364346087
7168.0,-0.003531113965436816
7680.0,-0.0003070298407692462
8192.0,-0.0019131433218717575
9216.0,-0.00167555408552289
10240.0,-0.0040104384534060955
11264.0,-0.0013305585598573089
12288.0,0.0001602949487278238
13312.0,0.002789539285004139
14336.0,-0.005724002607166767
end
