version,3.0
numOfCh,1
type,point
parent_name,200-cuts
ch_type,1_1
kcount,1
numberNandB,1
brightnessNandB,1
carpet pos,0
pc,0
Time (ms),CH1 Auto-Correlation
1.0,0.022600747644901276
2.0,0.0221585500985384
3.0,0.021710697561502457
4.0,0.021269258111715317
5.0,0.020844312384724617
6.0,0.020430954173207283
7.0,0.020033467561006546
8.0,0.019646769389510155
9.0,0.019262846559286118
10.0,0.018878547474741936
11.0,0.018510613590478897
12.0,0.018139036372303963
13.0,0.01777547597885132
14.0,0.017419008538126945
15.0,0.017066579312086105
16.0,0.016726670786738396
18.0,0.01606065407395363
20.0,0.015414450317621231
22.0,0.01480494812130928
24.0,0.01424215454608202
26.0,0.01372586004436016
28.0,0.013236421160399914
30.0,0.012790785171091557
32.0,0.01237077359110117
36.0,0.011578849516808987
40.0,0.010840699076652527
44.0,0.010183793492615223
48.0,0.009534449316561222
52.0,0.008922855369746685
56.0,0.008357018232345581
60.0,0.007815327495336533
64.0,0.0073624225333333015
72.0,0.006619610358029604
80.0,0.005986368283629417
88.0,0.0054170736111700535
96.0,0.005065659061074257
104.0,0.0047950418666005135
112.0,0.004649996757507324
120.0,0.004548844415694475
128.0,0.004437232855707407
144.0,0.004337870515882969
160.0,0.004504521377384663
176.0,0.004349186550825834
192.0,0.0035068669822067022
208.0,0.002600196748971939
224.0,0.0023024175316095352
240.0,0.0019412492401897907
256.0,0.0012773724738508463
288.0,-2.0012215827591717e-05
320.0,-0.00032002924126572907
352.0,-0.00036912280484102666
384.0,-0.00034602751838974655
416.0,-5.995736864861101e-05
448.0,-0.00011312439892208204
480.0,-0.0004410345572978258
512.0,-0.000789170095231384
576.0,-9.445756586501375e-05
640.0,0.0005106429453007877
704.0,0.001269511179998517
768.0,0.0017351239221170545
832.0,0.0025359904393553734
896.0,0.0032692519016563892
960.0,0.0019670187029987574
1024.0,0.0008261544280685484
1152.0,0.00041343929478898644
1280.0,0.0004801719624083489
1408.0,0.000401845492888242
1536.0,0.0006310353055596352
1664.0,0.0010593971237540245
1792.0,0.0019236479420214891
1920.0,0.0006861362489871681
2048.0,-0.00021149471285752952
2304.0,5.7475761423120275e-05
2560.0,-0.0008872878388501704
2816.0,0.0004656408273149282
3072.0,0.0005703304195776582
3328.0,-0.0005202614120207727
3584.0,0.000308046379359439
3840.0,-0.0006828209152445197
4096.0,-0.0012668408453464508
4608.0,-0.0015331106260418892
5120.0,0.0016140537336468697
5632.0,-7.462787471013144e-05
6144.0,-0.0005374964675866067
6656.0,-5.858422355231596e-06
7168.0,-0.00019829237135127187
7680.0,-0.0013715053210034966
8192.0,-0.0009813966462388635
9216.0,-0.002864406444132328
10240.0,-0.0017467578873038292
11264.0,-0.0009649026324041188
12288.0,0.0006445458857342601
13312.0,0.0015846984460949898
14336.0,1.9317010810482316e-05
end
