version,3.0
numOfCh,1
type,point
parent_name,200-cuts
ch_type,1_1
kcount,1
numberNandB,1
brightnessNandB,1
carpet pos,0
pc,0
Time (ms),CH1 Auto-Correlation
1.0,0.06757231056690216
2.0,0.06623789668083191
3.0,0.06496605277061462
4.0,0.06369771808385849
5.0,0.0624387226998806
6.0,0.061171408742666245
7.0,0.05996248498558998
8.0,0.058730073273181915
9.0,0.057512316852808
10.0,0.0563279427587986
11.0,0.05518922582268715
12.0,0.05405111983418465
13.0,0.052903544157743454
14.0,0.051755111664533615
15.0,0.050627049058675766
16.0,0.04954792559146881
18.0,0.04743548482656479
20.0,0.045390501618385315
22.0,0.04339379444718361
24.0,0.04150543361902237
26.0,0.03973995894193649
28.0,0.038046471774578094
30.0,0.03644930571317673
32.0,0.034949950873851776
36.0,0.03217471018433571
40.0,0.029691480100154877
44.0,0.027531804516911507
48.0,0.02559143677353859
52.0,0.023559845983982086
56.0,0.021495303139090538
60.0,0.019537024199962616
64.0,0.017551563680171967
72.0,0.013935885392129421
80.0,0.01098066009581089
88.0,0.008175276219844818
96.0,0.005959079600870609
104.0,0.004400092642754316
112.0,0.0034473389387130737
120.0,0.0028384325560182333
128.0,0.002482452429831028
144.0,0.0022089341655373573
160.0,0.003117907326668501
176.0,0.004369181115180254
192.0,0.004678120370954275
208.0,0.004438257310539484
224.0,0.005076673813164234
240.0,0.0060474262572824955
256.0,0.006296413019299507
288.0,0.0057245464995503426
320.0,0.004798145964741707
352.0,0.004647755064070225
384.0,0.004241024609655142
416.0,0.005604198202490807
448.0,0.005445506889373064
480.0,0.004437263123691082
512.0,0.0030619928147643805
576.0,-0.0013070163549855351
640.0,-0.0002956304815597832
704.0,-0.00030207657255232334
768.0,-0.0018004454905167222
832.0,0.0022496022284030914
896.0,0.0026643057353794575
960.0,-0.0033580781891942024
1024.0,-0.005570308305323124
1152.0,-0.0021808708552271128
1280.0,-0.0020323607604950666
1408.0,0.004548512864857912
1536.0,0.0039818910881876945
1664.0,0.006142521742731333
1792.0,0.004120971076190472
1920.0,0.0022305254824459553
2048.0,0.005050620995461941
2304.0,0.0010140030644834042
2560.0,0.001445799833163619
2816.0,-0.00039919401751831174
3072.0,0.004283050540834665
3328.0,0.0018054954707622528
3584.0,0.0027858351822942495
3840.0,0.0017104384023696184
4096.0,-0.0011977930553257465
4608.0,-0.0011243106564506888
5120.0,0.002671165158972144
5632.0,-0.0016007695812731981
6144.0,-0.0009337193332612514
6656.0,-0.0019703295547515154
7168.0,-0.004896314814686775
7680.0,-0.001536233932711184
8192.0,-0.000427309307269752
9216.0,-0.0028670569881796837
10240.0,-0.003623228520154953
11264.0,-0.005405021365731955
12288.0,-0.005722613539546728
13312.0,-0.0012143929488956928
14336.0,-0.0005321908392943442
end
