version,3.0
numOfCh,1
type,point
parent_name,200-cuts
ch_type,1_1
kcount,1
numberNandB,1
brightnessNandB,1
carpet pos,0
pc,0
Time (ms),CH1 Auto-Correlation
1.0,0.08245307207107544
2.0,0.0810435563325882
3.0,0.07967650145292282
4.0,0.07828225940465927
5.0,0.07691694051027298
6.0,0.07556111365556717
7.0,0.07424215227365494
8.0,0.07294571399688721
9.0,0.07165617495775223
10.0,0.07037779688835144
11.0,0.06913258880376816
12.0,0.0679716095328331
13.0,0.06685290485620499
14.0,0.0657460018992424
15.0,0.06463280320167542
16.0,0.06352712959051132
18.0,0.061383917927742004
20.0,0.059318553656339645
22.0,0.057334914803504944
24.0,0.05541147291660309
26.0,0.053570955991744995
28.0,0.05190563574433327
30.0,0.05035487934947014
32.0,0.048874229192733765
36.0,0.04595373943448067
40.0,0.043219488114118576
44.0,0.04049573093652725
48.0,0.037798576056957245
52.0,0.03510912507772446
56.0,0.032749518752098083
60.0,0.030506381765007973
64.0,0.028450792655348778
72.0,0.025164619088172913
80.0,0.022758742794394493
88.0,0.020696019753813744
96.0,0.018614938482642174
104.0,0.01674441434442997
112.0,0.014682785607874393
120.0,0.012947403825819492
128.0,0.011405273340642452
144.0,0.007607497274875641
160.0,0.003201128914952278
176.0,0.0003320842224638909
192.0,-0.001293694251216948
208.0,-0.002228502416983247
224.0,-0.002113982569426298
240.0,-0.0007896919851191342
256.0,5.327874168870039e-05
288.0,0.0028405040502548218
320.0,0.005424103699624538
352.0,0.007369410712271929
384.0,0.0075644501484930515
416.0,0.006942064967006445
448.0,0.005117814987897873
480.0,0.00021790813480038196
512.0,-0.005007228348404169
576.0,-0.00916790496557951
640.0,-0.0038567723240703344
704.0,-0.002675693714991212
768.0,0.0006041693850420415
832.0,0.004086923785507679
896.0,0.003299340605735779
960.0,-0.003525235690176487
1024.0,-0.005798247177153826
1152.0,-0.003022545948624611
1280.0,-0.003413867438212037
1408.0,0.0026461780071258545
1536.0,0.005611184053122997
1664.0,-0.0001467471447540447
1792.0,0.0033782972022891045
1920.0,0.0003101107431575656
2048.0,-0.006450178567320108
2304.0,-0.0019113518064841628
2560.0,0.0008482385892421007
2816.0,-0.008622678928077221
3072.0,-0.0036953450180590153
3328.0,0.00559615483507514
3584.0,-0.00021173917048145086
3840.0,0.005993055645376444
4096.0,0.004902494139969349
4608.0,-0.0056152925826609135
5120.0,-0.0034686774015426636
5632.0,0.006653014104813337
6144.0,0.0007463045185431838
6656.0,-0.005227971356362104
7168.0,0.005915951449424028
7680.0,-0.00032887200359255075
8192.0,-0.010123226791620255
9216.0,0.00040512761916033924
10240.0,-0.0016468388494104147
11264.0,0.0056813121773302555
12288.0,-0.0055003040470182896
13312.0,0.0015563475899398327
14336.0,-0.0022719029802829027
end
