version,3.0
numOfCh,1
type,point
parent_name,200-cuts
ch_type,1_1
kcount,1
numberNandB,1
brightnessNandB,1
carpet pos,0
pc,0
Time (ms),CH1 Auto-Correlation
1.0,0.0791778415441513
2.0,0.07788165658712387
3.0,0.07659570127725601
4.0,0.07532629370689392
5.0,0.07410173863172531
6.0,0.07288683950901031
7.0,0.07169252634048462
8.0,0.07054460793733597
9.0,0.06941387802362442
10.0,0.06829032301902771
11.0,0.06716568768024445
12.0,0.06602702289819717
13.0,0.06489922851324081
14.0,0.06381077319383621
15.0,0.06270109117031097
16.0,0.06162359192967415
18.0,0.05956292897462845
20.0,0.057599812746047974
22.0,0.05574335902929306
24.0,0.05383821576833725
26.0,0.052068036049604416
28.0,0.0503527894616127
30.0,0.04866589978337288
32.0,0.04704580456018448
36.0,0.04413868114352226
40.0,0.041507620364427567
44.0,0.0389515720307827
48.0,0.036680035293102264
52.0,0.034744203090667725
56.0,0.03300290182232857
60.0,0.03143654018640518
64.0,0.029972903430461884
72.0,0.027623528614640236
80.0,0.025632547214627266
88.0,0.023421669378876686
96.0,0.020999060943722725
104.0,0.01853545568883419
112.0,0.016234248876571655
120.0,0.01418992318212986
128.0,0.012460557743906975
144.0,0.009703641757369041
160.0,0.008012332953512669
176.0,0.005839366000145674
192.0,0.0035110756289213896
208.0,0.0022760876454412937
224.0,0.001459159073419869
240.0,0.00036257359897717834
256.0,0.0004231331404298544
288.0,-0.0005351437721401453
320.0,-0.0008630166994407773
352.0,-0.0005451620672829449
384.0,-0.0005418455111794174
416.0,-0.0008705912041477859
448.0,-0.0012982093030586839
480.0,-0.001521432539448142
512.0,-0.0010502211516723037
576.0,0.0003079217276535928
640.0,0.004040159285068512
704.0,0.0028625798877328634
768.0,0.0001508332643425092
832.0,0.0029336248990148306
896.0,0.0012424885062500834
960.0,-0.004637093748897314
1024.0,-0.007832439616322517
1152.0,-0.008637112565338612
1280.0,-0.0049270442686975
1408.0,-0.004152010660618544
1536.0,-0.003945700824260712
1664.0,-0.0030811026226729155
1792.0,0.003242830280214548
1920.0,-0.0006728323642164469
2048.0,-0.0027660070918500423
2304.0,-0.00037421501474455
2560.0,0.003925372380763292
2816.0,-0.005933096632361412
3072.0,-0.0018097173888236284
3328.0,0.0009379209950566292
3584.0,-0.003761677071452141
3840.0,-0.001214256975799799
4096.0,0.0007099142530933022
4608.0,0.00655317073687911
5120.0,-0.0035461639054119587
5632.0,-0.005177522078156471
6144.0,-0.004336747340857983
6656.0,0.0047124517150223255
7168.0,0.0034909157548099756
7680.0,-0.004172541666775942
8192.0,0.004035662394016981
9216.0,0.0014852442545816302
10240.0,-0.006260185968130827
11264.0,0.002818274311721325
12288.0,-0.0014015940250828862
13312.0,0.0015939179575070739
14336.0,-0.005180106032639742
end
