version,3.0
numOfCh,1
type,point
parent_name,200-cuts
ch_type,1_1
kcount,1
numberNandB,1
brightnessNandB,1
carpet pos,0
pc,0
Time (ms),CH1 Auto-Correlation
1.0,0.05722939968109131
2.0,0.05611884221434593
3.0,0.05504244193434715
4.0,0.05396675691008568
5.0,0.052879396826028824
6.0,0.05183183029294014
7.0,0.050805412232875824
8.0,0.049817658960819244
9.0,0.04885438457131386
10.0,0.047937773168087006
11.0,0.04704268276691437
12.0,0.04613988474011421
13.0,0.04525803402066231
14.0,0.0443989634513855
15.0,0.04359112307429314
16.0,0.042762115597724915
18.0,0.04109903797507286
20.0,0.039545200765132904
22.0,0.038073182106018066
24.0,0.03672158345580101
26.0,0.03541012108325958
28.0,0.03413303941488266
30.0,0.03286733850836754
32.0,0.03162441402673721
36.0,0.02955568954348564
40.0,0.02771858312189579
44.0,0.026104193180799484
48.0,0.024592025205492973
52.0,0.023304978385567665
56.0,0.022264491766691208
60.0,0.021319327875971794
64.0,0.020318102091550827
72.0,0.018552804365754128
80.0,0.016919340938329697
88.0,0.015020016580820084
96.0,0.012840205803513527
104.0,0.010602916590869427
112.0,0.008455129340291023
120.0,0.0067160059697926044
128.0,0.005301285069435835
144.0,0.004182790871709585
160.0,0.003736569546163082
176.0,0.0035967198200523853
192.0,0.004640442784875631
208.0,0.005931470077484846
224.0,0.0071107749827206135
240.0,0.0073482985608279705
256.0,0.0053070345893502235
288.0,0.003225814551115036
320.0,0.0015799496322870255
352.0,-0.00021291690063662827
384.0,-0.00032714701956138015
416.0,-0.0009572837152518332
448.0,-0.0009934805566444993
480.0,-0.0006082559702917933
512.0,-0.0012671658769249916
576.0,-0.004629323724657297
640.0,-0.005780413746833801
704.0,-0.003190437098965049
768.0,-0.0037329464685171843
832.0,-0.003362798597663641
896.0,-0.000250254146521911
960.0,0.0023016207851469517
1024.0,-0.0010549799771979451
1152.0,-0.0043401457369327545
1280.0,-0.004029902163892984
1408.0,0.001229925430379808
1536.0,0.0007157369400374591
1664.0,0.0010765232145786285
1792.0,0.0043591284193098545
1920.0,0.005005097482353449
2048.0,0.001684581977315247
2304.0,-0.002164241624996066
2560.0,-0.0010814329143613577
2816.0,-0.0015176484594121575
3072.0,-0.0021113764960318804
3328.0,-0.001377444714307785
3584.0,0.004049072042107582
3840.0,0.0027589970268309116
4096.0,0.003256723750382662
4608.0,-0.0006491240346804261
5120.0,-0.0024007547181099653
5632.0,5.1793605962302536e-05
6144.0,0.0005917131784372032
6656.0,-0.004133942537009716
7168.0,-0.0015022376319393516
7680.0,0.0048725800588727
8192.0,-0.0037341287825256586
9216.0,-0.002500211587175727
10240.0,0.002919148886576295
11264.0,-0.0009765072609297931
12288.0,-0.001240963931195438
13312.0,-0.0013595024356618524
14336.0,0.0004681874124798924
end
