version,3.0
numOfCh,1
type,point
parent_name,200-cuts
ch_type,1_1
kcount,1
numberNandB,1
brightnessNandB,1
carpet pos,0
pc,0
Time (ms),CH1 Auto-Correlation
1.0,0.0899323970079422
2.0,0.0882847011089325
3.0,0.08669066429138184
4.0,0.08511703461408615
5.0,0.08362269401550293
6.0,0.08216584473848343
7.0,0.08073755353689194
8.0,0.07933143526315689
9.0,0.07793306559324265
10.0,0.07654804736375809
11.0,0.0752091184258461
12.0,0.07394543290138245
13.0,0.07268897444009781
14.0,0.07144880294799805
15.0,0.07022006809711456
16.0,0.06901810318231583
18.0,0.06665327399969101
20.0,0.06435096263885498
22.0,0.0622062087059021
24.0,0.06017100065946579
26.0,0.05820304527878761
28.0,0.05635015666484833
30.0,0.054600752890110016
32.0,0.05287296324968338
36.0,0.04958759993314743
40.0,0.04638300836086273
44.0,0.04325827583670616
48.0,0.040541958063840866
52.0,0.038374144583940506
56.0,0.03629010543227196
60.0,0.03415026515722275
64.0,0.03206660598516464
72.0,0.028133763000369072
80.0,0.024585764855146408
88.0,0.021377218887209892
96.0,0.018506566062569618
104.0,0.016290953382849693
112.0,0.014376956038177013
120.0,0.011787966825067997
128.0,0.008962702937424183
144.0,0.004587498027831316
160.0,0.0027181461919099092
176.0,0.0022720033302903175
192.0,0.0017709515523165464
208.0,0.001813158974982798
224.0,0.0015099848387762904
240.0,0.00014515392831526697
256.0,-0.0020441643428057432
288.0,-0.0034359614364802837
320.0,-0.0035282731987535954
352.0,-0.003673190250992775
384.0,-0.0006975007709115744
416.0,0.002175241941586137
448.0,-0.0003029018989764154
480.0,-0.0017033490585163236
512.0,-1.1040155186492484e-05
576.0,-0.004360206425189972
640.0,-0.007840001955628395
704.0,-0.007509715389460325
768.0,-0.006526135839521885
832.0,-2.575699909357354e-05
896.0,0.006725304760038853
960.0,0.00445878691971302
1024.0,-0.0036222331691533327
1152.0,0.0006670600268989801
1280.0,0.003263966180384159
1408.0,0.0012811513151973486
1536.0,-0.002770037157461047
1664.0,-0.004502451047301292
1792.0,-0.0049543315544724464
1920.0,-0.01185096986591816
2048.0,-0.0012927077477797866
2304.0,-1.911512117658276e-05
2560.0,-0.0027848402969539165
2816.0,-0.006646022666245699
3072.0,0.00037554092705249786
3328.0,0.0008302850765176117
3584.0,-0.005987196695059538
3840.0,0.0009577360469847918
4096.0,-0.0010723040904849768
4608.0,0.0035458861384540796
5120.0,0.00118724605999887
5632.0,0.0062120635993778706
6144.0,-0.004942637402564287
6656.0,0.002121745375916362
7168.0,-0.001980328466743231
7680.0,-0.0022509312257170677
8192.0,0.0015378919197246432
9216.0,0.0018548546358942986
10240.0,3.904129334841855e-05
11264.0,-0.003052945015951991
12288.0,0.0013521872460842133
13312.0,-0.0030288835987448692
14336.0,0.000815922801848501
end
