version,3.0
numOfCh,1
type,point
parent_name,200-cuts
ch_type,1_1
kcount,1
numberNandB,1
brightnessNandB,1
carpet pos,0
pc,0
Time (ms),CH1 Auto-Correlation
1.0,0.04036451876163483
2.0,0.0396905280649662
3.0,0.03902352973818779
4.0,0.03837718069553375
5.0,0.037748195230960846
6.0,0.03713926300406456
7.0,0.03654725104570389
8.0,0.03598358854651451
9.0,0.03542068600654602
10.0,0.03487459942698479
11.0,0.034331031143665314
12.0,0.03378250077366829
13.0,0.03324754908680916
14.0,0.03271746262907982
15.0,0.03219110146164894
16.0,0.03166994825005531
18.0,0.0306723453104496
20.0,0.029686685651540756
22.0,0.02869126945734024
24.0,0.027782931923866272
26.0,0.026923883706331253
28.0,0.02614264003932476
30.0,0.025392936542630196
32.0,0.024677269160747528
36.0,0.023305708542466164
40.0,0.022075695917010307
44.0,0.020975148305296898
48.0,0.019953427836298943
52.0,0.018953396007418633
56.0,0.01799796149134636
60.0,0.01704065315425396
64.0,0.016166910529136658
72.0,0.014714186079800129
80.0,0.013409317471086979
88.0,0.012308895587921143
96.0,0.01140665728598833
104.0,0.010585697367787361
112.0,0.010020074434578419
120.0,0.009312208741903305
128.0,0.008257269859313965
144.0,0.005881697870790958
160.0,0.0032582376152276993
176.0,0.0015281683299690485
192.0,0.0006599241169169545
208.0,0.00010158635268453509
224.0,-0.00017995666712522507
240.0,-0.00039722336805425584
256.0,-0.0008020366076380014
288.0,-0.000980439130216837
320.0,0.0002958325785584748
352.0,0.0003456615668255836
384.0,0.0013168229488655925
416.0,0.001920210779644549
448.0,0.001516760908998549
480.0,0.0008560309652239084
512.0,0.0011593045201152563
576.0,0.0009103316115215421
640.0,0.0017050242749974132
704.0,0.0014281554613262415
768.0,0.001602899981662631
832.0,0.0018500107107684016
896.0,0.004141658078879118
960.0,0.002482661744579673
1024.0,0.001314124558120966
1152.0,0.0014854876790195704
1280.0,0.00033223320497199893
1408.0,-0.000663400802295655
1536.0,0.0010810184758156538
1664.0,0.003193899756297469
1792.0,0.0016632511978968978
1920.0,0.0005390918231569231
2048.0,-0.0003905022458638996
2304.0,-0.0014650427037850022
2560.0,0.002494359388947487
2816.0,0.002494809217751026
3072.0,0.0002358973870286718
3328.0,0.0026093125343322754
3584.0,0.0008091675699688494
3840.0,-0.0005718012107536197
4096.0,0.0014570517232641578
4608.0,0.0006222340743988752
5120.0,7.088951679179445e-05
5632.0,-0.0004585581482388079
6144.0,-0.0010446460219100118
6656.0,-0.002289607422426343
7168.0,-0.0011520104017108679
7680.0,0.0016658736858516932
8192.0,4.8646241339156404e-05
9216.0,-0.002771905856207013
10240.0,-0.0005905168945901096
11264.0,-0.0017504997085779905
12288.0,-0.005228213965892792
13312.0,-0.003766755573451519
14336.0,-0.004318576771765947
end
