version,3.0
numOfCh,1
type,point
parent_name,200-cuts
ch_type,1_1
kcount,1
numberNandB,1
brightnessNandB,1
carpet pos,0
pc,0
Time (ms),CH1 Auto-Correlation
1.0,0.07903654873371124
2.0,0.07756150513887405
3.0,0.07608901709318161
4.0,0.07463383674621582
5.0,0.07321460545063019
6.0,0.071832574903965
7.0,0.07048570364713669
8.0,0.06917210668325424
9.0,0.06785911321640015
10.0,0.06657382100820541
11.0,0.0653347373008728
12.0,0.06409617513418198
13.0,0.06287947297096252
14.0,0.06167425960302353
15.0,0.060490526258945465
16.0,0.059288669377565384
18.0,0.05698269605636597
20.0,0.05479790270328522
22.0,0.05273108184337616
24.0,0.05078376829624176
26.0,0.04889034852385521
28.0,0.0470607690513134
30.0,0.045259714126586914
32.0,0.04350557550787926
36.0,0.04043108969926834
40.0,0.03790058195590973
44.0,0.03561935946345329
48.0,0.033557504415512085
52.0,0.03148676082491875
56.0,0.029381176456809044
60.0,0.027245039120316505
64.0,0.02542528323829174
72.0,0.02182210423052311
80.0,0.018317941576242447
88.0,0.015397177077829838
96.0,0.01308203674852848
104.0,0.011393132619559765
112.0,0.009624956175684929
120.0,0.007785039022564888
128.0,0.006338715553283691
144.0,0.005087368190288544
160.0,0.003687663469463587
176.0,0.0017130955820903182
192.0,0.000746506848372519
208.0,0.001272203866392374
224.0,0.0006117612938396633
240.0,0.0005412496975623071
256.0,0.0009750737226568162
288.0,0.0017780044581741095
320.0,0.002033226191997528
352.0,0.0008771077264100313
384.0,0.0005443304544314742
416.0,-0.00028323731385171413
448.0,0.0035404376685619354
480.0,0.0038727745413780212
512.0,0.004573381971567869
576.0,0.003948745783418417
640.0,-0.00016303894517477602
704.0,-0.003712636651471257
768.0,-0.004800560884177685
832.0,-0.007436774671077728
896.0,-0.0055638207122683525
960.0,-0.004340700339525938
1024.0,-0.0011079959804192185
1152.0,-0.006929465569555759
1280.0,-0.008341030217707157
1408.0,-0.0020266659557819366
1536.0,0.00296846404671669
1664.0,-0.0004376173310447484
1792.0,-0.002773758489638567
1920.0,0.0005519252736121416
2048.0,0.004217055626213551
2304.0,0.0017427955754101276
2560.0,-0.0023051751777529716
2816.0,-0.0010116595076397061
3072.0,-0.0007122366223484278
3328.0,0.004077625926584005
3584.0,-0.0002406008425168693
3840.0,0.0011955216759815812
4096.0,-0.005083641968667507
4608.0,-0.003705726470798254
5120.0,-0.0005695376894436777
5632.0,0.00032923411345109344
6144.0,-9.474192484049127e-05
6656.0,-0.00196748785674572
7168.0,-0.0020642962772399187
7680.0,-0.0012373925419524312
8192.0,-0.00015151590923778713
9216.0,0.004137841053307056
10240.0,0.002640852937474847
11264.0,-0.00020723343186546117
12288.0,0.0014777310425415635
13312.0,-0.004165245685726404
14336.0,0.0002047034358838573
end
