version,3.0
numOfCh,1
type,point
parent_name,200-cuts
ch_type,1_1
kcount,1
numberNandB,1
brightnessNandB,1
carpet pos,0
pc,0
Time (ms),CH1 Auto-Correlation
1.0,0.06112660467624664
2.0,0.060066498816013336
3.0,0.05900517851114273
4.0,0.0579330213367939
5.0,0.056905198842287064
6.0,0.055916350334882736
7.0,0.054938364773988724
8.0,0.05400091037154198
9.0,0.05308033153414726
10.0,0.05218033492565155
11.0,0.05130987614393234
12.0,0.05048343911767006
13.0,0.04967876523733139
14.0,0.04889259114861488
15.0,0.04812796041369438
16.0,0.04737277328968048
18.0,0.045886918902397156
20.0,0.04449031874537468
22.0,0.043129466474056244
24.0,0.04177739843726158
26.0,0.04049011692404747
28.0,0.039262887090444565
30.0,0.03810083121061325
32.0,0.03702288120985031
36.0,0.035029489547014236
40.0,0.033004771918058395
44.0,0.030979033559560776
48.0,0.029021991416811943
52.0,0.027074052020907402
56.0,0.02529863268136978
60.0,0.02368536964058876
64.0,0.0222827959805727
72.0,0.019857246428728104
80.0,0.017993580549955368
88.0,0.01602221466600895
96.0,0.014013031497597694
104.0,0.012360966764390469
112.0,0.011276032775640488
120.0,0.010070299729704857
128.0,0.008789779618382454
144.0,0.006310971919447184
160.0,0.003243156708776951
176.0,0.0004881760396528989
192.0,-0.0019027874805033207
208.0,-0.003260493976995349
224.0,-0.003547152504324913
240.0,-0.0029739418532699347
256.0,-0.003257207805290818
288.0,-0.004353473894298077
320.0,-0.0038938468787819147
352.0,-0.0034338226541876793
384.0,-0.001842716708779335
416.0,0.0007819972233846784
448.0,0.003427577670663595
480.0,0.0029294888954609632
512.0,-0.0008434391347691417
576.0,-0.003198635531589389
640.0,-0.0075120641849935055
704.0,-0.004477168433368206
768.0,-0.0016448809765279293
832.0,0.002438418800011277
896.0,-0.0008360246429219842
960.0,0.0030646128579974174
1024.0,0.0020697107538580894
1152.0,0.0037281373515725136
1280.0,0.00204037269577384
1408.0,-0.0025889503303915262
1536.0,-0.0024931698571890593
1664.0,0.0015171400737017393
1792.0,0.002496069995686412
1920.0,0.0029846816323697567
2048.0,0.0024798274971544743
2304.0,-0.0032417322508990765
2560.0,-0.004348282236605883
2816.0,0.005461635533720255
3072.0,-0.0035490344744175673
3328.0,-0.0047118086367845535
3584.0,0.0033284653909504414
3840.0,0.0028681005351245403
4096.0,-0.0023881690576672554
4608.0,0.002219600835815072
5120.0,-0.0035212012007832527
5632.0,0.005515816155821085
6144.0,-0.002142044249922037
6656.0,0.0028181273955851793
7168.0,-2.1433206711662933e-05
7680.0,0.000771737250033766
8192.0,0.0035721652675420046
9216.0,2.0059449525433592e-05
10240.0,-0.004143227823078632
11264.0,-0.004283753223717213
12288.0,0.0015167472884058952
13312.0,0.0008333841687999666
14336.0,-0.008343333378434181
end
