version,3.0
numOfCh,1
type,point
parent_name,200-cuts
ch_type,1_1
kcount,1
numberNandB,1
brightnessNandB,1
carpet pos,0
pc,0
Time (ms),CH1 Auto-Correlation
1.0,0.13802796602249146
2.0,0.13560234010219574
3.0,0.13331224024295807
4.0,0.1310609132051468
5.0,0.1287921667098999
6.0,0.1265852004289627
7.0,0.1244126409292221
8.0,0.1222628578543663
9.0,0.12010425329208374
10.0,0.11799107491970062
11.0,0.1158716231584549
12.0,0.11380810290575027
13.0,0.11177167296409607
14.0,0.10982555896043777
15.0,0.1078922376036644
16.0,0.10607922822237015
18.0,0.10269340872764587
20.0,0.09938489645719528
22.0,0.09606032818555832
24.0,0.09274998307228088
26.0,0.08966323733329773
28.0,0.08672802895307541
30.0,0.08395525813102722
32.0,0.08116956800222397
36.0,0.07604173570871353
40.0,0.07136593759059906
44.0,0.06685037165880203
48.0,0.06255142390727997
52.0,0.05864771082997322
56.0,0.055338773876428604
60.0,0.052265625447034836
64.0,0.04931729659438133
72.0,0.043981216847896576
80.0,0.039792418479919434
88.0,0.036462314426898956
96.0,0.03355726972222328
104.0,0.030790382996201515
112.0,0.027768613770604134
120.0,0.02417251653969288
128.0,0.021072234958410263
144.0,0.01641225256025791
160.0,0.012897194363176823
176.0,0.010537930764257908
192.0,0.010426837019622326
208.0,0.010720636695623398
224.0,0.011214802972972393
240.0,0.010575246065855026
256.0,0.007688090205192566
288.0,0.00139888736885041
320.0,-0.00400267168879509
352.0,-0.008610742166638374
384.0,-0.009561540558934212
416.0,-0.010333250276744366
448.0,-0.00663475738838315
480.0,-0.0008867005235515535
512.0,-0.0012751949252560735
576.0,-0.01077689416706562
640.0,-0.01162579283118248
704.0,-0.008388825692236423
768.0,-0.004398924298584461
832.0,0.0016612070612609386
896.0,0.007828802801668644
960.0,0.009254992008209229
1024.0,1.7398246200173162e-05
1152.0,-0.0008439579396508634
1280.0,-0.002305193804204464
1408.0,0.005876592360436916
1536.0,0.0008668111404404044
1664.0,-0.002707595704123378
1792.0,0.003409982891753316
1920.0,-0.0004188052553217858
2048.0,-0.0033251449931412935
2304.0,0.005800352431833744
2560.0,-0.011747660115361214
2816.0,-0.00555188674479723
3072.0,-0.0007511013536714017
3328.0,-0.0032625312451273203
3584.0,-0.0032556422520428896
3840.0,-0.007313575129956007
4096.0,-0.0026551762130111456
4608.0,0.009998108260333538
5120.0,0.0036325512919574976
5632.0,-0.001244905055500567
6144.0,0.0008701531914994121
6656.0,0.006752880290150642
7168.0,-0.004794151056557894
7680.0,-0.001530808280222118
8192.0,-0.012925143353641033
9216.0,0.0009430699865333736
10240.0,-0.003977860324084759
11264.0,0.002605999354273081
12288.0,-0.008726192638278008
13312.0,0.0006416451069526374
14336.0,-0.007126309908926487
end
