version,3.0
numOfCh,1
type,point
parent_name,200-cuts
ch_type,1_1
kcount,1
numberNandB,1
brightnessNandB,1
carpet pos,0
pc,0
Time (ms),CH1 Auto-Correlation
1.0,0.05176158621907234
2.0,0.05072961375117302
3.0,0.04970179498195648
4.0,0.04868211969733238
5.0,0.04769408702850342
6.0,0.04671783372759819
7.0,0.04574712738394737
8.0,0.04482574015855789
9.0,0.04393045976758003
10.0,0.04303998872637749
11.0,0.042145926505327225
12.0,0.04125667363405228
13.0,0.04039037600159645
14.0,0.0395444817841053
15.0,0.03873586654663086
16.0,0.03794821724295616
18.0,0.036443792283535004
20.0,0.03499943017959595
22.0,0.03360893577337265
24.0,0.03221748769283295
26.0,0.030893096700310707
28.0,0.029639167711138725
30.0,0.028455784544348717
32.0,0.02731146663427353
36.0,0.025190986692905426
40.0,0.023291125893592834
44.0,0.021588552743196487
48.0,0.02013160102069378
52.0,0.018791042268276215
56.0,0.017517294734716415
60.0,0.016247084364295006
64.0,0.014914591796696186
72.0,0.012308746576309204
80.0,0.010028949938714504
88.0,0.008224028162658215
96.0,0.006675879471004009
104.0,0.005397623870521784
112.0,0.0044100238010287285
120.0,0.00361971789970994
128.0,0.002807011129334569
144.0,0.0011130196508020163
160.0,0.00044893697486259043
176.0,0.0007064724923111498
192.0,0.0007923649973236024
208.0,-8.537698886357248e-05
224.0,-0.0004147851432207972
240.0,-0.00022422467009164393
256.0,-0.0004963128594681621
288.0,-0.0015995881985872984
320.0,-0.004269611090421677
352.0,-0.006570416036993265
384.0,-0.007206668145954609
416.0,-0.005028153769671917
448.0,-0.0015174709260463715
480.0,0.0012650946155190468
512.0,0.0019375296542420983
576.0,-0.002731774467974901
640.0,-0.0023236481938511133
704.0,0.0014262414770200849
768.0,0.002577390754595399
832.0,0.0023787764366716146
896.0,0.002901768311858177
960.0,0.003491477109491825
1024.0,0.002240400994196534
1152.0,-0.0009319056407548487
1280.0,-0.003943030256778002
1408.0,-0.003184207482263446
1536.0,-0.0015814773505553603
1664.0,0.0031136097386479378
1792.0,0.0025716766249388456
1920.0,0.0022650607861578465
2048.0,-7.418139284709468e-05
2304.0,-0.004587217234075069
2560.0,0.0018104056362062693
2816.0,0.0020655367989093065
3072.0,-0.002443887759000063
3328.0,-0.0017873139586299658
3584.0,0.0008882331312634051
3840.0,0.0003427789197303355
4096.0,-0.003296934301033616
4608.0,0.0005787594709545374
5120.0,0.0017072722548618913
5632.0,0.001656989217735827
6144.0,-0.003570169908925891
6656.0,0.0024531513918191195
7168.0,-0.003510338719934225
7680.0,-0.0024658639449626207
8192.0,-0.0007345660123974085
9216.0,0.0023653358221054077
10240.0,0.001464549102820456
11264.0,0.001874977140687406
12288.0,-0.002244789618998766
13312.0,-0.0036113657988607883
14336.0,0.0005780492792837322
end
