version,3.0
numOfCh,1
type,point
parent_name,200-cuts
ch_type,1_1
kcount,1
numberNandB,1
brightnessNandB,1
carpet pos,0
pc,0
Time (ms),CH1 Auto-Correlation
1.0,0.06977003812789917
2.0,0.06852959841489792
3.0,0.06732748448848724
4.0,0.06615446507930756
5.0,0.06499289721250534
6.0,0.0638369619846344
7.0,0.06268870085477829
8.0,0.06157497689127922
9.0,0.06049014627933502
10.0,0.05943826958537102
11.0,0.0584075041115284
12.0,0.05743078514933586
13.0,0.05646316334605217
14.0,0.055501628667116165
15.0,0.05456440523266792
16.0,0.05363678187131882
18.0,0.051790185272693634
20.0,0.050022371113300323
22.0,0.04837482422590256
24.0,0.046842075884342194
26.0,0.04540950432419777
28.0,0.044057901948690414
30.0,0.04273126274347305
32.0,0.04146610572934151
36.0,0.03904704377055168
40.0,0.036683499813079834
44.0,0.03452461212873459
48.0,0.03258967772126198
52.0,0.030868055298924446
56.0,0.02923426777124405
60.0,0.027799714356660843
64.0,0.026581814512610435
72.0,0.024387622252106667
80.0,0.022336643189191818
88.0,0.020632319152355194
96.0,0.01891135796904564
104.0,0.01737225241959095
112.0,0.015505804680287838
120.0,0.01342861633747816
128.0,0.011649810709059238
144.0,0.008833135478198528
160.0,0.005944555159658194
176.0,0.003751723561435938
192.0,0.0021563544869422913
208.0,0.0007868572138249874
224.0,0.0006169885164126754
240.0,0.0010021220659837127
256.0,0.0014222163008525968
288.0,-0.0003204842796549201
320.0,-0.0009999253088608384
352.0,-3.674247636809014e-05
384.0,-0.001531626214273274
416.0,-0.002841375069692731
448.0,-0.002666575601324439
480.0,-0.0025059303734451532
512.0,-0.0035010718274861574
576.0,-0.0046170540153980255
640.0,-0.006159062962979078
704.0,-0.005930537357926369
768.0,-0.0014112989883869886
832.0,0.0018370707985013723
896.0,0.0015872258227318525
960.0,0.0009221744257956743
1024.0,0.0010545297991484404
1152.0,-9.037553536472842e-05
1280.0,-0.0073206620290875435
1408.0,-0.010332789272069931
1536.0,-0.008928783237934113
1664.0,-0.0008154090610332787
1792.0,-0.0049256193451583385
1920.0,-0.0020621283911168575
2048.0,0.005460716318339109
2304.0,0.001731838914565742
2560.0,0.0006095999269746244
2816.0,0.005272406153380871
3072.0,0.0044890111312270164
3328.0,0.002339690923690796
3584.0,-0.008494746871292591
3840.0,0.00029597542015835643
4096.0,-0.003834081580862403
4608.0,-0.0016321090515702963
5120.0,-0.0009606840321794152
5632.0,-0.00020731339463964105
6144.0,0.00028341205324977636
6656.0,-0.001172402873635292
7168.0,-0.003075644373893738
7680.0,-0.0008217105641961098
8192.0,0.0016477382741868496
9216.0,0.0015431372448801994
10240.0,0.0012161179911345243
11264.0,0.0003392667858861387
12288.0,0.0027447512838989496
13312.0,0.00010966931586153805
14336.0,-0.002024546032771468
end
