version,3.0
numOfCh,1
type,point
parent_name,200-cuts
ch_type,1_1
kcount,1
numberNandB,1
brightnessNandB,1
carpet pos,0
pc,0
Time (ms),CH1 Auto-Correlation
1.0,0.05881336331367493
2.0,0.0577482171356678
3.0,0.05670202150940895
4.0,0.05568668246269226
5.0,0.05469208210706711
6.0,0.053713373839855194
7.0,0.052744776010513306
8.0,0.05183565989136696
9.0,0.050935856997966766
10.0,0.050077445805072784
11.0,0.04924028739333153
12.0,0.04840025678277016
13.0,0.047572020441293716
14.0,0.04677106812596321
15.0,0.04601104184985161
16.0,0.04528360813856125
18.0,0.04383845254778862
20.0,0.042429208755493164
22.0,0.04105611890554428
24.0,0.0396995022892952
26.0,0.038376808166503906
28.0,0.037118375301361084
30.0,0.035910531878471375
32.0,0.03471049293875694
36.0,0.03249876946210861
40.0,0.03047844022512436
44.0,0.02853420376777649
48.0,0.02667894773185253
52.0,0.024929367005825043
56.0,0.02336151711642742
60.0,0.02193831279873848
64.0,0.020568162202835083
72.0,0.017847759649157524
80.0,0.015156162902712822
88.0,0.012700785882771015
96.0,0.010729444213211536
104.0,0.009138940833508968
112.0,0.007964725606143475
120.0,0.006742390338331461
128.0,0.005429321900010109
144.0,0.003820278914645314
160.0,0.0031514314468950033
176.0,0.0031805424951016903
192.0,0.003375335829332471
208.0,0.0034845040645450354
224.0,0.003676644992083311
240.0,0.003166788024827838
256.0,0.0021847051102668047
288.0,-0.0005487209418788552
320.0,-0.002495507476851344
352.0,-0.002299435203894973
384.0,-0.0024888901971280575
416.0,-0.0031913816928863525
448.0,-0.00408260989934206
480.0,-0.0037333685904741287
512.0,-0.0034087379463016987
576.0,-0.0031197024509310722
640.0,-0.001715508638881147
704.0,-0.001125313458032906
768.0,-0.0008392608142457902
832.0,-0.0023461789824068546
896.0,-0.003987807780504227
960.0,-0.0013837169390171766
1024.0,0.0009416442480869591
1152.0,-0.0006750440807081759
1280.0,-0.003136522602289915
1408.0,-0.004211029503494501
1536.0,-0.0010235895169898868
1664.0,0.006197386886924505
1792.0,0.002385135507211089
1920.0,-0.0004015931626781821
2048.0,0.0007925441022962332
2304.0,-0.0019463816424831748
2560.0,-0.004285275004804134
2816.0,-0.005158442072570324
3072.0,0.003377398708835244
3328.0,3.422906593186781e-05
3584.0,-0.005019495263695717
3840.0,-0.003627817379310727
4096.0,0.003957030829042196
4608.0,0.0008516124216839671
5120.0,0.002656109631061554
5632.0,1.5463248928426765e-05
6144.0,0.001303815864957869
6656.0,-0.000999404932372272
7168.0,-0.0027255837339907885
7680.0,0.0012247561244294047
8192.0,0.0022210432216525078
9216.0,-0.0003797153476625681
10240.0,-0.002932577859610319
11264.0,0.004816052969545126
12288.0,-0.0020634050015360117
13312.0,0.0012662559747695923
14336.0,-0.0024379491806030273
end
