version,3.0
numOfCh,1
type,point
parent_name,200-cuts
ch_type,1_1
kcount,1
numberNandB,1
brightnessNandB,1
carpet pos,0
pc,0
Time (ms),CH1 Auto-Correlation
1.0,0.03025255911052227
2.0,0.0296455267816782
3.0,0.029053082689642906
4.0,0.028463372960686684
5.0,0.02788948081433773
6.0,0.02732738107442856
7.0,0.026775022968649864
8.0,0.026240680366754532
9.0,0.025711484253406525
10.0,0.025191262364387512
11.0,0.02468246966600418
12.0,0.024173060432076454
13.0,0.02366047166287899
14.0,0.023161957040429115
15.0,0.022663677111268044
16.0,0.022171681746840477
18.0,0.021243497729301453
20.0,0.020338254049420357
22.0,0.019458435475826263
24.0,0.018634876236319542
26.0,0.017871450632810593
28.0,0.01717660389840603
30.0,0.016533832997083664
32.0,0.01592686027288437
36.0,0.014810016378760338
40.0,0.013769382610917091
44.0,0.012797052972018719
48.0,0.011887102387845516
52.0,0.01102446299046278
56.0,0.010142081417143345
60.0,0.009278299286961555
64.0,0.0084156459197402
72.0,0.006985291838645935
80.0,0.005998409818857908
88.0,0.005431225057691336
96.0,0.005071201361715794
104.0,0.004550534766167402
112.0,0.004201916512101889
120.0,0.003998009487986565
128.0,0.0038365162909030914
144.0,0.003899341681972146
160.0,0.0037142671644687653
176.0,0.002908405615016818
192.0,0.0019836542196571827
208.0,0.0008162728045135736
224.0,-0.0005019348463974893
240.0,-0.0010389433009549975
256.0,-0.0011157812550663948
288.0,-0.0006806293386034667
320.0,-0.00041512545431032777
352.0,-0.00021359669335652143
384.0,-3.5118260711897165e-05
416.0,-0.0004095766053069383
448.0,-0.000919397862162441
480.0,-0.0007248182082548738
512.0,0.00027719250647351146
576.0,-0.00021367905719671398
640.0,-0.001893683336675167
704.0,0.0007678612018935382
768.0,0.0012609189143404365
832.0,-0.0006319954409264028
896.0,0.0005515869706869125
960.0,0.00112075952347368
1024.0,0.0010601000394672155
1152.0,-0.0006912370445206761
1280.0,-0.003315910929813981
1408.0,-0.0005572657100856304
1536.0,0.0002554363163653761
1664.0,0.001649312092922628
1792.0,0.0013843547785654664
1920.0,-0.002478240989148617
2048.0,-0.0035026019904762506
2304.0,-0.000729904044419527
2560.0,0.000667547166813165
2816.0,0.0005042441771365702
3072.0,0.002078376244753599
3328.0,0.0008507446036674082
3584.0,-0.00012550356041174382
3840.0,-0.0011471342295408249
4096.0,-0.0011788980336859822
4608.0,-0.0010124188847839832
5120.0,-0.0016750628128647804
5632.0,-0.00046726802247576416
6144.0,0.001482135383412242
6656.0,0.0009516984573565423
7168.0,0.0002869079471565783
7680.0,-0.00017733059939928353
8192.0,0.0007017165771685541
9216.0,1.1976178029726725e-05
10240.0,-0.0002639136218931526
11264.0,1.79964117705822e-05
12288.0,-0.00023340586631093174
13312.0,-0.0007056121830828488
14336.0,0.00074117595795542
end
