version,3.0
numOfCh,1
type,point
parent_name,200-cuts
ch_type,1_1
kcount,1
numberNandB,1
brightnessNandB,1
carpet pos,0
pc,0
Time (ms),CH1 Auto-Correlation
1.0,0.050386637449264526
2.0,0.049369052052497864
3.0,0.04839550703763962
4.0,0.047462839633226395
5.0,0.046544741839170456
6.0,0.04564100503921509
7.0,0.04475007951259613
8.0,0.04386996477842331
9.0,0.04303890839219093
10.0,0.04221745952963829
11.0,0.04144182801246643
12.0,0.04066465422511101
13.0,0.03990175202488899
14.0,0.03915619105100632
15.0,0.03843812271952629
16.0,0.03773493692278862
18.0,0.03637514263391495
20.0,0.035076260566711426
22.0,0.0338343009352684
24.0,0.03261484578251839
26.0,0.0314381867647171
28.0,0.03025323711335659
30.0,0.02909708209335804
32.0,0.027967287227511406
36.0,0.025882519781589508
40.0,0.023959219455718994
44.0,0.022134222090244293
48.0,0.020482037216424942
52.0,0.018915247172117233
56.0,0.017569152638316154
60.0,0.016322214156389236
64.0,0.015042314305901527
72.0,0.01249017659574747
80.0,0.010542749427258968
88.0,0.008981101214885712
96.0,0.007718268781900406
104.0,0.006268152501434088
112.0,0.004710320848971605
120.0,0.0031529082916677
128.0,0.0014684044290333986
144.0,-0.0008705748477950692
160.0,-0.001422058674506843
176.0,-0.000651102396659553
192.0,0.0009437592816539109
208.0,0.0024425690062344074
224.0,0.0030372836627066135
240.0,0.0026895226910710335
256.0,0.002388743218034506
288.0,0.004306507762521505
320.0,0.004479808267205954
352.0,0.002600395819172263
384.0,0.0010709826601669192
416.0,-0.00042622414184734225
448.0,-0.0019671942573040724
480.0,-0.002300269203260541
512.0,-0.0007677626563236117
576.0,-0.00023955701908562332
640.0,0.0014311528066173196
704.0,0.0016240242403000593
768.0,-0.0015457902336493134
832.0,-0.005223380867391825
896.0,-0.0033752599265426397
960.0,-0.0002865547430701554
1024.0,0.0019615511409938335
1152.0,0.0003615763271227479
1280.0,0.0027987943030893803
1408.0,0.006651872768998146
1536.0,0.0028664914425462484
1664.0,0.00022848069784231484
1792.0,-0.00276385759934783
1920.0,-0.004465620033442974
2048.0,0.00141973327845335
2304.0,-0.000841153203509748
2560.0,0.0013889794936403632
2816.0,0.0033523046877235174
3072.0,0.00018524369806982577
3328.0,-0.0036868220195174217
3584.0,-0.0017395365284755826
3840.0,-0.00026670581428334117
4096.0,0.0025951475836336613
4608.0,-0.0013602273538708687
5120.0,-0.003261672565713525
5632.0,-0.0022356570698320866
6144.0,-0.002340066246688366
6656.0,0.0006149329710751772
7168.0,-0.0026942414697259665
7680.0,-0.002597642131149769
8192.0,-0.0007985906559042633
9216.0,0.0031824337784200907
10240.0,-0.004656581208109856
11264.0,-0.0008200060110539198
12288.0,0.004493563901633024
13312.0,0.006236509419977665
14336.0,-0.010302194394171238
end
