version,3.0
numOfCh,1
type,point
parent_name,200-cuts
ch_type,1_1
kcount,1
numberNandB,1
brightnessNandB,1
carpet pos,0
pc,0
Time (ms),CH1 Auto-Correlation
1.0,0.02445143088698387
2.0,0.023959074169397354
3.0,0.023476310074329376
4.0,0.023013006895780563
5.0,0.022563675418496132
6.0,0.022110650315880775
7.0,0.021650999784469604
8.0,0.021206675097346306
9.0,0.020773660391569138
10.0,0.020362911745905876
11.0,0.019954148679971695
12.0,0.01956581510603428
13.0,0.019195903092622757
14.0,0.01885160803794861
15.0,0.018522564321756363
16.0,0.01819862797856331
18.0,0.01755383051931858
20.0,0.016940947622060776
22.0,0.016326284036040306
24.0,0.015679188072681427
26.0,0.015074680559337139
28.0,0.0145118935033679
30.0,0.013973894529044628
32.0,0.013462898321449757
36.0,0.012509034015238285
40.0,0.011634971015155315
44.0,0.010774258524179459
48.0,0.009967362508177757
52.0,0.009220303036272526
56.0,0.008494234643876553
60.0,0.0078827403485775
64.0,0.007380024064332247
72.0,0.006785375997424126
80.0,0.006320364773273468
88.0,0.005866587162017822
96.0,0.005237904842942953
104.0,0.00472286669537425
112.0,0.004300693981349468
120.0,0.0037622470408678055
128.0,0.0032158447429537773
144.0,0.0022844206541776657
160.0,0.0014918476808816195
176.0,0.0011754940496757627
192.0,0.0013353319372981787
208.0,0.001458396902307868
224.0,0.0014164187014102936
240.0,0.0018101942259818316
256.0,0.0019000280881300569
288.0,0.0012594407889991999
320.0,0.0012373197823762894
352.0,0.001776625751517713
384.0,0.001220954698510468
416.0,0.0002519011904951185
448.0,-0.0007076397305354476
480.0,-0.001269786967895925
512.0,-0.0007474279846064746
576.0,0.0013339472934603691
640.0,0.0019323084270581603
704.0,0.002725681522861123
768.0,0.001067698234692216
832.0,0.0009495852864347398
896.0,0.0014330499107018113
960.0,0.0016012940322980285
1024.0,0.0025773830711841583
1152.0,0.00013533516903407872
1280.0,-0.0002952620852738619
1408.0,-0.0006593913421966136
1536.0,-0.002924407832324505
1664.0,-0.0013689324259757996
1792.0,0.0011665120255202055
1920.0,0.00044936235644854605
2048.0,0.0008046089787967503
2304.0,-0.001254630507901311
2560.0,-0.0009378855465911329
2816.0,0.0009196686442010105
3072.0,0.0007065231329761446
3328.0,0.0004957054043188691
3584.0,0.00038197592948563397
3840.0,0.0009666700498200953
4096.0,0.000720375741366297
4608.0,0.0021295456681400537
5120.0,7.879096665419638e-05
5632.0,-7.028828986221924e-05
6144.0,-0.00278673879802227
6656.0,-0.0023590237833559513
7168.0,-0.0026602777652442455
7680.0,-7.15360147296451e-05
8192.0,5.953160871285945e-05
9216.0,-0.0009005875908769667
10240.0,-0.00015836028615012765
11264.0,-0.002894210396334529
12288.0,-0.00015246037219185382
13312.0,0.0013260651612654328
14336.0,0.00023827629047445953
end
