version,3.0
numOfCh,1
type,point
parent_name,200-cuts
ch_type,1_1
kcount,1
numberNandB,1
brightnessNandB,1
carpet pos,0
pc,0
Time (ms),CH1 Auto-Correlation
1.0,0.06526753306388855
2.0,0.06397378444671631
3.0,0.0626872107386589
4.0,0.061399366706609726
5.0,0.06017772853374481
6.0,0.05897322669625282
7.0,0.05779876559972763
8.0,0.056673772633075714
9.0,0.05557680130004883
10.0,0.05450629070401192
11.0,0.053448550403118134
12.0,0.05239725112915039
13.0,0.05136214569211006
14.0,0.05034344643354416
15.0,0.049361761659383774
16.0,0.04840286076068878
18.0,0.0465526282787323
20.0,0.044739268720149994
22.0,0.04297604039311409
24.0,0.041254136711359024
26.0,0.039588797837495804
28.0,0.03803744912147522
30.0,0.03664117306470871
32.0,0.035360004752874374
36.0,0.032997310161590576
40.0,0.030744660645723343
44.0,0.028614245355129242
48.0,0.026784567162394524
52.0,0.025316841900348663
56.0,0.024065038189291954
60.0,0.02293773554265499
64.0,0.021857263520359993
72.0,0.01968277432024479
80.0,0.018004577606916428
88.0,0.01687265746295452
96.0,0.01605810783803463
104.0,0.015418017283082008
112.0,0.014892307110130787
120.0,0.01420347485691309
128.0,0.01354894693940878
144.0,0.011647174134850502
160.0,0.010201581753790379
176.0,0.00868808664381504
192.0,0.007496661506593227
208.0,0.00738875474780798
224.0,0.006500765681266785
240.0,0.005895518232136965
256.0,0.006672501564025879
288.0,0.008204741403460503
320.0,0.008192433044314384
352.0,0.008653195574879646
384.0,0.00996010098606348
416.0,0.008959200233221054
448.0,0.007698545232415199
480.0,0.006941406987607479
512.0,0.00674181105569005
576.0,0.005537962540984154
640.0,0.005035593174397945
704.0,0.001976132858544588
768.0,0.002000868786126375
832.0,0.004018828738480806
896.0,0.004690751899033785
960.0,0.006130521651357412
1024.0,0.004976395983248949
1152.0,0.006729419808834791
1280.0,0.008067027665674686
1408.0,0.007063109893351793
1536.0,0.002265908755362034
1664.0,0.006644811946898699
1792.0,0.004225611686706543
1920.0,0.005285670515149832
2048.0,0.0005360216600820422
2304.0,0.000914008473046124
2560.0,-0.002146485261619091
2816.0,-0.003933526575565338
3072.0,-0.004298005718737841
3328.0,-0.004458138719201088
3584.0,-0.007024252787232399
3840.0,-0.00813233107328415
4096.0,-0.00843194592744112
4608.0,-0.005035740789026022
5120.0,-0.010051645338535309
5632.0,-0.004806583747267723
6144.0,-0.005161131266504526
6656.0,0.00167474162299186
7168.0,-0.004092911258339882
7680.0,0.003990464378148317
8192.0,0.0029579619877040386
9216.0,0.0031054418068379164
10240.0,0.002829312114045024
11264.0,-0.0008159619756042957
12288.0,-0.0010599808301776648
13312.0,-0.0022753861267119646
14336.0,9.46065119933337e-05
end
