version,3.0
numOfCh,1
type,point
parent_name,200-cuts
ch_type,1_1
kcount,1
numberNandB,1
brightnessNandB,1
carpet pos,0
pc,0
Time (ms),CH1 Auto-Correlation
1.0,0.0704994648694992
2.0,0.06910031288862228
3.0,0.06775195151567459
4.0,0.06640961021184921
5.0,0.06509733200073242
6.0,0.06383495032787323
7.0,0.06257932633161545
8.0,0.06135088950395584
9.0,0.060147643089294434
10.0,0.058992061764001846
11.0,0.05784272775053978
12.0,0.056663740426301956
13.0,0.05547589436173439
14.0,0.05428880453109741
15.0,0.053169894963502884
16.0,0.05206146463751793
18.0,0.04989566281437874
20.0,0.04781857877969742
22.0,0.04589163139462471
24.0,0.04400896653532982
26.0,0.04220929369330406
28.0,0.04046967998147011
30.0,0.038818031549453735
32.0,0.03731650114059448
36.0,0.03442005440592766
40.0,0.031705066561698914
44.0,0.029466690495610237
48.0,0.02762538753449917
52.0,0.025697439908981323
56.0,0.024148790165781975
60.0,0.022824030369520187
64.0,0.02160859853029251
72.0,0.01900952123105526
80.0,0.016754688695073128
88.0,0.014874204993247986
96.0,0.013244077563285828
104.0,0.012100630439817905
112.0,0.011457988992333412
120.0,0.010799220763146877
128.0,0.010098538361489773
144.0,0.008687123656272888
160.0,0.006903317756950855
176.0,0.004408296663314104
192.0,0.0022212080657482147
208.0,0.0004921249928884208
224.0,-0.0005637510912492871
240.0,-0.0012876235414296389
256.0,-0.00224056257866323
288.0,-0.003620211500674486
320.0,-0.0033604816999286413
352.0,-0.003484300570562482
384.0,-0.0046268305741250515
416.0,-0.004373930860310793
448.0,-0.003553681308403611
480.0,-0.002168224658817053
512.0,-0.0011773675214499235
576.0,-0.0034272372722625732
640.0,0.0008213318069465458
704.0,-0.001110271317884326
768.0,-0.004434357397258282
832.0,0.0003522007027640939
896.0,0.0025828625075519085
960.0,0.004174704197794199
1024.0,0.004900611937046051
1152.0,0.004729082342237234
1280.0,-0.0006122117629274726
1408.0,-0.0054833837784826756
1536.0,-0.0019822779577225447
1664.0,-4.9789312470238656e-05
1792.0,-0.0020688350778073072
1920.0,-0.0004358362057246268
2048.0,0.0023635432589799166
2304.0,0.0007065812824293971
2560.0,0.0028875835705548525
2816.0,-0.005991616286337376
3072.0,-0.006089874543249607
3328.0,0.003012066474184394
3584.0,0.0055239819921553135
3840.0,-0.003797028912231326
4096.0,-0.007582582999020815
4608.0,0.00103792326990515
5120.0,-0.0041288877837359905
5632.0,0.0016014331486076117
6144.0,-0.0032453518360853195
6656.0,-0.0021291684824973345
7168.0,-0.003010647604241967
7680.0,0.0034775659441947937
8192.0,-0.0005394238978624344
9216.0,0.00046118145110085607
10240.0,0.001726958784274757
11264.0,0.0016055878950282931
12288.0,0.004406343214213848
13312.0,0.0013475373852998018
14336.0,-0.004683526698499918
end
