version,3.0
numOfCh,1
type,point
parent_name,200-cuts
ch_type,1_1
kcount,1
numberNandB,1
brightnessNandB,1
carpet pos,0
pc,0
Time (ms),CH1 Auto-Correlation
1.0,0.07851520925760269
2.0,0.07708403468132019
3.0,0.07568635791540146
4.0,0.07428514957427979
5.0,0.07294046133756638
6.0,0.07163386046886444
7.0,0.07035214453935623
8.0,0.06912504881620407
9.0,0.06793558597564697
10.0,0.06675132364034653
11.0,0.0655834749341011
12.0,0.06444600224494934
13.0,0.0632985532283783
14.0,0.062165144830942154
15.0,0.06108560413122177
16.0,0.06001938506960869
18.0,0.05789623409509659
20.0,0.055878765881061554
22.0,0.05398286506533623
24.0,0.05220288038253784
26.0,0.05049724876880646
28.0,0.048823706805706024
30.0,0.04717301204800606
32.0,0.04564192518591881
36.0,0.04285116866230965
40.0,0.040193110704422
44.0,0.03773735836148262
48.0,0.035500116646289825
52.0,0.03328106179833412
56.0,0.0311485156416893
60.0,0.029163965955376625
64.0,0.027115702629089355
72.0,0.023082289844751358
80.0,0.019227173179388046
88.0,0.01579153910279274
96.0,0.012800158001482487
104.0,0.010506032966077328
112.0,0.00889671966433525
120.0,0.007769911549985409
128.0,0.006795443594455719
144.0,0.004884836729615927
160.0,0.004275357350707054
176.0,0.005059689283370972
192.0,0.0051788995042443275
208.0,0.0051119071431458
224.0,0.00516860606148839
240.0,0.004098766949027777
256.0,0.002706988016143441
288.0,-3.113417187705636e-05
320.0,-8.183797035599127e-06
352.0,0.0020760970655828714
384.0,0.002825677627697587
416.0,0.003008240833878517
448.0,0.002573639154434204
480.0,0.002425490180030465
512.0,0.0022982617374509573
576.0,0.003653119085356593
640.0,-0.0003387966426089406
704.0,-0.004776387941092253
768.0,-0.0029854788444936275
832.0,-0.004757680464535952
896.0,-0.004996493458747864
960.0,0.0039288499392569065
1024.0,0.005811732262372971
1152.0,0.003827183973044157
1280.0,-0.0022893105633556843
1408.0,-0.002887187758460641
1536.0,0.010256659239530563
1664.0,0.001766418805345893
1792.0,0.004397261887788773
1920.0,0.0025528529658913612
2048.0,-0.0011149526108056307
2304.0,-0.001177684753201902
2560.0,0.001860321150161326
2816.0,-0.0010366130154579878
3072.0,0.002578269923105836
3328.0,-0.002054330427199602
3584.0,-0.005426769610494375
3840.0,-0.0037503819912672043
4096.0,-0.003773198928683996
4608.0,0.00219906447455287
5120.0,-0.007199549116194248
5632.0,-0.0011601443402469158
6144.0,-0.004110317677259445
6656.0,-0.0045469035394489765
7168.0,-0.0036270690616220236
7680.0,0.0026790236588567495
8192.0,-0.001916603883728385
9216.0,-0.0017029959708452225
10240.0,0.005158549174666405
11264.0,-0.0003820528509095311
12288.0,0.004628397058695555
13312.0,0.0008944777655415237
14336.0,0.0001828604144975543
end
