version,3.0
numOfCh,1
type,point
parent_name,200-cuts
ch_type,1_1
kcount,1
numberNandB,1
brightnessNandB,1
carpet pos,0
pc,0
Time (ms),CH1 Auto-Correlation
1.0,0.08249689638614655
2.0,0.0810910314321518
3.0,0.07969243079423904
4.0,0.07831427454948425
5.0,0.07698040455579758
6.0,0.0757642462849617
7.0,0.0745907574892044
8.0,0.07347168028354645
9.0,0.072357177734375
10.0,0.07129251211881638
11.0,0.07023973017930984
12.0,0.0692233070731163
13.0,0.06827861070632935
14.0,0.06733527779579163
15.0,0.06642848253250122
16.0,0.06549295783042908
18.0,0.06354477256536484
20.0,0.061680957674980164
22.0,0.059920672327280045
24.0,0.058323945850133896
26.0,0.056823503226041794
28.0,0.05537910759449005
30.0,0.053972598165273666
32.0,0.05261661484837532
36.0,0.05006026849150658
40.0,0.04764413461089134
44.0,0.045397914946079254
48.0,0.043248169124126434
52.0,0.041229311376810074
56.0,0.03925400227308273
60.0,0.03717349097132683
64.0,0.03498193994164467
72.0,0.031176283955574036
80.0,0.02764257788658142
88.0,0.02450612001121044
96.0,0.021074555814266205
104.0,0.017966825515031815
112.0,0.015709226951003075
120.0,0.013813789933919907
128.0,0.012004814110696316
144.0,0.009522246196866035
160.0,0.006851701997220516
176.0,0.004459580406546593
192.0,0.003108719363808632
208.0,0.00223617535084486
224.0,0.0014433793257921934
240.0,0.00042040488915517926
256.0,-0.0007720449939370155
288.0,-0.0027747892308980227
320.0,-0.004341707099229097
352.0,-0.00822963286191225
384.0,-0.010701085440814495
416.0,-0.012708701193332672
448.0,-0.011269915848970413
480.0,-0.008700395934283733
512.0,-0.005571109242737293
576.0,-0.0014754197327420115
640.0,0.000495737767778337
704.0,0.004078122321516275
768.0,0.008213616907596588
832.0,0.013307659886777401
896.0,0.012814180925488472
960.0,0.007479965221136808
1024.0,0.001064974581822753
1152.0,-0.005016067065298557
1280.0,-0.00624177698045969
1408.0,-0.006217743270099163
1536.0,-0.003914867993444204
1664.0,0.0051701427437365055
1792.0,0.0039043808355927467
1920.0,-0.00024883818696253
2048.0,0.002536915009841323
2304.0,-0.008854222483932972
2560.0,-0.009825975634157658
2816.0,0.0004505930992309004
3072.0,-0.01204142440110445
3328.0,-0.007343691773712635
3584.0,0.0038165824953466654
3840.0,-0.006224973127245903
4096.0,-0.0019025581423193216
4608.0,0.0038238035049289465
5120.0,-0.0008336585597135127
5632.0,0.010755399242043495
6144.0,0.004447726998478174
6656.0,0.002922146115452051
7168.0,-0.008656037971377373
7680.0,0.0008751288405619562
8192.0,-0.0017057141521945596
9216.0,-0.0009400010458193719
10240.0,0.0032338828314095736
11264.0,0.0047757551074028015
12288.0,-0.0006579228211194277
13312.0,-0.0005362026276998222
14336.0,-0.0060205538757145405
end
