version,3.0
numOfCh,1
type,point
parent_name,200-cuts
ch_type,1_1
kcount,1
numberNandB,1
brightnessNandB,1
carpet pos,0
pc,0
Time (ms),CH1 Auto-Correlation
1.0,0.027330443263053894
2.0,0.026867704465985298
3.0,0.02640192210674286
4.0,0.025942660868167877
5.0,0.025480501353740692
6.0,0.025020189583301544
7.0,0.024578237906098366
8.0,0.024149229750037193
9.0,0.02372773550450802
10.0,0.02332678809762001
11.0,0.022937942296266556
12.0,0.02256319485604763
13.0,0.0222035963088274
14.0,0.021850235760211945
15.0,0.021501990035176277
16.0,0.021154973655939102
18.0,0.02048279345035553
20.0,0.019855329766869545
22.0,0.019281907007098198
24.0,0.018764009699225426
26.0,0.018266715109348297
28.0,0.017764365300536156
30.0,0.01725688949227333
32.0,0.01676781103014946
36.0,0.015828019008040428
40.0,0.015006336383521557
44.0,0.014238477684557438
48.0,0.013554099947214127
52.0,0.01294514536857605
56.0,0.012418100610375404
60.0,0.011958803050220013
64.0,0.011508638970553875
72.0,0.010781814344227314
80.0,0.010084967128932476
88.0,0.009303098544478416
96.0,0.008489526808261871
104.0,0.007603754289448261
112.0,0.006805750075727701
120.0,0.006111187860369682
128.0,0.0055831181816756725
144.0,0.004788590595126152
160.0,0.0039034048095345497
176.0,0.003348628291860223
192.0,0.003028026781976223
208.0,0.0024928636848926544
224.0,0.0020614692475646734
240.0,0.001512757851742208
256.0,0.0010339445434510708
288.0,0.0004037949547637254
320.0,-0.0010869010584428906
352.0,-0.0021033661905676126
384.0,-0.001144681591540575
416.0,-3.686616400955245e-05
448.0,0.0005830427398905158
480.0,0.001015269197523594
512.0,0.001453875214792788
576.0,0.0020905460696667433
640.0,0.003339257789775729
704.0,0.004440153017640114
768.0,0.002722748788073659
832.0,0.0022127314005047083
896.0,0.0025936344172805548
960.0,0.0017422179225832224
1024.0,-0.0005627146456390619
1152.0,-0.0021517560817301273
1280.0,-0.002113824710249901
1408.0,6.418078555725515e-05
1536.0,0.0009292822214774787
1664.0,0.0029859442729502916
1792.0,0.0019889583345502615
1920.0,4.0151109715225175e-05
2048.0,-0.003152018878608942
2304.0,0.0013378177536651492
2560.0,-0.00014190960791893303
2816.0,-0.003076327033340931
3072.0,-0.0003879637806676328
3328.0,-0.00022798485588282347
3584.0,-0.00037559570046141744
3840.0,-0.0006042887107469141
4096.0,0.00036917999386787415
4608.0,-0.0014706664951518178
5120.0,0.0012857133988291025
5632.0,-0.0003528338856995106
6144.0,-0.001872445922344923
6656.0,-0.0012076428392902017
7168.0,-0.001638720859773457
7680.0,-0.0011446053395047784
8192.0,-0.0022609555162489414
9216.0,0.0004493679152801633
10240.0,0.0006527199875563383
11264.0,-0.0001883509976323694
12288.0,-0.0005452450714074075
13312.0,-0.0001765528868418187
14336.0,0.00029552527121268213
end
