version,3.0
numOfCh,1
type,point
parent_name,200-cuts
ch_type,1_1
kcount,1
numberNandB,1
brightnessNandB,1
carpet pos,0
pc,0
Time (ms),CH1 Auto-Correlation
1.0,0.10372653603553772
2.0,0.1016918420791626
3.0,0.09971269220113754
4.0,0.09777234494686127
5.0,0.09590674936771393
6.0,0.09406335651874542
7.0,0.09223867952823639
8.0,0.09043672680854797
9.0,0.08865037560462952
10.0,0.08685179054737091
11.0,0.08505063503980637
12.0,0.08338151127099991
13.0,0.08178946375846863
14.0,0.08022257685661316
15.0,0.07868197560310364
16.0,0.07713323086500168
18.0,0.07420500367879868
20.0,0.07145627588033676
22.0,0.06890938431024551
24.0,0.06658624112606049
26.0,0.06449685245752335
28.0,0.06256933510303497
30.0,0.06082776561379433
32.0,0.059183984994888306
36.0,0.056070487946271896
40.0,0.05323118716478348
44.0,0.05077703669667244
48.0,0.048420727252960205
52.0,0.04633417725563049
56.0,0.04456030949950218
60.0,0.04288594052195549
64.0,0.04123993590474129
72.0,0.037516143172979355
80.0,0.034110039472579956
88.0,0.031194396317005157
96.0,0.02849084511399269
104.0,0.0254531092941761
112.0,0.023103635758161545
120.0,0.02093699388206005
128.0,0.019133364781737328
144.0,0.014569678343832493
160.0,0.009975230321288109
176.0,0.005711318925023079
192.0,0.003737115301191807
208.0,0.002168811857700348
224.0,0.00023675928241573274
240.0,-0.0010921364882960916
256.0,-0.00147007848136127
288.0,-0.00391097879037261
320.0,-0.00420799758285284
352.0,-0.005744650028645992
384.0,-0.005196436773985624
416.0,-0.003926054574549198
448.0,-0.0018422016873955727
480.0,-0.0030987963546067476
512.0,-0.004394991789013147
576.0,-0.0010775822447612882
640.0,0.001609054859727621
704.0,0.005192446522414684
768.0,0.0057079424150288105
832.0,0.0034540339838713408
896.0,0.000982668367214501
960.0,-0.004587148316204548
1024.0,-0.008478669449687004
1152.0,-0.01329012867063284
1280.0,-0.005754284095019102
1408.0,-0.0025714999064803123
1536.0,0.0011761629721149802
1664.0,0.007116425316780806
1792.0,0.006887577474117279
1920.0,0.002258158288896084
2048.0,0.001909593353047967
2304.0,0.0051429071463644505
2560.0,-0.006979599595069885
2816.0,-0.009028086438775063
3072.0,-0.0038016813341528177
3328.0,-0.008124462328851223
3584.0,0.008400962688028812
3840.0,0.0028015137650072575
4096.0,0.008123640902340412
4608.0,-0.004115401767194271
5120.0,-0.002197590656578541
5632.0,-0.0033154396805912256
6144.0,-0.0020748688839375973
6656.0,-0.0007980450172908604
7168.0,0.0003354214713908732
7680.0,0.00044486846309155226
8192.0,-3.982167618232779e-05
9216.0,-0.0032388693653047085
10240.0,0.003344263881444931
11264.0,-0.003916927147656679
12288.0,0.0038383472710847855
13312.0,-0.012604545801877975
14336.0,0.003760767634958029
end
