version,3.0
numOfCh,1
type,point
parent_name,200-cuts
ch_type,1_1
kcount,1
numberNandB,1
brightnessNandB,1
carpet pos,0
pc,0
Time (ms),CH1 Auto-Correlation
1.0,0.07561609894037247
2.0,0.07427321374416351
3.0,0.07297259569168091
4.0,0.07168982177972794
5.0,0.07044621556997299
6.0,0.0692027285695076
7.0,0.0679701492190361
8.0,0.06674690544605255
9.0,0.06552193313837051
10.0,0.06436340510845184
11.0,0.06324779987335205
12.0,0.06215997785329819
13.0,0.06107895076274872
14.0,0.059995513409376144
15.0,0.05894199386239052
16.0,0.05788594111800194
18.0,0.05587772652506828
20.0,0.05391328036785126
22.0,0.05205962806940079
24.0,0.05033215135335922
26.0,0.04867091402411461
28.0,0.04712068662047386
30.0,0.04557977244257927
32.0,0.04409310966730118
36.0,0.041443321853876114
40.0,0.03889000788331032
44.0,0.036492254585027695
48.0,0.0341448076069355
52.0,0.03197759389877319
56.0,0.030023591592907906
60.0,0.02833399549126625
64.0,0.026913180947303772
72.0,0.024074360728263855
80.0,0.021858200430870056
88.0,0.019957473501563072
96.0,0.018314940854907036
104.0,0.0165695883333683
112.0,0.014944398775696754
120.0,0.013353636488318443
128.0,0.011644192971289158
144.0,0.009004109539091587
160.0,0.007004148792475462
176.0,0.0045791855081915855
192.0,0.003175748512148857
208.0,0.0015181254129856825
224.0,-5.344048076949548e-06
240.0,-0.001471176277846098
256.0,-0.0032872415613383055
288.0,-0.003794386750087142
320.0,-0.004846837371587753
352.0,-0.007322691380977631
384.0,-0.011113230139017105
416.0,-0.014537261798977852
448.0,-0.014371632598340511
480.0,-0.010829688981175423
512.0,-0.006140527781099081
576.0,-0.0014344275696203113
640.0,0.0032681473530828953
704.0,0.006604121532291174
768.0,0.00861142948269844
832.0,0.008317572996020317
896.0,0.00850426871329546
960.0,0.004717548377811909
1024.0,0.0028133566956967115
1152.0,-0.0060831112787127495
1280.0,-0.004007635172456503
1408.0,-0.0007769782678224146
1536.0,-0.0005201267194934189
1664.0,-0.00739872083067894
1792.0,-0.003512083552777767
1920.0,-0.004114637151360512
2048.0,-0.002300326246768236
2304.0,-0.004133446607738733
2560.0,-0.004729611333459616
2816.0,0.005790935829281807
3072.0,-0.002068066271021962
3328.0,-0.0018433473305776715
3584.0,0.005291036795824766
3840.0,0.004633717238903046
4096.0,-0.00406177993863821
4608.0,0.00407793466001749
5120.0,-0.003424848197028041
5632.0,-0.004015626385807991
6144.0,-0.001630967715755105
6656.0,-0.0017432149033993483
7168.0,0.006436592899262905
7680.0,0.001019086455926299
8192.0,0.004091229289770126
9216.0,-0.004080022219568491
10240.0,0.0014684881316497922
11264.0,0.005524273496121168
12288.0,-0.0022012079134583473
13312.0,-0.010001348331570625
14336.0,-0.0007674691150896251
end
