version,3.0
numOfCh,1
type,point
parent_name,200-cuts
ch_type,1_1
kcount,1
numberNandB,1
brightnessNandB,1
carpet pos,0
pc,0
Time (ms),CH1 Auto-Correlation
1.0,0.05966641753911972
2.0,0.0585242323577404
3.0,0.05741068348288536
4.0,0.05631766840815544
5.0,0.05522872880101204
6.0,0.05418052896857262
7.0,0.05319806933403015
8.0,0.05223681777715683
9.0,0.05130193755030632
10.0,0.050381336361169815
11.0,0.0494641438126564
12.0,0.048560429364442825
13.0,0.04766172915697098
14.0,0.046758800745010376
15.0,0.04588465392589569
16.0,0.04508301615715027
18.0,0.043486375361680984
20.0,0.041917894035577774
22.0,0.0403447188436985
24.0,0.03884831443428993
26.0,0.0374012216925621
28.0,0.036109648644924164
30.0,0.03491919860243797
32.0,0.033740073442459106
36.0,0.03147539868950844
40.0,0.029519997537136078
44.0,0.027692705392837524
48.0,0.025998426601290703
52.0,0.024426531046628952
56.0,0.023000111803412437
60.0,0.021824073046445847
64.0,0.020769724622368813
72.0,0.01879272237420082
80.0,0.016987569630146027
88.0,0.01533579733222723
96.0,0.014272493310272694
104.0,0.013304594904184341
112.0,0.01232206355780363
120.0,0.011145197786390781
128.0,0.009606026113033295
144.0,0.0063117691315710545
160.0,0.003303342266008258
176.0,0.002068908419460058
192.0,0.0017705241916701198
208.0,0.0017668778309598565
224.0,0.0016935965977609158
240.0,0.0010926779359579086
256.0,0.0006240548682399094
288.0,0.00016244598373305053
320.0,0.0013781393645331264
352.0,0.0031441806349903345
384.0,0.004475334659218788
416.0,0.004225904121994972
448.0,0.002920569386333227
480.0,0.0025677108205854893
512.0,0.001661773887462914
576.0,0.0014092389028519392
640.0,0.0017941854894161224
704.0,0.0002033892524195835
768.0,8.643721230328083e-06
832.0,-0.0009376532398164272
896.0,-0.00030126317869871855
960.0,0.0006123401108197868
1024.0,-0.001023771706968546
1152.0,-0.000779920956119895
1280.0,-0.003912446554750204
1408.0,-0.0031255637295544147
1536.0,0.0006400999845936894
1664.0,-0.0003884292673319578
1792.0,-0.003156340913847089
1920.0,-0.001678269705735147
2048.0,0.0028434074483811855
2304.0,-0.0016549262218177319
2560.0,0.0015562963671982288
2816.0,0.001253441907465458
3072.0,0.004422886297106743
3328.0,0.0014797562034800649
3584.0,0.0013727411860600114
3840.0,0.0012145282234996557
4096.0,0.0034074673894792795
4608.0,-0.0013732850784435868
5120.0,-0.0053177280351519585
5632.0,-0.0001176220757770352
6144.0,-0.003382914001122117
6656.0,-0.00025746034225448966
7168.0,0.0019372445531189442
7680.0,-0.00543539272621274
8192.0,-0.0023344845976680517
9216.0,0.00019803244504146278
10240.0,-0.00023900378437247127
11264.0,-0.0028560589998960495
12288.0,0.0031725671142339706
13312.0,0.002066520508378744
14336.0,-0.0010252956999465823
end
