version,3.0
numOfCh,1
type,point
parent_name,200-cuts
ch_type,1_1
kcount,1
numberNandB,1
brightnessNandB,1
carpet pos,0
pc,0
Time (ms),CH1 Auto-Correlation
1.0,0.08473265171051025
2.0,0.08315396308898926
3.0,0.08159013837575912
4.0,0.08015504479408264
5.0,0.07876823842525482
6.0,0.07737486809492111
7.0,0.07603400200605392
8.0,0.0746721401810646
9.0,0.07332979887723923
10.0,0.0720481127500534
11.0,0.07079063355922699
12.0,0.06955169141292572
13.0,0.06838428974151611
14.0,0.06721830368041992
15.0,0.06607761234045029
16.0,0.06497593969106674
18.0,0.06283168494701385
20.0,0.06071397662162781
22.0,0.0587528720498085
24.0,0.05685034394264221
26.0,0.0550333634018898
28.0,0.05326177552342415
30.0,0.051503244787454605
32.0,0.049709122627973557
36.0,0.04635750129818916
40.0,0.04321545735001564
44.0,0.04012070223689079
48.0,0.03701423481106758
52.0,0.034131813794374466
56.0,0.03144030645489693
60.0,0.028895225375890732
64.0,0.026375018060207367
72.0,0.022160954773426056
80.0,0.018255136907100677
88.0,0.01469368115067482
96.0,0.011975889094173908
104.0,0.009365452453494072
112.0,0.0068410346284508705
120.0,0.004543009679764509
128.0,0.0025830394588410854
144.0,-0.00038737108116038144
160.0,-0.0016961079090833664
176.0,-0.002349276328459382
192.0,-0.0019016526639461517
208.0,-0.0011438402580097318
224.0,-0.00043065918725915253
240.0,0.0003624206001404673
256.0,0.0019723784644156694
288.0,0.003645483870059252
320.0,0.0025518012698739767
352.0,0.0034276482183486223
384.0,0.004308446776121855
416.0,0.004927215166389942
448.0,0.00426886323839426
480.0,0.0039033254142850637
512.0,-7.533468306064606e-05
576.0,-0.006256213877350092
640.0,-0.01120257843285799
704.0,-0.00791117176413536
768.0,-0.0010725663742050529
832.0,-0.004463604651391506
896.0,-0.009487919509410858
960.0,-0.009387495927512646
1024.0,-0.006212056614458561
1152.0,-0.0023396022152155638
1280.0,-0.00034021897590719163
1408.0,-0.0005185300833545625
1536.0,-5.12162696395535e-05
1664.0,-0.0002970808418467641
1792.0,0.0008373942691832781
1920.0,0.00499015161767602
2048.0,-0.00301530072465539
2304.0,-0.0015380902914330363
2560.0,-0.002195739885792136
2816.0,0.000792908133007586
3072.0,0.005248798057436943
3328.0,-0.0013602980179712176
3584.0,0.003378940047696233
3840.0,0.002364340703934431
4096.0,-0.004144879058003426
4608.0,-0.0007016874733380973
5120.0,0.002588156843557954
5632.0,-0.002205423079431057
6144.0,-0.003654728177934885
6656.0,0.002906281966716051
7168.0,-0.0003967882366850972
7680.0,-0.003930320031940937
8192.0,-0.0009370095212943852
9216.0,0.00328220147639513
10240.0,0.00010716320684878156
11264.0,-0.0018145599169656634
12288.0,0.003109199460595846
13312.0,-0.0022660919930785894
14336.0,0.0019300553249195218
end
