version,3.0
numOfCh,1
type,point
parent_name,200-cuts
ch_type,1_1
kcount,1
numberNandB,1
brightnessNandB,1
carpet pos,0
pc,0
Time (ms),CH1 Auto-Correlation
1.0,0.05494276434183121
2.0,0.05390927568078041
3.0,0.05289676785469055
4.0,0.0519113652408123
5.0,0.0509653314948082
6.0,0.05002838000655174
7.0,0.04911517724394798
8.0,0.04822021722793579
9.0,0.047333139926195145
10.0,0.04645003005862236
11.0,0.045574989169836044
12.0,0.04470505192875862
13.0,0.043839436024427414
14.0,0.04298359155654907
15.0,0.04216868430376053
16.0,0.04138202592730522
18.0,0.03987899795174599
20.0,0.03844592347741127
22.0,0.0370405912399292
24.0,0.03568709269165993
26.0,0.03442460671067238
28.0,0.03317851573228836
30.0,0.03199569880962372
32.0,0.030861085280776024
36.0,0.02880912274122238
40.0,0.02685045450925827
44.0,0.02485601231455803
48.0,0.022857502102851868
52.0,0.02098066732287407
56.0,0.019184555858373642
60.0,0.01735227182507515
64.0,0.015577870421111584
72.0,0.012617689557373524
80.0,0.01061494741588831
88.0,0.008954222314059734
96.0,0.007698331959545612
104.0,0.006677418481558561
112.0,0.005384836345911026
120.0,0.004439602605998516
128.0,0.0038569264579564333
144.0,0.0045130690559744835
160.0,0.005169609561562538
176.0,0.00543049443513155
192.0,0.005114147439599037
208.0,0.004156338516622782
224.0,0.0028537169564515352
240.0,0.0021416698582470417
256.0,0.0018562549958005548
288.0,0.0012778736418113112
320.0,4.760530646308325e-05
352.0,0.0012017844710499048
384.0,0.001967198448255658
416.0,0.0018013314111158252
448.0,0.00015979688032530248
480.0,-0.0014440614031627774
512.0,-0.00026948159211315215
576.0,0.0028137422632426023
640.0,0.004377571865916252
704.0,0.00201713340356946
768.0,0.0004101271915715188
832.0,0.002533717779442668
896.0,-0.001462576794438064
960.0,-0.0009661908843554556
1024.0,0.0011753874132409692
1152.0,-0.0013754838146269321
1280.0,-0.0008541857241652906
1408.0,-0.0024916830006986856
1536.0,-0.003410825040191412
1664.0,-0.0028274226933717728
1792.0,-0.00374886067584157
1920.0,-0.0007735187537036836
2048.0,-0.001815700437873602
2304.0,-0.0019698929972946644
2560.0,-0.0013150942977517843
2816.0,-0.00396592915058136
3072.0,-0.0020871246233582497
3328.0,0.00042692472925409675
3584.0,0.0005732762510888278
3840.0,-0.001878442126326263
4096.0,1.3926442079537082e-06
4608.0,0.0002913211355917156
5120.0,-0.0021831290796399117
5632.0,0.0003725177957676351
6144.0,-0.0006969481473788619
6656.0,-0.0019284412264823914
7168.0,0.0029652263037860394
7680.0,0.0007787141366861761
8192.0,-0.0007231007912196219
9216.0,0.0019849177915602922
10240.0,7.936036854516715e-05
11264.0,-0.0010440506739541888
12288.0,0.0017534493235871196
13312.0,-0.00394732691347599
14336.0,0.0003345722798258066
end
