version,3.0
numOfCh,1
type,point
parent_name,200-cuts
ch_type,1_1
kcount,1
numberNandB,1
brightnessNandB,1
carpet pos,0
pc,0
Time (ms),CH1 Auto-Correlation
1.0,0.028750628232955933
2.0,0.028174536302685738
3.0,0.027623457834124565
4.0,0.02710685506463051
5.0,0.026610156521201134
6.0,0.02613932080566883
7.0,0.0256714578717947
8.0,0.025222038850188255
9.0,0.02478129416704178
10.0,0.02434849739074707
11.0,0.023910418152809143
12.0,0.023471035063266754
13.0,0.023037919774651527
14.0,0.022609155625104904
15.0,0.022189268842339516
16.0,0.02177802287042141
18.0,0.02100568450987339
20.0,0.020307552069425583
22.0,0.019628524780273438
24.0,0.018934115767478943
26.0,0.01826155185699463
28.0,0.017621368169784546
30.0,0.01703677512705326
32.0,0.01645234413444996
36.0,0.015334098599851131
40.0,0.014379167929291725
44.0,0.01343552116304636
48.0,0.012506665661931038
52.0,0.01167781837284565
56.0,0.010923619382083416
60.0,0.010173309594392776
64.0,0.009390763938426971
72.0,0.00788387842476368
80.0,0.006590297445654869
88.0,0.005590173415839672
96.0,0.004737522453069687
104.0,0.004011640325188637
112.0,0.003293164074420929
120.0,0.0025925415102392435
128.0,0.0017957397503778338
144.0,0.00023414094175677747
160.0,-0.001179103390313685
176.0,-0.0019221247639507055
192.0,-0.002101155696436763
208.0,-0.0022098380140960217
224.0,-0.0023217422422021627
240.0,-0.002613825025036931
256.0,-0.0027388103771954775
288.0,-0.0031507068779319525
320.0,-0.0031347351614385843
352.0,-0.0023844221141189337
384.0,-0.002053501084446907
416.0,-0.001320099807344377
448.0,-0.001610030885785818
480.0,-0.002278544008731842
512.0,-0.0023094986099749804
576.0,-0.00042659605969674885
640.0,0.0009738881490193307
704.0,0.0013935600873082876
768.0,0.003299458185210824
832.0,0.0027504488825798035
896.0,0.0017429746221750975
960.0,-4.698491466115229e-05
1024.0,-0.0012147383531555533
1152.0,-0.0012755636125802994
1280.0,-0.0010165245039388537
1408.0,1.885094025055878e-05
1536.0,0.00039280575583688915
1664.0,0.00033638282911852
1792.0,-0.0006271618185564876
1920.0,0.0003569562977645546
2048.0,-0.0012079814914613962
2304.0,0.0002839035587385297
2560.0,0.0010331120574846864
2816.0,0.0015181427588686347
3072.0,-0.001747295493260026
3328.0,-0.0018427862087264657
3584.0,0.0007115896441973746
3840.0,-0.0007508707931265235
4096.0,-0.00041836549644358456
4608.0,0.0002084204606944695
5120.0,-0.0003713690093718469
5632.0,9.503719047643244e-05
6144.0,-0.0019434790592640638
6656.0,0.0004220395931042731
7168.0,0.0013001580955460668
7680.0,0.0010438526514917612
8192.0,-0.0006559962057508528
9216.0,0.0006017889245413244
10240.0,-0.000493282510433346
11264.0,-0.0006101622129790485
12288.0,9.52343107201159e-05
13312.0,-0.0024340497329831123
14336.0,-0.0003635276516433805
end
