version,3.0
numOfCh,1
type,point
parent_name,200-cuts
ch_type,1_1
kcount,1
numberNandB,1
brightnessNandB,1
carpet pos,0
pc,0
Time (ms),CH1 Auto-Correlation
1.0,0.09336428344249725
2.0,0.09170562773942947
3.0,0.09005799144506454
4.0,0.08844448626041412
5.0,0.08685067296028137
6.0,0.08534716069698334
7.0,0.08391066640615463
8.0,0.08248154819011688
9.0,0.08105598390102386
10.0,0.07966884970664978
11.0,0.07829158753156662
12.0,0.07694758474826813
13.0,0.0756278783082962
14.0,0.07432808727025986
15.0,0.07304537296295166
16.0,0.07181909680366516
18.0,0.06940256804227829
20.0,0.0670287162065506
22.0,0.06472136080265045
24.0,0.06254073977470398
26.0,0.060450419783592224
28.0,0.05849064514040947
30.0,0.05658348277211189
32.0,0.054738521575927734
36.0,0.05117226764559746
40.0,0.048041075468063354
44.0,0.045318324118852615
48.0,0.04273480921983719
52.0,0.04028604179620743
56.0,0.03801899775862694
60.0,0.03583252429962158
64.0,0.03374742716550827
72.0,0.02967221662402153
80.0,0.026163313537836075
88.0,0.022786445915699005
96.0,0.019662559032440186
104.0,0.016752878203988075
112.0,0.01480199582874775
120.0,0.013514138758182526
128.0,0.012172777205705643
144.0,0.010585315525531769
160.0,0.010603520087897778
176.0,0.011116460897028446
192.0,0.010564898140728474
208.0,0.00809751357883215
224.0,0.004874218255281448
240.0,0.002703831298276782
256.0,-0.00024236056196969002
288.0,-0.0036635850556194782
320.0,-0.002880420535802841
352.0,0.0006240013753995299
384.0,0.0046037333086133
416.0,0.00564339105039835
448.0,0.004931232891976833
480.0,0.003963913768529892
512.0,0.0031776726245880127
576.0,0.002459888346493244
640.0,-0.00046670192386955023
704.0,0.0024762097746133804
768.0,0.007882793433964252
832.0,0.0069678304716944695
896.0,0.007903245277702808
960.0,0.009860692545771599
1024.0,0.0028592830058187246
1152.0,-0.0013243744615465403
1280.0,0.0010807320941239595
1408.0,0.00484983017668128
1536.0,-0.0006118295132182539
1664.0,0.0032786622177809477
1792.0,0.005952661857008934
1920.0,0.003791829803958535
2048.0,0.0026343553327023983
2304.0,0.0060418047942221165
2560.0,0.004454932175576687
2816.0,0.006755984388291836
3072.0,-0.0006188798579387367
3328.0,-0.002039501443505287
3584.0,-0.0050965272821486
3840.0,-0.0036592271644622087
4096.0,-0.0021032821387052536
4608.0,-0.004787438083440065
5120.0,0.0029821470379829407
5632.0,0.00011609353532548994
6144.0,-0.0008602875168435276
6656.0,0.004079759586602449
7168.0,-8.707399683771655e-05
7680.0,0.004496877081692219
8192.0,0.0035851802676916122
9216.0,0.0008512421627528965
10240.0,-0.01053119171410799
11264.0,-0.009732290171086788
12288.0,-0.014861589297652245
13312.0,-0.003987159579992294
14336.0,-0.008887647651135921
end
