version,3.0
numOfCh,1
type,point
parent_name,200-cuts
ch_type,1_1
kcount,1
numberNandB,1
brightnessNandB,1
carpet pos,0
pc,0
Time (ms),CH1 Auto-Correlation
1.0,0.044943105429410934
2.0,0.04401584714651108
3.0,0.04313601180911064
4.0,0.04227558150887489
5.0,0.041412025690078735
6.0,0.04059657081961632
7.0,0.03980481997132301
8.0,0.039031967520713806
9.0,0.03827572986483574
10.0,0.03753015771508217
11.0,0.036806944757699966
12.0,0.036108292639255524
13.0,0.035429567098617554
14.0,0.0347738154232502
15.0,0.034125007688999176
16.0,0.033508509397506714
18.0,0.03232970088720322
20.0,0.031225254759192467
22.0,0.03017885982990265
24.0,0.029166817665100098
26.0,0.028204161673784256
28.0,0.0272693894803524
30.0,0.026294710114598274
32.0,0.02533078007400036
36.0,0.023502377793192863
40.0,0.02189449407160282
44.0,0.020459942519664764
48.0,0.019109010696411133
52.0,0.017903363332152367
56.0,0.016845932230353355
60.0,0.015813272446393967
64.0,0.014851936139166355
72.0,0.013487111777067184
80.0,0.01219837088137865
88.0,0.0111268050968647
96.0,0.01011465210467577
104.0,0.009390048682689667
112.0,0.008900611661374569
120.0,0.00816181767731905
128.0,0.0076493993401527405
144.0,0.006767529994249344
160.0,0.005595433060079813
176.0,0.004964426625519991
192.0,0.004652645438909531
208.0,0.0039968714118003845
224.0,0.0032129990868270397
240.0,0.002294172765687108
256.0,0.0018631437560543418
288.0,0.000591732154134661
320.0,-0.0015397879760712385
352.0,-0.003293150570243597
384.0,-0.00281057832762599
416.0,-0.0008669294184073806
448.0,-0.0005033417255617678
480.0,-0.0006464592297561467
512.0,0.0013796271523460746
576.0,0.0012743984116241336
640.0,-6.958750600460917e-05
704.0,-0.001418334199115634
768.0,-0.000585705682169646
832.0,-0.0023295991122722626
896.0,-0.0011102984426543117
960.0,0.0008929588948376477
1024.0,0.0024150023236870766
1152.0,0.0035774381831288338
1280.0,0.0020803415682166815
1408.0,0.0014738428872078657
1536.0,0.003091993508860469
1664.0,0.002492357976734638
1792.0,0.0004152454202994704
1920.0,0.00013712834334000945
2048.0,-0.0018094063270837069
2304.0,-0.0012115308782085776
2560.0,0.0017894386546686292
2816.0,-0.00028944466612301767
3072.0,8.197477291105315e-05
3328.0,0.0017206488410010934
3584.0,0.0006106287473812699
3840.0,-0.001223981729708612
4096.0,-0.0011194116668775678
4608.0,0.0011585068423300982
5120.0,-0.0026417376939207315
5632.0,-0.00023095040523912758
6144.0,-0.0017898804508149624
6656.0,0.0006977124139666557
7168.0,-0.0010079224593937397
7680.0,-0.0037782390136271715
8192.0,0.0012441856088116765
9216.0,-0.004719798918813467
10240.0,-0.0017563009168952703
11264.0,0.0020853879395872355
12288.0,-0.0007392502157017589
13312.0,-0.002384959254413843
14336.0,0.006064172834157944
end
