version,3.0
numOfCh,1
type,point
parent_name,200-cuts
ch_type,1_1
kcount,1
numberNandB,1
brightnessNandB,1
carpet pos,0
pc,0
Time (ms),CH1 Auto-Correlation
1.0,0.07964388281106949
2.0,0.07830096036195755
3.0,0.07698313891887665
4.0,0.07571778446435928
5.0,0.07448836416006088
6.0,0.07327253371477127
7.0,0.0720442458987236
8.0,0.07082443684339523
9.0,0.06962358951568604
10.0,0.06843661516904831
11.0,0.06724958121776581
12.0,0.06611084938049316
13.0,0.06500601023435593
14.0,0.06390856206417084
15.0,0.06284230202436447
16.0,0.061799582093954086
18.0,0.05974436178803444
20.0,0.057747405022382736
22.0,0.055901288986206055
24.0,0.054137639701366425
26.0,0.052449971437454224
28.0,0.05083310604095459
30.0,0.04923803731799126
32.0,0.04768284410238266
36.0,0.04470708221197128
40.0,0.04199492558836937
44.0,0.03938073664903641
48.0,0.03693633899092674
52.0,0.034803688526153564
56.0,0.03293116018176079
60.0,0.03106488101184368
64.0,0.029188020154833794
72.0,0.02577042393386364
80.0,0.02298404462635517
88.0,0.020418936386704445
96.0,0.017730191349983215
104.0,0.015042146667838097
112.0,0.01248562429100275
120.0,0.010191702283918858
128.0,0.007912683300673962
144.0,0.004510900937020779
160.0,0.0008848266443237662
176.0,-0.001877029426395893
192.0,-0.0037489854730665684
208.0,-0.004786332603543997
224.0,-0.0058926972560584545
240.0,-0.007511816453188658
256.0,-0.008736115880310535
288.0,-0.010080767795443535
320.0,-0.008532758802175522
352.0,-0.007148928474634886
384.0,-0.005384922493249178
416.0,-0.004061220213770866
448.0,-0.0018099166918545961
480.0,-0.0007140623638406396
512.0,-0.001197992591187358
576.0,-0.0008795110625214875
640.0,0.000562767090741545
704.0,-0.002782525261864066
768.0,-0.0021112305112183094
832.0,0.0013612972106784582
896.0,-0.0031094045843929052
960.0,-0.011427662335336208
1024.0,-0.009632005356252193
1152.0,0.008936522528529167
1280.0,0.010275117121636868
1408.0,0.003861604491248727
1536.0,-0.0022545510437339544
1664.0,-0.0028212321922183037
1792.0,-0.0035062299575656652
1920.0,0.0010334289399906993
2048.0,-0.0032830641139298677
2304.0,-0.0019736585672944784
2560.0,0.0032913964241743088
2816.0,-0.0012622122885659337
3072.0,0.00287892809137702
3328.0,-0.005536381620913744
3584.0,0.0016233976930379868
3840.0,-0.0014152750372886658
4096.0,0.001755771110765636
4608.0,-0.0025646709837019444
5120.0,0.0010094173485413194
5632.0,0.00027445482555776834
6144.0,-0.0030253680888563395
6656.0,0.0007237893878482282
7168.0,-0.004162161145359278
7680.0,-0.0011655184207484126
8192.0,0.0028015116695314646
9216.0,0.0025389210786670446
10240.0,-0.004397992044687271
11264.0,-0.0023884368129074574
12288.0,0.008076564408838749
13312.0,0.003929483238607645
14336.0,-0.0053811753168702126
end
