version,3.0
numOfCh,1
type,point
parent_name,200-cuts
ch_type,1_1
kcount,1
numberNandB,1
brightnessNandB,1
carpet pos,0
pc,0
Time (ms),CH1 Auto-Correlation
1.0,0.0829739198088646
2.0,0.08136456459760666
3.0,0.07975763827562332
4.0,0.07817891240119934
5.0,0.07664651423692703
6.0,0.07513543218374252
7.0,0.07365668565034866
8.0,0.07226016372442245
9.0,0.07084894925355911
10.0,0.06945569813251495
11.0,0.06806200742721558
12.0,0.06667240709066391
13.0,0.06536804884672165
14.0,0.0641399547457695
15.0,0.06297539919614792
16.0,0.06184343621134758
18.0,0.059657733887434006
20.0,0.05754909664392471
22.0,0.05562876537442207
24.0,0.053819045424461365
26.0,0.052080899477005005
28.0,0.050377532839775085
30.0,0.04868313670158386
32.0,0.047055695205926895
36.0,0.04390966519713402
40.0,0.040816064924001694
44.0,0.038072142750024796
48.0,0.035478755831718445
52.0,0.0332227498292923
56.0,0.03090486116707325
60.0,0.028623851016163826
64.0,0.02655218541622162
72.0,0.023112112656235695
80.0,0.02016899362206459
88.0,0.017687523737549782
96.0,0.015213982202112675
104.0,0.012972242198884487
112.0,0.010501056909561157
120.0,0.007980268448591232
128.0,0.006084494758397341
144.0,0.003614319022744894
160.0,0.0013203048147261143
176.0,0.0002616416313685477
192.0,-0.00041435184539295733
208.0,-0.00010637176455929875
224.0,0.0008887774311006069
240.0,0.002629177877679467
256.0,0.005606665275990963
288.0,0.007434892002493143
320.0,0.006850855890661478
352.0,0.005127615295350552
384.0,0.0044251433573663235
416.0,0.0037813831586390734
448.0,0.0013923367951065302
480.0,-0.001952625811100006
512.0,-0.0031181052327156067
576.0,-0.008333087898790836
640.0,-0.01092260330915451
704.0,-0.005603554658591747
768.0,0.0004504488315433264
832.0,-0.0017837577033787966
896.0,-0.006204279139637947
960.0,-0.001413415651768446
1024.0,0.005457802675664425
1152.0,0.0061693149618804455
1280.0,0.003603498451411724
1408.0,-0.0011446928838267922
1536.0,-6.598435220439569e-07
1664.0,-0.0048604803159832954
1792.0,-0.004287433810532093
1920.0,-0.004877901170402765
2048.0,9.988911915570498e-05
2304.0,0.0030822372063994408
2560.0,0.00150897610001266
2816.0,-0.004285554867237806
3072.0,-0.0024448761250823736
3328.0,0.0010470055276528
3584.0,-0.004956490825861692
3840.0,-0.0016148269642144442
4096.0,0.000775169872213155
4608.0,-0.005262293852865696
5120.0,-0.0011616385309025645
5632.0,-0.0014877425273880363
6144.0,-0.00030460781999863684
6656.0,-0.0019232460763305426
7168.0,0.005630479194223881
7680.0,-0.003560421522706747
8192.0,0.005528292153030634
9216.0,0.0019280411070212722
10240.0,0.0034710888285189867
11264.0,-0.0023991570342332125
12288.0,0.0029313291888684034
13312.0,-0.00238957186229527
14336.0,-0.0077180806547403336
end
