version,3.0
numOfCh,1
type,point
parent_name,200-cuts
ch_type,1_1
kcount,1
numberNandB,1
brightnessNandB,1
carpet pos,0
pc,0
Time (ms),CH1 Auto-Correlation
1.0,0.0638347864151001
2.0,0.06261802464723587
3.0,0.06143411248922348
4.0,0.06029892712831497
5.0,0.05918978154659271
6.0,0.05814939737319946
7.0,0.05713846534490585
8.0,0.05614659935235977
9.0,0.05515759810805321
10.0,0.054175809025764465
11.0,0.05320723354816437
12.0,0.05231086164712906
13.0,0.05143481865525246
14.0,0.05057070031762123
15.0,0.04971619322896004
16.0,0.04889937862753868
18.0,0.04733164608478546
20.0,0.04586375132203102
22.0,0.04448314383625984
24.0,0.04318863898515701
26.0,0.04199723154306412
28.0,0.04078258201479912
30.0,0.03956083580851555
32.0,0.0383697934448719
36.0,0.036123890429735184
40.0,0.03408303111791611
44.0,0.03216732293367386
48.0,0.03021353855729103
52.0,0.02822619490325451
56.0,0.026361798867583275
60.0,0.024539580568671227
64.0,0.022675499320030212
72.0,0.01952275075018406
80.0,0.01693728379905224
88.0,0.014307530596852303
96.0,0.011920243501663208
104.0,0.009921399876475334
112.0,0.008179041557013988
120.0,0.007202960550785065
128.0,0.006700634956359863
144.0,0.0055404300801455975
160.0,0.0037552458234131336
176.0,0.002258649095892906
192.0,0.0010796411661431193
208.0,0.0002666009240783751
224.0,-0.0010085668182000518
240.0,-0.0030303688254207373
256.0,-0.0034088599495589733
288.0,-0.0032343489583581686
320.0,-0.0051024192944169044
352.0,-0.007248476147651672
384.0,-0.008941984735429287
416.0,-0.011025912128388882
448.0,-0.011527439579367638
480.0,-0.011671110056340694
512.0,-0.009801596403121948
576.0,-0.005178268998861313
640.0,-0.0008433845359832048
704.0,0.0001418508036294952
768.0,0.0008147389744408429
832.0,0.003303071716800332
896.0,0.0048752655275166035
960.0,0.0038933786563575268
1024.0,0.0007807359797880054
1152.0,-0.002460566582158208
1280.0,-0.0004532828170340508
1408.0,0.001508224755525589
1536.0,0.00400499114766717
1664.0,-0.00015269765572156757
1792.0,-0.007867091335356236
1920.0,-0.006781704258173704
2048.0,-0.001729228300973773
2304.0,0.0026343753561377525
2560.0,-0.002090619644150138
2816.0,-0.0005731829442083836
3072.0,-0.0027554957196116447
3328.0,-0.005195987410843372
3584.0,0.004447149112820625
3840.0,0.005143408663570881
4096.0,-0.007614615838974714
4608.0,0.004146570339798927
5120.0,-0.0002739325282163918
5632.0,-0.0034595357719808817
6144.0,0.006967366673052311
6656.0,-0.0025011366233229637
7168.0,0.0004763996403198689
7680.0,-0.0019526657415553927
8192.0,-0.0009128760430030525
9216.0,0.0005276625161059201
10240.0,-0.0002795014588627964
11264.0,-0.0003051077073905617
12288.0,-0.0005508839967660606
13312.0,0.0010368196526542306
14336.0,5.0654321967158467e-05
end
