version,3.0
numOfCh,1
type,point
parent_name,200-cuts
ch_type,1_1
kcount,1
numberNandB,1
brightnessNandB,1
carpet pos,0
pc,0
Time (ms),CH1 Auto-Correlation
1.0,0.0736222043633461
2.0,0.07226531952619553
3.0,0.07094437628984451
4.0,0.0696251317858696
5.0,0.06830957531929016
6.0,0.06702490150928497
7.0,0.06573701649904251
8.0,0.06447315961122513
9.0,0.06327023357152939
10.0,0.06210112199187279
11.0,0.060954369604587555
12.0,0.05979331582784653
13.0,0.05866008996963501
14.0,0.0575430803000927
15.0,0.0564584955573082
16.0,0.055378612130880356
18.0,0.05323128029704094
20.0,0.051158346235752106
22.0,0.04912780225276947
24.0,0.04716016352176666
26.0,0.045326028019189835
28.0,0.0435357429087162
30.0,0.04184350743889809
32.0,0.040294963866472244
36.0,0.037636786699295044
40.0,0.03530408442020416
44.0,0.033098526298999786
48.0,0.030904263257980347
52.0,0.02892399951815605
56.0,0.027087073773145676
60.0,0.0254864152520895
64.0,0.024016274139285088
72.0,0.021152038127183914
80.0,0.018364666029810905
88.0,0.015838410705327988
96.0,0.013519824482500553
104.0,0.0120926508679986
112.0,0.01159436535090208
120.0,0.010941730812191963
128.0,0.010151985101401806
144.0,0.008827002719044685
160.0,0.007443414069712162
176.0,0.006240867543965578
192.0,0.005040320102125406
208.0,0.003277443815022707
224.0,0.0004207323945593089
240.0,3.067517536692321e-05
256.0,0.0009217007900588214
288.0,0.0026147838216274977
320.0,0.0046749114990234375
352.0,0.006813005544245243
384.0,0.006305305287241936
416.0,0.004507443867623806
448.0,0.003738401923328638
480.0,0.0036153970286250114
512.0,0.00307012302801013
576.0,0.0011424071853980422
640.0,-0.002156599657610059
704.0,0.00214380188845098
768.0,0.003832510905340314
832.0,0.0017596567049622536
896.0,-0.0001988248259294778
960.0,-0.008084969595074654
1024.0,-0.005246208515018225
1152.0,-0.0014192162780091166
1280.0,-0.003039236646145582
1408.0,-0.003945501055568457
1536.0,-0.005274113733321428
1664.0,-0.005104527343064547
1792.0,-0.00393186928704381
1920.0,0.0003936950524803251
2048.0,0.001224015955813229
2304.0,0.0059037464670836926
2560.0,-0.0005483344430103898
2816.0,-0.00031433155527338386
3072.0,-0.0003242569509893656
3328.0,-0.0018105964409187436
3584.0,-0.00942685641348362
3840.0,-0.005440285429358482
4096.0,-0.003964799456298351
4608.0,0.0011810555588454008
5120.0,-0.0020172724034637213
5632.0,-0.0012698029167950153
6144.0,-0.004997991491109133
6656.0,0.0013310948852449656
7168.0,0.0019655991345643997
7680.0,0.005610867869108915
8192.0,-0.0018338707741349936
9216.0,0.0014604362659156322
10240.0,0.002931860275566578
11264.0,-0.0005859847879037261
12288.0,-0.0038072902243584394
13312.0,-0.0023492861073464155
14336.0,0.00666392408311367
end
