version,3.0
numOfCh,1
type,point
parent_name,200-cuts
ch_type,1_1
kcount,1
numberNandB,1
brightnessNandB,1
carpet pos,0
pc,0
Time (ms),CH1 Auto-Correlation
1.0,0.0700172632932663
2.0,0.06849891692399979
3.0,0.06701885163784027
4.0,0.06560052186250687
5.0,0.06421321630477905
6.0,0.06280119717121124
7.0,0.06140733137726784
8.0,0.060058675706386566
9.0,0.05872882902622223
10.0,0.057400867342948914
11.0,0.056124527007341385
12.0,0.05488793924450874
13.0,0.05370556563138962
14.0,0.05258585140109062
15.0,0.05150056630373001
16.0,0.05041461065411568
18.0,0.0482371523976326
20.0,0.04614406079053879
22.0,0.04415992647409439
24.0,0.04226066917181015
26.0,0.04043019935488701
28.0,0.038689013570547104
30.0,0.036992914974689484
32.0,0.035424571484327316
36.0,0.0325036384165287
40.0,0.029927274212241173
44.0,0.02750154212117195
48.0,0.0253217164427042
52.0,0.02353217639029026
56.0,0.021967532113194466
60.0,0.020401380956172943
64.0,0.018845923244953156
72.0,0.016089309006929398
80.0,0.013610615395009518
88.0,0.011592532508075237
96.0,0.00992322526872158
104.0,0.008682933636009693
112.0,0.007961839437484741
120.0,0.00778986606746912
128.0,0.00759280426427722
144.0,0.00657549686729908
160.0,0.004297230392694473
176.0,0.0029450824949890375
192.0,0.00351685076020658
208.0,0.0044249421916902065
224.0,0.004362497478723526
240.0,0.004212558269500732
256.0,0.0028555525932461023
288.0,-0.0008593232487328351
320.0,-0.003964030649513006
352.0,-0.003141746623441577
384.0,-0.002155681373551488
416.0,-0.00069848308339715
448.0,0.0028526184614747763
480.0,0.004618183709681034
512.0,0.0021201716735959053
576.0,-0.0018999851308763027
640.0,-0.003971314989030361
704.0,-0.0031268696766346693
768.0,-0.0015133117558434606
832.0,-0.001927339588291943
896.0,0.00239850883372128
960.0,0.0006164504447951913
1024.0,-0.0014564857119694352
1152.0,-0.0025786992628127337
1280.0,0.00010976263001793995
1408.0,-0.004526686388999224
1536.0,-5.7745168305700645e-05
1664.0,-0.00037059426540508866
1792.0,-0.0020634096581488848
1920.0,-0.0033600598108023405
2048.0,0.004001277964562178
2304.0,0.0001952053717104718
2560.0,-0.002843061462044716
2816.0,-0.0036950651556253433
3072.0,0.0011539595434442163
3328.0,0.0023821552749723196
3584.0,-0.002194235334172845
3840.0,-0.004558183718472719
4096.0,0.0012082525063306093
4608.0,-0.0010438652243465185
5120.0,0.00011627658386714756
5632.0,-0.0010736814001575112
6144.0,-0.0038637605030089617
6656.0,-0.0017401872901245952
7168.0,0.004003121517598629
7680.0,0.0004732611996587366
8192.0,0.00038686784682795405
9216.0,0.005438950378447771
10240.0,-0.0037389639765024185
11264.0,-0.0019699002150446177
12288.0,0.002557208063080907
13312.0,-0.0025528327096253633
14336.0,-0.0023686722852289677
end
