version,3.0
numOfCh,1
type,point
parent_name,200-cuts
ch_type,1_1
kcount,1
numberNandB,1
brightnessNandB,1
carpet pos,0
pc,0
Time (ms),CH1 Auto-Correlation
1.0,0.06688529998064041
2.0,0.06547987461090088
3.0,0.06408017128705978
4.0,0.06271754950284958
5.0,0.06138928607106209
6.0,0.06007138639688492
7.0,0.05876126512885094
8.0,0.05748753994703293
9.0,0.05624917894601822
10.0,0.05501353368163109
11.0,0.05376872792840004
12.0,0.05258707329630852
13.0,0.05141926184296608
14.0,0.050288617610931396
15.0,0.049183573573827744
16.0,0.048103004693984985
18.0,0.04605288803577423
20.0,0.04414874687790871
22.0,0.04229777306318283
24.0,0.0405166856944561
26.0,0.03886589780449867
28.0,0.037356264889240265
30.0,0.035933710634708405
32.0,0.03452339395880699
36.0,0.03193799778819084
40.0,0.029717009514570236
44.0,0.027987200766801834
48.0,0.026306340470910072
52.0,0.024605583399534225
56.0,0.022978704422712326
60.0,0.021541979163885117
64.0,0.020208928734064102
72.0,0.017420455813407898
80.0,0.015036950819194317
88.0,0.012730312533676624
96.0,0.010536696761846542
104.0,0.008514280430972576
112.0,0.00657240953296423
120.0,0.004878027364611626
128.0,0.0037943865172564983
144.0,0.0030142231844365597
160.0,0.001898583141155541
176.0,0.0008850357844494283
192.0,-0.00021107724751345813
208.0,-0.0009139023604802787
224.0,-0.0016833749832585454
240.0,-0.0020632415544241667
256.0,-0.0007563980179838836
288.0,0.0015776408836245537
320.0,0.002514562336727977
352.0,0.0025483036879450083
384.0,0.000624685431830585
416.0,0.0017933491617441177
448.0,0.002526575932279229
480.0,0.002334772842004895
512.0,0.0006916137062944472
576.0,0.00031531299464404583
640.0,0.0009002519655041397
704.0,-0.0004929399001412094
768.0,-0.0023247478529810905
832.0,-0.003215267090126872
896.0,-0.001738520571961999
960.0,-0.00037779781268909574
1024.0,-0.003740208689123392
1152.0,-0.002093417104333639
1280.0,0.0011871879687532783
1408.0,-0.0021796326618641615
1536.0,-0.0075965262949466705
1664.0,-0.002369627123698592
1792.0,-0.0009841963183134794
1920.0,-0.002171445172280073
2048.0,-0.0011424802942201495
2304.0,0.0013912224676460028
2560.0,0.0027884638402611017
2816.0,-0.0011209367075935006
3072.0,0.0007184553542174399
3328.0,0.0005223316256888211
3584.0,-0.0023214779794216156
3840.0,-9.156115265795961e-05
4096.0,-0.004850335419178009
4608.0,-0.0041416422463953495
5120.0,-0.0007402670453302562
5632.0,0.004382477607578039
6144.0,0.0032748207449913025
6656.0,0.0006985592772252858
7168.0,0.0006000458379276097
7680.0,0.0007394495187327266
8192.0,0.0028133054729551077
9216.0,-0.0022512220311909914
10240.0,-0.0012386096641421318
11264.0,-0.0017642067978158593
12288.0,-0.0013799373991787434
13312.0,0.007971102371811867
14336.0,-0.00456929299980402
end
