version,3.0
numOfCh,1
type,point
parent_name,200-cuts
ch_type,1_1
kcount,1
numberNandB,1
brightnessNandB,1
carpet pos,0
pc,0
Time (ms),CH1 Auto-Correlation
1.0,0.06352914869785309
2.0,0.062224380671978
3.0,0.06094915419816971
4.0,0.05966588109731674
5.0,0.058406587690114975
6.0,0.05718180909752846
7.0,0.05598117411136627
8.0,0.05477627366781235
9.0,0.05359089374542236
10.0,0.05242505297064781
11.0,0.051286667585372925
12.0,0.050158895552158356
13.0,0.049057502299547195
14.0,0.048005111515522
15.0,0.046975068747997284
16.0,0.04595586284995079
18.0,0.044028881937265396
20.0,0.04223088547587395
22.0,0.040476441383361816
24.0,0.0388190820813179
26.0,0.03726102411746979
28.0,0.035807013511657715
30.0,0.034430306404829025
32.0,0.03317209705710411
36.0,0.030817773193120956
40.0,0.028694380074739456
44.0,0.026821520179510117
48.0,0.02513168379664421
52.0,0.02356988564133644
56.0,0.022026052698493004
60.0,0.020453382283449173
64.0,0.018954165279865265
72.0,0.01617881841957569
80.0,0.013651362620294094
88.0,0.011516600847244263
96.0,0.00973797682672739
104.0,0.007944933138787746
112.0,0.0063103861175477505
120.0,0.005392226856201887
128.0,0.00538574019446969
144.0,0.004881687927991152
160.0,0.00380686204880476
176.0,0.002422061748802662
192.0,0.0014386100228875875
208.0,0.0007125309784896672
224.0,0.0005858964868821204
240.0,0.0008033053600229323
256.0,0.0009580680052749813
288.0,0.0014793783193454146
320.0,0.0002841067034751177
352.0,-0.0017160366987809539
384.0,-0.004405360668897629
416.0,-0.0034598459023982286
448.0,-0.0023305469658225775
480.0,-0.0039540682919323444
512.0,-0.005704578943550587
576.0,-0.0021101245656609535
640.0,0.0017706401413306594
704.0,0.0018563407938927412
768.0,0.0004088811401743442
832.0,5.688778037438169e-05
896.0,1.7652582755545154e-05
960.0,0.0008366697002202272
1024.0,-0.0009582211496308446
1152.0,-0.0012514968402683735
1280.0,-0.003078840672969818
1408.0,-0.00014760230260435492
1536.0,-0.0007509512943215668
1664.0,-0.0034664091654121876
1792.0,-0.001781419850885868
1920.0,-0.001471604802645743
2048.0,-0.0001352003455394879
2304.0,-0.0007231932249851525
2560.0,-0.005183946341276169
2816.0,0.0023866849951446056
3072.0,-0.0011731216218322515
3328.0,-0.003877555252984166
3584.0,0.001493626506999135
3840.0,0.0024600238539278507
4096.0,-2.0573965230141766e-05
4608.0,0.0008887451840564609
5120.0,-0.0005155957769602537
5632.0,0.00036996533162891865
6144.0,0.0013262830907478929
6656.0,0.0006169312400743365
7168.0,0.0006061579333618283
7680.0,-0.0003626476682256907
8192.0,-0.0015939337899908423
9216.0,-0.001399841858074069
10240.0,0.0014337811153382063
11264.0,0.004014167468994856
12288.0,-0.003809360321611166
13312.0,-0.0025939946062862873
14336.0,0.0017381884390488267
end
