version,3.0
numOfCh,1
type,point
parent_name,200-cuts
ch_type,1_1
kcount,1
numberNandB,1
brightnessNandB,1
carpet pos,0
pc,0
Time (ms),CH1 Auto-Correlation
1.0,0.039904024451971054
2.0,0.039218999445438385
3.0,0.038555972278118134
4.0,0.037887077778577805
5.0,0.0372341088950634
6.0,0.03658289462327957
7.0,0.03595294803380966
8.0,0.0353463776409626
9.0,0.03474205359816551
10.0,0.03415297344326973
11.0,0.033567216247320175
12.0,0.03298769146203995
13.0,0.03242328390479088
14.0,0.03186504915356636
15.0,0.03129398077726364
16.0,0.030729373916983604
18.0,0.02963666245341301
20.0,0.02857697196304798
22.0,0.027578741312026978
24.0,0.026636671274900436
26.0,0.025720663368701935
28.0,0.024867089465260506
30.0,0.024091798812150955
32.0,0.023325100541114807
36.0,0.021836213767528534
40.0,0.020456984639167786
44.0,0.019244814291596413
48.0,0.018116600811481476
52.0,0.017102262005209923
56.0,0.01620069146156311
60.0,0.015450870618224144
64.0,0.014737202785909176
72.0,0.013161072507500648
80.0,0.011554836295545101
88.0,0.010197979398071766
96.0,0.008811064064502716
104.0,0.007638918235898018
112.0,0.0065166582353413105
120.0,0.00565855298191309
128.0,0.004779804032295942
144.0,0.0031340427231043577
160.0,0.0020596447866410017
176.0,0.0011205441551283002
192.0,0.00010816346184583381
208.0,-0.0006928422371856868
224.0,-0.0012983909109607339
240.0,-0.0014770081033930182
256.0,-0.0014661878813058138
288.0,-0.002393728354945779
320.0,-0.0026665532495826483
352.0,-0.0025956600438803434
384.0,-0.0031135492026805878
416.0,-0.002700991230085492
448.0,-0.001961704809218645
480.0,0.00042843440314754844
512.0,0.002217560773715377
576.0,0.004783415701240301
640.0,0.00336204725317657
704.0,0.0008172403904609382
768.0,-0.001542503829114139
832.0,-0.0027236875612288713
896.0,-0.004082561004906893
960.0,-0.0037911157123744488
1024.0,-0.004084497690200806
1152.0,-0.0010825428180396557
1280.0,9.803461580304429e-05
1408.0,0.0009378375834785402
1536.0,0.0020820987410843372
1664.0,-0.0029172850772738457
1792.0,-0.0032868110574781895
1920.0,-0.00307856104336679
2048.0,0.0005693401908501983
2304.0,-0.003643742995336652
2560.0,-0.0020061375107616186
2816.0,0.0008149059722200036
3072.0,0.0003208383568562567
3328.0,0.0012332171900197864
3584.0,0.0001741266023600474
3840.0,-0.0015021561412140727
4096.0,-0.0005304150399751961
4608.0,0.0010655901860445738
5120.0,-0.0004512372543103993
5632.0,0.00011375994654372334
6144.0,0.0019341247389093041
6656.0,-0.001122735091485083
7168.0,-0.001881187898106873
7680.0,0.002148725325241685
8192.0,-0.000459644797956571
9216.0,0.0003821084392257035
10240.0,-0.0015181428752839565
11264.0,-0.0023188781924545765
12288.0,0.0050409832037985325
13312.0,-0.0031530309934169054
14336.0,4.391091351862997e-05
end
