version,3.0
numOfCh,1
type,point
parent_name,200-cuts
ch_type,1_1
kcount,1
numberNandB,1
brightnessNandB,1
carpet pos,0
pc,0
Time (ms),CH1 Auto-Correlation
1.0,0.05393511429429054
2.0,0.05294452980160713
3.0,0.051960114389657974
4.0,0.050996918231248856
5.0,0.050063736736774445
6.0,0.04917208477854729
7.0,0.04828880727291107
8.0,0.04742756113409996
9.0,0.04657711461186409
10.0,0.04572068527340889
11.0,0.04488334804773331
12.0,0.04408075287938118
13.0,0.0433015339076519
14.0,0.042506590485572815
15.0,0.041751712560653687
16.0,0.040986042469739914
18.0,0.03951233997941017
20.0,0.03805162012577057
22.0,0.03665723651647568
24.0,0.03527752682566643
26.0,0.0339219830930233
28.0,0.032591573894023895
30.0,0.03132728487253189
32.0,0.030085131525993347
36.0,0.027762219309806824
40.0,0.025607915595173836
44.0,0.023635007441043854
48.0,0.021837398409843445
52.0,0.0201729703694582
56.0,0.018722251057624817
60.0,0.01745772920548916
64.0,0.016181884333491325
72.0,0.013967366889119148
80.0,0.011737145483493805
88.0,0.009732242673635483
96.0,0.008485195226967335
104.0,0.007617861498147249
112.0,0.00677084643393755
120.0,0.00623090285807848
128.0,0.0059991381131112576
144.0,0.006096232682466507
160.0,0.006573645863682032
176.0,0.00641816109418869
192.0,0.005603886675089598
208.0,0.004261013586074114
224.0,0.0032716221176087856
240.0,0.0030207191593945026
256.0,0.0030086212791502476
288.0,0.003932257182896137
320.0,0.005770990625023842
352.0,0.004507400561124086
384.0,0.002351620700210333
416.0,-0.0003570165717974305
448.0,-0.001449792762286961
480.0,-0.0007181791006587446
512.0,-0.0006034279358573258
576.0,-0.0018621399067342281
640.0,-0.00325262313708663
704.0,-0.002849423326551914
768.0,-0.001393350656144321
832.0,-3.0038308977964334e-05
896.0,0.001991960220038891
960.0,-0.0004013858560938388
1024.0,-0.0017822914524003863
1152.0,-0.00010411771654617041
1280.0,0.0011004627449437976
1408.0,0.00021908867347519845
1536.0,-0.0021072106901556253
1664.0,0.00234290212392807
1792.0,0.003030881518498063
1920.0,0.004076916258782148
2048.0,0.005196206271648407
2304.0,-0.0011213539401069283
2560.0,-0.001588637474924326
2816.0,-0.00299595738761127
3072.0,-0.0008374925237149
3328.0,-0.00013198555097915232
3584.0,0.005561125464737415
3840.0,0.004908906761556864
4096.0,0.0005496064550243318
4608.0,-0.005291578825563192
5120.0,-0.002515143249183893
5632.0,-0.0002575069956947118
6144.0,0.0006040938897058368
6656.0,-0.0020500929094851017
7168.0,0.0014536358648911119
7680.0,0.0027758264914155006
8192.0,-0.0025681578554213047
9216.0,-0.003156807739287615
10240.0,-0.00044801534386351705
11264.0,-0.003068705787882209
12288.0,-0.000871148076839745
13312.0,0.0014581548748537898
14336.0,-0.000521642854437232
end
