version,3.0
numOfCh,1
type,point
parent_name,200-cuts
ch_type,1_1
kcount,1
numberNandB,1
brightnessNandB,1
carpet pos,0
pc,0
Time (ms),CH1 Auto-Correlation
1.0,0.06836447864770889
2.0,0.06686434894800186
3.0,0.06541815400123596
4.0,0.0639641284942627
5.0,0.06254937499761581
6.0,0.06114096939563751
7.0,0.059756357222795486
8.0,0.058411259204149246
9.0,0.057069942355155945
10.0,0.05573878809809685
11.0,0.0544351190328598
12.0,0.053109534084796906
13.0,0.051839519292116165
14.0,0.050593260675668716
15.0,0.04936746135354042
16.0,0.04815928637981415
18.0,0.045808132737874985
20.0,0.04350867122411728
22.0,0.04133441671729088
24.0,0.03931775316596031
26.0,0.0374220572412014
28.0,0.035672418773174286
30.0,0.033989399671554565
32.0,0.03228900581598282
36.0,0.029029449447989464
40.0,0.025967145338654518
44.0,0.023119812831282616
48.0,0.020563220605254173
52.0,0.018280407413840294
56.0,0.016257788985967636
60.0,0.014470317400991917
64.0,0.012837941758334637
72.0,0.010148461908102036
80.0,0.00795719213783741
88.0,0.006032058969140053
96.0,0.004806006792932749
104.0,0.0034555525053292513
112.0,0.0020363731309771538
120.0,0.0010117636993527412
128.0,2.575947655714117e-05
144.0,-0.0024866140447556973
160.0,-0.003719107713550329
176.0,-0.0024390583857893944
192.0,-0.0011961573036387563
208.0,-0.00027183376369066536
224.0,-0.0003274616610724479
240.0,-5.726823292206973e-05
256.0,-0.0003479242732282728
288.0,-0.0015198523178696632
320.0,-0.004206392914056778
352.0,-0.004599644336849451
384.0,-0.005191292148083448
416.0,-0.005554815288633108
448.0,-0.005232442636042833
480.0,-0.003639982780441642
512.0,-0.0018139167223125696
576.0,-0.0010068401461467147
640.0,-0.0019834875129163265
704.0,0.005504537373781204
768.0,0.0054906499572098255
832.0,0.00019244026043452322
896.0,-0.0002650861570145935
960.0,0.0012658692430704832
1024.0,-0.005485495552420616
1152.0,-0.0014815356116741896
1280.0,-0.002142815152183175
1408.0,-0.00013881578342989087
1536.0,0.0022734948433935642
1664.0,0.005400932393968105
1792.0,0.00043577412725426257
1920.0,-0.0031305155716836452
2048.0,0.0015387055464088917
2304.0,0.0009569530957378447
2560.0,0.0007236587116494775
2816.0,-0.004889660980552435
3072.0,0.0005319342599250376
3328.0,-0.0020442334935069084
3584.0,0.0007244879379868507
3840.0,0.002548579126596451
4096.0,0.00047472002916038036
4608.0,-0.0024468505289405584
5120.0,-0.0031111000571399927
5632.0,0.0002486574521753937
6144.0,4.139451993978582e-05
6656.0,-0.0008169481880031526
7168.0,0.0021473681554198265
7680.0,-0.0010994907934218645
8192.0,0.001407403964549303
9216.0,0.0013078901683911681
10240.0,0.0010234276996925473
11264.0,-0.0007762843160890043
12288.0,-0.0012855889508500695
13312.0,-0.0005617914721369743
14336.0,-0.0025815230328589678
end
