version,3.0
numOfCh,1
type,point
parent_name,200-cuts
ch_type,1_1
kcount,1
numberNandB,1
brightnessNandB,1
carpet pos,0
pc,0
Time (ms),CH1 Auto-Correlation
1.0,0.09129741042852402
2.0,0.08991223573684692
3.0,0.08856894820928574
4.0,0.08725260198116302
5.0,0.08593177050352097
6.0,0.08462920039892197
7.0,0.08334636688232422
8.0,0.08208059519529343
9.0,0.08082544058561325
10.0,0.07956399768590927
11.0,0.07832805067300797
12.0,0.0771256536245346
13.0,0.07594810426235199
14.0,0.07477648556232452
15.0,0.07364679872989655
16.0,0.07256601005792618
18.0,0.0704151839017868
20.0,0.06835242360830307
22.0,0.06643623858690262
24.0,0.06477893888950348
26.0,0.0631166473031044
28.0,0.061491210013628006
30.0,0.059899091720581055
32.0,0.05842392146587372
36.0,0.05579058825969696
40.0,0.0532672293484211
44.0,0.05074426531791687
48.0,0.04831906408071518
52.0,0.04624048247933388
56.0,0.04414891079068184
60.0,0.042106445878744125
64.0,0.040051620453596115
72.0,0.036377083510160446
80.0,0.03327632322907448
88.0,0.03033699467778206
96.0,0.027783386409282684
104.0,0.025334753096103668
112.0,0.023038122802972794
120.0,0.02128595858812332
128.0,0.01987737976014614
144.0,0.017778627574443817
160.0,0.015883326530456543
176.0,0.013664202764630318
192.0,0.012213100679218769
208.0,0.01144222542643547
224.0,0.011072991415858269
240.0,0.010655436664819717
256.0,0.009831863455474377
288.0,0.00766251003369689
320.0,0.005740536376833916
352.0,0.0019020733889192343
384.0,0.0007491554133594036
416.0,0.0025115625467151403
448.0,0.0007887726533226669
480.0,-0.00036408903542906046
512.0,-0.0028290392365306616
576.0,-0.0020166996400803328
640.0,-0.0016058500623330474
704.0,0.000875283672939986
768.0,0.0024929987266659737
832.0,-0.0012431666254997253
896.0,-0.0022965767420828342
960.0,0.002194278407841921
1024.0,0.005573845002800226
1152.0,0.004001780413091183
1280.0,0.0006012992234900594
1408.0,0.0004584846319630742
1536.0,-0.007720152847468853
1664.0,-0.007173182442784309
1792.0,0.0018749547889456153
1920.0,0.0017131315544247627
2048.0,-0.004747150465846062
2304.0,-0.007026215083897114
2560.0,-0.008706804364919662
2816.0,0.0023757468443363905
3072.0,0.006957590114325285
3328.0,-0.0015891033690422773
3584.0,-0.007129186764359474
3840.0,0.00066663435427472
4096.0,0.001261415658518672
4608.0,-0.004425040911883116
5120.0,-0.0007518288912251592
5632.0,-0.008847585879266262
6144.0,0.002288894960656762
6656.0,0.006399500649422407
7168.0,0.0005484527791850269
7680.0,-0.0031181927770376205
8192.0,0.0032749371603131294
9216.0,0.008460350334644318
10240.0,-0.003856868948787451
11264.0,-0.006831178441643715
12288.0,-0.002131591085344553
13312.0,-0.004515345674008131
14336.0,-0.011784031055867672
end
