version,3.0
numOfCh,1
type,point
parent_name,200-cuts
ch_type,1_1
kcount,1
numberNandB,1
brightnessNandB,1
carpet pos,0
pc,0
Time (ms),CH1 Auto-Correlation
1.0,0.06403360515832901
2.0,0.06265274435281754
3.0,0.06130356341600418
4.0,0.05996183678507805
5.0,0.05865655466914177
6.0,0.057451147586107254
7.0,0.05626765266060829
8.0,0.05510028079152107
9.0,0.05393591895699501
10.0,0.05279456079006195
11.0,0.05172475054860115
12.0,0.0506625697016716
13.0,0.04964382201433182
14.0,0.048699479550123215
15.0,0.04777078330516815
16.0,0.04688131436705589
18.0,0.04516187310218811
20.0,0.04356152191758156
22.0,0.04193510487675667
24.0,0.04037000238895416
26.0,0.0389421172440052
28.0,0.037595346570014954
30.0,0.03633253276348114
32.0,0.03520633652806282
36.0,0.033050406724214554
40.0,0.030954914167523384
44.0,0.0290520042181015
48.0,0.027416756376624107
52.0,0.025940492749214172
56.0,0.024547088891267776
60.0,0.023209083825349808
64.0,0.021587762981653214
72.0,0.01833134889602661
80.0,0.015331795439124107
88.0,0.012958367355167866
96.0,0.01108503993600607
104.0,0.00957302562892437
112.0,0.008102252148091793
120.0,0.006748500280082226
128.0,0.005907050799578428
144.0,0.004828852601349354
160.0,0.002920865546911955
176.0,0.001821481273509562
192.0,0.0017271508695557714
208.0,0.0012951066019013524
224.0,0.000958892167545855
240.0,0.0005479054525494576
256.0,-0.000390840315958485
288.0,-0.003286506747826934
320.0,-0.004846781026571989
352.0,-0.005543213337659836
384.0,-0.005866493098437786
416.0,-0.0049782427959144115
448.0,-0.003113742917776108
480.0,-0.0036917568650096655
512.0,-0.0037146981339901686
576.0,-0.00282131670974195
640.0,-0.0012633409351110458
704.0,0.0009768884629011154
768.0,0.001426584436558187
832.0,-0.00039246148662641644
896.0,-0.000600036233663559
960.0,-0.00272349757142365
1024.0,-0.001879133633337915
1152.0,0.0032730470411479473
1280.0,0.0053172786720097065
1408.0,0.001217126613482833
1536.0,-0.0009730499587021768
1664.0,-0.003056037239730358
1792.0,-0.00024058541748672724
1920.0,-0.0008261047187261283
2048.0,-0.001020582509227097
2304.0,-0.0008681545150466263
2560.0,0.0019181538373231888
2816.0,-0.002910724375396967
3072.0,-0.0016367831267416477
3328.0,-0.0020424677059054375
3584.0,-0.0023681565653532743
3840.0,-0.0012875968823209405
4096.0,0.002620405051857233
4608.0,-0.0009212649893015623
5120.0,0.000679879798553884
5632.0,0.001145276939496398
6144.0,-0.0005903422716073692
6656.0,-0.0015436136163771152
7168.0,0.0012978912563994527
7680.0,0.0027196661103516817
8192.0,-0.0005568093038164079
9216.0,-2.6750458346214145e-05
10240.0,-0.002742752665653825
11264.0,0.000783976458478719
12288.0,-0.0006636583129875362
13312.0,0.002250646473839879
14336.0,-0.0008132169023156166
end
