version,3.0
numOfCh,1
type,point
parent_name,200-cuts
ch_type,1_1
kcount,1
numberNandB,1
brightnessNandB,1
carpet pos,0
pc,0
Time (ms),CH1 Auto-Correlation
1.0,0.03423156589269638
2.0,0.03359260782599449
3.0,0.03295848146080971
4.0,0.032339129596948624
5.0,0.03171737864613533
6.0,0.0310968067497015
7.0,0.030491678044199944
8.0,0.02989102341234684
9.0,0.02930312417447567
10.0,0.028724299743771553
11.0,0.028148747980594635
12.0,0.027591170743107796
13.0,0.02703940123319626
14.0,0.026511460542678833
15.0,0.025974193587899208
16.0,0.02543974481523037
18.0,0.02438656985759735
20.0,0.02336529642343521
22.0,0.0223759263753891
24.0,0.021402020007371902
26.0,0.02048698626458645
28.0,0.019630510360002518
30.0,0.01882108300924301
32.0,0.018020974472165108
36.0,0.01660933718085289
40.0,0.015404708683490753
44.0,0.014454052783548832
48.0,0.013679048046469688
52.0,0.012950561009347439
56.0,0.012250991538167
60.0,0.01155771967023611
64.0,0.010902786627411842
72.0,0.009955746121704578
80.0,0.009023136459290981
88.0,0.007994746789336205
96.0,0.00710548460483551
104.0,0.006406551692634821
112.0,0.005661405622959137
120.0,0.004986671730875969
128.0,0.004438146483153105
144.0,0.0038665574975311756
160.0,0.003792713163420558
176.0,0.0034839657600969076
192.0,0.0026826614048331976
208.0,0.001889494014903903
224.0,0.002129070460796356
240.0,0.002529131481423974
256.0,0.0024783301632851362
288.0,0.0019482619827613235
320.0,0.00013334462710190564
352.0,-0.0012771168258041143
384.0,-0.0009498677682131529
416.0,-0.0005042963894084096
448.0,0.0002614780387375504
480.0,-3.437665327510331e-06
512.0,-0.0002718874020501971
576.0,0.0005273338174447417
640.0,0.00019530045392457396
704.0,-9.172096906695515e-05
768.0,-0.001814295188523829
832.0,-0.0024362560361623764
896.0,-0.0005412842147052288
960.0,-0.00015915479161776602
1024.0,-0.002343576867133379
1152.0,-0.004479973576962948
1280.0,-0.003884774399921298
1408.0,-0.002617856487631798
1536.0,-0.0013708139304071665
1664.0,-0.0010224950965493917
1792.0,0.00088783836690709
1920.0,0.0012898611603304744
2048.0,-0.0005611347150988877
2304.0,-0.001514235744252801
2560.0,0.000990153755992651
2816.0,0.0021398570388555527
3072.0,-5.330287604010664e-05
3328.0,0.0009235515026375651
3584.0,-0.004169754683971405
3840.0,-0.002361465012654662
4096.0,-0.0010839002206921577
4608.0,0.0045039476826786995
5120.0,0.0020150032360106707
5632.0,-0.0010662419954314828
6144.0,-0.0034229159355163574
6656.0,-0.003880736418068409
7168.0,0.0011586617911234498
7680.0,0.0047158896923065186
8192.0,-0.0007182239787653089
9216.0,0.0006915035773999989
10240.0,0.0003323752316646278
11264.0,-0.003280733246356249
12288.0,0.004089190158993006
13312.0,-0.0007109829457476735
14336.0,-0.003841812489554286
end
