version,3.0
numOfCh,1
type,point
parent_name,200-cuts
ch_type,1_1
kcount,1
numberNandB,1
brightnessNandB,1
carpet pos,0
pc,0
Time (ms),CH1 Auto-Correlation
1.0,0.05341796949505806
2.0,0.05230303108692169
3.0,0.05122503638267517
4.0,0.05014340206980705
5.0,0.0491136871278286
6.0,0.04809503257274628
7.0,0.04706747084856033
8.0,0.04604366421699524
9.0,0.04500580579042435
10.0,0.044021088629961014
11.0,0.04308568686246872
12.0,0.04215626418590546
13.0,0.04125317558646202
14.0,0.04037651792168617
15.0,0.03950255736708641
16.0,0.0386429987847805
18.0,0.03699921816587448
20.0,0.03545985370874405
22.0,0.033979155123233795
24.0,0.03253130614757538
26.0,0.031043635681271553
28.0,0.02955513447523117
30.0,0.02816651575267315
32.0,0.026903487741947174
36.0,0.0246298685669899
40.0,0.022588761523365974
44.0,0.020763952285051346
48.0,0.019097991287708282
52.0,0.01741773448884487
56.0,0.015959518030285835
60.0,0.014599524438381195
64.0,0.013265222311019897
72.0,0.010460905730724335
80.0,0.008162293583154678
88.0,0.006569645833224058
96.0,0.005408771336078644
104.0,0.00459198048338294
112.0,0.003864757250994444
120.0,0.0031900752801448107
128.0,0.003047840902581811
144.0,0.002232411876320839
160.0,0.002427858067676425
176.0,0.0031244733836501837
192.0,0.003939749673008919
208.0,0.003406920935958624
224.0,0.0035791874397546053
240.0,0.0038718348369002342
256.0,0.0029763011261820793
288.0,0.0005942711723037064
320.0,-0.0006612968281842768
352.0,-0.002470793668180704
384.0,-0.002840539440512657
416.0,-0.005631164647638798
448.0,-0.008194231428205967
480.0,-0.0059968470595777035
512.0,-0.0027575127314776182
576.0,-0.0019511368591338396
640.0,-0.0033210166729986668
704.0,-0.0028261698316782713
768.0,-0.0011974746594205499
832.0,-0.004289968870580196
896.0,-0.002875625854358077
960.0,-0.0033351299352943897
1024.0,-0.0034471331164240837
1152.0,0.0030504290480166674
1280.0,0.006877272855490446
1408.0,0.00434727082028985
1536.0,8.14117374829948e-05
1664.0,-0.001174326054751873
1792.0,-0.0005703389761038125
1920.0,0.0014223128091543913
2048.0,0.0029417399782687426
2304.0,0.0007378733134828508
2560.0,-0.004706555511802435
2816.0,0.0005377153865993023
3072.0,0.0008565120515413582
3328.0,0.0030069404747337103
3584.0,-0.0004277461557649076
3840.0,-0.0019868859089910984
4096.0,-0.0016304482705891132
4608.0,0.001441838452592492
5120.0,0.002093491144478321
5632.0,-0.003604831639677286
6144.0,-6.938380829524249e-05
6656.0,-0.0005851665628142655
7168.0,-0.000902801810298115
7680.0,-0.0006178394542075694
8192.0,-0.0001650867925491184
9216.0,0.0005301422788761556
10240.0,0.0003939464222639799
11264.0,-3.1386760383611545e-05
12288.0,0.000829365395475179
13312.0,-0.0007241724524646997
14336.0,0.004083528183400631
end
