version,3.0
numOfCh,1
type,point
parent_name,200-cuts
ch_type,1_1
kcount,1
numberNandB,1
brightnessNandB,1
carpet pos,0
pc,0
Time (ms),CH1 Auto-Correlation
1.0,0.024091187864542007
2.0,0.02360108681023121
3.0,0.023119060322642326
4.0,0.022656209766864777
5.0,0.022210590541362762
6.0,0.021761760115623474
7.0,0.021317236125469208
8.0,0.020895298570394516
9.0,0.020472345873713493
10.0,0.020058738067746162
11.0,0.019656140357255936
12.0,0.019255107268691063
13.0,0.018868081271648407
14.0,0.018501270562410355
15.0,0.018144914880394936
16.0,0.01779414527118206
18.0,0.017115162685513496
20.0,0.01645541749894619
22.0,0.01583426259458065
24.0,0.015240943059325218
26.0,0.01465399470180273
28.0,0.014076369814574718
30.0,0.013513044454157352
32.0,0.012981731444597244
36.0,0.011993994005024433
40.0,0.011079128831624985
44.0,0.010271277278661728
48.0,0.009577098302543163
52.0,0.008981212042272091
56.0,0.00844960380345583
60.0,0.00791417621076107
64.0,0.0075131310150027275
72.0,0.006905187852680683
80.0,0.006281475070863962
88.0,0.005698082502931356
96.0,0.005170015152543783
104.0,0.0045624300837516785
112.0,0.003911422565579414
120.0,0.003169518895447254
128.0,0.002527821809053421
144.0,0.0016840033931657672
160.0,0.0012280276278033853
176.0,0.0013058972544968128
192.0,0.0010058411862701178
208.0,0.0009095700224861503
224.0,0.0006631181458942592
240.0,0.0004990242887288332
256.0,6.73462682243553e-06
288.0,-0.0016476085875183344
320.0,-0.0025633012410253286
352.0,-0.002479210030287504
384.0,-0.0021206894889473915
416.0,-0.0017667908687144518
448.0,-0.001346828881651163
480.0,-0.0015966014470905066
512.0,-0.0013921542558819056
576.0,-0.0004986057174392045
640.0,-0.00016556683112867177
704.0,-0.0007358395960181952
768.0,-0.00034106060047633946
832.0,0.0009587533422745764
896.0,0.0007897071773186326
960.0,-0.00021789311722386628
1024.0,0.00029756591538898647
1152.0,-0.002036284189671278
1280.0,-0.0018969873199239373
1408.0,-0.0022415723651647568
1536.0,-0.0015196551103144884
1664.0,-0.0012287460267543793
1792.0,0.0009350774344056845
1920.0,-0.00027240742929279804
2048.0,0.0010864750947803259
2304.0,0.00013253527868073434
2560.0,0.0025902146007865667
2816.0,0.0007797584403306246
3072.0,-0.001270875334739685
3328.0,-0.0018456055549904704
3584.0,0.0005291628767736256
3840.0,-0.00042745022801682353
4096.0,-0.0011909620370715857
4608.0,0.00042607876821421087
5120.0,0.0001849777327151969
5632.0,0.0005851714522577822
6144.0,0.00037386923213489354
6656.0,-0.000279044994385913
7168.0,0.000289363379124552
7680.0,0.00026928394800052047
8192.0,-0.00018772949988488108
9216.0,-0.001218994613736868
10240.0,0.000438365968875587
11264.0,-0.0003950468963012099
12288.0,-0.00020379407214932144
13312.0,0.001865559839643538
14336.0,-0.0007745432667434216
end
