version,3.0
numOfCh,1
type,point
parent_name,200-cuts
ch_type,1_1
kcount,1
numberNandB,1
brightnessNandB,1
carpet pos,0
pc,0
Time (ms),CH1 Auto-Correlation
1.0,0.05201040953397751
2.0,0.05094803869724274
3.0,0.04992731288075447
4.0,0.04890972375869751
5.0,0.047887399792671204
6.0,0.046885836869478226
7.0,0.0458998940885067
8.0,0.04493406414985657
9.0,0.043999336659908295
10.0,0.043095529079437256
11.0,0.042230766266584396
12.0,0.04137858748435974
13.0,0.040540240705013275
14.0,0.03972739353775978
15.0,0.038949694484472275
16.0,0.03815344721078873
18.0,0.03662728890776634
20.0,0.03509298712015152
22.0,0.03357690945267677
24.0,0.03209161013364792
26.0,0.03064807504415512
28.0,0.029313895851373672
30.0,0.0280996672809124
32.0,0.026966238394379616
36.0,0.02483118698000908
40.0,0.022891057655215263
44.0,0.02117546834051609
48.0,0.019639471545815468
52.0,0.018165359273552895
56.0,0.016761822625994682
60.0,0.015556980855762959
64.0,0.014454955235123634
72.0,0.012527353130280972
80.0,0.010824534110724926
88.0,0.009547930210828781
96.0,0.008574951440095901
104.0,0.007919871248304844
112.0,0.007461088243871927
120.0,0.007089234888553619
128.0,0.0068589807488024235
144.0,0.00612496817484498
160.0,0.00615051481872797
176.0,0.006656229496002197
192.0,0.006198766641318798
208.0,0.005657772067934275
224.0,0.005719381384551525
240.0,0.005778120830655098
256.0,0.0056082261726260185
288.0,0.004827762022614479
320.0,0.0025889326352626085
352.0,0.0021004879381507635
384.0,0.0016252560308203101
416.0,0.0031315195374190807
448.0,0.005177222192287445
480.0,0.004179411567747593
512.0,0.005612087436020374
576.0,0.003919132519513369
640.0,0.0037037767469882965
704.0,0.0042665391229093075
768.0,0.004906017333269119
832.0,0.003189149545505643
896.0,0.0034371414221823215
960.0,0.004603177774697542
1024.0,0.0034066138323396444
1152.0,0.0001576671056682244
1280.0,-0.0025347040500491858
1408.0,-0.0021945720072835684
1536.0,-0.002481121337041259
1664.0,5.2986677474109456e-05
1792.0,-0.0015155351720750332
1920.0,-0.004613203927874565
2048.0,-0.006593183148652315
2304.0,-0.004560953937470913
2560.0,-0.0012729524169117212
2816.0,-0.00033917868859134614
3072.0,-0.0026746373623609543
3328.0,0.0036883503198623657
3584.0,0.0038466239348053932
3840.0,0.0036146515049040318
4096.0,0.003720884909853339
4608.0,0.0036670658737421036
5120.0,-0.0009086406789720058
5632.0,-0.001899617025628686
6144.0,-0.0033406405709683895
6656.0,-0.0017193402163684368
7168.0,-0.00015952640387695283
7680.0,0.002465971512719989
8192.0,0.0026980519760400057
9216.0,-0.0018216905882582068
10240.0,-0.007238591089844704
11264.0,-0.0025152971502393484
12288.0,0.002615822246298194
13312.0,-0.0025917391758412123
14336.0,-0.004824008792638779
end
