version,3.0
numOfCh,1
type,point
parent_name,ff67b_0dot069-0dot01
ch_type,1_1
kcount,1
numberNandB,1
brightnessNandB,1
carpet pos,0
pc,0
Time (ms),CH1 Auto-Correlation
1.0,0.03687439486384392
2.0,0.036254819482564926
3.0,0.03565605729818344
4.0,0.035126324743032455
5.0,0.03462834656238556
6.0,0.03416138514876366
7.0,0.03369436785578728
8.0,0.033243514597415924
9.0,0.032802410423755646
10.0,0.03233148902654648
11.0,0.03184199333190918
12.0,0.03136306256055832
13.0,0.03088260628283024
14.0,0.030381042510271072
15.0,0.02990848943591118
16.0,0.029476001858711243
18.0,0.0283065028488636
20.0,0.02735869586467743
22.0,0.026311958208680153
24.0,0.025582285597920418
26.0,0.02526233159005642
28.0,0.02496122568845749
30.0,0.02467227168381214
32.0,0.0243956558406353
36.0,0.02391129545867443
40.0,0.023366477340459824
44.0,0.022840645164251328
48.0,0.022338207811117172
52.0,0.02184644713997841
56.0,0.021418530493974686
60.0,0.02099565602838993
64.0,0.020598851144313812
72.0,0.019858747720718384
80.0,0.019191233441233635
88.0,0.018506115302443504
96.0,0.017803829163312912
104.0,0.01707400567829609
112.0,0.01643501967191696
120.0,0.015915775671601295
128.0,0.015440504997968674
144.0,0.01458663772791624
160.0,0.014189067296683788
176.0,0.013888364657759666
192.0,0.013773039914667606
208.0,0.013410196639597416
224.0,0.013193665072321892
240.0,0.01274596806615591
256.0,0.0123590137809515
288.0,0.011149510741233826
320.0,0.009893471375107765
352.0,0.008553237654268742
384.0,0.006961118429899216
416.0,0.005321414675563574
448.0,0.00396960461512208
480.0,0.0035950648598372936
512.0,0.003439634805545211
576.0,0.0027602810878306627
640.0,0.0005355138564482331
704.0,-0.0015114395646378398
768.0,-0.0014640589943155646
832.0,-0.0013473755680024624
896.0,-0.0013434882275760174
960.0,-0.0008588508935645223
1024.0,-0.001139409258030355
1152.0,-0.002583092311397195
1280.0,-0.004956418182700872
1408.0,-0.005367858801037073
1536.0,-0.0038013008888810873
1664.0,-0.0017065596766769886
1792.0,-0.00043344238656573
1920.0,0.0030553590040653944
2048.0,0.004237597808241844
2304.0,0.0055772666819393635
2560.0,0.0036286006215959787
2816.0,0.0037490581162273884
3072.0,0.0035582224372774363
3328.0,0.002053747186437249
3584.0,-0.008235340937972069
3840.0,-0.015050663612782955
4096.0,-0.014196675270795822
4608.0,-0.0011104093864560127
5120.0,0.004955842159688473
5632.0,0.003001839853823185
6144.0,-0.007348041050136089
6656.0,0.0005980208516120911
7168.0,-0.007217968814074993
7680.0,0.005192960146814585
8192.0,0.0038617842365056276
end
