version,3.0
numOfCh,1
type,point
parent_name,ff67b_0dot069-0dot01
ch_type,1_1
kcount,1
numberNandB,1
brightnessNandB,1
carpet pos,0
pc,0
Time (ms),CH1 Auto-Correlation
1.0,0.022443216294050217
2.0,0.022226015105843544
3.0,0.02202228643000126
4.0,0.021817071363329887
5.0,0.021618975326418877
6.0,0.021424954757094383
7.0,0.021228641271591187
8.0,0.021036943420767784
9.0,0.020842377096414566
10.0,0.020656103268265724
11.0,0.020476389676332474
12.0,0.02029689960181713
13.0,0.02011888474225998
14.0,0.019940581172704697
15.0,0.01976180449128151
16.0,0.01958938129246235
18.0,0.019258057698607445
20.0,0.018937692046165466
22.0,0.01862611435353756
24.0,0.018321126699447632
26.0,0.018027519807219505
28.0,0.01773838698863983
30.0,0.01746787317097187
32.0,0.01717320643365383
36.0,0.0166024137288332
40.0,0.016026390716433525
44.0,0.015400029718875885
48.0,0.014778003096580505
52.0,0.014185113832354546
56.0,0.013562613166868687
60.0,0.012945277616381645
64.0,0.012362680397927761
72.0,0.011175733990967274
80.0,0.009891310706734657
88.0,0.00866936519742012
96.0,0.007581764832139015
104.0,0.006528577301651239
112.0,0.0055664898827672005
120.0,0.0048601082526147366
128.0,0.004252432845532894
144.0,0.0030419013928622007
160.0,0.0018733590841293335
176.0,0.000638527621049434
192.0,-0.0002552014193497598
208.0,-0.0008353071170859039
224.0,-0.0010247939499095082
240.0,-0.0010234966175630689
256.0,-0.0006850688951089978
288.0,0.0009344464051537216
320.0,0.0023612924851477146
352.0,0.0037786795292049646
384.0,0.004220617935061455
416.0,0.004319251049309969
448.0,0.004204049240797758
480.0,0.003442528424784541
512.0,0.0031921095214784145
576.0,0.0038408131804317236
640.0,0.003701362293213606
704.0,0.0025236159563064575
768.0,0.0018601377960294485
832.0,0.0029008924029767513
896.0,0.002184927696362138
960.0,0.002660897793248296
1024.0,0.0010520677315071225
1152.0,-0.0006816242239437997
1280.0,1.510079346189741e-05
1408.0,0.0015336450887843966
1536.0,0.0007222466520033777
1664.0,0.0014867072459310293
1792.0,0.00034491176484152675
1920.0,-0.0022506099194288254
2048.0,-0.004503876902163029
2304.0,-0.004363902844488621
2560.0,-0.004380595870316029
2816.0,-0.0017021798994392157
3072.0,-0.0032569924369454384
3328.0,-0.006604738067835569
3584.0,-0.0064234952442348
3840.0,-0.005211314652115107
4096.0,-0.006714610382914543
end
