version,3.0
numOfCh,1
type,point
parent_name,ff67b_0dot069-0dot01
ch_type,1_1
kcount,1
numberNandB,1
brightnessNandB,1
carpet pos,0
pc,0
Time (ms),CH1 Auto-Correlation
1.0,0.08607819676399231
2.0,0.08524587750434875
3.0,0.0843387171626091
4.0,0.08343378454446793
5.0,0.08254868537187576
6.0,0.08156559616327286
7.0,0.08052958548069
8.0,0.07945683598518372
9.0,0.07834792137145996
10.0,0.07723014801740646
11.0,0.07612404227256775
12.0,0.07500969618558884
13.0,0.07389495521783829
14.0,0.07273630052804947
15.0,0.07157447934150696
16.0,0.07042206823825836
18.0,0.06809892505407333
20.0,0.06575261801481247
22.0,0.06350207328796387
24.0,0.0614066980779171
26.0,0.059380680322647095
28.0,0.05734272673726082
30.0,0.05527792498469353
32.0,0.05329882353544235
36.0,0.04924037680029869
40.0,0.04490819200873375
44.0,0.0407022163271904
48.0,0.036894600838422775
52.0,0.033334631472826004
56.0,0.030095769092440605
60.0,0.028894010931253433
64.0,0.028301112353801727
72.0,0.02739388681948185
80.0,0.026479698717594147
88.0,0.025460314005613327
96.0,0.024570055305957794
104.0,0.023747112601995468
112.0,0.023105140775442123
120.0,0.022578256204724312
128.0,0.022063197568058968
144.0,0.021113155409693718
160.0,0.020506693050265312
176.0,0.019388901069760323
192.0,0.0179368257522583
208.0,0.017003191635012627
224.0,0.017086423933506012
240.0,0.017659850418567657
256.0,0.018311748281121254
288.0,0.017811845988035202
320.0,0.017295783385634422
352.0,0.018674839287996292
384.0,0.018256552517414093
416.0,0.019584638997912407
448.0,0.01961906999349594
480.0,0.017448948696255684
512.0,0.015017242170870304
576.0,0.016728894785046577
640.0,0.013254918158054352
704.0,0.010017533786594868
768.0,0.011727830395102501
832.0,0.012365051545202732
896.0,0.011305908672511578
960.0,0.009557204321026802
1024.0,0.008293714374303818
1152.0,0.002924684202298522
1280.0,-0.0019153598695993423
1408.0,-0.004717781208455563
1536.0,-0.00887205544859171
1664.0,-0.011870923452079296
1792.0,-0.014334243722259998
1920.0,-0.011183223687112331
2048.0,-0.010222419165074825
2304.0,-0.010300436988472939
2560.0,-0.010184570215642452
2816.0,-0.008674198761582375
3072.0,-0.0025821884628385305
3328.0,-0.0006212067091837525
3584.0,-0.0044630435295403
3840.0,-0.005681294482201338
4096.0,-0.004925635177642107
end
