version,3.0
numOfCh,1
type,point
parent_name,ff67b_0dot069-0dot01
ch_type,1_1
kcount,1
numberNandB,1
brightnessNandB,1
carpet pos,0
pc,0
Time (ms),CH1 Auto-Correlation
1.0,0.03864466771483421
2.0,0.038426563143730164
3.0,0.038216181099414825
4.0,0.038011934608221054
5.0,0.037810318171978
6.0,0.037615224719047546
7.0,0.037419721484184265
8.0,0.0372295007109642
9.0,0.03704020008444786
10.0,0.03685824200510979
11.0,0.03667297586798668
12.0,0.03649706393480301
13.0,0.036321189254522324
14.0,0.036144692450761795
15.0,0.03596404939889908
16.0,0.035779062658548355
18.0,0.035402726382017136
20.0,0.035032209008932114
22.0,0.034701183438301086
24.0,0.0344013050198555
26.0,0.03411038964986801
28.0,0.0338069386780262
30.0,0.03351551666855812
32.0,0.033213987946510315
36.0,0.03256163001060486
40.0,0.0319661945104599
44.0,0.031366944313049316
48.0,0.0307752825319767
52.0,0.03021411783993244
56.0,0.029704632237553596
60.0,0.02924399822950363
64.0,0.02880306914448738
72.0,0.027869831770658493
80.0,0.027034657076001167
88.0,0.026272553950548172
96.0,0.025605488568544388
104.0,0.02494998462498188
112.0,0.02422371134161949
120.0,0.023543111979961395
128.0,0.022768812254071236
144.0,0.021280674263834953
160.0,0.020334839820861816
176.0,0.019977591931819916
192.0,0.01982523500919342
208.0,0.019721701741218567
224.0,0.019475692883133888
240.0,0.01940770633518696
256.0,0.019402028992772102
288.0,0.019666679203510284
320.0,0.019299063831567764
352.0,0.0190824456512928
384.0,0.0185093991458416
416.0,0.018287692219018936
448.0,0.01759631186723709
480.0,0.01637805812060833
512.0,0.015136707574129105
576.0,0.014247719198465347
640.0,0.0145550686866045
704.0,0.013445216231048107
768.0,0.011190311051905155
832.0,0.009495889768004417
896.0,0.00916103832423687
960.0,0.009226893074810505
1024.0,0.009648488834500313
1152.0,0.008852721191942692
1280.0,0.00767521420493722
1408.0,0.007206959184259176
1536.0,0.005865981336683035
1664.0,0.003443674184381962
1792.0,0.001384396804496646
1920.0,0.002389120403677225
2048.0,0.00411888025701046
2304.0,0.00240021338686347
2560.0,0.0010697408579289913
2816.0,-0.0028859919402748346
3072.0,-0.00916491448879242
3328.0,-0.012274515815079212
3584.0,-0.014640357345342636
3840.0,-0.016595277935266495
4096.0,-0.015937602147459984
4608.0,-0.012512383982539177
5120.0,-0.008471132256090641
5632.0,-0.011560332961380482
6144.0,-0.013692152686417103
6656.0,-0.009590260684490204
7168.0,-0.003625129582360387
7680.0,0.0038218728732317686
8192.0,0.006175078917294741
end
