version,3.0
numOfCh,1
type,point
parent_name,ff67b_0dot069-0dot01
ch_type,1_1
kcount,1
numberNandB,1
brightnessNandB,1
carpet pos,0
pc,0
Time (ms),CH1 Auto-Correlation
1.0,0.02346871793270111
2.0,0.023275770246982574
3.0,0.023090971633791924
4.0,0.0229068361222744
5.0,0.02272726595401764
6.0,0.02254977822303772
7.0,0.022369559854269028
8.0,0.02219555899500847
9.0,0.022018764168024063
10.0,0.021848710253834724
11.0,0.021679887548089027
12.0,0.021509097889065742
13.0,0.021339531987905502
14.0,0.021169299259781837
15.0,0.020999755710363388
16.0,0.020830610767006874
18.0,0.02050059102475643
20.0,0.020173002034425735
22.0,0.019844187423586845
24.0,0.01952526904642582
26.0,0.019219381734728813
28.0,0.01893038861453533
30.0,0.018645044416189194
32.0,0.018364740535616875
36.0,0.017819110304117203
40.0,0.017356371507048607
44.0,0.016921963542699814
48.0,0.01651858724653721
52.0,0.016145452857017517
56.0,0.01577823981642723
60.0,0.015413639135658741
64.0,0.015080081298947334
72.0,0.014494335278868675
80.0,0.01398779172450304
88.0,0.013513532467186451
96.0,0.013076528906822205
104.0,0.012642049230635166
112.0,0.012333909049630165
120.0,0.012118080630898476
128.0,0.01186862401664257
144.0,0.011231271550059319
160.0,0.010359430685639381
176.0,0.009707776829600334
192.0,0.009282603859901428
208.0,0.008909771218895912
224.0,0.008394577540457249
240.0,0.007735433988273144
256.0,0.0072625852189958096
288.0,0.006808832287788391
320.0,0.0067150285467505455
352.0,0.006567243952304125
384.0,0.00641612010076642
416.0,0.006250895094126463
448.0,0.005769964307546616
480.0,0.005407152231782675
512.0,0.004852592013776302
576.0,0.0032884664833545685
640.0,0.00206277915276587
704.0,0.0014753907453268766
768.0,0.0013380650198087096
832.0,0.001384120318107307
896.0,0.0008553212974220514
960.0,0.0009469336946494877
1024.0,0.001185317407362163
1152.0,0.0008517508977092803
1280.0,0.00016269965271931142
1408.0,-0.0011958559043705463
1536.0,-0.002167839789763093
1664.0,-0.0024403384886682034
1792.0,-0.0018697472987696528
1920.0,-0.00046092303819023073
2048.0,-5.186477937968448e-05
2304.0,0.0006647894624620676
2560.0,0.0013381368480622768
2816.0,0.0010193081106990576
3072.0,-0.0005500703118741512
3328.0,-0.0003697862266562879
3584.0,0.002573604229837656
3840.0,0.0020061852410435677
4096.0,0.0024209865368902683
4608.0,0.0017971217166632414
5120.0,0.0004946669796481729
5632.0,0.00017226093041244894
6144.0,-8.969461487140507e-05
6656.0,-0.0005061369738541543
7168.0,-0.004849082790315151
7680.0,-0.004872180055826902
8192.0,-0.004364269785583019
end
