version,3.0
numOfCh,1
type,point
parent_name,ff67b_0dot069-0dot01
ch_type,1_1
kcount,1
numberNandB,1
brightnessNandB,1
carpet pos,0
pc,0
Time (ms),CH1 Auto-Correlation
1.0,0.029832595959305763
2.0,0.029631441459059715
3.0,0.029431922361254692
4.0,0.02923665940761566
5.0,0.029041556641459465
6.0,0.028848428279161453
7.0,0.028659360483288765
8.0,0.02847333624958992
9.0,0.028294822201132774
10.0,0.028118906542658806
11.0,0.027945823967456818
12.0,0.02777143009006977
13.0,0.027597442269325256
14.0,0.02743430808186531
15.0,0.027276363223791122
16.0,0.027119774371385574
18.0,0.026802532374858856
20.0,0.026496922597289085
22.0,0.026191243901848793
24.0,0.02588220126926899
26.0,0.025576584041118622
28.0,0.025273259729146957
30.0,0.024976085871458054
32.0,0.02467729151248932
36.0,0.024111134931445122
40.0,0.02359222248196602
44.0,0.02311159297823906
48.0,0.022646402940154076
52.0,0.022187435999512672
56.0,0.02174578234553337
60.0,0.02131781540811062
64.0,0.02091015875339508
72.0,0.020131247118115425
80.0,0.01938818208873272
88.0,0.018682811409235
96.0,0.017940862104296684
104.0,0.01723317988216877
112.0,0.016561085358262062
120.0,0.01595470681786537
128.0,0.01538676768541336
144.0,0.014196493662893772
160.0,0.01308479718863964
176.0,0.012002858333289623
192.0,0.011094310320913792
208.0,0.010430635884404182
224.0,0.01000400073826313
240.0,0.009704332798719406
256.0,0.009272799827158451
288.0,0.008073450066149235
320.0,0.006871090270578861
352.0,0.006029350683093071
384.0,0.005607591010630131
416.0,0.0055952672846615314
448.0,0.005782303865998983
480.0,0.005552888382226229
512.0,0.004685132764279842
576.0,0.0027063756715506315
640.0,0.0007811737013980746
704.0,-0.00015849732153583318
768.0,-0.000558221887331456
832.0,-0.0014148198533803225
896.0,-0.0021050171926617622
960.0,-0.002251554047688842
1024.0,-0.0020884668920189142
1152.0,-0.0018157886806875467
1280.0,-0.0010795751586556435
1408.0,-0.00019583525136113167
1536.0,-0.0005164337926544249
1664.0,0.0005046389997005463
1792.0,0.0010087356204167008
1920.0,0.0009562221821397543
2048.0,-0.0009631248540244997
2304.0,0.0010441234335303307
2560.0,0.003515812801197171
2816.0,0.003962495364248753
3072.0,0.0014586119214072824
3328.0,0.0009959154995158315
3584.0,-0.005835399497300386
3840.0,-0.007953428663313389
4096.0,-0.005826645530760288
4608.0,0.0006333705387078226
5120.0,-0.0031193431932479143
5632.0,-0.004966672509908676
6144.0,-0.0024932422675192356
6656.0,-0.00824359618127346
7168.0,-0.003846289124339819
7680.0,0.0027773804031312466
8192.0,0.002231523161754012
end
