version,3.0
numOfCh,1
type,point
parent_name,ff67b_0dot069-0dot01
ch_type,1_1
kcount,1
numberNandB,1
brightnessNandB,1
carpet pos,0
pc,0
Time (ms),CH1 Auto-Correlation
1.0,0.027247361838817596
2.0,0.02678629383444786
3.0,0.026346927508711815
4.0,0.025898488238453865
5.0,0.02545652538537979
6.0,0.02501443773508072
7.0,0.024595418944954872
8.0,0.024184610694646835
9.0,0.023767149075865746
10.0,0.023348817601799965
11.0,0.022940965369343758
12.0,0.02253393828868866
13.0,0.022112393751740456
14.0,0.021682802587747574
15.0,0.02126685343682766
16.0,0.02084818109869957
18.0,0.020034829154610634
20.0,0.019451992586255074
22.0,0.01910531334578991
24.0,0.018760578706860542
26.0,0.01841590367257595
28.0,0.018077967688441277
30.0,0.017758596688508987
32.0,0.01744263432919979
36.0,0.016827503219246864
40.0,0.01627872884273529
44.0,0.0157682653516531
48.0,0.015273548662662506
52.0,0.014755996875464916
56.0,0.014259244315326214
60.0,0.013820890337228775
64.0,0.01342212874442339
72.0,0.012558691203594208
80.0,0.01194358617067337
88.0,0.011451306752860546
96.0,0.010842835530638695
104.0,0.010200113989412785
112.0,0.009625526145100594
120.0,0.009230967611074448
128.0,0.008903468027710915
144.0,0.008350761607289314
160.0,0.0075220209546387196
176.0,0.0069270264357328415
192.0,0.006127210333943367
208.0,0.0050321281887590885
224.0,0.003982289228588343
240.0,0.003167383838444948
256.0,0.0026123702991753817
288.0,0.0026226486079394817
320.0,0.002501655835658312
352.0,0.0025796284899115562
384.0,0.0027428832836449146
416.0,0.002676949370652437
448.0,0.0024244068190455437
480.0,0.001869870233349502
512.0,0.0011241377796977758
576.0,0.00045049385516904294
640.0,-5.8812751376535743e-05
704.0,0.0005755292950198054
768.0,0.001326466677710414
832.0,0.002593344310298562
896.0,0.004024113062769175
960.0,0.00387569610029459
1024.0,0.0024819348473101854
1152.0,0.001209923648275435
1280.0,0.0015491065569221973
1408.0,0.002041083527728915
1536.0,0.0013351094676181674
1664.0,0.0021091823000460863
1792.0,0.0027345723938196898
1920.0,0.001717717619612813
2048.0,0.00021355479839257896
2304.0,-0.0006486732163466513
2560.0,-0.0003685606934595853
2816.0,0.0008057300001382828
3072.0,0.0020441480446606874
3328.0,-0.002002124907448888
3584.0,-0.003357386915013194
3840.0,-0.003217966528609395
4096.0,-0.004808992147445679
4608.0,-0.0013749976642429829
5120.0,-0.0027291032020002604
5632.0,-0.002593310084193945
6144.0,-0.0025963520165532827
6656.0,-0.0030432732310146093
7168.0,-0.0010254239896312356
7680.0,-0.0003601342614274472
8192.0,0.0010306860785931349
end
