version,3.0
numOfCh,1
type,point
parent_name,ff67b_0dot069-0dot01
ch_type,1_1
kcount,1
numberNandB,1
brightnessNandB,1
carpet pos,0
pc,0
Time (ms),CH1 Auto-Correlation
1.0,0.024891946464776993
2.0,0.024679189547896385
3.0,0.024467336013913155
4.0,0.024263588711619377
5.0,0.02406691387295723
6.0,0.023871399462223053
7.0,0.023678205907344818
8.0,0.02348710596561432
9.0,0.023300902917981148
10.0,0.023113442584872246
11.0,0.02292850986123085
12.0,0.02274724654853344
13.0,0.02256905846297741
14.0,0.022391004487872124
15.0,0.022217392921447754
16.0,0.02204730361700058
18.0,0.021704232320189476
20.0,0.02138093300163746
22.0,0.02107769064605236
24.0,0.020783815532922745
26.0,0.020505312830209732
28.0,0.020246360450983047
30.0,0.019994359463453293
32.0,0.019743071869015694
36.0,0.01925681345164776
40.0,0.018781471997499466
44.0,0.018322162330150604
48.0,0.017879266291856766
52.0,0.0174786988645792
56.0,0.017107326537370682
60.0,0.016754144802689552
64.0,0.016410253942012787
72.0,0.015839124098420143
80.0,0.015308259055018425
88.0,0.01481678057461977
96.0,0.01431316789239645
104.0,0.013792898505926132
112.0,0.013219575397670269
120.0,0.012635280378162861
128.0,0.01205896120518446
144.0,0.010904462076723576
160.0,0.00979719776660204
176.0,0.008915125392377377
192.0,0.008091907948255539
208.0,0.00735406344756484
224.0,0.006897440645843744
240.0,0.006354036740958691
256.0,0.005859676748514175
288.0,0.004969170317053795
320.0,0.0041648270562291145
352.0,0.0033613839186728
384.0,0.0024720528163015842
416.0,0.0017708700615912676
448.0,0.0016471871640533209
480.0,0.0018751267343759537
512.0,0.0017622209852561355
576.0,0.0010502963559702039
640.0,0.0007652505300939083
704.0,0.00027772513567470014
768.0,0.00095412164228037
832.0,0.0003617114562075585
896.0,-0.0010085818357765675
960.0,-0.002309194765985012
1024.0,-0.002994651673361659
1152.0,-0.003505328204482794
1280.0,-0.0039121354930102825
1408.0,-0.00317107024602592
1536.0,-0.0019121443619951606
1664.0,0.0002891852054744959
1792.0,0.0010329574579373002
1920.0,4.2207415390294045e-05
2048.0,-0.0008948775939643383
2304.0,-5.713229620596394e-05
2560.0,0.0016433133278042078
2816.0,0.002412609988823533
3072.0,0.0008656807476654649
3328.0,0.002029762603342533
3584.0,0.0014905796851962805
3840.0,0.0006230152794159949
4096.0,0.0008811948937363923
4608.0,0.0024976262357085943
5120.0,0.0015709896106272936
5632.0,-0.0051767053082585335
6144.0,-0.007286432199180126
6656.0,-0.0006565287476405501
7168.0,0.004121178295463324
7680.0,0.000815806386526674
8192.0,-0.0040067159570753574
end
