version,3.0
numOfCh,1
type,point
parent_name,ff67b_0dot069-0dot01
ch_type,1_1
kcount,1
numberNandB,1
brightnessNandB,1
carpet pos,0
pc,0
Time (ms),CH1 Auto-Correlation
1.0,0.028982428833842278
2.0,0.028761865571141243
3.0,0.028541099280118942
4.0,0.028318440541625023
5.0,0.028097089380025864
6.0,0.027884531766176224
7.0,0.027676301077008247
8.0,0.027468964457511902
9.0,0.02726302109658718
10.0,0.027054648846387863
11.0,0.026847733184695244
12.0,0.02664409764111042
13.0,0.02644117921590805
14.0,0.02624347433447838
15.0,0.026043260470032692
16.0,0.025840502232313156
18.0,0.025455936789512634
20.0,0.025084879249334335
22.0,0.02472883276641369
24.0,0.024390188977122307
26.0,0.024068238213658333
28.0,0.02375822886824608
30.0,0.023447703570127487
32.0,0.02313302643597126
36.0,0.022506188601255417
40.0,0.021881241351366043
44.0,0.02128761261701584
48.0,0.020710667595267296
52.0,0.020174607634544373
56.0,0.019637970253825188
60.0,0.019130297005176544
64.0,0.01864028163254261
72.0,0.017738401889801025
80.0,0.01688939891755581
88.0,0.016154242679476738
96.0,0.01556901354342699
104.0,0.015044869855046272
112.0,0.014553393237292767
120.0,0.01413352694362402
128.0,0.013808535411953926
144.0,0.013494445942342281
160.0,0.013414368964731693
176.0,0.013243095949292183
192.0,0.013178504072129726
208.0,0.013072923757135868
224.0,0.012845775112509727
240.0,0.012614243663847446
256.0,0.012268373742699623
288.0,0.011582610197365284
320.0,0.011075222864747047
352.0,0.01059127226471901
384.0,0.01087181456387043
416.0,0.011089387349784374
448.0,0.011018099263310432
480.0,0.01037131529301405
512.0,0.009377622976899147
576.0,0.007463103160262108
640.0,0.006184444762766361
704.0,0.0052923234179615974
768.0,0.004513786640018225
832.0,0.0039016620721668005
896.0,0.003208920592442155
960.0,0.0026400124188512564
1024.0,0.002252808539196849
1152.0,0.0015851991483941674
1280.0,0.001146067981608212
1408.0,-5.8035100664710626e-05
1536.0,-0.00037891449755989015
1664.0,-0.002257000422105193
1792.0,-0.0032697904389351606
1920.0,-0.003558794967830181
2048.0,-0.004749852232635021
2304.0,-0.005672944709658623
2560.0,-0.00665677385404706
2816.0,-0.0070208534598350525
3072.0,-0.007429945282638073
3328.0,-0.00452010054141283
3584.0,-0.002663138322532177
3840.0,0.0015220361528918147
4096.0,0.003960426431149244
4608.0,0.007359175477176905
5120.0,0.006196898408234119
5632.0,0.005474199540913105
6144.0,0.0031262387055903673
6656.0,-0.0018101377645507455
7168.0,-0.008478625677525997
7680.0,-0.011646216735243797
8192.0,-0.00915928091853857
end
