version,3.0
numOfCh,1
type,point
parent_name,ff67b_0dot069-0dot01
ch_type,1_1
kcount,1
numberNandB,1
brightnessNandB,1
carpet pos,0
pc,0
Time (ms),CH1 Auto-Correlation
1.0,0.02677554078400135
2.0,0.026576628908514977
3.0,0.02637658268213272
4.0,0.026175230741500854
5.0,0.025979530066251755
6.0,0.02579089067876339
7.0,0.025606205686926842
8.0,0.02542453072965145
9.0,0.0252456646412611
10.0,0.02506764978170395
11.0,0.024889925494790077
12.0,0.024713171645998955
13.0,0.024539854377508163
14.0,0.024371597915887833
15.0,0.02420085296034813
16.0,0.024030782282352448
18.0,0.023708725348114967
20.0,0.02339084818959236
22.0,0.023083744570612907
24.0,0.02277684397995472
26.0,0.022470099851489067
28.0,0.022166769951581955
30.0,0.02186814323067665
32.0,0.02157474122941494
36.0,0.021021507680416107
40.0,0.020486239343881607
44.0,0.01999080926179886
48.0,0.01954483985900879
52.0,0.019131552428007126
56.0,0.018735650926828384
60.0,0.018365904688835144
64.0,0.018020901829004288
72.0,0.01727987825870514
80.0,0.016523506492376328
88.0,0.01583639532327652
96.0,0.015261884778738022
104.0,0.014703862369060516
112.0,0.014230014756321907
120.0,0.013787457719445229
128.0,0.013374356552958488
144.0,0.012711229734122753
160.0,0.012078913860023022
176.0,0.011407899670302868
192.0,0.010400582104921341
208.0,0.009326353669166565
224.0,0.008292975835502148
240.0,0.007312258239835501
256.0,0.006560256239026785
288.0,0.005806689616292715
320.0,0.005144682712852955
352.0,0.004657125566154718
384.0,0.004761563614010811
416.0,0.004807003773748875
448.0,0.004564209375530481
480.0,0.004562708083540201
512.0,0.005119253881275654
576.0,0.005927391815930605
640.0,0.006004997529089451
704.0,0.005730726290494204
768.0,0.004824516829103231
832.0,0.0036171572282910347
896.0,0.0027187950909137726
960.0,0.0008305179653689265
1024.0,-4.7763129259692505e-05
1152.0,-0.0010797007707878947
1280.0,-0.0005956857930868864
1408.0,-0.0014820694923400879
1536.0,-0.0034135712776333094
1664.0,-0.003630779217928648
1792.0,-0.0011433452600613236
1920.0,0.000304247165331617
2048.0,-0.0006828564801253378
2304.0,-0.0022970614954829216
2560.0,-0.0024031370412558317
2816.0,-0.0014212628593668342
3072.0,-0.00445917621254921
3328.0,-0.006822632625699043
3584.0,-0.007398433517664671
3840.0,-0.008297557011246681
4096.0,-0.009824307635426521
4608.0,-0.0032267002388834953
5120.0,0.002727581886574626
5632.0,0.005711546633392572
6144.0,0.007409319281578064
6656.0,0.004519039765000343
7168.0,0.00239578727632761
7680.0,0.0014849109575152397
8192.0,0.003642285242676735
end
