version,3.0
numOfCh,1
type,point
parent_name,ff67b_0dot069-0dot01
ch_type,1_1
kcount,1
numberNandB,1
brightnessNandB,1
carpet pos,0
pc,0
Time (ms),CH1 Auto-Correlation
1.0,0.02928120456635952
2.0,0.029090460389852524
3.0,0.028903275728225708
4.0,0.02872091345489025
5.0,0.02853645198047161
6.0,0.028357671573758125
7.0,0.028182663023471832
8.0,0.028008710592985153
9.0,0.02783670835196972
10.0,0.027669278904795647
11.0,0.02749924175441265
12.0,0.02733016014099121
13.0,0.02716066502034664
14.0,0.026995383203029633
15.0,0.026829633861780167
16.0,0.026667414233088493
18.0,0.02635052055120468
20.0,0.026042500510811806
22.0,0.02575283870100975
24.0,0.02547580562531948
26.0,0.025195134803652763
28.0,0.024907907471060753
30.0,0.024623632431030273
32.0,0.02435184270143509
36.0,0.02384118363261223
40.0,0.023351894691586494
44.0,0.022866377606987953
48.0,0.02237791195511818
52.0,0.0219204593449831
56.0,0.021481327712535858
60.0,0.021035727113485336
64.0,0.020598825067281723
72.0,0.01977153867483139
80.0,0.018979031592607498
88.0,0.018236951902508736
96.0,0.017514245584607124
104.0,0.0168746467679739
112.0,0.016313675791025162
120.0,0.01574469543993473
128.0,0.015221967361867428
144.0,0.01430541928857565
160.0,0.013479628600180149
176.0,0.012729852460324764
192.0,0.01203743927180767
208.0,0.011545094661414623
224.0,0.011083553545176983
240.0,0.010678433813154697
256.0,0.010216728784143925
288.0,0.00923848245292902
320.0,0.008438048884272575
352.0,0.007354759611189365
384.0,0.006232400890439749
416.0,0.005315806716680527
448.0,0.0044562919065356255
480.0,0.003605574369430542
512.0,0.0028782139997929335
576.0,0.0022949499543756247
640.0,0.0022336700931191444
704.0,0.001563684782013297
768.0,0.0009041836601682007
832.0,-0.0004764866316691041
896.0,-0.0015442564617842436
960.0,-0.0021259181667119265
1024.0,-0.0019254654180258512
1152.0,-0.0019826835487037897
1280.0,-0.0012655671453103423
1408.0,-0.0010794871486723423
1536.0,-0.0023251459933817387
1664.0,-0.003363170428201556
1792.0,-0.005431873258203268
1920.0,-0.0063790492713451385
2048.0,-0.007644898258149624
2304.0,-0.005102484952658415
2560.0,-0.004584606271237135
2816.0,-0.0032061149831861258
3072.0,-0.005341996904462576
3328.0,-0.0059450604021549225
3584.0,-0.0024383082054555416
3840.0,0.00028641929384320974
4096.0,0.0021179502364248037
4608.0,0.003058238187804818
5120.0,0.006001626141369343
5632.0,0.002550253178924322
6144.0,0.00386412488296628
6656.0,0.00023568667529616505
7168.0,-0.00880469474941492
7680.0,-0.007982021197676659
8192.0,-0.002850940218195319
end
