version,3.0
numOfCh,1
type,point
parent_name,ff67b_0dot069-0dot01
ch_type,1_1
kcount,1
numberNandB,1
brightnessNandB,1
carpet pos,0
pc,0
Time (ms),CH1 Auto-Correlation
1.0,0.03055797517299652
2.0,0.03006567433476448
3.0,0.029574047774076462
4.0,0.02909918874502182
5.0,0.028603646904230118
6.0,0.02814709022641182
7.0,0.02771264873445034
8.0,0.027260085567831993
9.0,0.02681615948677063
10.0,0.026390470564365387
11.0,0.02595057711005211
12.0,0.02549227885901928
13.0,0.025050420314073563
14.0,0.024592304602265358
15.0,0.02413392812013626
16.0,0.023672766983509064
18.0,0.02337009832262993
20.0,0.023072998970746994
22.0,0.022769102826714516
24.0,0.022461416199803352
26.0,0.022144390270113945
28.0,0.021821748465299606
30.0,0.021495675668120384
32.0,0.021165398880839348
36.0,0.020550156012177467
40.0,0.019949806854128838
44.0,0.019389573484659195
48.0,0.018866509199142456
52.0,0.01834174245595932
56.0,0.01781865395605564
60.0,0.01726973056793213
64.0,0.016731983050704002
72.0,0.0157642662525177
80.0,0.014957285486161709
88.0,0.014160564169287682
96.0,0.013502785935997963
104.0,0.012963857501745224
112.0,0.012504207901656628
120.0,0.012109954841434956
128.0,0.011784739792346954
144.0,0.011376971378922462
160.0,0.01095660962164402
176.0,0.010437848046422005
192.0,0.009787935763597488
208.0,0.009227858856320381
224.0,0.008678784593939781
240.0,0.008122691884636879
256.0,0.007863438688218594
288.0,0.007533208467066288
320.0,0.006960295606404543
352.0,0.00623565586283803
384.0,0.0060104550793766975
416.0,0.006180724129080772
448.0,0.005943266209214926
480.0,0.00591257493942976
512.0,0.005714673548936844
576.0,0.00538143515586853
640.0,0.00615288270637393
704.0,0.006360299419611692
768.0,0.006241789553314447
832.0,0.0051143900491297245
896.0,0.0049019078724086285
960.0,0.0050697228871285915
1024.0,0.005365278571844101
1152.0,0.0055443039163947105
1280.0,0.0034505187068134546
1408.0,0.0027591774705797434
1536.0,0.003552543930709362
1664.0,0.0038639078848063946
1792.0,0.0030583026818931103
1920.0,0.001106131705455482
2048.0,0.001860938617028296
2304.0,0.0016183002153411508
2560.0,-0.001768307643942535
2816.0,-0.0014920637477189302
3072.0,-0.0022662838455289602
3328.0,-0.002120806137099862
3584.0,-0.001225116429850459
3840.0,-0.00021614287106785923
4096.0,-2.884271088987589e-05
4608.0,-0.004982587415724993
5120.0,-0.004190278239548206
5632.0,-0.005601228680461645
6144.0,-0.005072067957371473
6656.0,-0.008432762697339058
7168.0,-0.009573249146342278
7680.0,-0.0050802468322217464
8192.0,-0.001668548327870667
end
