version,3.0
numOfCh,1
type,point
parent_name,ff67b_0dot069-0dot01
ch_type,1_1
kcount,1
numberNandB,1
brightnessNandB,1
carpet pos,0
pc,0
Time (ms),CH1 Auto-Correlation
1.0,0.029032418504357338
2.0,0.028812814503908157
3.0,0.028597433120012283
4.0,0.02838185615837574
5.0,0.028167838230729103
6.0,0.02795572578907013
7.0,0.027749210596084595
8.0,0.027542276307940483
9.0,0.02734093740582466
10.0,0.027142832055687904
11.0,0.026943979784846306
12.0,0.02675260789692402
13.0,0.026562107726931572
14.0,0.026378223672509193
15.0,0.026194484904408455
16.0,0.02602006494998932
18.0,0.025668159127235413
20.0,0.025314876809716225
22.0,0.02497604861855507
24.0,0.024653226137161255
26.0,0.02434624172747135
28.0,0.024051789194345474
30.0,0.023752352222800255
32.0,0.023465920239686966
36.0,0.022914981469511986
40.0,0.022347448393702507
44.0,0.02174869179725647
48.0,0.021136386319994926
52.0,0.02056567557156086
56.0,0.020016005262732506
60.0,0.01949446089565754
64.0,0.01897049881517887
72.0,0.017948981374502182
80.0,0.017027227208018303
88.0,0.01622290536761284
96.0,0.015519402921199799
104.0,0.014819608069956303
112.0,0.014136535115540028
120.0,0.013479701243340969
128.0,0.012923804111778736
144.0,0.012047923170030117
160.0,0.011380447074770927
176.0,0.010799714364111423
192.0,0.010208086110651493
208.0,0.009545883163809776
224.0,0.008719749748706818
240.0,0.007915408350527287
256.0,0.007174575701355934
288.0,0.005856263916939497
320.0,0.004640611819922924
352.0,0.004013572819530964
384.0,0.00394474808126688
416.0,0.003913212567567825
448.0,0.003634809283539653
480.0,0.0034057924058288336
512.0,0.0027852689381688833
576.0,0.0021504354663193226
640.0,0.001830185647122562
704.0,0.0009053929825313389
768.0,-0.0003998860775027424
832.0,-0.0014270837418735027
896.0,-0.0025216510985046625
960.0,-0.004478480666875839
1024.0,-0.005189001094549894
1152.0,-0.0034535573795437813
1280.0,-0.002323624910786748
1408.0,-0.0013199998065829277
1536.0,0.0007195116486400366
1664.0,0.0035235234536230564
1792.0,0.0036809188313782215
1920.0,0.0027266789693385363
2048.0,0.00018605370132718235
2304.0,-0.0020052213221788406
2560.0,-0.0054004620760679245
2816.0,-0.0037258912343531847
3072.0,-0.000804855371825397
3328.0,0.0023727905936539173
3584.0,0.0044110482558608055
3840.0,-0.0010271075880154967
4096.0,-0.0038023318629711866
4608.0,-0.007736983709037304
5120.0,-0.0018120856257155538
5632.0,0.00277974596247077
6144.0,-0.0016123926034197211
6656.0,0.0012019763235002756
7168.0,0.0061065866611897945
7680.0,-0.0008621599990874529
8192.0,-0.0042099859565496445
end
