version,3.0
numOfCh,1
type,point
parent_name,ff67b_0dot069-0dot01
ch_type,1_1
kcount,1
numberNandB,1
brightnessNandB,1
carpet pos,0
pc,0
Time (ms),CH1 Auto-Correlation
1.0,0.020727047696709633
2.0,0.0205075703561306
3.0,0.020286327227950096
4.0,0.020068909972906113
5.0,0.019856980070471764
6.0,0.01964620128273964
7.0,0.01943262293934822
8.0,0.019219279289245605
9.0,0.019015517085790634
10.0,0.018819719552993774
11.0,0.018625248223543167
12.0,0.018435269594192505
13.0,0.01823890022933483
14.0,0.018042275682091713
15.0,0.017851293087005615
16.0,0.017669696360826492
18.0,0.017287850379943848
20.0,0.016891062259674072
22.0,0.016501659527420998
24.0,0.016117319464683533
26.0,0.01574571430683136
28.0,0.015392940491437912
30.0,0.015034454874694347
32.0,0.014669572934508324
36.0,0.013960161246359348
40.0,0.013329900801181793
44.0,0.012729743495583534
48.0,0.012135189026594162
52.0,0.011553963646292686
56.0,0.011051122099161148
60.0,0.010621258057653904
64.0,0.010224211029708385
72.0,0.009350094012916088
80.0,0.00856628455221653
88.0,0.007884430699050426
96.0,0.007451201789081097
104.0,0.007005575578659773
112.0,0.006585733965039253
120.0,0.006336995866149664
128.0,0.006148593034595251
144.0,0.005961481016129255
160.0,0.005493952427059412
176.0,0.005122227594256401
192.0,0.004940633662045002
208.0,0.004702584818005562
224.0,0.004438650328665972
240.0,0.0043584429658949375
256.0,0.0043209632858633995
288.0,0.0030268824193626642
320.0,0.0016348797362297773
352.0,0.0004093282332178205
384.0,8.707749657332897e-05
416.0,0.0004862853675149381
448.0,0.0006761298282071948
480.0,0.00103097059763968
512.0,0.000390389293897897
576.0,-0.002413869369775057
640.0,-0.004909522365778685
704.0,-0.003693482605740428
768.0,-0.0026451852172613144
832.0,-0.003997302148491144
896.0,-0.004641693085432053
960.0,-0.0031037284061312675
1024.0,-0.004620566498488188
1152.0,-0.004334643483161926
1280.0,-0.0036393520422279835
1408.0,-0.0009791651973500848
1536.0,0.00017551550990901887
1664.0,0.0011220447486266494
1792.0,-0.00046393999946303666
1920.0,0.0006248639547266066
2048.0,-0.0006988080567680299
2304.0,0.0034678014926612377
2560.0,0.0015941892052069306
2816.0,0.0004105879052076489
3072.0,0.00010789068619487807
3328.0,-0.004303231369704008
3584.0,-0.0025304018054157495
3840.0,0.00208512251265347
4096.0,0.0001292107772314921
end
