version,3.0
numOfCh,1
type,point
parent_name,714af_0dot1-0dot01
ch_type,1_1
kcount,1
numberNandB,1
brightnessNandB,1
carpet pos,0
pc,0
Time (ms),CH1 Auto-Correlation
1.0,0.012822350487112999
2.0,0.0125949801877141
3.0,0.012368954718112946
4.0,0.012146077118813992
5.0,0.011929377913475037
6.0,0.011713105253875256
7.0,0.011502141132950783
8.0,0.01130093727260828
9.0,0.011102249845862389
10.0,0.010913200676441193
11.0,0.010727503336966038
12.0,0.010537434369325638
13.0,0.010356903076171875
14.0,0.01017563883215189
15.0,0.009997823275625706
16.0,0.009826063178479671
18.0,0.009500696323812008
20.0,0.009179536253213882
22.0,0.008877248503267765
24.0,0.008580883964896202
26.0,0.008278613910079002
28.0,0.007986871525645256
30.0,0.007703667972236872
32.0,0.007432455662637949
36.0,0.006941127125173807
40.0,0.006465515587478876
44.0,0.006057089660316706
48.0,0.005740729160606861
52.0,0.005482649430632591
56.0,0.005203457083553076
60.0,0.004908217582851648
64.0,0.0045921881683170795
72.0,0.004034822806715965
80.0,0.003551119938492775
88.0,0.00304474332369864
96.0,0.002651142654940486
104.0,0.002345012966543436
112.0,0.0020788887050002813
120.0,0.0018617428140714765
128.0,0.001544274273328483
144.0,0.0011460434179753065
160.0,0.0010882766218855977
176.0,0.0010192841291427612
192.0,0.0007541743107140064
208.0,0.0003505077911540866
224.0,0.00019153955508954823
240.0,0.0002867316361516714
256.0,0.0004994976916350424
288.0,0.0002830826852004975
320.0,0.0003920671297237277
352.0,0.0008235764689743519
384.0,0.0006123397033661604
416.0,-8.839899965096265e-05
448.0,-0.0007514073513448238
480.0,-0.001238291384652257
512.0,-0.0007482570945285261
576.0,-9.665538527769968e-06
640.0,-0.0010856116423383355
704.0,-0.0010021488415077329
768.0,-0.0005882586119696498
832.0,0.00021144194761291146
896.0,0.0014385576359927654
960.0,0.0016301276627928019
1024.0,0.0003615367750171572
1152.0,0.0005865748389624059
1280.0,-0.000958148913923651
1408.0,-0.00037955548032186925
1536.0,-0.0004051560827065259
1664.0,0.00017967652820516378
1792.0,0.00014615240797866136
1920.0,0.0015590606490150094
2048.0,0.001268144347704947
2304.0,-0.000549068208783865
2560.0,-0.00040985160740092397
2816.0,-0.00019896171579603106
3072.0,-0.00020554193179123104
3328.0,0.00053598074009642
3584.0,0.0006921634776517749
3840.0,-0.00010525537800276652
4096.0,-7.870564149925485e-05
4608.0,-0.0009074066765606403
5120.0,-5.696327207260765e-05
5632.0,-0.0007026526727713645
6144.0,-0.0011668348452076316
6656.0,-0.0006253373576328158
7168.0,-0.001180645078420639
7680.0,-0.0010727536864578724
8192.0,-0.0012086877832189202
end
