version,3.0
numOfCh,1
type,point
parent_name,714af_0dot1-0dot01
ch_type,1_1
kcount,1
numberNandB,1
brightnessNandB,1
carpet pos,0
pc,0
Time (ms),CH1 Auto-Correlation
1.0,0.021847786381840706
2.0,0.021670321002602577
3.0,0.02148957923054695
4.0,0.021314388141036034
5.0,0.021142063662409782
6.0,0.02097601629793644
7.0,0.020803185179829597
8.0,0.020634185522794724
9.0,0.020461156964302063
10.0,0.02028747648000717
11.0,0.02010956220328808
12.0,0.019935110583901405
13.0,0.019751986488699913
14.0,0.019567027688026428
15.0,0.01938239485025406
16.0,0.019198421388864517
18.0,0.018835213035345078
20.0,0.01847940869629383
22.0,0.018128912895917892
24.0,0.017791016027331352
26.0,0.01746676303446293
28.0,0.01715373992919922
30.0,0.016857944428920746
32.0,0.016552932560443878
36.0,0.01594868302345276
40.0,0.015391308814287186
44.0,0.014873884618282318
48.0,0.014400815591216087
52.0,0.013952314853668213
56.0,0.013504504226148129
60.0,0.013055847957730293
64.0,0.01264877337962389
72.0,0.01188581995666027
80.0,0.011206434108316898
88.0,0.010550206527113914
96.0,0.009973154403269291
104.0,0.009518004953861237
112.0,0.009126286022365093
120.0,0.008695953525602818
128.0,0.008274003863334656
144.0,0.007527642417699099
160.0,0.006929128430783749
176.0,0.00637007737532258
192.0,0.006050370167940855
208.0,0.00597605062648654
224.0,0.0057715740986168385
240.0,0.005268177483230829
256.0,0.004822563845664263
288.0,0.0035773019772022963
320.0,0.002875436097383499
352.0,0.0024294527247548103
384.0,0.002274689730256796
416.0,0.0020963442511856556
448.0,0.0024837302044034004
480.0,0.0027352713514119387
512.0,0.002389925066381693
576.0,0.0018922097515314817
640.0,0.0015024282038211823
704.0,0.000562088331207633
768.0,-9.39316742005758e-05
832.0,0.0005631312960758805
896.0,0.0004924482200294733
960.0,-0.000646119297016412
1024.0,-0.0011292017297819257
1152.0,-0.00013736837718170136
1280.0,0.00010330681834602728
1408.0,-0.001554819755256176
1536.0,-0.0027760008815675974
1664.0,-0.002392562571913004
1792.0,-0.0007986963028088212
1920.0,-0.000769479782320559
2048.0,-0.0019792811945080757
2304.0,-0.0024457373656332493
2560.0,-0.004817393608391285
2816.0,-0.003239445388317108
3072.0,-0.002896234393119812
3328.0,-0.0022175798658281565
3584.0,0.001512176706455648
3840.0,0.0030335995834320784
4096.0,0.0007283397135324776
4608.0,0.001049773651175201
5120.0,0.0018943608738481998
5632.0,0.0021819109097123146
6144.0,-0.0024225269444286823
6656.0,-0.0025106454268097878
7168.0,0.00023699196754023433
7680.0,-0.0016117168124765158
8192.0,-0.00031753708026371896
end
