version,3.0
numOfCh,1
type,point
parent_name,714af_0dot1-0dot01
ch_type,1_1
kcount,1
numberNandB,1
brightnessNandB,1
carpet pos,0
pc,0
Time (ms),CH1 Auto-Correlation
1.0,0.035683516412973404
2.0,0.03489688038825989
3.0,0.03415003791451454
4.0,0.03343595936894417
5.0,0.032688140869140625
6.0,0.03199487179517746
7.0,0.03135044872760773
8.0,0.030728567391633987
9.0,0.030107945203781128
10.0,0.02950417809188366
11.0,0.02888486534357071
12.0,0.028242971748113632
13.0,0.027604058384895325
14.0,0.026989292353391647
15.0,0.026357460767030716
16.0,0.025736328214406967
18.0,0.024573396891355515
20.0,0.023415273055434227
22.0,0.02217669039964676
24.0,0.02091616578400135
26.0,0.019584188237786293
28.0,0.018765131011605263
30.0,0.018526358529925346
32.0,0.018284296616911888
36.0,0.017766624689102173
40.0,0.017197994515299797
44.0,0.016712212935090065
48.0,0.01630016602575779
52.0,0.01595427840948105
56.0,0.015632379800081253
60.0,0.015296953730285168
64.0,0.015053551644086838
72.0,0.01457560621201992
80.0,0.014192553237080574
88.0,0.013946294784545898
96.0,0.013673613779246807
104.0,0.013237802311778069
112.0,0.012653271667659283
120.0,0.012277565896511078
128.0,0.01216068770736456
144.0,0.012292101047933102
160.0,0.012059667147696018
176.0,0.011633212678134441
192.0,0.010710037313401699
208.0,0.010191845707595348
224.0,0.010133600793778896
240.0,0.009862898848950863
256.0,0.009065295569598675
288.0,0.008238567039370537
320.0,0.008118454366922379
352.0,0.007907264865934849
384.0,0.007635318674147129
416.0,0.007062360644340515
448.0,0.00662287138402462
480.0,0.006519898772239685
512.0,0.006079212762415409
576.0,0.004425525665283203
640.0,0.002676257397979498
704.0,0.0010496046161279082
768.0,-0.0006976317963562906
832.0,-0.003153488039970398
896.0,-0.004946107976138592
960.0,-0.005475413985550404
1024.0,-0.005264481995254755
1152.0,-0.005191249772906303
1280.0,-0.00590782705694437
1408.0,-0.007343913894146681
1536.0,-0.009455442428588867
1664.0,-0.008133871480822563
1792.0,-0.005812553688883781
1920.0,-0.006021198816597462
2048.0,-0.006404191255569458
2304.0,-0.0006796139059588313
2560.0,0.0035159424878656864
2816.0,0.00712651526555419
3072.0,0.006397308316081762
3328.0,0.0008942920831032097
3584.0,-0.0030172113329172134
3840.0,-0.004844428971409798
4096.0,-0.0037837447598576546
4608.0,-0.002683785744011402
5120.0,0.002472218358889222
5632.0,0.006818676833063364
6144.0,0.0022460499312728643
6656.0,-0.0042364634573459625
7168.0,-0.003237521043047309
7680.0,-0.00021265573741402477
8192.0,0.0002465143334120512
end
