version,3.0
numOfCh,1
type,point
parent_name,714af_0dot1-0dot01
ch_type,1_1
kcount,1
numberNandB,1
brightnessNandB,1
carpet pos,0
pc,0
Time (ms),CH1 Auto-Correlation
1.0,0.016533857211470604
2.0,0.016354963183403015
3.0,0.016180753707885742
4.0,0.016012925654649734
5.0,0.015848860144615173
6.0,0.0156889408826828
7.0,0.015535117127001286
8.0,0.015385368838906288
9.0,0.015233943238854408
10.0,0.015085513703525066
11.0,0.014935151673853397
12.0,0.014789159409701824
13.0,0.014644164592027664
14.0,0.014504716731607914
15.0,0.014366332441568375
16.0,0.014234189875423908
18.0,0.013968382030725479
20.0,0.013715284876525402
22.0,0.013473990373313427
24.0,0.013242253102362156
26.0,0.013020478188991547
28.0,0.012801227159798145
30.0,0.01258168462663889
32.0,0.012372459284961224
36.0,0.011975210160017014
40.0,0.011602251790463924
44.0,0.011278090067207813
48.0,0.011016922071576118
52.0,0.010788810439407825
56.0,0.010589832440018654
60.0,0.010349399410188198
64.0,0.01009552925825119
72.0,0.00964386947453022
80.0,0.009266276843845844
88.0,0.008908688090741634
96.0,0.008524047210812569
104.0,0.008214062079787254
112.0,0.007893002592027187
120.0,0.007519272156059742
128.0,0.007200097665190697
144.0,0.00665451493114233
160.0,0.006100768689066172
176.0,0.0056927260011434555
192.0,0.0051902844570577145
208.0,0.004582708235830069
224.0,0.004002631641924381
240.0,0.003562912344932556
256.0,0.0032785702496767044
288.0,0.0030374962370842695
320.0,0.0027560219168663025
352.0,0.0026803170330822468
384.0,0.0027606957592070103
416.0,0.002866405062377453
448.0,0.0027175445575267076
480.0,0.0025038577150553465
512.0,0.002362743951380253
576.0,0.0017382137011736631
640.0,0.002052516210824251
704.0,0.0021167921368032694
768.0,0.0020004010293632746
832.0,0.0020993028301745653
896.0,0.0019068281399086118
960.0,0.0009042001911439002
1024.0,-0.00031048068194650114
1152.0,-0.0007023694342933595
1280.0,0.0006540503818541765
1408.0,0.001304870587773621
1536.0,0.0010784821351990104
1664.0,0.00011459887900855392
1792.0,-0.0014501949772238731
1920.0,-0.0010582093382254243
2048.0,-5.251376569503918e-05
2304.0,0.001119443797506392
2560.0,0.001699910149909556
2816.0,0.0020755259320139885
3072.0,0.0010019304463639855
3328.0,0.0016633305931463838
3584.0,0.0009967428632080555
3840.0,-0.00035271127126179636
4096.0,-7.388390076812357e-05
4608.0,-0.002138229552656412
5120.0,0.0001706345210550353
5632.0,0.0005553725059144199
6144.0,-0.0006281404639594257
6656.0,0.00013567016867455095
7168.0,0.0006849072524346411
7680.0,0.0016945024253800511
8192.0,0.0008875404600985348
9216.0,-0.0034475564025342464
10240.0,-0.002044669585302472
11264.0,-0.00015995174180716276
12288.0,-0.006096921395510435
13312.0,-0.0011191089870408177
14336.0,-0.001395084080286324
end
