version,3.0
numOfCh,1
type,point
parent_name,714af_0dot1-0dot01
ch_type,1_1
kcount,1
numberNandB,1
brightnessNandB,1
carpet pos,0
pc,0
Time (ms),CH1 Auto-Correlation
1.0,0.01820356585085392
2.0,0.018007012084126472
3.0,0.01781589724123478
4.0,0.017639225348830223
5.0,0.017461983487010002
6.0,0.017279164865612984
7.0,0.017098288983106613
8.0,0.01692318357527256
9.0,0.016750754788517952
10.0,0.01658363826572895
11.0,0.0164226982742548
12.0,0.01626584492623806
13.0,0.016110964119434357
14.0,0.015956418588757515
15.0,0.015796823427081108
16.0,0.015642909333109856
18.0,0.015352793037891388
20.0,0.015067735686898232
22.0,0.01478548813611269
24.0,0.014526337385177612
26.0,0.014276710338890553
28.0,0.014036673121154308
30.0,0.013807700015604496
32.0,0.01357799582183361
36.0,0.013127530924975872
40.0,0.012696425430476665
44.0,0.012266511097550392
48.0,0.01182488165795803
52.0,0.011444168165326118
56.0,0.011089819483458996
60.0,0.010749323293566704
64.0,0.010445332154631615
72.0,0.009917373768985271
80.0,0.009442790411412716
88.0,0.008913101628422737
96.0,0.008379729464650154
104.0,0.007855646312236786
112.0,0.007293745409697294
120.0,0.006680695805698633
128.0,0.0060516782104969025
144.0,0.004773525986820459
160.0,0.0035525853745639324
176.0,0.002381550846621394
192.0,0.0012028549099341035
208.0,0.0003307341830804944
224.0,7.520983217546018e-06
240.0,-0.00016333363601006567
256.0,-0.00017970595217775553
288.0,-0.0005273089627735317
320.0,-0.00041309898369945586
352.0,-9.993941057473421e-05
384.0,-0.0004969440051354468
416.0,-0.0005421186797320843
448.0,-0.000492050894536078
480.0,-0.0011775800958275795
512.0,-0.001757731195539236
576.0,-0.0028278734534978867
640.0,-0.003499526996165514
704.0,-0.003914290573447943
768.0,-0.004361968953162432
832.0,-0.0038604221772402525
896.0,-0.001738830003887415
960.0,0.001564307720400393
1024.0,0.004144737962633371
1152.0,0.006734916009008884
1280.0,0.0031919865868985653
1408.0,0.001368700759485364
1536.0,-0.0006282862741500139
1664.0,-0.0030502888839691877
1792.0,-0.003344848519191146
1920.0,-0.005243296269327402
2048.0,-0.0034839403815567493
2304.0,0.00438491627573967
2560.0,0.003405668307095766
2816.0,-0.0013101671356707811
3072.0,-0.006113807670772076
3328.0,-0.0005739514599554241
3584.0,0.003567824838683009
3840.0,0.0013922384241595864
4096.0,-0.005825644358992577
end
