version,3.0
numOfCh,1
type,point
parent_name,714af_0dot1-0dot01
ch_type,1_1
kcount,1
numberNandB,1
brightnessNandB,1
carpet pos,0
pc,0
Time (ms),CH1 Auto-Correlation
1.0,0.022283043712377548
2.0,0.022093845531344414
3.0,0.021907759830355644
4.0,0.021724943071603775
5.0,0.02154482901096344
6.0,0.021371684968471527
7.0,0.02120213210582733
8.0,0.0210321843624115
9.0,0.020869657397270203
10.0,0.020708300173282623
11.0,0.020546816289424896
12.0,0.02039550431072712
13.0,0.02024802379310131
14.0,0.02010366879403591
15.0,0.019958006218075752
16.0,0.01981254480779171
18.0,0.01952783390879631
20.0,0.019247950986027718
22.0,0.018976815044879913
24.0,0.0187149066478014
26.0,0.018466904759407043
28.0,0.018225453794002533
30.0,0.017990296706557274
32.0,0.01776045933365822
36.0,0.017318228259682655
40.0,0.01690586283802986
44.0,0.016509518027305603
48.0,0.016142437234520912
52.0,0.015791617333889008
56.0,0.015447789803147316
60.0,0.015112658031284809
64.0,0.01477641798555851
72.0,0.014123274013400078
80.0,0.013549690134823322
88.0,0.013079607859253883
96.0,0.012625853531062603
104.0,0.012209496460855007
112.0,0.01186697743833065
120.0,0.011529389768838882
128.0,0.011171240359544754
144.0,0.01040226873010397
160.0,0.009628033265471458
176.0,0.009068917483091354
192.0,0.008560389280319214
208.0,0.008257217705249786
224.0,0.00815914198756218
240.0,0.008117872290313244
256.0,0.00806589238345623
288.0,0.007725593168288469
320.0,0.007479399908334017
352.0,0.007216561120003462
384.0,0.007175336126238108
416.0,0.007144871633499861
448.0,0.0073964763432741165
480.0,0.007647089660167694
512.0,0.00793480221182108
576.0,0.008093724958598614
640.0,0.006714690010994673
704.0,0.005052406806498766
768.0,0.004536279011517763
832.0,0.004317570012062788
896.0,0.00370022258721292
960.0,0.003590118605643511
1024.0,0.00351374177262187
1152.0,0.003678988665342331
1280.0,0.0041786739602684975
1408.0,0.003224116051569581
1536.0,0.0014199507422745228
1664.0,-0.0001484811946284026
1792.0,-0.00010752420348580927
1920.0,0.0009118893067352474
2048.0,0.0007418955210596323
2304.0,0.000168552971445024
2560.0,0.0015314402990043163
2816.0,0.0023415989708155394
3072.0,0.002452155575156212
3328.0,0.0036016565281897783
3584.0,0.0028578864876180887
3840.0,0.004288301337510347
4096.0,0.00344274309463799
4608.0,0.0009335254435427487
5120.0,-0.0022045003715902567
5632.0,-0.002760030096396804
6144.0,-0.0023676154669374228
6656.0,-0.0008146488689817488
7168.0,0.0018613649299368262
7680.0,0.0014921792317181826
8192.0,0.0010436421725898981
end
