version,3.0
numOfCh,1
type,point
parent_name,714af_0dot1-0dot01
ch_type,1_1
kcount,1
numberNandB,1
brightnessNandB,1
carpet pos,0
pc,0
Time (ms),CH1 Auto-Correlation
1.0,0.022593332454562187
2.0,0.022237252444028854
3.0,0.02188173308968544
4.0,0.021537842229008675
5.0,0.02120443619787693
6.0,0.020885013043880463
7.0,0.02059355191886425
8.0,0.020296765491366386
9.0,0.0200125053524971
10.0,0.019749687984585762
11.0,0.0194746945053339
12.0,0.019192013889551163
13.0,0.018894094973802567
14.0,0.01862707920372486
15.0,0.018351249396800995
16.0,0.018063697963953018
18.0,0.017321741208434105
20.0,0.01690567098557949
22.0,0.016683287918567657
24.0,0.016475286334753036
26.0,0.01626252755522728
28.0,0.016033200547099113
30.0,0.015818100422620773
32.0,0.01560476515442133
36.0,0.015105989761650562
40.0,0.01457790844142437
44.0,0.014042234048247337
48.0,0.013536075130105019
52.0,0.013043418526649475
56.0,0.012566190212965012
60.0,0.012136832810938358
64.0,0.011701509356498718
72.0,0.010848498903214931
80.0,0.010129145346581936
88.0,0.00966146495193243
96.0,0.00917704775929451
104.0,0.00862227100878954
112.0,0.008105013519525528
120.0,0.0076506482437253
128.0,0.007221616804599762
144.0,0.006417940836399794
160.0,0.00604248745366931
176.0,0.005608102306723595
192.0,0.005292618181556463
208.0,0.005148767493665218
224.0,0.0048605697229504585
240.0,0.0047339778393507
256.0,0.004550711717456579
288.0,0.004348233342170715
320.0,0.004125106614083052
352.0,0.0038596366066485643
384.0,0.0041556162759661674
416.0,0.004126003012061119
448.0,0.0038959463126957417
480.0,0.003333124564960599
512.0,0.0026233999524265528
576.0,0.0027982068713754416
640.0,0.0037336915265768766
704.0,0.004692175425589085
768.0,0.005661111790686846
832.0,0.005146045703440905
896.0,0.0036640428006649017
960.0,0.0037665036506950855
1024.0,0.003503200365230441
1152.0,0.0016037584282457829
1280.0,-0.0009112118277698755
1408.0,-0.000843365618493408
1536.0,-0.0008235834538936615
1664.0,-0.0007627590093761683
1792.0,3.728760566445999e-05
1920.0,-0.001433956902474165
2048.0,-0.002947022207081318
2304.0,-0.003420517547056079
2560.0,-0.0028792170342057943
2816.0,-0.0034753147047013044
3072.0,-0.00403147516772151
3328.0,-0.004108359105885029
3584.0,-0.00220352946780622
3840.0,-0.0021638728212565184
4096.0,-0.0027197804301977158
4608.0,0.0007454259903170168
5120.0,0.0019423640333116055
5632.0,0.0020579188130795956
6144.0,0.001487815985456109
6656.0,0.00017608795315027237
7168.0,0.00011471154721220955
7680.0,0.0010808032238855958
8192.0,0.0020577949471771717
end
