version,3.0
numOfCh,1
type,point
parent_name,714af_0dot1-0dot01
ch_type,1_1
kcount,1
numberNandB,1
brightnessNandB,1
carpet pos,0
pc,0
Time (ms),CH1 Auto-Correlation
1.0,0.030432796105742455
2.0,0.029986539855599403
3.0,0.029573462903499603
4.0,0.029153762385249138
5.0,0.028797712177038193
6.0,0.028457874432206154
7.0,0.02811620570719242
8.0,0.02778773382306099
9.0,0.02743200771510601
10.0,0.02708447352051735
11.0,0.026775356382131577
12.0,0.026468368247151375
13.0,0.026175567880272865
14.0,0.02591622620820999
15.0,0.025634765625
16.0,0.025339916348457336
18.0,0.02440335601568222
20.0,0.02376616932451725
22.0,0.023066241294145584
24.0,0.02237793430685997
26.0,0.02171553298830986
28.0,0.021078338846564293
30.0,0.020455067977309227
32.0,0.019853532314300537
36.0,0.018709542229771614
40.0,0.01783382147550583
44.0,0.01705213077366352
48.0,0.01622595079243183
52.0,0.015107099898159504
56.0,0.014751856215298176
60.0,0.014438629150390625
64.0,0.01415807195007801
72.0,0.01353605929762125
80.0,0.01287146471440792
88.0,0.012068383395671844
96.0,0.011414662934839725
104.0,0.010890974663197994
112.0,0.010574385523796082
120.0,0.01018888782709837
128.0,0.009747724048793316
144.0,0.008447978645563126
160.0,0.007644664496183395
176.0,0.006932539865374565
192.0,0.0068132285960018635
208.0,0.006909556686878204
224.0,0.006766975857317448
240.0,0.006044826470315456
256.0,0.00572997285053134
288.0,0.005219114478677511
320.0,0.0049602072685956955
352.0,0.0043989489786326885
384.0,0.003692199708893895
416.0,0.0023928270675241947
448.0,0.0023258898872882128
480.0,0.002681940793991089
512.0,0.002420747186988592
576.0,8.843777322908863e-05
640.0,-0.00040982975042425096
704.0,0.00031543796649202704
768.0,0.00012229887943249196
832.0,-0.0003465403860900551
896.0,-2.287462484673597e-05
960.0,0.00042727397521957755
1024.0,0.0008146457839757204
1152.0,0.0009267359273508191
1280.0,0.0018954211845993996
1408.0,0.002591939875856042
1536.0,0.002677940297871828
1664.0,-4.70572522317525e-05
1792.0,-0.0006704399129375815
1920.0,-0.0012972226832062006
2048.0,-0.0024467105977237225
2304.0,-0.002893394324928522
2560.0,-0.004729053936898708
2816.0,-0.003625080920755863
3072.0,-0.001765624270774424
3328.0,-0.00183679920155555
3584.0,-0.0065607596188783646
3840.0,-0.005162850487977266
4096.0,-0.001766701228916645
end
