version,3.0
numOfCh,1
type,point
parent_name,714af_0dot1-0dot01
ch_type,1_1
kcount,1
numberNandB,1
brightnessNandB,1
carpet pos,0
pc,0
Time (ms),CH1 Auto-Correlation
1.0,0.020232900977134705
2.0,0.02003389783203602
3.0,0.019842494279146194
4.0,0.019655359908938408
5.0,0.01947111077606678
6.0,0.019290659576654434
7.0,0.019116824492812157
8.0,0.01894484832882881
9.0,0.018775274977087975
10.0,0.018601704388856888
11.0,0.018434010446071625
12.0,0.018268652260303497
13.0,0.018112244084477425
14.0,0.017956484109163284
15.0,0.01780323125422001
16.0,0.017653143033385277
18.0,0.017352255061268806
20.0,0.01705274172127247
22.0,0.01675456389784813
24.0,0.01646663062274456
26.0,0.016192806884646416
28.0,0.015923993661999702
30.0,0.01566603220999241
32.0,0.015418626368045807
36.0,0.01495937630534172
40.0,0.014564680866897106
44.0,0.01419235859066248
48.0,0.013829486444592476
52.0,0.013474239967763424
56.0,0.013111992739140987
60.0,0.012728125788271427
64.0,0.012331454083323479
72.0,0.011654109694063663
80.0,0.01105444971472025
88.0,0.010507283732295036
96.0,0.010042407549917698
104.0,0.009604577906429768
112.0,0.00922250747680664
120.0,0.008941901847720146
128.0,0.008672292344272137
144.0,0.008263402618467808
160.0,0.007851604372262955
176.0,0.007460500113666058
192.0,0.007185135968029499
208.0,0.007067452650517225
224.0,0.006992841139435768
240.0,0.006908367853611708
256.0,0.006694535259157419
288.0,0.005902582313865423
320.0,0.005012588109821081
352.0,0.00408922228962183
384.0,0.003342205658555031
416.0,0.0026933911722153425
448.0,0.0024913051165640354
480.0,0.002362055703997612
512.0,0.0020689174998551607
576.0,0.002275406150147319
640.0,0.0020524184219539165
704.0,0.001558295451104641
768.0,0.0010690598282963037
832.0,0.0007457874598912895
896.0,0.0011212859535589814
960.0,0.002202196978032589
1024.0,0.0027506372425705194
1152.0,0.002676477190107107
1280.0,0.0029094815254211426
1408.0,0.0027783680707216263
1536.0,0.0015618931502103806
1664.0,0.0017110708868131042
1792.0,0.0006053629913367331
1920.0,0.0008099910919554532
2048.0,-2.3467433493351564e-05
2304.0,0.0017498867819085717
2560.0,0.0007550391019321978
2816.0,-0.0016025615623220801
3072.0,-0.0018133840057998896
3328.0,-0.001138918218202889
3584.0,-0.0015059970319271088
3840.0,-0.0022081637289375067
4096.0,-0.0026932526379823685
4608.0,-0.00036666009691543877
5120.0,-0.00277648470364511
5632.0,-0.002504035597667098
6144.0,7.982181705301628e-05
6656.0,0.0004912311560474336
7168.0,0.0031188486609607935
7680.0,0.0009693287429399788
8192.0,-0.00040377804543823004
end
