version,3.0
numOfCh,1
type,point
parent_name,714af_0dot1-0dot01
ch_type,1_1
kcount,1
numberNandB,1
brightnessNandB,1
carpet pos,0
pc,0
Time (ms),CH1 Auto-Correlation
1.0,0.015307671390473843
2.0,0.015114272944629192
3.0,0.014925040304660797
4.0,0.014739695005118847
5.0,0.014565734192728996
6.0,0.014394574798643589
7.0,0.014224441722035408
8.0,0.014052546583116055
9.0,0.013878583908081055
10.0,0.013711110688745975
11.0,0.013553240336477757
12.0,0.01339546125382185
13.0,0.013237478211522102
14.0,0.01308154221624136
15.0,0.012925456278026104
16.0,0.012771339155733585
18.0,0.01246107742190361
20.0,0.012155905365943909
22.0,0.01187102496623993
24.0,0.011590768583118916
26.0,0.01131459791213274
28.0,0.011050024069845676
30.0,0.010798387229442596
32.0,0.010554814711213112
36.0,0.010105165652930737
40.0,0.009673235937952995
44.0,0.009258096106350422
48.0,0.008860773406922817
52.0,0.008493785746395588
56.0,0.008167847990989685
60.0,0.00786668248474598
64.0,0.007585665211081505
72.0,0.007110775448381901
80.0,0.006678991485387087
88.0,0.006240098271518946
96.0,0.005805337801575661
104.0,0.005344089586287737
112.0,0.004924609325826168
120.0,0.004582148045301437
128.0,0.004351010080426931
144.0,0.003948725759983063
160.0,0.0035382858477532864
176.0,0.0031492840498685837
192.0,0.002564086113125086
208.0,0.001741713029332459
224.0,0.0009985443903133273
240.0,0.0003388502518646419
256.0,-0.00025373022072017193
288.0,-0.0012571178376674652
320.0,-0.002072908915579319
352.0,-0.0020113943610340357
384.0,-0.001575844595208764
416.0,-0.001372001483105123
448.0,-0.0010541437659412622
480.0,-0.0008231854299083352
512.0,-0.0006578657776117325
576.0,0.00017090601613745093
640.0,0.0009398554684594274
704.0,0.000581911182962358
768.0,0.00041041962685994804
832.0,0.000720009848009795
896.0,0.0009799884865060449
960.0,0.0004593115590978414
1024.0,0.0007515308680012822
1152.0,-0.00020494933414738625
1280.0,-0.00153872009832412
1408.0,-0.0015339303063228726
1536.0,-0.00036083697341382504
1664.0,0.0007780042942613363
1792.0,0.000636122829746455
1920.0,-0.0004894351004622877
2048.0,-0.0017936854856088758
2304.0,-0.0019687602762132883
2560.0,0.0005177355487830937
2816.0,-0.0008404520340263844
3072.0,-0.0021170941181480885
3328.0,0.00037462281761690974
3584.0,-0.00018107600044459105
3840.0,-0.0014400696381926537
4096.0,-0.00030355286435224116
4608.0,-6.910237425472587e-05
5120.0,0.0005883279955014586
5632.0,0.0020290182437747717
6144.0,0.0012997542507946491
6656.0,0.0008372773882001638
7168.0,-0.0011598390992730856
7680.0,-0.0012309820158407092
8192.0,-0.001502957777120173
end
