version,3.0
numOfCh,1
type,point
parent_name,714af_0dot1-0dot01
ch_type,1_1
kcount,1
numberNandB,1
brightnessNandB,1
carpet pos,0
pc,0
Time (ms),CH1 Auto-Correlation
1.0,0.0164962075650692
2.0,0.01630980148911476
3.0,0.016131889075040817
4.0,0.01595662347972393
5.0,0.01578705944120884
6.0,0.015623154118657112
7.0,0.015460089780390263
8.0,0.015298849903047085
9.0,0.015138513408601284
10.0,0.014978691935539246
11.0,0.014818445779383183
12.0,0.014661078341305256
13.0,0.014505811035633087
14.0,0.014353605918586254
15.0,0.014204944483935833
16.0,0.014059408567845821
18.0,0.013777479529380798
20.0,0.01350397989153862
22.0,0.013248249888420105
24.0,0.012998268008232117
26.0,0.01275647059082985
28.0,0.01253318041563034
30.0,0.012308203615248203
32.0,0.012085452675819397
36.0,0.011651416309177876
40.0,0.011235938407480717
44.0,0.010835511609911919
48.0,0.010463876649737358
52.0,0.010095872916281223
56.0,0.009796418249607086
60.0,0.00953108724206686
64.0,0.009275718592107296
72.0,0.008842634968459606
80.0,0.008510256186127663
88.0,0.008128462359309196
96.0,0.007743922993540764
104.0,0.007327093742787838
112.0,0.00691519258543849
120.0,0.00659016752615571
128.0,0.006342391949146986
144.0,0.005779358558356762
160.0,0.005151696968823671
176.0,0.004495966713875532
192.0,0.004022772889584303
208.0,0.003645847784355283
224.0,0.0034142755903303623
240.0,0.003178749466314912
256.0,0.002984048333019018
288.0,0.0022499142214655876
320.0,0.001414386904798448
352.0,0.0009548934176564217
384.0,0.0005892487824894488
416.0,0.0004903778899461031
448.0,0.00013145184493623674
480.0,-0.0003505494387354702
512.0,-0.0006954407435841858
576.0,-0.0011537697864696383
640.0,-0.0022149246651679277
704.0,-0.0024783099070191383
768.0,-0.002864585258066654
832.0,-0.0031464400235563517
896.0,-0.003138922154903412
960.0,-0.002924259752035141
1024.0,-0.0030906242318451405
1152.0,-0.0017441993113607168
1280.0,-0.00034369665081612766
1408.0,0.0008640127489343286
1536.0,0.0012865792959928513
1664.0,0.0016203152481466532
1792.0,0.0024801655672490597
1920.0,0.0013674601214006543
2048.0,0.00025626106071285903
2304.0,-0.0008463259437121451
2560.0,-0.0011322686914354563
2816.0,-0.00032639343407936394
3072.0,0.0005491346237249672
3328.0,0.00020172908261884004
3584.0,-0.0020044613629579544
3840.0,-0.00222200364805758
4096.0,-0.0006963650230318308
4608.0,0.00010677926911739632
5120.0,-0.00011593187809921801
5632.0,-0.00028470673714764416
6144.0,-0.001364309573546052
6656.0,-0.0005736759630963206
7168.0,0.0007863979553803802
7680.0,0.0004255252715665847
8192.0,0.00021262935479171574
end
