version,3.0
numOfCh,1
type,point
parent_name,714af_0dot1-0dot01
ch_type,1_1
kcount,1
numberNandB,1
brightnessNandB,1
carpet pos,0
pc,0
Time (ms),CH1 Auto-Correlation
1.0,0.018801374360919
2.0,0.018617313355207443
3.0,0.01844058372080326
4.0,0.01826414093375206
5.0,0.018088731914758682
6.0,0.01791203022003174
7.0,0.017734792083501816
8.0,0.01756719872355461
9.0,0.01740235462784767
10.0,0.0172418300062418
11.0,0.01707812026143074
12.0,0.016917454078793526
13.0,0.0167612936347723
14.0,0.01660938188433647
15.0,0.016463113948702812
16.0,0.016318628564476967
18.0,0.016043994575738907
20.0,0.01578092947602272
22.0,0.015526412054896355
24.0,0.01528150774538517
26.0,0.015042465180158615
28.0,0.014812963083386421
30.0,0.014599082991480827
32.0,0.014392836019396782
36.0,0.013993628323078156
40.0,0.013612499460577965
44.0,0.013232534751296043
48.0,0.012868856079876423
52.0,0.012554598972201347
56.0,0.012263759970664978
60.0,0.01197498943656683
64.0,0.011707470752298832
72.0,0.011211634613573551
80.0,0.010809103958308697
88.0,0.010465968400239944
96.0,0.010130486451089382
104.0,0.009811417199671268
112.0,0.00950468797236681
120.0,0.00920663122087717
128.0,0.008941186591982841
144.0,0.008600614964962006
160.0,0.008428050205111504
176.0,0.008220240473747253
192.0,0.00802250299602747
208.0,0.007636160124093294
224.0,0.007310741115361452
240.0,0.007198631763458252
256.0,0.007094434928148985
288.0,0.006856194231659174
320.0,0.006223700940608978
352.0,0.005587974563241005
384.0,0.004692076705396175
416.0,0.0040804361924529076
448.0,0.0035439215134829283
480.0,0.0034692222252488136
512.0,0.0033253098372370005
576.0,0.0025907501112669706
640.0,0.001773220719769597
704.0,0.0009448786149732769
768.0,0.0008460813551209867
832.0,0.0011037966469302773
896.0,0.0011169667122885585
960.0,0.0009838708210736513
1024.0,0.0012000505812466145
1152.0,0.0006933586555533111
1280.0,0.0013081699144095182
1408.0,0.0021757404319941998
1536.0,0.0027087603230029345
1664.0,0.001929125632159412
1792.0,0.0015181467169895768
1920.0,0.0013492860598489642
2048.0,0.0009860151913017035
2304.0,0.0002448445884510875
2560.0,-8.19295019027777e-06
2816.0,0.0002277335588587448
3072.0,-0.00014522229321300983
3328.0,-0.00038976437645033
3584.0,0.0011460022069513798
3840.0,0.00153136916924268
4096.0,-0.0002959787962026894
4608.0,-0.002838535699993372
5120.0,-0.002659745281562209
5632.0,-0.0016938368789851665
6144.0,-0.0053630112670362
6656.0,-0.0045188372023403645
7168.0,-0.0003490149974822998
7680.0,-0.0017477469518780708
8192.0,-0.0018020776333287358
9216.0,-0.0013024212094023824
10240.0,-0.0006860897992737591
11264.0,0.0013712869258597493
12288.0,0.0054262252524495125
13312.0,-0.003885842626914382
14336.0,-0.006771597545593977
end
