version,3.0
numOfCh,1
type,point
parent_name,714af_0dot1-0dot01
ch_type,1_1
kcount,1
numberNandB,1
brightnessNandB,1
carpet pos,0
pc,0
Time (ms),CH1 Auto-Correlation
1.0,0.015512507408857346
2.0,0.01530472282320261
3.0,0.015103321522474289
4.0,0.014903967268764973
5.0,0.014707893133163452
6.0,0.014517158269882202
7.0,0.014326239004731178
8.0,0.014140804298222065
9.0,0.013959391973912716
10.0,0.013781685382127762
11.0,0.01361844316124916
12.0,0.013463098555803299
13.0,0.013310277834534645
14.0,0.013159115798771381
15.0,0.013015097007155418
16.0,0.012865209951996803
18.0,0.012581146322190762
20.0,0.012305826880037785
22.0,0.012032332830131054
24.0,0.011761303059756756
26.0,0.011486458592116833
28.0,0.011208344250917435
30.0,0.010916627943515778
32.0,0.010620394721627235
36.0,0.010046298615634441
40.0,0.009541491977870464
44.0,0.009077844209969044
48.0,0.008643370121717453
52.0,0.008250121958553791
56.0,0.00789703894406557
60.0,0.007593540474772453
64.0,0.00732314633205533
72.0,0.0067807831801474094
80.0,0.006241881288588047
88.0,0.005769102368503809
96.0,0.005355474539101124
104.0,0.004978733137249947
112.0,0.004525092896074057
120.0,0.004158751107752323
128.0,0.0038490956649184227
144.0,0.003459126688539982
160.0,0.0031834456603974104
176.0,0.0029755011200904846
192.0,0.0027691740542650223
208.0,0.0025961194187402725
224.0,0.002469975734129548
240.0,0.002577581675723195
256.0,0.00272516836412251
288.0,0.0020562324207276106
320.0,0.0010830976534634829
352.0,0.00042142521124333143
384.0,0.00039941316936165094
416.0,0.0007303860620595515
448.0,0.0007341938326135278
480.0,0.0007929481798782945
512.0,0.000637281103990972
576.0,0.00016497913748025894
640.0,0.00026566130691207945
704.0,0.0015119804302230477
768.0,0.002251202706247568
832.0,0.002277269959449768
896.0,0.0009119241731241345
960.0,0.0001961689122254029
1024.0,0.00011059791722800583
1152.0,-0.0007183690322563052
1280.0,-9.639420750318095e-05
1408.0,-0.00016512231377419084
1536.0,-0.0009755532955750823
1664.0,-0.001352535793557763
1792.0,-0.002213273197412491
1920.0,-0.0014456933131441474
2048.0,-0.00043365173041820526
2304.0,-0.0007539716898463666
2560.0,-0.0014275277499109507
2816.0,0.001394844613969326
3072.0,0.001409683609381318
3328.0,0.0013675735099241138
3584.0,0.0033276225440204144
3840.0,0.001093616709113121
4096.0,0.001408328884281218
4608.0,-0.001501511549577117
5120.0,-0.001534022274427116
5632.0,-0.002840126398950815
6144.0,-0.0026323453057557344
6656.0,-0.0002315491292392835
7168.0,0.002007965696975589
7680.0,-0.0004524204705376178
8192.0,-4.924073800793849e-05
end
