version,3.0
numOfCh,1
type,point
parent_name,714af_0dot1-0dot01
ch_type,1_1
kcount,1
numberNandB,1
brightnessNandB,1
carpet pos,0
pc,0
Time (ms),CH1 Auto-Correlation
1.0,0.018360329791903496
2.0,0.018172893673181534
3.0,0.017991432920098305
4.0,0.017812112346291542
5.0,0.017633486539125443
6.0,0.017450885847210884
7.0,0.01727413572371006
8.0,0.017099538818001747
9.0,0.016924427822232246
10.0,0.016752848401665688
11.0,0.016583938151597977
12.0,0.016417965292930603
13.0,0.01625695452094078
14.0,0.016095008701086044
15.0,0.015938645228743553
16.0,0.015786854550242424
18.0,0.015487720258533955
20.0,0.015189842320978642
22.0,0.01489771343767643
24.0,0.014612928964197636
26.0,0.01433231495320797
28.0,0.014061344787478447
30.0,0.013804220594465733
32.0,0.013551210053265095
36.0,0.013058338314294815
40.0,0.01259060762822628
44.0,0.01213611476123333
48.0,0.011705798096954823
52.0,0.01129769068211317
56.0,0.010924603790044785
60.0,0.01058798935264349
64.0,0.010268960148096085
72.0,0.009662704542279243
80.0,0.009116427972912788
88.0,0.00863287691026926
96.0,0.008202741853892803
104.0,0.007770797703415155
112.0,0.00731755280867219
120.0,0.006833528634160757
128.0,0.006423782091587782
144.0,0.005793971009552479
160.0,0.00533535098657012
176.0,0.005043036304414272
192.0,0.004885454662144184
208.0,0.004768253769725561
224.0,0.004530048463493586
240.0,0.004401176702231169
256.0,0.004255731124430895
288.0,0.0037606300320476294
320.0,0.003230402013286948
352.0,0.0027101843152195215
384.0,0.0020284426864236593
416.0,0.0012865383177995682
448.0,0.0009571511764079332
480.0,0.0008630701922811568
512.0,0.0010028535034507513
576.0,0.0013030458940193057
640.0,0.0013982567470520735
704.0,0.0009786492446437478
768.0,-0.0001319503498962149
832.0,-0.00084410555427894
896.0,-0.002347510075196624
960.0,-0.0030077293049544096
1024.0,-0.0019814912229776382
1152.0,-0.0011298144236207008
1280.0,0.00012023040471831337
1408.0,0.0007096822373569012
1536.0,-0.0005640948656946421
1664.0,0.00044479238567873836
1792.0,4.199517206870951e-05
1920.0,-0.0003997325839009136
2048.0,-0.0007884342921897769
2304.0,-2.61386940110242e-05
2560.0,0.0016063433140516281
2816.0,0.002000182867050171
3072.0,0.002425521146506071
3328.0,-0.0009149914840236306
3584.0,-0.001174717559479177
3840.0,-0.0018962359754368663
4096.0,-0.0008178258431144059
4608.0,0.001387923490256071
5120.0,0.0016727515030652285
5632.0,4.916263424092904e-05
6144.0,-0.003090132726356387
6656.0,-0.0037561070639640093
7168.0,-0.0019251046469435096
7680.0,-0.0004879941698163748
8192.0,0.0021200994960963726
end
