version,3.0
numOfCh,1
type,point
parent_name,714af_0dot1-0dot01
ch_type,1_1
kcount,1
numberNandB,1
brightnessNandB,1
carpet pos,0
pc,0
Time (ms),CH1 Auto-Correlation
1.0,0.012494956143200397
2.0,0.012317727319896221
3.0,0.012150903232395649
4.0,0.01199073065072298
5.0,0.011835173703730106
6.0,0.011676233261823654
7.0,0.011524348519742489
8.0,0.011374413035809994
9.0,0.011232445947825909
10.0,0.011097362264990807
11.0,0.010974995791912079
12.0,0.010853519663214684
13.0,0.010735035873949528
14.0,0.010611699894070625
15.0,0.010489092208445072
16.0,0.010371245443820953
18.0,0.010138425044715405
20.0,0.009907430969178677
22.0,0.009661180898547173
24.0,0.009420886635780334
26.0,0.00919920764863491
28.0,0.008997657336294651
30.0,0.008810472674667835
32.0,0.008625015616416931
36.0,0.008233265951275826
40.0,0.007851493544876575
44.0,0.007490307558327913
48.0,0.007154707331210375
52.0,0.006857382133603096
56.0,0.0065508075058460236
60.0,0.006243899464607239
64.0,0.005948455072939396
72.0,0.005446179769933224
80.0,0.0050015221349895
88.0,0.004645641893148422
96.0,0.004293206613510847
104.0,0.003945352043956518
112.0,0.003552868962287903
120.0,0.0032071140594780445
128.0,0.0029176431708037853
144.0,0.0023278226144611835
160.0,0.0018508898792788386
176.0,0.001599925453774631
192.0,0.0015040285652503371
208.0,0.0013561132363975048
224.0,0.0011810895521193743
240.0,0.000907532696146518
256.0,0.0007257749675773084
288.0,0.000556730548851192
320.0,0.0007065217359922826
352.0,0.0017557007959112525
384.0,0.002699862467125058
416.0,0.0028372344095259905
448.0,0.0026147884782403708
480.0,0.002295122714713216
512.0,0.002254122868180275
576.0,0.001765337772667408
640.0,0.00022029108367860317
704.0,-0.0011949443724006414
768.0,-0.0008843605755828321
832.0,2.255194340250455e-05
896.0,0.0005912623601034284
960.0,-0.00031822334858588874
1024.0,-0.0018459263956174254
1152.0,-0.002252019476145506
1280.0,-0.0022066279780119658
1408.0,-0.0009777969680726528
1536.0,-0.001224445877596736
1664.0,-0.0026837694458663464
1792.0,-0.0020333649590611458
1920.0,-0.0012508754152804613
2048.0,0.00012486541527323425
2304.0,0.0007168175070546567
2560.0,8.5710700659547e-05
2816.0,0.0001819386234274134
3072.0,-0.002296878257766366
3328.0,-0.0013167666038498282
3584.0,-0.0023808239493519068
3840.0,-0.002290768548846245
4096.0,-0.0016610054299235344
end
