version,3.0
numOfCh,1
type,point
parent_name,714af_0dot1-0dot01
ch_type,1_1
kcount,1
numberNandB,1
brightnessNandB,1
carpet pos,0
pc,0
Time (ms),CH1 Auto-Correlation
1.0,0.016664424911141396
2.0,0.016472361981868744
3.0,0.0162791907787323
4.0,0.016091926023364067
5.0,0.015913261100649834
6.0,0.01574390009045601
7.0,0.015575291588902473
8.0,0.015410618856549263
9.0,0.015252380631864071
10.0,0.015101360157132149
11.0,0.014955426566302776
12.0,0.014816127717494965
13.0,0.014679612591862679
14.0,0.014548233710229397
15.0,0.014425534754991531
16.0,0.014306439086794853
18.0,0.01408314798027277
20.0,0.013883508741855621
22.0,0.01371066365391016
24.0,0.01354842260479927
26.0,0.01338045671582222
28.0,0.013215926475822926
30.0,0.01305448915809393
32.0,0.012893697246909142
36.0,0.012554015964269638
40.0,0.012234700843691826
44.0,0.011944035068154335
48.0,0.011692638508975506
52.0,0.011447970755398273
56.0,0.011208226904273033
60.0,0.010974478907883167
64.0,0.01071549765765667
72.0,0.010296297259628773
80.0,0.010027145966887474
88.0,0.00977337546646595
96.0,0.009443930350244045
104.0,0.009174390695989132
112.0,0.00893216673284769
120.0,0.008668698370456696
128.0,0.008415347896516323
144.0,0.007877135649323463
160.0,0.007422836031764746
176.0,0.006957517471164465
192.0,0.006654956378042698
208.0,0.006227434147149324
224.0,0.005860600620508194
240.0,0.0055106100626289845
256.0,0.005374198779463768
288.0,0.00515480013564229
320.0,0.004747664090245962
352.0,0.004094921052455902
384.0,0.0032561172265559435
416.0,0.0024169159587472677
448.0,0.0022081159986555576
480.0,0.0025016695726662874
512.0,0.002501455368474126
576.0,0.0025977210607379675
640.0,0.002762808697298169
704.0,0.002182603348046541
768.0,0.0016409559175372124
832.0,0.0019267740426585078
896.0,0.0023415202740579844
960.0,0.003056512912735343
1024.0,0.003089745296165347
1152.0,0.004011168610304594
1280.0,0.004547795280814171
1408.0,0.0036846152506768703
1536.0,0.002628408372402191
1664.0,0.0022791719529777765
1792.0,0.0022176492493599653
1920.0,0.002287567127496004
2048.0,0.002930515445768833
2304.0,0.002243992406874895
2560.0,0.0014842789387330413
2816.0,0.0008234453271143138
3072.0,0.0008299516048282385
3328.0,0.00043757600360549986
3584.0,-0.0004191588086541742
3840.0,-0.0007148943841457367
4096.0,0.0007014705915935338
4608.0,-0.00016592508472967893
5120.0,-0.004896984901279211
5632.0,-0.0034937879536300898
6144.0,-0.004983583465218544
6656.0,-0.0050391098484396935
7168.0,-0.00555404694750905
7680.0,-0.003285763319581747
8192.0,-0.0030533273238688707
end
