version,3.0
numOfCh,1
type,point
parent_name,20-cuts
ch_type,1_1
kcount,1
numberNandB,1
brightnessNandB,1
carpet pos,0
pc,0
Time (ms),CH1 Auto-Correlation
1.0,0.07778242230415344
2.0,0.07721031457185745
3.0,0.07664406299591064
4.0,0.07608437538146973
5.0,0.07551643997430801
6.0,0.07496581226587296
7.0,0.07441868633031845
8.0,0.0738695040345192
9.0,0.07333249598741531
10.0,0.07280486822128296
11.0,0.07229533046483994
12.0,0.07179410010576248
13.0,0.07130485028028488
14.0,0.07083483785390854
15.0,0.07037193328142166
16.0,0.0699273869395256
18.0,0.06903392821550369
20.0,0.06816276907920837
22.0,0.0673341229557991
24.0,0.06651634722948074
26.0,0.06573037803173065
28.0,0.06497956812381744
30.0,0.0642806887626648
32.0,0.06360609084367752
36.0,0.06222940981388092
40.0,0.06077583506703377
44.0,0.059346169233322144
48.0,0.057972926646471024
52.0,0.0565994493663311
56.0,0.05523475259542465
60.0,0.05388110503554344
64.0,0.05256877839565277
72.0,0.05025886744260788
80.0,0.04799077659845352
88.0,0.04587330296635628
96.0,0.04380003362894058
104.0,0.041902996599674225
112.0,0.04020918160676956
120.0,0.03850780799984932
128.0,0.036979496479034424
144.0,0.034817181527614594
160.0,0.032872896641492844
176.0,0.03092203661799431
192.0,0.029349761083722115
208.0,0.027721833437681198
224.0,0.02648123726248741
240.0,0.025185996666550636
256.0,0.023901838809251785
288.0,0.021901097148656845
320.0,0.020284445956349373
352.0,0.019033679738640785
384.0,0.01709124632179737
416.0,0.015754980966448784
448.0,0.014493678696453571
480.0,0.01263557467609644
512.0,0.012047241441905499
576.0,0.012688730843365192
640.0,0.009928356856107712
704.0,0.007384495344012976
768.0,0.0036115848924964666
832.0,-0.0017500822432339191
896.0,-0.0022244425490498543
960.0,-0.0014982542488723993
1024.0,0.0015195861924439669
1152.0,0.006878418382257223
1280.0,0.009190410375595093
1408.0,0.007401267997920513
1536.0,0.008471478708088398
1664.0,0.01020532101392746
1792.0,0.011930521577596664
1920.0,0.011465027928352356
2048.0,0.007911250926554203
2304.0,0.010239802300930023
2560.0,0.01679316721856594
2816.0,0.012084133923053741
3072.0,0.009636199101805687
3328.0,0.0028600639197975397
3584.0,0.0035416963510215282
3840.0,-0.0023915907368063927
4096.0,-0.0015946103958413005
4608.0,-0.004347920883446932
5120.0,0.0014063561102375388
5632.0,0.002111779758706689
6144.0,0.0003021273878403008
6656.0,0.0005649775266647339
7168.0,-0.0002645225904416293
7680.0,-0.0017532724887132645
8192.0,-0.0012500619050115347
9216.0,-0.00057302723871544
10240.0,-0.011274836957454681
11264.0,-0.020812125876545906
12288.0,-0.03301816061139107
13312.0,-0.04049484059214592
14336.0,-0.030970782041549683
end
