version,3.0
numOfCh,1
type,point
parent_name,20-cuts
ch_type,1_1
kcount,1
numberNandB,1
brightnessNandB,1
carpet pos,0
pc,0
Time (ms),CH1 Auto-Correlation
1.0,0.07647837698459625
2.0,0.07598724961280823
3.0,0.07550504803657532
4.0,0.0750298872590065
5.0,0.07455507665872574
6.0,0.07408373802900314
7.0,0.07362496107816696
8.0,0.0731687992811203
9.0,0.0727129653096199
10.0,0.07226952910423279
11.0,0.07183035463094711
12.0,0.07140636444091797
13.0,0.0709763765335083
14.0,0.07054462283849716
15.0,0.07012166827917099
16.0,0.06970833241939545
18.0,0.06888610869646072
20.0,0.06809511035680771
22.0,0.06733201444149017
24.0,0.06660550087690353
26.0,0.06588906794786453
28.0,0.06519939005374908
30.0,0.06449709832668304
32.0,0.06376603990793228
36.0,0.06234350800514221
40.0,0.0609460286796093
44.0,0.05958431959152222
48.0,0.05824784189462662
52.0,0.05694063380360603
56.0,0.05567402020096779
60.0,0.05452166870236397
64.0,0.05341241881251335
72.0,0.05147893354296684
80.0,0.049813538789749146
88.0,0.048384889960289
96.0,0.04700208455324173
104.0,0.045692771673202515
112.0,0.044385697692632675
120.0,0.04317522421479225
128.0,0.04200690984725952
144.0,0.03971613943576813
160.0,0.037696849554777145
176.0,0.03593353554606438
192.0,0.034631457179784775
208.0,0.03416374325752258
224.0,0.03426772356033325
240.0,0.034431859850883484
256.0,0.034477367997169495
288.0,0.03440999984741211
320.0,0.033494118601083755
352.0,0.03228023275732994
384.0,0.030881183221936226
416.0,0.029111027717590332
448.0,0.028344031423330307
480.0,0.027686312794685364
512.0,0.026904502883553505
576.0,0.027015017345547676
640.0,0.027704592794179916
704.0,0.02795436792075634
768.0,0.025470497086644173
832.0,0.022414959967136383
896.0,0.022786172106862068
960.0,0.024478593841195107
1024.0,0.025546688586473465
1152.0,0.02041603811085224
1280.0,0.014984997920691967
1408.0,0.012879147194325924
1536.0,0.011623061262071133
1664.0,0.008381197229027748
1792.0,0.004895044025033712
1920.0,0.000349225738318637
2048.0,-0.0012335694627836347
2304.0,-0.009712748229503632
2560.0,-0.01660841517150402
2816.0,-0.01307146716862917
3072.0,-0.012723343446850777
3328.0,-0.015459727495908737
3584.0,-0.013984858989715576
3840.0,-0.01413261704146862
4096.0,-0.01058513205498457
4608.0,0.0025027061346918344
5120.0,0.005724371876567602
5632.0,0.011111469008028507
6144.0,0.018313869833946228
6656.0,0.012356077320873737
7168.0,0.0009314423659816384
7680.0,-0.0015696084592491388
8192.0,-0.006535186432301998
9216.0,-0.009458044543862343
10240.0,-0.0039572338573634624
11264.0,-0.01661980338394642
12288.0,-0.030307790264487267
13312.0,-0.039551157504320145
14336.0,-0.03936987370252609
end
