version,3.0
numOfCh,1
type,point
parent_name,20-cuts
ch_type,1_1
kcount,1
numberNandB,1
brightnessNandB,1
carpet pos,0
pc,0
Time (ms),CH1 Auto-Correlation
1.0,0.032522380352020264
2.0,0.03230718895792961
3.0,0.03209393471479416
4.0,0.03188805282115936
5.0,0.031686846166849136
6.0,0.03148438781499863
7.0,0.03128078952431679
8.0,0.03108195587992668
9.0,0.03088526427745819
10.0,0.030691515654325485
11.0,0.030501049011945724
12.0,0.030301379039883614
13.0,0.03010101243853569
14.0,0.029899561777710915
15.0,0.029706614091992378
16.0,0.0295189768075943
18.0,0.029140206053853035
20.0,0.028765197843313217
22.0,0.028376378118991852
24.0,0.027981381863355637
26.0,0.027597256004810333
28.0,0.027231212705373764
30.0,0.026872428134083748
32.0,0.026515355333685875
36.0,0.025808122009038925
40.0,0.025149796158075333
44.0,0.024507837370038033
48.0,0.02390461042523384
52.0,0.023366307839751244
56.0,0.022852228954434395
60.0,0.02236773818731308
64.0,0.021862048655748367
72.0,0.020909897983074188
80.0,0.02001502364873886
88.0,0.019198141992092133
96.0,0.01845880225300789
104.0,0.01779121160507202
112.0,0.017151039093732834
120.0,0.01651706174015999
128.0,0.01586303301155567
144.0,0.014593806117773056
160.0,0.01339646428823471
176.0,0.012477073818445206
192.0,0.011694824323058128
208.0,0.010976138524711132
224.0,0.01034089457243681
240.0,0.009774708189070225
256.0,0.009330324828624725
288.0,0.008967132307589054
320.0,0.008238171227276325
352.0,0.006808833219110966
384.0,0.005455939099192619
416.0,0.005128517281264067
448.0,0.004492687992751598
480.0,0.003965695854276419
512.0,0.003756104502826929
576.0,0.003517228877171874
640.0,0.0029690228402614594
704.0,0.0018785735592246056
768.0,0.0013080976204946637
832.0,0.0012230458669364452
896.0,0.0017865487607195973
960.0,-0.0001620304974494502
1024.0,-0.0027653672732412815
1152.0,-0.005629119463264942
1280.0,-0.006264076102524996
1408.0,-0.0054970551282167435
1536.0,-0.00604504207149148
1664.0,-0.005347040016204119
1792.0,-0.002113550202921033
1920.0,0.000249641016125679
2048.0,0.0018354544881731272
2304.0,0.003381821559742093
2560.0,0.0024384232237935066
2816.0,0.00511847622692585
3072.0,0.0017489364836364985
3328.0,-0.0019977593328803778
3584.0,-0.005130358971655369
3840.0,-0.006304388400167227
4096.0,-0.00845932587981224
4608.0,-0.005414188373833895
5120.0,-0.0026466581039130688
5632.0,0.0012033734237775207
6144.0,0.0026512769982218742
6656.0,0.003701284294947982
7168.0,-0.0027002047281712294
7680.0,-0.0008450106834061444
8192.0,0.0023202153388410807
9216.0,0.004887991584837437
10240.0,-0.0032724663615226746
11264.0,-0.0011072468478232622
12288.0,-0.0009030313813127577
13312.0,-0.004942417144775391
14336.0,-8.312139834742993e-05
end
