version,3.0
numOfCh,1
type,point
parent_name,20-cuts
ch_type,1_1
kcount,1
numberNandB,1
brightnessNandB,1
carpet pos,0
pc,0
Time (ms),CH1 Auto-Correlation
1.0,0.02471926063299179
2.0,0.0245115477591753
3.0,0.024303581565618515
4.0,0.024097004905343056
5.0,0.023893913254141808
6.0,0.023689595982432365
7.0,0.02349064312875271
8.0,0.023293141275644302
9.0,0.023096779361367226
10.0,0.022898614406585693
11.0,0.022702857851982117
12.0,0.022507114335894585
13.0,0.022316236048936844
14.0,0.022124912589788437
15.0,0.02193480357527733
16.0,0.021751806139945984
18.0,0.02138647995889187
20.0,0.021026350557804108
22.0,0.02067704126238823
24.0,0.020345984026789665
26.0,0.02001621387898922
28.0,0.01968475431203842
30.0,0.019357237964868546
32.0,0.019032353535294533
36.0,0.0184245053678751
40.0,0.017838066443800926
44.0,0.01723943091928959
48.0,0.016671331599354744
52.0,0.016119468957185745
56.0,0.015562852844595909
60.0,0.015003745444118977
64.0,0.014454864896833897
72.0,0.013374069705605507
80.0,0.012399225495755672
88.0,0.011515523307025433
96.0,0.010718139819800854
104.0,0.009947399608790874
112.0,0.009174670092761517
120.0,0.008496863767504692
128.0,0.00783828180283308
144.0,0.0064788260497152805
160.0,0.005159739870578051
176.0,0.004142293706536293
192.0,0.0033657748717814684
208.0,0.0024766672868281603
224.0,0.0016518558841198683
240.0,0.0010824940400198102
256.0,0.0007427464006468654
288.0,0.0009257432539016008
320.0,0.001437983475625515
352.0,0.0014506614534184337
384.0,0.0012622569920495152
416.0,0.0014966969611123204
448.0,0.0015202214708551764
480.0,0.0014187495689839125
512.0,0.0011920426040887833
576.0,0.00024214103177655488
640.0,-0.00047825061483308673
704.0,-0.0010420859325677156
768.0,-0.00044313425314612687
832.0,0.0012123510241508484
896.0,0.0022033730056136847
960.0,0.002765446901321411
1024.0,0.001357140252366662
1152.0,-0.0022669583559036255
1280.0,-0.002237623790279031
1408.0,-0.0014537774259224534
1536.0,-0.00042263566865585744
1664.0,-0.0008334340527653694
1792.0,-0.0005580114666372538
1920.0,0.0006542903720401227
2048.0,-0.0014083003625273705
2304.0,-0.0017865468980744481
2560.0,-2.6170069759245962e-05
2816.0,0.00041170456097461283
3072.0,6.942595064174384e-05
3328.0,0.002424717415124178
3584.0,-0.0016673693899065256
3840.0,-0.002716283779591322
4096.0,-0.0013718183618038893
4608.0,-0.002525507705286145
5120.0,-0.0005270246183499694
5632.0,-0.0009172530262731016
6144.0,0.002360377926379442
6656.0,-0.0005047892918810248
7168.0,-0.0012634153245016932
7680.0,0.00013920517812948674
8192.0,0.0008381478837691247
9216.0,-0.0008490291074849665
10240.0,0.00040357859688811004
11264.0,0.000733063614461571
12288.0,0.0018001317512243986
13312.0,0.0030814644414931536
14336.0,-0.004577360115945339
end
