version,3.0
numOfCh,1
type,point
parent_name,20-cuts
ch_type,1_1
kcount,1
numberNandB,1
brightnessNandB,1
carpet pos,0
pc,0
Time (ms),CH1 Auto-Correlation
1.0,0.03465244919061661
2.0,0.034420713782310486
3.0,0.03418702259659767
4.0,0.03395312651991844
5.0,0.0337144173681736
6.0,0.033474624156951904
7.0,0.033230651170015335
8.0,0.032986827194690704
9.0,0.03274829685688019
10.0,0.032508186995983124
11.0,0.032267868518829346
12.0,0.032028619199991226
13.0,0.03178982064127922
14.0,0.03155061975121498
15.0,0.03131591156125069
16.0,0.031072871759533882
18.0,0.030589379370212555
20.0,0.030124496668577194
22.0,0.029667692258954048
24.0,0.02921326644718647
26.0,0.028779422864317894
28.0,0.028362268581986427
30.0,0.027952060103416443
32.0,0.02754649892449379
36.0,0.026750672608613968
40.0,0.02599523402750492
44.0,0.025282328948378563
48.0,0.02461160346865654
52.0,0.0239573884755373
56.0,0.02333960123360157
60.0,0.022716419771313667
64.0,0.022107791155576706
72.0,0.021031536161899567
80.0,0.02010912261903286
88.0,0.01925894059240818
96.0,0.01844528131186962
104.0,0.017654813826084137
112.0,0.016876159235835075
120.0,0.01613633893430233
128.0,0.015412414446473122
144.0,0.014013116247951984
160.0,0.012910181656479836
176.0,0.01192607544362545
192.0,0.011179019697010517
208.0,0.010760320350527763
224.0,0.010346394963562489
240.0,0.009970048442482948
256.0,0.009481183253228664
288.0,0.008481423370540142
320.0,0.007875801995396614
352.0,0.006611039396375418
384.0,0.0050194463692605495
416.0,0.0034422813914716244
448.0,0.0024477089755237103
480.0,0.002088054781779647
512.0,0.001378535060212016
576.0,0.0008248318335972726
640.0,-0.00016369701188523322
704.0,-0.00052887067431584
768.0,-0.0007993548642843962
832.0,-0.00045343642705120146
896.0,-0.0006746549624949694
960.0,-0.002836942207068205
1024.0,-0.0047035072930157185
1152.0,-0.0051111686043441296
1280.0,-0.004842899739742279
1408.0,-0.004977529402822256
1536.0,-0.005613568238914013
1664.0,-0.006354050245136023
1792.0,-0.0030799724627286196
1920.0,0.00015017965051811188
2048.0,0.00042340747313573956
2304.0,0.0003182005602866411
2560.0,-0.00034048259840346873
2816.0,0.0040520839393138885
3072.0,0.004334575030952692
3328.0,0.004380644764751196
3584.0,0.0019412164110690355
3840.0,-0.002803722396492958
4096.0,-0.00598457595333457
4608.0,-0.0029300586320459843
5120.0,0.0012728349538519979
5632.0,0.0026645464822649956
6144.0,0.0040400680154562
6656.0,0.003658971516415477
7168.0,-0.0024280690122395754
7680.0,-0.007223848253488541
8192.0,-0.004514847882091999
9216.0,-0.0016412620898336172
10240.0,-0.002654085401445627
11264.0,0.0017782667418941855
12288.0,0.0032885593827813864
13312.0,-0.006530390586704016
14336.0,-0.0031337267719209194
end
