version,3.0
numOfCh,1
type,point
parent_name,20-cuts
ch_type,1_1
kcount,1
numberNandB,1
brightnessNandB,1
carpet pos,0
pc,0
Time (ms),CH1 Auto-Correlation
1.0,0.06845689564943314
2.0,0.06797685474157333
3.0,0.06750468164682388
4.0,0.06704054772853851
5.0,0.06657502800226212
6.0,0.06611153483390808
7.0,0.06564521789550781
8.0,0.06519277393817902
9.0,0.0647544413805008
10.0,0.06432069838047028
11.0,0.06388719379901886
12.0,0.06345772743225098
13.0,0.06302043795585632
14.0,0.06258471310138702
15.0,0.062146786600351334
16.0,0.06172524020075798
18.0,0.06090367212891579
20.0,0.060111064463853836
22.0,0.05934818089008331
24.0,0.05858473479747772
26.0,0.057842500507831573
28.0,0.057105183601379395
30.0,0.056377992033958435
32.0,0.05568011850118637
36.0,0.054342277348041534
40.0,0.05309836193919182
44.0,0.05193142965435982
48.0,0.05083097890019417
52.0,0.04971170425415039
56.0,0.04862039536237717
60.0,0.04760922119021416
64.0,0.046610210090875626
72.0,0.044652309268713
80.0,0.04265185073018074
88.0,0.040820829570293427
96.0,0.039207823574543
104.0,0.03777853399515152
112.0,0.03642958030104637
120.0,0.035146165639162064
128.0,0.03377995640039444
144.0,0.031351830810308456
160.0,0.02968430705368519
176.0,0.02813691645860672
192.0,0.026619182899594307
208.0,0.0253329798579216
224.0,0.02378181368112564
240.0,0.02199331857264042
256.0,0.020053882151842117
288.0,0.016369065269827843
320.0,0.012646844610571861
352.0,0.009831159375607967
384.0,0.008306373842060566
416.0,0.006780543830245733
448.0,0.005437994841486216
480.0,0.0046077328734099865
512.0,0.004224592354148626
576.0,0.0005490544717758894
640.0,-0.001295859576202929
704.0,-0.0034979511983692646
768.0,-0.005468818359076977
832.0,-0.007889972999691963
896.0,-0.009324675425887108
960.0,-0.006157168187201023
1024.0,-0.004370565991848707
1152.0,-0.0041977399960160255
1280.0,-0.00189686450175941
1408.0,-0.0028432696126401424
1536.0,-0.002341546816751361
1664.0,-0.003117901738733053
1792.0,-0.0021393352653831244
1920.0,-0.004429055377840996
2048.0,-0.008752851746976376
2304.0,-0.007441650610417128
2560.0,-0.0024340134114027023
2816.0,-0.005114533472806215
3072.0,-0.006557922810316086
3328.0,-0.014538214541971684
3584.0,-0.011584307998418808
3840.0,-0.00046500892494805157
4096.0,0.004592117853462696
4608.0,0.0031717028468847275
5120.0,0.0037689923774451017
5632.0,0.005326634272933006
6144.0,-0.0051467446610331535
6656.0,0.005461865570396185
7168.0,-0.004366670269519091
7680.0,-0.012873869389295578
8192.0,-0.00015776869258843362
9216.0,0.005341759417206049
10240.0,-0.0022107691038399935
11264.0,0.001878206618130207
12288.0,-0.004259987268596888
13312.0,0.008752519264817238
14336.0,-0.009782319888472557
end
