version,3.0
numOfCh,1
type,point
parent_name,20-cuts
ch_type,1_1
kcount,1
numberNandB,1
brightnessNandB,1
carpet pos,0
pc,0
Time (ms),CH1 Auto-Correlation
1.0,0.13866785168647766
2.0,0.1377645879983902
3.0,0.13686174154281616
4.0,0.13596343994140625
5.0,0.13507790863513947
6.0,0.13421256840229034
7.0,0.13333867490291595
8.0,0.13247327506542206
9.0,0.13160888850688934
10.0,0.1307656615972519
11.0,0.12990742921829224
12.0,0.12900592386722565
13.0,0.12811648845672607
14.0,0.12723441421985626
15.0,0.12638387084007263
16.0,0.12553225457668304
18.0,0.12387245148420334
20.0,0.1222195252776146
22.0,0.12065698206424713
24.0,0.11916729062795639
26.0,0.11771425604820251
28.0,0.11632219702005386
30.0,0.11495205760002136
32.0,0.1136210635304451
36.0,0.11099842935800552
40.0,0.10833083838224411
44.0,0.10555721819400787
48.0,0.10271231085062027
52.0,0.09983420372009277
56.0,0.0969398021697998
60.0,0.09416642040014267
64.0,0.09157173335552216
72.0,0.08690086007118225
80.0,0.0825028270483017
88.0,0.07794695347547531
96.0,0.0734233409166336
104.0,0.06978683918714523
112.0,0.06694954633712769
120.0,0.06467660516500473
128.0,0.06285649538040161
144.0,0.05935485661029816
160.0,0.0567772276699543
176.0,0.055039092898368835
192.0,0.053508441895246506
208.0,0.05264180153608322
224.0,0.05151292681694031
240.0,0.05073513835668564
256.0,0.04999447613954544
288.0,0.04708167538046837
320.0,0.043460819870233536
352.0,0.039830002933740616
384.0,0.03587476164102554
416.0,0.031480129808187485
448.0,0.02905689738690853
480.0,0.024758275598287582
512.0,0.018959887325763702
576.0,0.01281487662345171
640.0,0.009960934519767761
704.0,0.005380310118198395
768.0,-0.004487319383770227
832.0,-0.012144727632403374
896.0,-0.014519505202770233
960.0,-0.015162046998739243
1024.0,-0.01804918237030506
1152.0,-0.01238488219678402
1280.0,-0.007321489974856377
1408.0,-0.008075268007814884
1536.0,-0.0008469409076496959
1664.0,0.005481433589011431
1792.0,0.012594480067491531
1920.0,0.017617112025618553
2048.0,0.009704492054879665
2304.0,0.02358490787446499
2560.0,0.008904954418540001
2816.0,0.009023924358189106
3072.0,0.010364639572799206
3328.0,0.002019846113398671
3584.0,-0.00318169966340065
3840.0,-0.02458891086280346
4096.0,-0.01134659443050623
4608.0,0.019758140668272972
5120.0,0.01398384291678667
5632.0,-0.017732050269842148
6144.0,-0.029612882062792778
6656.0,-0.01199133601039648
7168.0,0.010120818391442299
7680.0,0.02491818182170391
8192.0,0.001239122822880745
9216.0,-0.009786561131477356
10240.0,-0.006143773905932903
11264.0,-0.011108361184597015
12288.0,-0.0008766315877437592
13312.0,-0.06295591592788696
14336.0,-0.06372934579849243
end
