version,3.0
numOfCh,1
type,point
parent_name,20-cuts
ch_type,1_1
kcount,1
numberNandB,1
brightnessNandB,1
carpet pos,0
pc,0
Time (ms),CH1 Auto-Correlation
1.0,0.11163648962974548
2.0,0.11102256923913956
3.0,0.11040768772363663
4.0,0.10980374366044998
5.0,0.10921424627304077
6.0,0.108646921813488
7.0,0.10809887200593948
8.0,0.10753902047872543
9.0,0.1069832444190979
10.0,0.10643551498651505
11.0,0.10590800642967224
12.0,0.10540071129798889
13.0,0.10490140318870544
14.0,0.10438529402017593
15.0,0.10387959331274033
16.0,0.1033884659409523
18.0,0.10241716355085373
20.0,0.10146532207727432
22.0,0.10047987103462219
24.0,0.09949062019586563
26.0,0.09850600361824036
28.0,0.09755612164735794
30.0,0.09663953632116318
32.0,0.09574428200721741
36.0,0.09390312433242798
40.0,0.09204555302858353
44.0,0.09022202342748642
48.0,0.08849716931581497
52.0,0.08685337752103806
56.0,0.08529794961214066
60.0,0.08383529633283615
64.0,0.08246283233165741
72.0,0.07976150512695312
80.0,0.0771351084113121
88.0,0.07492853701114655
96.0,0.07287652045488358
104.0,0.07106427848339081
112.0,0.06918235123157501
120.0,0.06721143424510956
128.0,0.06506165862083435
144.0,0.06110342592000961
160.0,0.05709647387266159
176.0,0.05345961079001427
192.0,0.05000673234462738
208.0,0.046799276024103165
224.0,0.04421534389257431
240.0,0.04133763536810875
256.0,0.03825840726494789
288.0,0.032452888786792755
320.0,0.02839605137705803
352.0,0.026247095316648483
384.0,0.023733658716082573
416.0,0.02078002132475376
448.0,0.017940713092684746
480.0,0.014145709574222565
512.0,0.009828646667301655
576.0,0.00518820621073246
640.0,0.0025117299519479275
704.0,0.00034787735785357654
768.0,-0.002038798527792096
832.0,-0.006788395345211029
896.0,-0.005906718783080578
960.0,-0.005811413750052452
1024.0,-0.006675179582089186
1152.0,-0.0035469660069793463
1280.0,-0.005059715826064348
1408.0,-0.007310706656426191
1536.0,-0.007527235895395279
1664.0,-0.003438331885263324
1792.0,0.0032379997428506613
1920.0,0.01162201352417469
2048.0,0.01366625539958477
2304.0,-0.0022616377100348473
2560.0,-0.02162189781665802
2816.0,-0.03181370347738266
3072.0,-0.03146694228053093
3328.0,-0.021576974540948868
3584.0,-0.014975640922784805
3840.0,-0.025554234161973
4096.0,-0.010474073700606823
4608.0,0.023521963506937027
5120.0,0.015693452209234238
5632.0,0.005478734150528908
6144.0,0.009962856769561768
6656.0,0.031010795384645462
7168.0,0.002712440211325884
7680.0,-0.024588007479906082
8192.0,-0.01640819013118744
9216.0,-0.001818787306547165
10240.0,-0.00837349146604538
11264.0,0.008906964212656021
12288.0,-0.015412758104503155
13312.0,-0.0009542325860820711
14336.0,-0.020080652087926865
end
