version,3.0
numOfCh,1
type,point
parent_name,20-cuts
ch_type,1_1
kcount,1
numberNandB,1
brightnessNandB,1
carpet pos,0
pc,0
Time (ms),CH1 Auto-Correlation
1.0,0.04201578348875046
2.0,0.041758716106414795
3.0,0.041501954197883606
4.0,0.041255779564380646
5.0,0.04101485013961792
6.0,0.04077065736055374
7.0,0.04052266478538513
8.0,0.04028267413377762
9.0,0.04004858806729317
10.0,0.03981572762131691
11.0,0.03958645090460777
12.0,0.03936076536774635
13.0,0.03913060948252678
14.0,0.03890002891421318
15.0,0.03867390751838684
16.0,0.03844607248902321
18.0,0.03798443824052811
20.0,0.03753169998526573
22.0,0.03707770258188248
24.0,0.036645058542490005
26.0,0.03622521087527275
28.0,0.03580721095204353
30.0,0.03542925417423248
32.0,0.03507913649082184
36.0,0.03437812998890877
40.0,0.03370823711156845
44.0,0.033037133514881134
48.0,0.032365523278713226
52.0,0.031693678349256516
56.0,0.03102927841246128
60.0,0.030352484434843063
64.0,0.02966163493692875
72.0,0.028384950011968613
80.0,0.02721794694662094
88.0,0.02611927129328251
96.0,0.025139931589365005
104.0,0.024279264733195305
112.0,0.023391660302877426
120.0,0.022438429296016693
128.0,0.021474510431289673
144.0,0.01991264894604683
160.0,0.018821656703948975
176.0,0.01755608804523945
192.0,0.016366351395845413
208.0,0.015576731413602829
224.0,0.015062941238284111
240.0,0.014472835697233677
256.0,0.013693036511540413
288.0,0.011432802304625511
320.0,0.009846781380474567
352.0,0.008695578202605247
384.0,0.007377230562269688
416.0,0.006145496387034655
448.0,0.005059656221419573
480.0,0.004358232486993074
512.0,0.003451296128332615
576.0,0.0012189550325274467
640.0,0.0001190484908875078
704.0,-0.0009934151312336326
768.0,-0.0009376683738082647
832.0,-0.0010727513581514359
896.0,-0.0012000052956864238
960.0,-0.0023065414279699326
1024.0,-0.002606739057227969
1152.0,-0.000882146880030632
1280.0,0.0010865814983844757
1408.0,0.004353924188762903
1536.0,0.004523837938904762
1664.0,0.004043105524033308
1792.0,0.0021934639662504196
1920.0,0.0017633156385272741
2048.0,0.0016170041635632515
2304.0,-0.0019090528367087245
2560.0,-0.006705047562718391
2816.0,-0.01193658821284771
3072.0,-0.014814200811088085
3328.0,-0.008569388650357723
3584.0,0.0017789519624784589
3840.0,0.004429496359080076
4096.0,-0.0018656131578609347
4608.0,-0.009067395702004433
5120.0,0.0017774481093510985
5632.0,0.006383550353348255
6144.0,0.002570970216766
6656.0,-0.0021863204892724752
7168.0,0.0048014260828495026
7680.0,0.007754366844892502
8192.0,-0.00771668553352356
9216.0,0.005718044936656952
10240.0,-0.012219446711242199
11264.0,0.0034964645747095346
12288.0,-0.009673481807112694
13312.0,0.0134256137534976
14336.0,-0.010085754096508026
end
