version,3.0
numOfCh,1
type,point
parent_name,20-cuts
ch_type,1_1
kcount,1
numberNandB,1
brightnessNandB,1
carpet pos,0
pc,0
Time (ms),CH1 Auto-Correlation
1.0,0.07204192131757736
2.0,0.07137635350227356
3.0,0.0707051232457161
4.0,0.07004981487989426
5.0,0.06940402090549469
6.0,0.06876161694526672
7.0,0.06811368465423584
8.0,0.06748577207326889
9.0,0.06685744971036911
10.0,0.06624170392751694
11.0,0.0656367763876915
12.0,0.06502659618854523
13.0,0.06442225724458694
14.0,0.06383632868528366
15.0,0.06326538324356079
16.0,0.06269340217113495
18.0,0.06158875301480293
20.0,0.06051865592598915
22.0,0.05952383577823639
24.0,0.05856164172291756
26.0,0.057615019381046295
28.0,0.05670423433184624
30.0,0.055813781917095184
32.0,0.05496619641780853
36.0,0.05335547402501106
40.0,0.05175525322556496
44.0,0.05012702941894531
48.0,0.04853244125843048
52.0,0.04700125381350517
56.0,0.045424412935972214
60.0,0.043875936418771744
64.0,0.04242528975009918
72.0,0.03964153304696083
80.0,0.037065304815769196
88.0,0.03463854268193245
96.0,0.03221239149570465
104.0,0.02999180182814598
112.0,0.027926014736294746
120.0,0.02577475644648075
128.0,0.023564880713820457
144.0,0.01976948231458664
160.0,0.01673511601984501
176.0,0.013361706398427486
192.0,0.010420750826597214
208.0,0.008110146038234234
224.0,0.006067389156669378
240.0,0.004358373116701841
256.0,0.0031050872057676315
288.0,0.0016554966568946838
320.0,0.0006917630089446902
352.0,-0.0012641544453799725
384.0,-0.0035765711218118668
416.0,-0.0065501355566084385
448.0,-0.00867570098489523
480.0,-0.010212207213044167
512.0,-0.010070049203932285
576.0,-0.006881275214254856
640.0,-0.0006333002820611
704.0,0.0001294829708058387
768.0,-0.0020169115159660578
832.0,-0.0009804171277210116
896.0,0.0008929650066420436
960.0,0.003727678908035159
1024.0,0.003995028790086508
1152.0,0.0021780168171972036
1280.0,-0.005253538955003023
1408.0,-0.012302164919674397
1536.0,-0.010242319665849209
1664.0,-0.002276342362165451
1792.0,0.004301864188164473
1920.0,0.005843835882842541
2048.0,0.0007901525823399425
2304.0,0.0005642432952299714
2560.0,-4.5515898818848655e-06
2816.0,-0.004004418849945068
3072.0,-0.002227822318673134
3328.0,-0.001813870738260448
3584.0,0.0018092674436047673
3840.0,-0.004264291375875473
4096.0,-0.011328664608299732
4608.0,-0.007356252986937761
5120.0,0.005147326271981001
5632.0,0.01010194607079029
6144.0,0.002126093255355954
6656.0,-0.00336797465570271
7168.0,0.002384320367127657
7680.0,0.0007402773480862379
8192.0,0.0077322921715676785
9216.0,-0.001170707168057561
10240.0,-0.010359750129282475
11264.0,0.00724839186295867
12288.0,-0.003688485361635685
13312.0,0.002706217812374234
14336.0,0.009167327545583248
end
