version,3.0
numOfCh,1
type,point
parent_name,20-cuts
ch_type,1_1
kcount,1
numberNandB,1
brightnessNandB,1
carpet pos,0
pc,0
Time (ms),CH1 Auto-Correlation
1.0,0.10025519877672195
2.0,0.0995989739894867
3.0,0.09897971153259277
4.0,0.09837283194065094
5.0,0.0977652370929718
6.0,0.09716521203517914
7.0,0.09656637907028198
8.0,0.0959765687584877
9.0,0.09538363665342331
10.0,0.09479191154241562
11.0,0.09424003958702087
12.0,0.0937013179063797
13.0,0.09318631887435913
14.0,0.09267105162143707
15.0,0.09216194599866867
16.0,0.09166306257247925
18.0,0.09066285192966461
20.0,0.08967075496912003
22.0,0.08870913833379745
24.0,0.08774950355291367
26.0,0.08681377023458481
28.0,0.08587769418954849
30.0,0.08494602888822556
32.0,0.0839911699295044
36.0,0.0820595771074295
40.0,0.08024580776691437
44.0,0.07851213216781616
48.0,0.07674612104892731
52.0,0.0749102532863617
56.0,0.07310429215431213
60.0,0.07137737423181534
64.0,0.06974584609270096
72.0,0.06673146039247513
80.0,0.06404817849397659
88.0,0.06163585186004639
96.0,0.059426043182611465
104.0,0.05742686241865158
112.0,0.055384840816259384
120.0,0.053377915173769
128.0,0.051371004432439804
144.0,0.04785692319273949
160.0,0.04507116973400116
176.0,0.043839577585458755
192.0,0.043088529258966446
208.0,0.04239634796977043
224.0,0.04166633263230324
240.0,0.04115693271160126
256.0,0.03999708965420723
288.0,0.03580737113952637
320.0,0.03301658481359482
352.0,0.030808139592409134
384.0,0.02779703587293625
416.0,0.023203125223517418
448.0,0.019162094220519066
480.0,0.015277824364602566
512.0,0.011659123934805393
576.0,0.004704233258962631
640.0,-0.002076987875625491
704.0,-0.005437786690890789
768.0,-0.006252398248761892
832.0,-0.008504925295710564
896.0,-0.013519867323338985
960.0,-0.01613021269440651
1024.0,-0.01417891401797533
1152.0,-0.01451867911964655
1280.0,-0.014174737967550755
1408.0,-0.0153654208406806
1536.0,-0.014308810234069824
1664.0,-0.010808691382408142
1792.0,-0.013107219710946083
1920.0,-0.005393802188336849
2048.0,-0.0025461746845394373
2304.0,0.005111352540552616
2560.0,0.0027610030956566334
2816.0,-0.00852906797081232
3072.0,-0.010015766136348248
3328.0,-0.010906839743256569
3584.0,-0.006301478482782841
3840.0,-0.0023963116109371185
4096.0,-0.00996785331517458
4608.0,0.004438192583620548
5120.0,0.024864451959729195
5632.0,0.017442254349589348
6144.0,-0.010784436017274857
6656.0,-0.034837666898965836
7168.0,0.0026001185178756714
7680.0,0.019071141257882118
8192.0,0.009553330950438976
9216.0,-0.022554852068424225
10240.0,-0.0011929315514862537
11264.0,-0.0061307912692427635
12288.0,0.009297049604356289
13312.0,0.021831072866916656
14336.0,-0.03340139240026474
end
