version,3.0
numOfCh,1
type,point
parent_name,20-cuts
ch_type,1_1
kcount,1
numberNandB,1
brightnessNandB,1
carpet pos,0
pc,0
Time (ms),CH1 Auto-Correlation
1.0,0.024710427969694138
2.0,0.024474777281284332
3.0,0.024238230660557747
4.0,0.024008525535464287
5.0,0.023785393685102463
6.0,0.02356850914657116
7.0,0.02334957756102085
8.0,0.02312890812754631
9.0,0.022911135107278824
10.0,0.022696278989315033
11.0,0.022484831511974335
12.0,0.022277068346738815
13.0,0.022074786946177483
14.0,0.02187933772802353
15.0,0.021690230816602707
16.0,0.02150888927280903
18.0,0.02115059457719326
20.0,0.020810462534427643
22.0,0.020475968718528748
24.0,0.02014460600912571
26.0,0.019826257601380348
28.0,0.019526300951838493
30.0,0.019236041232943535
32.0,0.018954405561089516
36.0,0.018422914668917656
40.0,0.017917584627866745
44.0,0.017421575263142586
48.0,0.016937311738729477
52.0,0.016492068767547607
56.0,0.016036145389080048
60.0,0.015581492334604263
64.0,0.015110781416296959
72.0,0.014245186001062393
80.0,0.013498375192284584
88.0,0.012803708203136921
96.0,0.012161499820649624
104.0,0.011502661742269993
112.0,0.011006581597030163
120.0,0.010569227859377861
128.0,0.010136500000953674
144.0,0.009200932458043098
160.0,0.008429083041846752
176.0,0.007668875623494387
192.0,0.006867869291454554
208.0,0.006210024934262037
224.0,0.005627591162919998
240.0,0.005051989573985338
256.0,0.004654481541365385
288.0,0.003818393684923649
320.0,0.002963021397590637
352.0,0.002569507109001279
384.0,0.002630464266985655
416.0,0.0030078806448727846
448.0,0.003090742276981473
480.0,0.00261115375906229
512.0,0.001981387846171856
576.0,0.000853759003803134
640.0,0.0008727639797143638
704.0,0.0005642313044518232
768.0,-0.0007597889634780586
832.0,-0.0007440454792231321
896.0,0.0003678016655612737
960.0,0.0008813858148641884
1024.0,-0.0006480206502601504
1152.0,-0.0012361257104203105
1280.0,-0.0018988604424521327
1408.0,-0.0027631886769086123
1536.0,-0.0029599079862236977
1664.0,-0.001564976293593645
1792.0,0.0003308904997538775
1920.0,0.0033587911166250706
2048.0,0.00304594449698925
2304.0,0.00015255137986969203
2560.0,-0.0027584845665842295
2816.0,-0.003451959928497672
3072.0,-0.0024463834706693888
3328.0,-0.0022723914589732885
3584.0,9.772991688805632e-06
3840.0,0.0029293433763086796
4096.0,0.002258655847981572
4608.0,-0.0006434594979509711
5120.0,-0.003506538225337863
5632.0,0.001936455024406314
6144.0,0.0049522677436470985
6656.0,0.0005993730155751109
7168.0,-0.00246424600481987
7680.0,-0.00047745148185640574
8192.0,0.0020640890579670668
9216.0,-0.003736054291948676
10240.0,0.0002698919561225921
11264.0,-0.005634283181279898
12288.0,0.0018230988644063473
13312.0,0.0027098581194877625
14336.0,0.002495175926014781
end
