version,3.0
numOfCh,1
type,point
parent_name,20-cuts
ch_type,1_1
kcount,1
numberNandB,1
brightnessNandB,1
carpet pos,0
pc,0
Time (ms),CH1 Auto-Correlation
1.0,0.06621788442134857
2.0,0.06575602293014526
3.0,0.06528443843126297
4.0,0.06482423096895218
5.0,0.06437353789806366
6.0,0.0639314204454422
7.0,0.06350872665643692
8.0,0.06308794766664505
9.0,0.06266862899065018
10.0,0.06224175542593002
11.0,0.06181866675615311
12.0,0.06140982359647751
13.0,0.061008572578430176
14.0,0.06061580777168274
15.0,0.060223449021577835
16.0,0.05983060970902443
18.0,0.059076353907585144
20.0,0.0583442784845829
22.0,0.0576074980199337
24.0,0.056848157197237015
26.0,0.056096673011779785
28.0,0.05536985769867897
30.0,0.05464848503470421
32.0,0.05392308160662651
36.0,0.05257555842399597
40.0,0.05130219832062721
44.0,0.05007770657539368
48.0,0.048956260085105896
52.0,0.04788447916507721
56.0,0.0468556173145771
60.0,0.04587957635521889
64.0,0.044903840869665146
72.0,0.04298825562000275
80.0,0.04126069322228432
88.0,0.03973302245140076
96.0,0.03849019110202789
104.0,0.03736439347267151
112.0,0.03615117073059082
120.0,0.03501506149768829
128.0,0.033998262137174606
144.0,0.03184876963496208
160.0,0.029633766040205956
176.0,0.027618028223514557
192.0,0.02574574388563633
208.0,0.023814290761947632
224.0,0.02187417261302471
240.0,0.020139597356319427
256.0,0.01879723183810711
288.0,0.016739996150135994
320.0,0.015186724252998829
352.0,0.01337155420333147
384.0,0.012955687940120697
416.0,0.012730059213936329
448.0,0.011561885476112366
480.0,0.011613880284130573
512.0,0.01133902557194233
576.0,0.01076546125113964
640.0,0.010410657152533531
704.0,0.009491619653999805
768.0,0.007271777838468552
832.0,0.0047400593757629395
896.0,0.003533122595399618
960.0,0.002384029794484377
1024.0,0.002437862567603588
1152.0,0.0022452929988503456
1280.0,-0.0012092115357518196
1408.0,0.00043978483881801367
1536.0,-0.002033673459663987
1664.0,-0.002729500411078334
1792.0,-0.0019291398348286748
1920.0,0.0010169753804802895
2048.0,0.0037825494073331356
2304.0,0.00644697854295373
2560.0,0.00567889166995883
2816.0,0.0016978071071207523
3072.0,0.0043547009117901325
3328.0,0.003319766838103533
3584.0,0.0012256863992661238
3840.0,0.001507016597315669
4096.0,0.00849438738077879
4608.0,0.0003992175916209817
5120.0,-0.0033195449505001307
5632.0,-0.00688049104064703
6144.0,-0.008730973117053509
6656.0,0.0032516568899154663
7168.0,-0.006364141590893269
7680.0,-0.005685259122401476
8192.0,-0.00487505691125989
9216.0,-0.013222122564911842
10240.0,-0.008602611720561981
11264.0,-0.000932017806917429
12288.0,-0.003341567236930132
13312.0,-0.0046377466060221195
14336.0,0.0010137232020497322
end
