version,3.0
numOfCh,1
type,point
parent_name,20-cuts
ch_type,1_1
kcount,1
numberNandB,1
brightnessNandB,1
carpet pos,0
pc,0
Time (ms),CH1 Auto-Correlation
1.0,0.022821765393018723
2.0,0.022604264318943024
3.0,0.022388624027371407
4.0,0.02217443846166134
5.0,0.02196510136127472
6.0,0.021754108369350433
7.0,0.021538887172937393
8.0,0.021324150264263153
9.0,0.02111377753317356
10.0,0.020906388759613037
11.0,0.020697828382253647
12.0,0.020496295765042305
13.0,0.020293157547712326
14.0,0.02009149268269539
15.0,0.019895857200026512
16.0,0.019701387733221054
18.0,0.01932411827147007
20.0,0.0189434252679348
22.0,0.018561260774731636
24.0,0.01819814369082451
26.0,0.01785401813685894
28.0,0.017518723383545876
30.0,0.017193708568811417
32.0,0.01688486337661743
36.0,0.01626833900809288
40.0,0.015676224604249
44.0,0.01510325912386179
48.0,0.014560230076313019
52.0,0.0140709662809968
56.0,0.013617216609418392
60.0,0.013185592368245125
64.0,0.012736277654767036
72.0,0.01186904776841402
80.0,0.011072481982409954
88.0,0.010301920585334301
96.0,0.00957746896892786
104.0,0.008888754062354565
112.0,0.00830112211406231
120.0,0.007838469929993153
128.0,0.0075112199410796165
144.0,0.0068869562819600105
160.0,0.00600539380684495
176.0,0.005147805903106928
192.0,0.004403416998684406
208.0,0.003798154415562749
224.0,0.0033307322300970554
240.0,0.003064172575250268
256.0,0.002855787519365549
288.0,0.00295332376845181
320.0,0.002768982667475939
352.0,0.0024179769679903984
384.0,0.00271854130551219
416.0,0.0030389600433409214
448.0,0.002939306665211916
480.0,0.00212724506855011
512.0,0.0014974968507885933
576.0,5.303698344505392e-06
640.0,-0.0005639318260364234
704.0,-0.00028616722556762397
768.0,0.0008093589567579329
832.0,0.0015077402349561453
896.0,0.0022177936043590307
960.0,0.0015158705646172166
1024.0,0.0016100077191367745
1152.0,0.0005990801728330553
1280.0,-9.707408753456548e-05
1408.0,-0.0010055830935016274
1536.0,-0.0005382737144827843
1664.0,0.000641093822196126
1792.0,-0.0023066005669534206
1920.0,-0.0020359796471893787
2048.0,0.0019835925195366144
2304.0,0.0015825035516172647
2560.0,0.0013204577844589949
2816.0,-0.00026662633172236383
3072.0,0.003449392504990101
3328.0,0.0046851178631186485
3584.0,0.0032708386424928904
3840.0,-0.0011496074730530381
4096.0,-0.0014926372095942497
4608.0,-0.002174117136746645
5120.0,-0.0018192953430116177
5632.0,-0.0016074897721409798
6144.0,-3.919723894796334e-05
6656.0,0.0012187366373836994
7168.0,-0.0016583192627876997
7680.0,-0.005297358147799969
8192.0,-0.002778476569801569
9216.0,-0.0005986453033983707
10240.0,-0.0007663321448490024
11264.0,-0.0019686524756252766
12288.0,0.0016483711078763008
13312.0,-0.001657022861763835
14336.0,9.307621803600341e-05
end
