version,3.0
numOfCh,1
type,point
parent_name,20-cuts
ch_type,1_1
kcount,1
numberNandB,1
brightnessNandB,1
carpet pos,0
pc,0
Time (ms),CH1 Auto-Correlation
1.0,0.027244308963418007
2.0,0.02703116089105606
3.0,0.02682284638285637
4.0,0.026622092351317406
5.0,0.026422658935189247
6.0,0.026230301707983017
7.0,0.02603948675096035
8.0,0.025848589837551117
9.0,0.025658460333943367
10.0,0.025475502014160156
11.0,0.02528870850801468
12.0,0.02510218881070614
13.0,0.024921968579292297
14.0,0.024746021255850792
15.0,0.02457314357161522
16.0,0.02440650388598442
18.0,0.02406935580074787
20.0,0.02373667061328888
22.0,0.023415612056851387
24.0,0.023099573329091072
26.0,0.02280171774327755
28.0,0.0225167628377676
30.0,0.022237733006477356
32.0,0.02195565029978752
36.0,0.021392544731497765
40.0,0.02084359899163246
44.0,0.020343773066997528
48.0,0.01988309621810913
52.0,0.01944250985980034
56.0,0.01904204674065113
60.0,0.01865452341735363
64.0,0.01827683299779892
72.0,0.017590317875146866
80.0,0.016978828236460686
88.0,0.01643764041364193
96.0,0.015925806015729904
104.0,0.015428692102432251
112.0,0.014920027926564217
120.0,0.014408019371330738
128.0,0.013904756866395473
144.0,0.013104553334414959
160.0,0.01235910039395094
176.0,0.011711708270013332
192.0,0.010834465734660625
208.0,0.010017928667366505
224.0,0.009397154673933983
240.0,0.00880362093448639
256.0,0.008246880024671555
288.0,0.006658418569713831
320.0,0.0052987574599683285
352.0,0.00450265035033226
384.0,0.004102330654859543
416.0,0.004103437066078186
448.0,0.004182846285402775
480.0,0.003821868682280183
512.0,0.003100891597568989
576.0,0.0021998111624270678
640.0,0.0013551912270486355
704.0,0.00157086830586195
768.0,0.0007328236242756248
832.0,0.0004433941503521055
896.0,0.0011201832676306367
960.0,0.0009763571433722973
1024.0,6.167314859339967e-05
1152.0,-0.0015298875514417887
1280.0,-0.00220454391092062
1408.0,-0.0038867266848683357
1536.0,-0.0036652591079473495
1664.0,-0.0028298154938966036
1792.0,-0.00230142823420465
1920.0,-0.00402111979201436
2048.0,-0.0044721150770783424
2304.0,-0.002865911228582263
2560.0,-0.002282707719132304
2816.0,-0.0021647000685334206
3072.0,-0.0006639307248406112
3328.0,-0.000537460611667484
3584.0,-0.0006964129861444235
3840.0,-0.0007431274279952049
4096.0,-0.001414510072208941
4608.0,-0.00023309809330385178
5120.0,-0.0029388433322310448
5632.0,-0.002748737810179591
6144.0,-0.002590249525383115
6656.0,0.0037424094043672085
7168.0,0.0006195949390530586
7680.0,0.001415639417245984
8192.0,-0.002343112835660577
9216.0,0.001649075304158032
10240.0,0.006137324031442404
11264.0,0.00314502464607358
12288.0,-0.008230521343648434
13312.0,-0.0140763521194458
14336.0,0.011260942555963993
end
