version,3.0
numOfCh,1
type,point
parent_name,20-cuts
ch_type,1_1
kcount,1
numberNandB,1
brightnessNandB,1
carpet pos,0
pc,0
Time (ms),CH1 Auto-Correlation
1.0,0.03485756367444992
2.0,0.034604497253894806
3.0,0.0343531109392643
4.0,0.034105636179447174
5.0,0.03386244550347328
6.0,0.033625319600105286
7.0,0.03338460996747017
8.0,0.033150430768728256
9.0,0.03291859105229378
10.0,0.032684143632650375
11.0,0.03245658054947853
12.0,0.032234229147434235
13.0,0.03200976178050041
14.0,0.03178859502077103
15.0,0.03157026693224907
16.0,0.03135516867041588
18.0,0.03095392696559429
20.0,0.030572907999157906
22.0,0.030208352953195572
24.0,0.029851626604795456
26.0,0.02949715405702591
28.0,0.029147012159228325
30.0,0.028797456994652748
32.0,0.028447993099689484
36.0,0.02775718830525875
40.0,0.027077248319983482
44.0,0.026375891640782356
48.0,0.025695720687508583
52.0,0.025074440985918045
56.0,0.02448589727282524
60.0,0.023936942219734192
64.0,0.02340625785291195
72.0,0.022317416965961456
80.0,0.02126259170472622
88.0,0.02029898576438427
96.0,0.01937304437160492
104.0,0.018441252410411835
112.0,0.017588043585419655
120.0,0.016783960163593292
128.0,0.016035672277212143
144.0,0.014657629653811455
160.0,0.013579897582530975
176.0,0.01281866617500782
192.0,0.011999033391475677
208.0,0.011157556436955929
224.0,0.010341803543269634
240.0,0.009667826816439629
256.0,0.008936045691370964
288.0,0.00781662855297327
320.0,0.0066441637463867664
352.0,0.00528783118352294
384.0,0.004058846738189459
416.0,0.003434782149270177
448.0,0.003192349337041378
480.0,0.002980093937367201
512.0,0.002865150570869446
576.0,0.0017934490460902452
640.0,0.0014112060889601707
704.0,0.0003422668087296188
768.0,-0.0012319134548306465
832.0,-0.002905419794842601
896.0,-0.0034088899847120047
960.0,-0.0027356643695384264
1024.0,-0.0025144910905510187
1152.0,0.000545189599506557
1280.0,0.0018846136517822742
1408.0,0.0017041709506884217
1536.0,0.0006404196610674262
1664.0,-0.0002580069121904671
1792.0,0.0014270769897848368
1920.0,-0.0017741745105013251
2048.0,-0.0033923047594726086
2304.0,-0.0028957626782357693
2560.0,0.0020451154559850693
2816.0,0.003766625188291073
3072.0,0.003595816669985652
3328.0,0.0003046975762117654
3584.0,-0.0017698422307148576
3840.0,-0.0036972337402403355
4096.0,-0.005994567647576332
4608.0,-0.003061444964259863
5120.0,-0.0023702182807028294
5632.0,-0.00403011217713356
6144.0,0.0015213675796985626
6656.0,-0.001599024748429656
7168.0,-0.006799813359975815
7680.0,0.00027571970713324845
8192.0,-0.005615087226033211
9216.0,0.0006934295524843037
10240.0,0.004986434243619442
11264.0,0.00353159848600626
12288.0,0.0007124326657503843
13312.0,-0.001773933763615787
14336.0,0.0018130348762497306
end
