version,3.0
numOfCh,1
type,point
parent_name,20-cuts
ch_type,1_1
kcount,1
numberNandB,1
brightnessNandB,1
carpet pos,0
pc,0
Time (ms),CH1 Auto-Correlation
1.0,0.02414374239742756
2.0,0.02392655611038208
3.0,0.023707762360572815
4.0,0.02348700724542141
5.0,0.02326822094619274
6.0,0.023053912445902824
7.0,0.022840335965156555
8.0,0.022624947130680084
9.0,0.022415921092033386
10.0,0.02221233770251274
11.0,0.022011447697877884
12.0,0.02180921845138073
13.0,0.021611740812659264
14.0,0.021407732740044594
15.0,0.021205300465226173
16.0,0.02100200206041336
18.0,0.020588601008057594
20.0,0.020169595256447792
22.0,0.019755367189645767
24.0,0.01935640722513199
26.0,0.01896395906805992
28.0,0.01857786253094673
30.0,0.01819908618927002
32.0,0.017825335264205933
36.0,0.017101049423217773
40.0,0.01642010733485222
44.0,0.0157872773706913
48.0,0.015200336463749409
52.0,0.014634470455348492
56.0,0.014072416350245476
60.0,0.01354457437992096
64.0,0.013033521361649036
72.0,0.01204758696258068
80.0,0.011103976517915726
88.0,0.010173042304813862
96.0,0.009361867792904377
104.0,0.00868905894458294
112.0,0.008112838491797447
120.0,0.0076527828350663185
128.0,0.007395653985440731
144.0,0.00696253776550293
160.0,0.006638167891651392
176.0,0.006535983178764582
192.0,0.0065956260077655315
208.0,0.006759185343980789
224.0,0.006855108309537172
240.0,0.006664525251835585
256.0,0.006365601904690266
288.0,0.00540173752233386
320.0,0.003935737069696188
352.0,0.002715908922255039
384.0,0.0023199147544801235
416.0,0.0020945242140442133
448.0,0.001392947742715478
480.0,0.001055584056302905
512.0,0.0008586067124269903
576.0,-0.0005337111069820821
640.0,-0.0008803423261269927
704.0,-0.0008951210766099393
768.0,-0.0012318686349317431
832.0,-0.002060367027297616
896.0,-0.002264764392748475
960.0,-0.0010557289933785796
1024.0,-0.0002624780172482133
1152.0,-0.0019717218820005655
1280.0,-0.001300747855566442
1408.0,-0.002477248664945364
1536.0,-0.003110540099442005
1664.0,-0.004347664304077625
1792.0,-0.0018932598177343607
1920.0,-0.0017646506894379854
2048.0,-0.001898042275570333
2304.0,0.0015983092598617077
2560.0,0.004146897699683905
2816.0,0.0027177026495337486
3072.0,0.0027144155465066433
3328.0,0.0005911047337576747
3584.0,-0.0015454948879778385
3840.0,-0.0006531506078317761
4096.0,-0.002424677135422826
4608.0,-0.0035866519901901484
5120.0,-0.00043313775677233934
5632.0,0.0022751030046492815
6144.0,0.002648318186402321
6656.0,-0.0020527050364762545
7168.0,-0.0060443817637860775
7680.0,-0.003112301230430603
8192.0,0.002328229369595647
9216.0,0.0006195178721100092
10240.0,-0.00135964120272547
11264.0,0.0029237482231110334
12288.0,0.002415648428723216
13312.0,-0.0040275054052472115
14336.0,0.002847380470484495
end
