version,3.0
numOfCh,1
type,point
parent_name,20-cuts
ch_type,1_1
kcount,1
numberNandB,1
brightnessNandB,1
carpet pos,0
pc,0
Time (ms),CH1 Auto-Correlation
1.0,0.050922080874443054
2.0,0.050427332520484924
3.0,0.04994490370154381
4.0,0.049463916569948196
5.0,0.04898212477564812
6.0,0.04852284491062164
7.0,0.04806027188897133
8.0,0.04759923368692398
9.0,0.047140028327703476
10.0,0.04668183997273445
11.0,0.046225808560848236
12.0,0.045778971165418625
13.0,0.045335814356803894
14.0,0.044896163046360016
15.0,0.04445876181125641
16.0,0.04403107985854149
18.0,0.04319935664534569
20.0,0.04241405427455902
22.0,0.04166175425052643
24.0,0.04090727120637894
26.0,0.040164750069379807
28.0,0.03945443779230118
30.0,0.03873513638973236
32.0,0.03801542520523071
36.0,0.03657592460513115
40.0,0.0351991131901741
44.0,0.03390009328722954
48.0,0.032697223126888275
52.0,0.03151588886976242
56.0,0.030381513759493828
60.0,0.02926741912961006
64.0,0.028122246265411377
72.0,0.02604176290333271
80.0,0.024353789165616035
88.0,0.022943813353776932
96.0,0.02166600152850151
104.0,0.0205795057117939
112.0,0.019787469878792763
120.0,0.019090186804533005
128.0,0.01832888461649418
144.0,0.017064090818166733
160.0,0.016149533912539482
176.0,0.015098129399120808
192.0,0.01380276121199131
208.0,0.012656230479478836
224.0,0.011331413872539997
240.0,0.010308311320841312
256.0,0.009602868929505348
288.0,0.00863160565495491
320.0,0.007991720922291279
352.0,0.007239415310323238
384.0,0.006108874920755625
416.0,0.005577972624450922
448.0,0.004138861782848835
480.0,0.0034680613316595554
512.0,0.0017454748740419745
576.0,-0.0025865554343909025
640.0,-0.005945364944636822
704.0,-0.0039550382643938065
768.0,-0.0014469847083091736
832.0,0.001068822224624455
896.0,0.004050153773277998
960.0,0.0017149795312434435
1024.0,0.001034997054375708
1152.0,0.0009576433803886175
1280.0,0.0028062716592103243
1408.0,0.0025251368060708046
1536.0,-0.0040068188682198524
1664.0,-9.556686563882977e-05
1792.0,0.0014107853639870882
1920.0,-0.002061043633148074
2048.0,-0.003330457489937544
2304.0,-0.000190073624253273
2560.0,-0.0020859227515757084
2816.0,0.0007816454744897783
3072.0,0.005012223497033119
3328.0,0.0012572255218401551
3584.0,-0.0005423495313152671
3840.0,-0.003404035000130534
4096.0,0.0033031792845577
4608.0,-0.006592481397092342
5120.0,-0.007823707535862923
5632.0,-0.002801140770316124
6144.0,-0.005226276349276304
6656.0,-0.0017859364161267877
7168.0,-0.0004823364724870771
7680.0,-0.005677975248545408
8192.0,0.007473410572856665
9216.0,-0.0017908494919538498
10240.0,0.0025242988485842943
11264.0,0.0026282588951289654
12288.0,-0.001522877486422658
13312.0,0.0025625431444495916
14336.0,-0.0022350014187395573
end
