version,3.0
numOfCh,1
type,point
parent_name,20-cuts
ch_type,1_1
kcount,1
numberNandB,1
brightnessNandB,1
carpet pos,0
pc,0
Time (ms),CH1 Auto-Correlation
1.0,0.02687091752886772
2.0,0.026652421802282333
3.0,0.026432374492287636
4.0,0.026213528588414192
5.0,0.025991108268499374
6.0,0.02576705813407898
7.0,0.025546327233314514
8.0,0.025325410068035126
9.0,0.02510443702340126
10.0,0.02488660253584385
11.0,0.02467120625078678
12.0,0.024455660954117775
13.0,0.024242661893367767
14.0,0.024028941988945007
15.0,0.023819653317332268
16.0,0.023613572120666504
18.0,0.0232160072773695
20.0,0.022843215614557266
22.0,0.022476088255643845
24.0,0.02210884913802147
26.0,0.021750902757048607
28.0,0.02141369879245758
30.0,0.021079137921333313
32.0,0.020736049860715866
36.0,0.0200524739921093
40.0,0.019377127289772034
44.0,0.018751995638012886
48.0,0.018171753734350204
52.0,0.01761328987777233
56.0,0.01706075482070446
60.0,0.016508806496858597
64.0,0.015956420451402664
72.0,0.014922934584319592
80.0,0.013931414112448692
88.0,0.012977668084204197
96.0,0.01209191046655178
104.0,0.011254020035266876
112.0,0.01044559571892023
120.0,0.009678641334176064
128.0,0.008951385505497456
144.0,0.00753188319504261
160.0,0.006128085311502218
176.0,0.0048324004746973515
192.0,0.0038690988440066576
208.0,0.003077814821153879
224.0,0.0023798791225999594
240.0,0.002156983595341444
256.0,0.0020556794479489326
288.0,0.0018064504256471992
320.0,0.0012673040619120002
352.0,0.0005201667081564665
384.0,-0.00017363109509460628
416.0,-0.0007599567179568112
448.0,-0.0016180279199033976
480.0,-0.002849039388820529
512.0,-0.003056308487430215
576.0,-0.0024984702467918396
640.0,-0.0017399219796061516
704.0,-0.0004538081702776253
768.0,0.0004260657005943358
832.0,0.0007099170470610261
896.0,0.0009452588856220245
960.0,0.000422842480475083
1024.0,-0.0010541360825300217
1152.0,-0.0019944922532886267
1280.0,-0.0008814611937850714
1408.0,0.00021699279022868723
1536.0,0.0010239649564027786
1664.0,0.001541627338156104
1792.0,0.0015865516616031528
1920.0,0.0040156845934689045
2048.0,0.0031984392553567886
2304.0,0.00013641804980579764
2560.0,-0.0010309520876035094
2816.0,-0.00032339798053726554
3072.0,-0.0005535568343475461
3328.0,-0.0008519783732481301
3584.0,-0.0034406294580549
3840.0,-0.0021435467060655355
4096.0,-0.003358244663104415
4608.0,0.0016511942958459258
5120.0,-0.003565872320905328
5632.0,0.0009799405233934522
6144.0,-0.0035901928786188364
6656.0,0.002575957216322422
7168.0,-0.004328737501055002
7680.0,0.0030237180180847645
8192.0,0.0003664510732050985
9216.0,0.00018679871573112905
10240.0,0.0012445441680029035
11264.0,-0.0018114286940544844
12288.0,4.7570276365149766e-05
13312.0,-0.0038126264698803425
14336.0,0.0013934691669419408
end
