version,3.0
numOfCh,1
type,point
parent_name,20-cuts
ch_type,1_1
kcount,1
numberNandB,1
brightnessNandB,1
carpet pos,0
pc,0
Time (ms),CH1 Auto-Correlation
1.0,0.053565751761198044
2.0,0.05310060828924179
3.0,0.052651260048151016
4.0,0.05220554769039154
5.0,0.05177304148674011
6.0,0.051346488296985626
7.0,0.05091621354222298
8.0,0.05048229545354843
9.0,0.05005379021167755
10.0,0.04962780326604843
11.0,0.049203842878341675
12.0,0.04879678413271904
13.0,0.04838081821799278
14.0,0.047973789274692535
15.0,0.04757697135210037
16.0,0.04719360172748566
18.0,0.04645047336816788
20.0,0.045714568346738815
22.0,0.04497822746634483
24.0,0.04424956440925598
26.0,0.04354126751422882
28.0,0.042847998440265656
30.0,0.042168084532022476
32.0,0.04151520878076553
36.0,0.04024868831038475
40.0,0.03902608901262283
44.0,0.037941526621580124
48.0,0.03687070310115814
52.0,0.035854268819093704
56.0,0.034877460449934006
60.0,0.03392511606216431
64.0,0.03305676206946373
72.0,0.03139928728342056
80.0,0.02975667081773281
88.0,0.028132708743214607
96.0,0.026515359058976173
104.0,0.025041012093424797
112.0,0.023734431713819504
120.0,0.022468985989689827
128.0,0.021255139261484146
144.0,0.019337138161063194
160.0,0.01770736463367939
176.0,0.016083167865872383
192.0,0.01487658079713583
208.0,0.013878353871405125
224.0,0.013058733195066452
240.0,0.012385361827909946
256.0,0.01201087050139904
288.0,0.011181561276316643
320.0,0.01019914448261261
352.0,0.00980436522513628
384.0,0.008317315950989723
416.0,0.0061792233027517796
448.0,0.0049365209415555
480.0,0.004696700256317854
512.0,0.004521896596997976
576.0,0.004162833094596863
640.0,0.0031007668003439903
704.0,0.0004312755190767348
768.0,-0.0021790286991745234
832.0,-0.001358967972919345
896.0,0.0004907412803731859
960.0,0.0005368649726733565
1024.0,-0.0006292531033977866
1152.0,-0.002705430146306753
1280.0,-0.0038683561142534018
1408.0,-0.005094797350466251
1536.0,-0.0016303907614201307
1664.0,0.0014449100708588958
1792.0,0.004419171251356602
1920.0,0.00589999184012413
2048.0,0.010045318864285946
2304.0,0.010178971104323864
2560.0,0.006434171460568905
2816.0,0.006077602971345186
3072.0,0.0027123664040118456
3328.0,-0.00019835717102978379
3584.0,-0.003838724223896861
3840.0,-0.005392953287810087
4096.0,-0.0015335583593696356
4608.0,0.00039845684659667313
5120.0,0.008656345307826996
5632.0,-0.0024668851401656866
6144.0,-0.013922100886702538
6656.0,-0.008112581446766853
7168.0,0.003865717211738229
7680.0,0.00038706266786903143
8192.0,-0.0065603661350905895
9216.0,-0.009770883247256279
10240.0,-0.0019099038327112794
11264.0,-0.00503544369712472
12288.0,0.0027589963283389807
13312.0,-0.0017454181797802448
14336.0,-0.0063357483595609665
end
