version,3.0
numOfCh,1
type,point
parent_name,20-cuts
ch_type,1_1
kcount,1
numberNandB,1
brightnessNandB,1
carpet pos,0
pc,0
Time (ms),CH1 Auto-Correlation
1.0,0.06431027501821518
2.0,0.06376317888498306
3.0,0.0632319450378418
4.0,0.06269975751638412
5.0,0.06217609718441963
6.0,0.06167410686612129
7.0,0.06117761880159378
8.0,0.06069350615143776
9.0,0.06022031605243683
10.0,0.059748925268650055
11.0,0.059282269328832626
12.0,0.05879797041416168
13.0,0.05832166597247124
14.0,0.05785448104143143
15.0,0.05737845599651337
16.0,0.05691596865653992
18.0,0.05602061003446579
20.0,0.05516764149069786
22.0,0.054346099495887756
24.0,0.05356047302484512
26.0,0.052800677716732025
28.0,0.05206223949790001
30.0,0.05133252590894699
32.0,0.05061059817671776
36.0,0.04921010881662369
40.0,0.047833871096372604
44.0,0.0464739054441452
48.0,0.045178212225437164
52.0,0.04389629140496254
56.0,0.04266543686389923
60.0,0.04155534505844116
64.0,0.04050570726394653
72.0,0.03841390460729599
80.0,0.036356423050165176
88.0,0.03448590263724327
96.0,0.03290089592337608
104.0,0.0315764881670475
112.0,0.030516555532813072
120.0,0.02950967289507389
128.0,0.028296325355768204
144.0,0.02609787881374359
160.0,0.024233758449554443
176.0,0.022607311606407166
192.0,0.021391956135630608
208.0,0.020344989374279976
224.0,0.019055059179663658
240.0,0.01762666553258896
256.0,0.01648814044892788
288.0,0.014995882287621498
320.0,0.014755291864275932
352.0,0.013543488457798958
384.0,0.011133265681564808
416.0,0.009249054826796055
448.0,0.00696192542091012
480.0,0.005744734779000282
512.0,0.004785943776369095
576.0,0.0001927060220623389
640.0,-0.006465521641075611
704.0,-0.00810131523758173
768.0,-0.009914693422615528
832.0,-0.012020973488688469
896.0,-0.012104781344532967
960.0,-0.010784712620079517
1024.0,-0.010610364377498627
1152.0,-0.008315990678966045
1280.0,-0.0035912650637328625
1408.0,-0.0017970394110307097
1536.0,-0.0022853827103972435
1664.0,0.001163918524980545
1792.0,0.0055519817396998405
1920.0,0.0029720913153141737
2048.0,-0.001693901838734746
2304.0,-0.006478854455053806
2560.0,-0.007458831183612347
2816.0,-0.0013598608784377575
3072.0,0.0018243883969262242
3328.0,0.003710350254550576
3584.0,-0.0008198803989216685
3840.0,-0.005615693982690573
4096.0,-0.008088968694210052
4608.0,0.007383129559457302
5120.0,-0.002634037286043167
5632.0,-0.016542717814445496
6144.0,0.0009400885319337249
6656.0,0.009607315063476562
7168.0,-0.0010126667330041528
7680.0,-0.009361588396131992
8192.0,0.003435281803831458
9216.0,0.006990091875195503
10240.0,0.0027820314280688763
11264.0,0.006648958195000887
12288.0,-0.010140814818441868
13312.0,-0.006727894302457571
14336.0,0.001867826795205474
end
