version,3.0
numOfCh,1
type,point
parent_name,20-cuts
ch_type,1_1
kcount,1
numberNandB,1
brightnessNandB,1
carpet pos,0
pc,0
Time (ms),CH1 Auto-Correlation
1.0,0.06955103576183319
2.0,0.06902795284986496
3.0,0.06851661950349808
4.0,0.06800325214862823
5.0,0.0674927681684494
6.0,0.06700093299150467
7.0,0.0665162205696106
8.0,0.06603842228651047
9.0,0.06556595116853714
10.0,0.06511052697896957
11.0,0.0646454468369484
12.0,0.0641908273100853
13.0,0.06373856961727142
14.0,0.06329243630170822
15.0,0.06284161657094955
16.0,0.06240543723106384
18.0,0.0615784153342247
20.0,0.06079467013478279
22.0,0.06004874408245087
24.0,0.05933753028512001
26.0,0.05864753946661949
28.0,0.05798129737377167
30.0,0.057348866015672684
32.0,0.05673365667462349
36.0,0.05557539314031601
40.0,0.05444151908159256
44.0,0.05338754132390022
48.0,0.05236561968922615
52.0,0.051447220146656036
56.0,0.050624944269657135
60.0,0.04974646866321564
64.0,0.048781126737594604
72.0,0.04707634076476097
80.0,0.045333608984947205
88.0,0.04351692274212837
96.0,0.041656650602817535
104.0,0.040002863854169846
112.0,0.038389693945646286
120.0,0.036925435066223145
128.0,0.035855282098054886
144.0,0.03404757007956505
160.0,0.03171457350254059
176.0,0.029501762241125107
192.0,0.02719811722636223
208.0,0.02485685609281063
224.0,0.02266729809343815
240.0,0.020153235644102097
256.0,0.017567889764904976
288.0,0.014339182525873184
320.0,0.012287112884223461
352.0,0.010616417042911053
384.0,0.009078913368284702
416.0,0.007398238871246576
448.0,0.005717800930142403
480.0,0.003830023342743516
512.0,0.0031553879380226135
576.0,0.004214290529489517
640.0,0.0036397476214915514
704.0,0.004842792637646198
768.0,0.005945789627730846
832.0,0.004816710948944092
896.0,0.0011751477140933275
960.0,0.0008617443963885307
1024.0,8.979464473668486e-05
1152.0,0.0016403165645897388
1280.0,0.005258410703390837
1408.0,0.010525752790272236
1536.0,0.013400514610111713
1664.0,0.014709190465509892
1792.0,0.015359078533947468
1920.0,0.014470573514699936
2048.0,0.008038252592086792
2304.0,-0.0012994564604014158
2560.0,0.00023212698579300195
2816.0,0.0007252523209899664
3072.0,-0.00046315646613948047
3328.0,0.00893708411604166
3584.0,0.009099055081605911
3840.0,0.0022831186652183533
4096.0,-0.010494885966181755
4608.0,-0.009212239645421505
5120.0,-0.001922081457450986
5632.0,-0.0085951192304492
6144.0,-0.013529426418244839
6656.0,-0.014117457903921604
7168.0,-0.011609635315835476
7680.0,-0.014315259642899036
8192.0,-0.011954768560826778
9216.0,-0.007005845196545124
10240.0,0.0034346848260611296
11264.0,0.0007937558111734688
12288.0,0.00654625566676259
13312.0,0.004018350504338741
14336.0,0.007228860165923834
end
