version,3.0
numOfCh,1
type,point
parent_name,20-cuts
ch_type,1_1
kcount,1
numberNandB,1
brightnessNandB,1
carpet pos,0
pc,0
Time (ms),CH1 Auto-Correlation
1.0,0.06930520385503769
2.0,0.06867610663175583
3.0,0.06806463748216629
4.0,0.06744905561208725
5.0,0.06685362756252289
6.0,0.06625685095787048
7.0,0.06566394865512848
8.0,0.06507504731416702
9.0,0.0644906535744667
10.0,0.06390514969825745
11.0,0.06332960724830627
12.0,0.0627305880188942
13.0,0.06214838847517967
14.0,0.061582159250974655
15.0,0.0610135942697525
16.0,0.060458648949861526
18.0,0.05933353677392006
20.0,0.0582328625023365
22.0,0.057166703045368195
24.0,0.05616053193807602
26.0,0.05517803877592087
28.0,0.054251689463853836
30.0,0.05334408953785896
32.0,0.05244231969118118
36.0,0.05083080753684044
40.0,0.04941583797335625
44.0,0.04800807312130928
48.0,0.04666335508227348
52.0,0.04534529149532318
56.0,0.04407409951090813
60.0,0.04283389076590538
64.0,0.04159965738654137
72.0,0.03908882662653923
80.0,0.03670605272054672
88.0,0.03463485836982727
96.0,0.032915446907281876
104.0,0.03144821152091026
112.0,0.03020065650343895
120.0,0.028877627104520798
128.0,0.02748781442642212
144.0,0.024477530270814896
160.0,0.02150646597146988
176.0,0.018891822546720505
192.0,0.01628701575100422
208.0,0.014001457951962948
224.0,0.012502004392445087
240.0,0.011817638762295246
256.0,0.010548469610512257
288.0,0.006663860287517309
320.0,0.0035152840428054333
352.0,0.001094624400138855
384.0,0.00027337882784195244
416.0,-0.0002983240701723844
448.0,-0.002320351777598262
480.0,-0.005356446839869022
512.0,-0.006116609089076519
576.0,-0.0035880757495760918
640.0,-0.00532977469265461
704.0,-0.0045711263082921505
768.0,-0.005651975981891155
832.0,-0.004847826436161995
896.0,-0.006429711356759071
960.0,-0.006383674219250679
1024.0,-0.003451283322647214
1152.0,0.0027071740478277206
1280.0,0.0015010819770395756
1408.0,-0.0003536743170116097
1536.0,0.002048274502158165
1664.0,0.005876794457435608
1792.0,0.011730077676475048
1920.0,0.006087485700845718
2048.0,0.0014000089140608907
2304.0,-0.0021883733570575714
2560.0,-0.008056340739130974
2816.0,-0.01477119605988264
3072.0,-0.007986827753484249
3328.0,0.002530910074710846
3584.0,0.005454723257571459
3840.0,-0.005496900994330645
4096.0,-0.012112956494092941
4608.0,0.0012842663563787937
5120.0,0.009690695442259312
5632.0,-0.007211406249552965
6144.0,-0.008451334200799465
6656.0,0.005949695594608784
7168.0,-0.0017571087228134274
7680.0,-0.012515345588326454
8192.0,3.989716060459614e-05
9216.0,0.008343084715306759
10240.0,0.01390550471842289
11264.0,0.0010421955958008766
12288.0,-0.004327545408159494
13312.0,-0.016009535640478134
14336.0,-0.0013250394258648157
end
