version,3.0
numOfCh,1
type,point
parent_name,20-cuts
ch_type,1_1
kcount,1
numberNandB,1
brightnessNandB,1
carpet pos,0
pc,0
Time (ms),CH1 Auto-Correlation
1.0,0.08644713461399078
2.0,0.08579954504966736
3.0,0.08518899977207184
4.0,0.0845867320895195
5.0,0.08399751782417297
6.0,0.08342036604881287
7.0,0.08283030241727829
8.0,0.08222159743309021
9.0,0.08161932975053787
10.0,0.08101507276296616
11.0,0.08042844384908676
12.0,0.07986658066511154
13.0,0.07929638028144836
14.0,0.07874049991369247
15.0,0.07818073034286499
16.0,0.07761329412460327
18.0,0.07646086812019348
20.0,0.07533510029315948
22.0,0.074219711124897
24.0,0.07313153892755508
26.0,0.07203307002782822
28.0,0.07096163928508759
30.0,0.06986761093139648
32.0,0.068809375166893
36.0,0.06681422144174576
40.0,0.06492345035076141
44.0,0.06304566562175751
48.0,0.06123253330588341
52.0,0.05937610939145088
56.0,0.05745277926325798
60.0,0.05547952279448509
64.0,0.053639646619558334
72.0,0.05018403381109238
80.0,0.0468667596578598
88.0,0.04376042261719704
96.0,0.040811069309711456
104.0,0.03809775039553642
112.0,0.035452697426080704
120.0,0.032931238412857056
128.0,0.03065144270658493
144.0,0.027032656595110893
160.0,0.024657022207975388
176.0,0.02215152233839035
192.0,0.019895773380994797
208.0,0.017750142142176628
224.0,0.01479012705385685
240.0,0.012525991536676884
256.0,0.010791212320327759
288.0,0.009294260293245316
320.0,0.008947999216616154
352.0,0.007711084559559822
384.0,0.00624182540923357
416.0,0.005053761415183544
448.0,0.0031017200089991093
480.0,0.0016803843900561333
512.0,-0.00017154063971247524
576.0,-0.004648977890610695
640.0,-0.0049788011237978935
704.0,-0.0003697070642374456
768.0,-0.001189132803119719
832.0,-0.004210855346173048
896.0,-0.006415211129933596
960.0,-0.0073008150793612
1024.0,-0.00246812729164958
1152.0,-0.0038411139976233244
1280.0,-0.003956667147576809
1408.0,-0.003051505656912923
1536.0,-0.004113387782126665
1664.0,-0.006551045924425125
1792.0,-0.006475546397268772
1920.0,0.00019462930504232645
2048.0,-0.0008418228826485574
2304.0,0.007162901572883129
2560.0,0.010160096921026707
2816.0,-0.009072544053196907
3072.0,-0.013143564574420452
3328.0,-0.00612247409299016
3584.0,-0.0101676806807518
3840.0,-0.008279943838715553
4096.0,-0.012027982622385025
4608.0,-0.005278128199279308
5120.0,0.0026599823031574488
5632.0,0.00036978014395572245
6144.0,0.00537010096013546
6656.0,0.00656613614410162
7168.0,0.012334481813013554
7680.0,-0.00023084082931745797
8192.0,0.002484543714672327
9216.0,0.004819182213395834
10240.0,-0.021481160074472427
11264.0,0.0014875226188451052
12288.0,-0.013511836528778076
13312.0,0.006936374120414257
14336.0,0.029927559196949005
end
