version,3.0
numOfCh,1
type,point
parent_name,20-cuts
ch_type,1_1
kcount,1
numberNandB,1
brightnessNandB,1
carpet pos,0
pc,0
Time (ms),CH1 Auto-Correlation
1.0,0.07049703598022461
2.0,0.06995359808206558
3.0,0.06943678110837936
4.0,0.06893546879291534
5.0,0.06843070685863495
6.0,0.06793514639139175
7.0,0.06743854284286499
8.0,0.06694772094488144
9.0,0.06646402925252914
10.0,0.06599631160497665
11.0,0.06552185118198395
12.0,0.0650540292263031
13.0,0.0645747259259224
14.0,0.06410219520330429
15.0,0.06362264603376389
16.0,0.0631684958934784
18.0,0.06226089224219322
20.0,0.06138518825173378
22.0,0.060557108372449875
24.0,0.059735413640737534
26.0,0.05896230414509773
28.0,0.05821337178349495
30.0,0.05745059251785278
32.0,0.056730445474386215
36.0,0.055323272943496704
40.0,0.053935568779706955
44.0,0.052561916410923004
48.0,0.05119539052248001
52.0,0.04987216368317604
56.0,0.0485498420894146
60.0,0.04728826507925987
64.0,0.0460234135389328
72.0,0.043538033962249756
80.0,0.041184522211551666
88.0,0.03920496627688408
96.0,0.03751594200730324
104.0,0.036021824926137924
112.0,0.03454689309000969
120.0,0.03302498906850815
128.0,0.031613197177648544
144.0,0.02880430594086647
160.0,0.025682078674435616
176.0,0.022531922906637192
192.0,0.019801417365670204
208.0,0.016802310943603516
224.0,0.013563403859734535
240.0,0.010576768778264523
256.0,0.008081459440290928
288.0,0.0045698643662035465
320.0,0.0014818089548498392
352.0,0.0007868692628107965
384.0,0.0008491439511999488
416.0,0.001585020450875163
448.0,0.001618986832909286
480.0,0.0008682661573402584
512.0,0.00011259346501901746
576.0,-0.0019377087010070682
640.0,-0.0033135656267404556
704.0,-0.00281011825427413
768.0,-0.002754396293312311
832.0,-0.0007278589764609933
896.0,-4.36608970630914e-05
960.0,0.0015657354379072785
1024.0,0.003476456506177783
1152.0,-0.000783872208558023
1280.0,-0.0077560520730912685
1408.0,-0.012441558763384819
1536.0,-0.012352149933576584
1664.0,-0.005622772499918938
1792.0,0.003512710565701127
1920.0,0.006775961257517338
2048.0,0.00840340182185173
2304.0,0.014621801674365997
2560.0,0.005926799960434437
2816.0,0.0013299431884661317
3072.0,-0.009419427253305912
3328.0,-0.011041934601962566
3584.0,-0.009209323674440384
3840.0,-0.012874823994934559
4096.0,-0.008462517522275448
4608.0,0.013329279609024525
5120.0,0.002408029744401574
5632.0,-0.0072867171838879585
6144.0,-0.005153682082891464
6656.0,-0.0032172950450330973
7168.0,0.014266541227698326
7680.0,-0.0018115666462108493
8192.0,0.0015945539344102144
9216.0,0.0016513364389538765
10240.0,-0.005026213359087706
11264.0,-0.017511913552880287
12288.0,-0.00815174076706171
13312.0,-0.0008175424300134182
14336.0,0.01778600923717022
end
