version,3.0
numOfCh,1
type,point
parent_name,20-cuts
ch_type,1_1
kcount,1
numberNandB,1
brightnessNandB,1
carpet pos,0
pc,0
Time (ms),CH1 Auto-Correlation
1.0,0.054490186274051666
2.0,0.05403373762965202
3.0,0.053576093167066574
4.0,0.0531204529106617
5.0,0.05265919491648674
6.0,0.05221178010106087
7.0,0.05177957937121391
8.0,0.05134838819503784
9.0,0.05090738832950592
10.0,0.05047200247645378
11.0,0.050050582736730576
12.0,0.04963045194745064
13.0,0.049218062311410904
14.0,0.04880472645163536
15.0,0.04840569570660591
16.0,0.04800654202699661
18.0,0.04723241552710533
20.0,0.04645630717277527
22.0,0.045683715492486954
24.0,0.04491187259554863
26.0,0.044143661856651306
28.0,0.04337137192487717
30.0,0.042618729174137115
32.0,0.041891910135746
36.0,0.04057031124830246
40.0,0.03930303454399109
44.0,0.03804759681224823
48.0,0.0368027426302433
52.0,0.035603057593107224
56.0,0.034470006823539734
60.0,0.033373989164829254
64.0,0.032305628061294556
72.0,0.030328765511512756
80.0,0.0286225825548172
88.0,0.02726900205016136
96.0,0.02614433318376541
104.0,0.025045335292816162
112.0,0.024068409577012062
120.0,0.023212850093841553
128.0,0.022481106221675873
144.0,0.021293548867106438
160.0,0.02006359212100506
176.0,0.018978474661707878
192.0,0.017846308648586273
208.0,0.016650361940264702
224.0,0.015464862808585167
240.0,0.014762436971068382
256.0,0.014608641155064106
288.0,0.014656723476946354
320.0,0.014062371104955673
352.0,0.01211792416870594
384.0,0.009768307209014893
416.0,0.006849468685686588
448.0,0.004629041999578476
480.0,0.003876193193718791
512.0,0.003916241228580475
576.0,0.0038704865146428347
640.0,0.00390989612787962
704.0,0.002630702219903469
768.0,-0.0001577942748554051
832.0,0.0005827251588925719
896.0,0.0021018898114562035
960.0,0.0030323141254484653
1024.0,0.0025284308940172195
1152.0,0.001293996232561767
1280.0,0.001922625582665205
1408.0,-0.0003003091842401773
1536.0,0.0032239153515547514
1664.0,0.0061919549480080605
1792.0,0.007974719628691673
1920.0,0.00892151053994894
2048.0,0.008498658426105976
2304.0,0.00459805503487587
2560.0,0.001820658682845533
2816.0,0.006487921345978975
3072.0,0.007752452045679092
3328.0,0.007353954017162323
3584.0,0.004876484628766775
3840.0,-0.00027271866565570235
4096.0,-0.0006177274044603109
4608.0,0.0003305549907963723
5120.0,-0.003959230147302151
5632.0,0.0009803369175642729
6144.0,-0.00022727881150785834
6656.0,0.00733988918364048
7168.0,-0.0014753078576177359
7680.0,-0.00464372243732214
8192.0,-0.008811808191239834
9216.0,-0.0038974375929683447
10240.0,-0.005581970792263746
11264.0,-0.01701602153480053
12288.0,-0.012155702337622643
13312.0,-0.022382915019989014
14336.0,-0.009638664312660694
end
