version,3.0
numOfCh,1
type,point
parent_name,20-cuts
ch_type,1_1
kcount,1
numberNandB,1
brightnessNandB,1
carpet pos,0
pc,0
Time (ms),CH1 Auto-Correlation
1.0,0.07185523211956024
2.0,0.07133086025714874
3.0,0.07081905752420425
4.0,0.07031171768903732
5.0,0.06980504840612411
6.0,0.06930268555879593
7.0,0.06880038976669312
8.0,0.06831690669059753
9.0,0.06784392148256302
10.0,0.06736689805984497
11.0,0.0668877437710762
12.0,0.06642147898674011
13.0,0.06595870107412338
14.0,0.0654907301068306
15.0,0.06503302603960037
16.0,0.06458443403244019
18.0,0.06369885057210922
20.0,0.06280714273452759
22.0,0.061894580721855164
24.0,0.06098060682415962
26.0,0.0600506067276001
28.0,0.05915110185742378
30.0,0.058313824236392975
32.0,0.05755457654595375
36.0,0.05609182268381119
40.0,0.05469147861003876
44.0,0.053383719176054
48.0,0.052156902849674225
52.0,0.05103244259953499
56.0,0.05005110427737236
60.0,0.04907833784818649
64.0,0.04815366119146347
72.0,0.046514514833688736
80.0,0.04502607509493828
88.0,0.043843187391757965
96.0,0.0428948812186718
104.0,0.04209056496620178
112.0,0.041148487478494644
120.0,0.04005272686481476
128.0,0.03927374631166458
144.0,0.037633124738931656
160.0,0.0363093726336956
176.0,0.03527286276221275
192.0,0.034054141491651535
208.0,0.03245136886835098
224.0,0.03110571950674057
240.0,0.030103245750069618
256.0,0.028867438435554504
288.0,0.025515491142868996
320.0,0.021851709112524986
352.0,0.018956007435917854
384.0,0.01654045656323433
416.0,0.013764161616563797
448.0,0.011027355678379536
480.0,0.009370047599077225
512.0,0.0067813945934176445
576.0,0.0036037201061844826
640.0,0.0011393073946237564
704.0,-0.001605080789886415
768.0,-0.002223210409283638
832.0,-0.0037971336860209703
896.0,-0.00560218608006835
960.0,-0.00590956024825573
1024.0,-0.004757915157824755
1152.0,-0.0052941590547561646
1280.0,-0.004083416424691677
1408.0,-0.0032401219941675663
1536.0,-0.0011379310162737966
1664.0,0.0015053856186568737
1792.0,0.00202255230396986
1920.0,0.002954064169898629
2048.0,0.001572315115481615
2304.0,0.0024092874955385923
2560.0,0.00017349424888379872
2816.0,-0.009360723197460175
3072.0,-0.011940880678594112
3328.0,-0.008691317401826382
3584.0,-0.01058400422334671
3840.0,-0.010005143471062183
4096.0,-0.004152652341872454
4608.0,-0.00032623231527395546
5120.0,-0.002913655946031213
5632.0,0.002771228551864624
6144.0,0.00817847903817892
6656.0,0.000792293343693018
7168.0,-0.003024305449798703
7680.0,-0.004333775956183672
8192.0,-0.00756955286487937
9216.0,-0.0013794315746054053
10240.0,-0.004441027529537678
11264.0,-0.016445152461528778
12288.0,-0.0012674941681325436
13312.0,0.012391692027449608
14336.0,0.025605589151382446
end
