version,3.0
numOfCh,1
type,point
parent_name,20-cuts
ch_type,1_1
kcount,1
numberNandB,1
brightnessNandB,1
carpet pos,0
pc,0
Time (ms),CH1 Auto-Correlation
1.0,0.07146600633859634
2.0,0.07084636390209198
3.0,0.07023979723453522
4.0,0.06965525448322296
5.0,0.06907466799020767
6.0,0.06851012259721756
7.0,0.06793703883886337
8.0,0.06738631427288055
9.0,0.06684700399637222
10.0,0.06632693856954575
11.0,0.06582087278366089
12.0,0.06532639265060425
13.0,0.06484293192625046
14.0,0.06434834748506546
15.0,0.0638522282242775
16.0,0.06336662918329239
18.0,0.0623868927359581
20.0,0.061422429978847504
22.0,0.060481444001197815
24.0,0.05957287922501564
26.0,0.058654893189668655
28.0,0.057717300951480865
30.0,0.056798044592142105
32.0,0.05589209124445915
36.0,0.054242391139268875
40.0,0.052653275430202484
44.0,0.051108069717884064
48.0,0.04967097193002701
52.0,0.04834099858999252
56.0,0.04707751423120499
60.0,0.045839566737413406
64.0,0.04470100626349449
72.0,0.04262193664908409
80.0,0.04080072045326233
88.0,0.03899535536766052
96.0,0.03744792938232422
104.0,0.03605329245328903
112.0,0.03462126851081848
120.0,0.03322163224220276
128.0,0.03203388676047325
144.0,0.02984306588768959
160.0,0.027896976098418236
176.0,0.025615772232413292
192.0,0.023092666640877724
208.0,0.020855441689491272
224.0,0.01906266063451767
240.0,0.01756387948989868
256.0,0.01584332436323166
288.0,0.012270431034266949
320.0,0.00836033746600151
352.0,0.006563108414411545
384.0,0.0054093413054943085
416.0,0.0043919989839196205
448.0,0.0033011797349900007
480.0,0.0020673975814133883
512.0,0.0019311218056827784
576.0,5.5753545893821865e-05
640.0,-0.0019041363848373294
704.0,-0.000983921461738646
768.0,-0.0021426519379019737
832.0,-0.0013257527025416493
896.0,-0.001634811400435865
960.0,-0.002363731851801276
1024.0,-0.0026335844304412603
1152.0,-0.0003559090255293995
1280.0,0.0007673712098039687
1408.0,0.001818026532419026
1536.0,-0.0013167621800675988
1664.0,-0.0026324130594730377
1792.0,-0.0013848094968125224
1920.0,-0.003599765943363309
2048.0,-0.005059196613729
2304.0,-0.011424975469708443
2560.0,-0.022582121193408966
2816.0,-0.0217050239443779
3072.0,-0.004818399902433157
3328.0,0.003740352112799883
3584.0,0.003070131642743945
3840.0,0.0063430871814489365
4096.0,0.009921308606863022
4608.0,0.004231912549585104
5120.0,0.01359640248119831
5632.0,0.008967630565166473
6144.0,-0.007711146026849747
6656.0,-0.011951438151299953
7168.0,-0.010337271727621555
7680.0,-0.009524586610496044
8192.0,-0.010980278253555298
9216.0,0.004227784927934408
10240.0,0.008366973139345646
11264.0,-0.0030290374998003244
12288.0,-0.008442188613116741
13312.0,-0.00041696385596878827
14336.0,0.0047771986573934555
end
