version,3.0
numOfCh,1
type,point
parent_name,20-cuts
ch_type,1_1
kcount,1
numberNandB,1
brightnessNandB,1
carpet pos,0
pc,0
Time (ms),CH1 Auto-Correlation
1.0,0.06766228377819061
2.0,0.06715081632137299
3.0,0.06664761155843735
4.0,0.06615368276834488
5.0,0.06566061079502106
6.0,0.06517741084098816
7.0,0.06468905508518219
8.0,0.0642203688621521
9.0,0.06377167254686356
10.0,0.0633292868733406
11.0,0.06290232390165329
12.0,0.06248470023274422
13.0,0.062075886875391006
14.0,0.06166553497314453
15.0,0.06126852706074715
16.0,0.06087174266576767
18.0,0.06010553613305092
20.0,0.05933558940887451
22.0,0.05853569135069847
24.0,0.05773204565048218
26.0,0.05695576220750809
28.0,0.0562029704451561
30.0,0.05546857789158821
32.0,0.05477365106344223
36.0,0.053385525941848755
40.0,0.05208060145378113
44.0,0.05085805431008339
48.0,0.049723103642463684
52.0,0.04860410466790199
56.0,0.047518305480480194
60.0,0.04641883075237274
64.0,0.0452999472618103
72.0,0.043256185948848724
80.0,0.04155939072370529
88.0,0.03997207432985306
96.0,0.038424618542194366
104.0,0.03693860024213791
112.0,0.03550252690911293
120.0,0.03408975526690483
128.0,0.032723989337682724
144.0,0.030029453337192535
160.0,0.027332395315170288
176.0,0.024513663724064827
192.0,0.02245679497718811
208.0,0.020959893241524696
224.0,0.01966637186706066
240.0,0.018694084137678146
256.0,0.01763027533888817
288.0,0.014383427798748016
320.0,0.011195660568773746
352.0,0.009178013540804386
384.0,0.00831074919551611
416.0,0.006769553292542696
448.0,0.004154265858232975
480.0,0.0026442622765898705
512.0,0.0020921044051647186
576.0,0.0024266389664262533
640.0,0.00229123723693192
704.0,0.0012808475876227021
768.0,0.00035488660796545446
832.0,0.00024335658235941082
896.0,-0.0013801723252981901
960.0,-0.004201976582407951
1024.0,-0.005198200698941946
1152.0,-0.007768204901367426
1280.0,-0.007820242084562778
1408.0,-0.0029103795532137156
1536.0,-0.0030876253731548786
1664.0,-0.004007474519312382
1792.0,-0.005323036108165979
1920.0,-0.008986770175397396
2048.0,-0.010887379758059978
2304.0,-0.009554424323141575
2560.0,-0.003642866387963295
2816.0,0.001493033254519105
3072.0,0.005054424051195383
3328.0,0.0049257827922701836
3584.0,0.0022165009286254644
3840.0,0.001717951730825007
4096.0,0.00037976333987899125
4608.0,-0.00702391704544425
5120.0,-0.009133494459092617
5632.0,-0.006898164749145508
6144.0,2.5265535441576503e-05
6656.0,0.019526341930031776
7168.0,0.015879038721323013
7680.0,0.0021474750246852636
8192.0,0.0007069107377901673
9216.0,-0.0008869989542290568
10240.0,-0.002545037539675832
11264.0,-0.006354155950248241
12288.0,-0.0024622709024697542
13312.0,0.0024747205898165703
14336.0,0.004771183244884014
end
