version,3.0
numOfCh,1
type,point
parent_name,20-cuts
ch_type,1_1
kcount,1
numberNandB,1
brightnessNandB,1
carpet pos,0
pc,0
Time (ms),CH1 Auto-Correlation
1.0,0.07338590919971466
2.0,0.07291353493928909
3.0,0.07245223224163055
4.0,0.07200254499912262
5.0,0.07155720144510269
6.0,0.07112429291009903
7.0,0.07069632411003113
8.0,0.07029305398464203
9.0,0.06989608705043793
10.0,0.06950734555721283
11.0,0.06912977248430252
12.0,0.06874889880418777
13.0,0.06837762147188187
14.0,0.06799839437007904
15.0,0.06762048602104187
16.0,0.06725810468196869
18.0,0.0665714368224144
20.0,0.06591866165399551
22.0,0.06530074030160904
24.0,0.06468788534402847
26.0,0.06412582844495773
28.0,0.06357859820127487
30.0,0.06304687261581421
32.0,0.06251290440559387
36.0,0.06143970042467117
40.0,0.06040745973587036
44.0,0.05937855690717697
48.0,0.05840384587645531
52.0,0.057448841631412506
56.0,0.0565493144094944
60.0,0.05566555634140968
64.0,0.05485476553440094
72.0,0.053311120718717575
80.0,0.05179266631603241
88.0,0.05018671229481697
96.0,0.04859920218586922
104.0,0.04708799347281456
112.0,0.04561372473835945
120.0,0.044149305671453476
128.0,0.042638424783945084
144.0,0.03943566977977753
160.0,0.03630811721086502
176.0,0.03336134925484657
192.0,0.0308742206543684
208.0,0.028726093471050262
224.0,0.026483552530407906
240.0,0.024188384413719177
256.0,0.022103749215602875
288.0,0.017793532460927963
320.0,0.014211918227374554
352.0,0.010341822169721127
384.0,0.007394978776574135
416.0,0.00539616122841835
448.0,0.004120388068258762
480.0,0.0036578262224793434
512.0,0.003149647731333971
576.0,0.0006464345497079194
640.0,-0.00012116558355046436
704.0,0.0025917214807122946
768.0,0.005742956418544054
832.0,0.009117508307099342
896.0,0.009817535057663918
960.0,0.008665468543767929
1024.0,0.007183954585343599
1152.0,0.002075711265206337
1280.0,-0.0009486046619713306
1408.0,-0.0005090144695714116
1536.0,-0.0026377334725111723
1664.0,-0.005351714324206114
1792.0,-0.005610938183963299
1920.0,-0.00810577254742384
2048.0,-0.013964304700493813
2304.0,-0.011615553870797157
2560.0,-0.00048710196278989315
2816.0,0.007720066700130701
3072.0,-0.004672846291214228
3328.0,-0.010619744658470154
3584.0,-0.013438297435641289
3840.0,-0.010486035607755184
4096.0,-0.004191222600638866
4608.0,-0.009935836307704449
5120.0,0.011951328255236149
5632.0,0.010748878121376038
6144.0,0.009005061350762844
6656.0,0.0006156875169835985
7168.0,-0.011023773811757565
7680.0,-0.015986664220690727
8192.0,-0.004989256616681814
9216.0,-0.00438678078353405
10240.0,0.00030965646146796644
11264.0,0.009339762851595879
12288.0,0.009046133607625961
13312.0,-0.006118156015872955
14336.0,0.0019693453796207905
end
