version,3.0
numOfCh,1
type,point
parent_name,20-cuts
ch_type,1_1
kcount,1
numberNandB,1
brightnessNandB,1
carpet pos,0
pc,0
Time (ms),CH1 Auto-Correlation
1.0,0.05610795319080353
2.0,0.055626582354307175
3.0,0.05515183508396149
4.0,0.05467434599995613
5.0,0.05420404300093651
6.0,0.0537426583468914
7.0,0.05328645929694176
8.0,0.05283050984144211
9.0,0.05238247290253639
10.0,0.051950693130493164
11.0,0.05151638388633728
12.0,0.05109165608882904
13.0,0.05067585036158562
14.0,0.05025056377053261
15.0,0.04983203485608101
16.0,0.049406833946704865
18.0,0.04858414828777313
20.0,0.047782327979803085
22.0,0.047026894986629486
24.0,0.04628691077232361
26.0,0.04554697871208191
28.0,0.044825658202171326
30.0,0.04413110762834549
32.0,0.04344223067164421
36.0,0.04210101068019867
40.0,0.040788229554891586
44.0,0.039507701992988586
48.0,0.038209058344364166
52.0,0.036937836557626724
56.0,0.035750821232795715
60.0,0.03458239883184433
64.0,0.03343012183904648
72.0,0.03135219216346741
80.0,0.02952885627746582
88.0,0.02796163037419319
96.0,0.02654249034821987
104.0,0.025394238531589508
112.0,0.024390511214733124
120.0,0.023506293073296547
128.0,0.022694889456033707
144.0,0.021271228790283203
160.0,0.0200413316488266
176.0,0.01867973804473877
192.0,0.017300276085734367
208.0,0.016035087406635284
224.0,0.014971455559134483
240.0,0.013688313774764538
256.0,0.012887120246887207
288.0,0.011164114810526371
320.0,0.0089107071980834
352.0,0.007213925011456013
384.0,0.005773579236119986
416.0,0.004144566133618355
448.0,0.00330196600407362
480.0,0.003502968233078718
512.0,0.004748358391225338
576.0,0.0040955315344035625
640.0,0.0021992626134306192
704.0,0.0019708501640707254
768.0,-0.0006252633756957948
832.0,-0.0029443446546792984
896.0,-0.003489428199827671
960.0,-0.0038643227890133858
1024.0,-0.004243690520524979
1152.0,0.0007301933947019279
1280.0,0.0016514722956344485
1408.0,1.0668703907867894e-05
1536.0,-0.0024409471079707146
1664.0,-0.006842464674264193
1792.0,-0.0061225672252476215
1920.0,-0.008703604340553284
2048.0,-0.008508755825459957
2304.0,-0.004689258057624102
2560.0,-0.005258169025182724
2816.0,-0.001943408278748393
3072.0,0.004773343447595835
3328.0,0.002800799673423171
3584.0,0.0022465609945356846
3840.0,-0.0006338132661767304
4096.0,0.002195410430431366
4608.0,0.0037482203915715218
5120.0,-0.002507715253159404
5632.0,0.001042636577039957
6144.0,-0.0038447612896561623
6656.0,-0.010942946188151836
7168.0,-0.0048514059744775295
7680.0,-0.0020236449781805277
8192.0,8.21186404209584e-05
9216.0,0.0075918808579444885
10240.0,-0.010668554343283176
11264.0,-0.007089604623615742
12288.0,0.004096887074410915
13312.0,0.014968421310186386
14336.0,0.00033296490437351167
end
