version,3.0
numOfCh,1
type,point
parent_name,20-cuts
ch_type,1_1
kcount,1
numberNandB,1
brightnessNandB,1
carpet pos,0
pc,0
Time (ms),CH1 Auto-Correlation
1.0,0.02967905066907406
2.0,0.029470883309841156
3.0,0.02926447056233883
4.0,0.029063565656542778
5.0,0.02887054719030857
6.0,0.02868230640888214
7.0,0.02849787473678589
8.0,0.028308717533946037
9.0,0.028123805299401283
10.0,0.0279433261603117
11.0,0.02776511386036873
12.0,0.027588335797190666
13.0,0.02741383947432041
14.0,0.027240825816988945
15.0,0.027066929265856743
16.0,0.02689865045249462
18.0,0.026567645370960236
20.0,0.026242583990097046
22.0,0.025922667235136032
24.0,0.025606948882341385
26.0,0.025299685075879097
28.0,0.02498948760330677
30.0,0.02467169426381588
32.0,0.024354539811611176
36.0,0.02374655194580555
40.0,0.023154431954026222
44.0,0.022580785676836967
48.0,0.022008033469319344
52.0,0.021458275616168976
56.0,0.02092999778687954
60.0,0.020400390028953552
64.0,0.01987440511584282
72.0,0.0189580749720335
80.0,0.018229657784104347
88.0,0.0175833310931921
96.0,0.016944874078035355
104.0,0.0163199994713068
112.0,0.015755096450448036
120.0,0.015244822949171066
128.0,0.01475489605218172
144.0,0.013850525952875614
160.0,0.012893876060843468
176.0,0.011826901696622372
192.0,0.0108657730743289
208.0,0.010125067085027695
224.0,0.00931605976074934
240.0,0.008641521446406841
256.0,0.007933463901281357
288.0,0.006524183787405491
320.0,0.0048852041363716125
352.0,0.0034746818710118532
384.0,0.0019756522960960865
416.0,0.000305409193970263
448.0,-0.0006945179193280637
480.0,-0.0011640668381005526
512.0,-0.0013244359288364649
576.0,-0.0018886541947722435
640.0,-0.0020263870246708393
704.0,-0.0029392526485025883
768.0,-0.0043885610066354275
832.0,-0.005312267225235701
896.0,-0.0058817933313548565
960.0,-0.007400168105959892
1024.0,-0.008546983823180199
1152.0,-0.008763204328715801
1280.0,-0.007257281802594662
1408.0,-0.005061949137598276
1536.0,-0.002241476671770215
1664.0,0.0014430732699111104
1792.0,0.0019404193153604865
1920.0,0.003324000397697091
2048.0,0.00135588098783046
2304.0,-0.00032173364888876677
2560.0,-0.0008544587763026357
2816.0,-0.0006376473465934396
3072.0,0.0027830880135297775
3328.0,0.0023137719836086035
3584.0,0.0004577374493237585
3840.0,-0.0014018613146618009
4096.0,-0.002999476157128811
4608.0,-0.00322725553996861
5120.0,0.005358377005904913
5632.0,0.003430173033848405
6144.0,-0.002903618384152651
6656.0,-0.004255414940416813
7168.0,0.000577478320337832
7680.0,-0.00121728063095361
8192.0,0.0005243183695711195
9216.0,-0.0024431697092950344
10240.0,0.001927232719026506
11264.0,0.001489379326812923
12288.0,-0.005726723000407219
13312.0,0.006194673012942076
14336.0,-0.004164399113506079
end
