version,3.0
numOfCh,1
type,point
parent_name,20-cuts
ch_type,1_1
kcount,1
numberNandB,1
brightnessNandB,1
carpet pos,0
pc,0
Time (ms),CH1 Auto-Correlation
1.0,0.0941460058093071
2.0,0.09363789111375809
3.0,0.0931476503610611
4.0,0.09267918020486832
5.0,0.09221639484167099
6.0,0.09174380451440811
7.0,0.09128223359584808
8.0,0.09083867073059082
9.0,0.09038911759853363
10.0,0.08994998037815094
11.0,0.08950673788785934
12.0,0.08907826989889145
13.0,0.08865160495042801
14.0,0.08822734653949738
15.0,0.0878041535615921
16.0,0.08738519996404648
18.0,0.08660279214382172
20.0,0.0858834758400917
22.0,0.08521310240030289
24.0,0.08453231304883957
26.0,0.08389534056186676
28.0,0.08327645063400269
30.0,0.08266480267047882
32.0,0.08205331116914749
36.0,0.08083264529705048
40.0,0.07961257547140121
44.0,0.07837686687707901
48.0,0.07719916105270386
52.0,0.07612317055463791
56.0,0.07510456442832947
60.0,0.07410310208797455
64.0,0.07309886068105698
72.0,0.07100425660610199
80.0,0.06905017048120499
88.0,0.06715305149555206
96.0,0.06544818729162216
104.0,0.06393150240182877
112.0,0.06248479709029198
120.0,0.06094218045473099
128.0,0.059481557458639145
144.0,0.0567268542945385
160.0,0.05400621518492699
176.0,0.05131857469677925
192.0,0.0488755889236927
208.0,0.04639726132154465
224.0,0.04385155811905861
240.0,0.04124357923865318
256.0,0.03917790204286575
288.0,0.03565394878387451
320.0,0.031999118626117706
352.0,0.027447715401649475
384.0,0.022623801603913307
416.0,0.018823811784386635
448.0,0.015254895202815533
480.0,0.012015528045594692
512.0,0.01103218737989664
576.0,0.010882660746574402
640.0,0.00903247483074665
704.0,0.0063750422559678555
768.0,0.004134621005505323
832.0,-0.00022385978081729263
896.0,-0.003905732650309801
960.0,-0.007816578261554241
1024.0,-0.010278028436005116
1152.0,-0.008016667328774929
1280.0,-0.004431284964084625
1408.0,-0.0031422406900674105
1536.0,-0.006331303156912327
1664.0,-0.009711955673992634
1792.0,-0.008633004501461983
1920.0,-0.007923322729766369
2048.0,-0.0055948239751160145
2304.0,0.00011715533037204295
2560.0,0.013311953283846378
2816.0,0.01778261922299862
3072.0,0.008687382563948631
3328.0,0.0011621442390605807
3584.0,-0.011768893338739872
3840.0,-0.018647415563464165
4096.0,-0.018247006461024284
4608.0,-0.020557377487421036
5120.0,-0.0037116985768079758
5632.0,0.011321020312607288
6144.0,0.010664453729987144
6656.0,-0.0072043705731630325
7168.0,-0.01687016896903515
7680.0,-0.0121037308126688
8192.0,0.005434027407318354
9216.0,0.00252894195728004
10240.0,-0.03386790305376053
11264.0,0.007236099801957607
12288.0,0.010419558733701706
13312.0,-0.004256592132151127
14336.0,0.025587256997823715
end
