version,3.0
numOfCh,1
type,point
parent_name,20-cuts
ch_type,1_1
kcount,1
numberNandB,1
brightnessNandB,1
carpet pos,0
pc,0
Time (ms),CH1 Auto-Correlation
1.0,0.05084139108657837
2.0,0.050420332700014114
3.0,0.05000334605574608
4.0,0.04959066957235336
5.0,0.04919513314962387
6.0,0.04880150407552719
7.0,0.04842153564095497
8.0,0.048050276935100555
9.0,0.047688305377960205
10.0,0.047334782779216766
11.0,0.046980831772089005
12.0,0.04662341624498367
13.0,0.046268824487924576
14.0,0.04590921476483345
15.0,0.04555719718337059
16.0,0.04520754888653755
18.0,0.04455219954252243
20.0,0.04392632097005844
22.0,0.043320730328559875
24.0,0.04273451492190361
26.0,0.04217096045613289
28.0,0.0416196770966053
30.0,0.04108593985438347
32.0,0.040566109120845795
36.0,0.039557285606861115
40.0,0.03862958401441574
44.0,0.03768157213926315
48.0,0.03676312416791916
52.0,0.03587855398654938
56.0,0.03497208654880524
60.0,0.03410591557621956
64.0,0.033279843628406525
72.0,0.03171295300126076
80.0,0.030257126316428185
88.0,0.02890154719352722
96.0,0.027752341702580452
104.0,0.026692816987633705
112.0,0.02576225809752941
120.0,0.024704596027731895
128.0,0.023584071546792984
144.0,0.021645577624440193
160.0,0.02032085880637169
176.0,0.01930861733853817
192.0,0.018080929294228554
208.0,0.017152298241853714
224.0,0.016608653590083122
240.0,0.016022348776459694
256.0,0.015323642641305923
288.0,0.014054207131266594
320.0,0.012156725861132145
352.0,0.010300806723535061
384.0,0.008369971066713333
416.0,0.006662008818238974
448.0,0.0052368794567883015
480.0,0.003951032180339098
512.0,0.002682718215510249
576.0,-0.00046669301809743047
640.0,-0.0025402598548680544
704.0,-0.0037537384778261185
768.0,-0.002696941141039133
832.0,-0.0008767395047470927
896.0,-0.001058461843058467
960.0,-0.0010082636727020144
1024.0,-0.0004082464729435742
1152.0,-0.00451933266595006
1280.0,-0.0034919055178761482
1408.0,-0.003134830156341195
1536.0,-0.0037632854655385017
1664.0,-0.007292160298675299
1792.0,-0.0069016870111227036
1920.0,-0.005720231682062149
2048.0,-0.00946264062076807
2304.0,-0.006669690832495689
2560.0,-0.006031699478626251
2816.0,-0.005680562928318977
3072.0,-0.004477777983993292
3328.0,0.0019674578215926886
3584.0,0.006733647547662258
3840.0,0.005149535369127989
4096.0,0.004528565797954798
4608.0,-0.006174426060169935
5120.0,-0.00938175804913044
5632.0,0.003034906229004264
6144.0,-0.00022393924882635474
6656.0,0.004388649947941303
7168.0,0.009266054257750511
7680.0,0.0053058890625834465
8192.0,0.0019471237901598215
9216.0,-0.012042275629937649
10240.0,0.005574924871325493
11264.0,0.004123891703784466
12288.0,-0.002628000220283866
13312.0,0.00019427183724474162
14336.0,0.004062885884195566
end
