version,3.0
numOfCh,1
type,point
parent_name,20-cuts
ch_type,1_1
kcount,1
numberNandB,1
brightnessNandB,1
carpet pos,0
pc,0
Time (ms),CH1 Auto-Correlation
1.0,0.026335231959819794
2.0,0.026106812059879303
3.0,0.025875220075249672
4.0,0.025644268840551376
5.0,0.025418151170015335
6.0,0.02520015276968479
7.0,0.0249872338026762
8.0,0.024775564670562744
9.0,0.024571381509304047
10.0,0.024373238906264305
11.0,0.02417602576315403
12.0,0.023981565609574318
13.0,0.023790230974555016
14.0,0.023606760427355766
15.0,0.02342093363404274
16.0,0.023238563910126686
18.0,0.022888535633683205
20.0,0.02254435047507286
22.0,0.022218918427824974
24.0,0.021898292005062103
26.0,0.021574487909674644
28.0,0.021255632862448692
30.0,0.020942259579896927
32.0,0.02063477225601673
36.0,0.020037801936268806
40.0,0.01945544220507145
44.0,0.01887694001197815
48.0,0.018351538106799126
52.0,0.017868854105472565
56.0,0.017425980418920517
60.0,0.016985304653644562
64.0,0.01656343974173069
72.0,0.015759559348225594
80.0,0.01489930972456932
88.0,0.014062711969017982
96.0,0.013348671607673168
104.0,0.012648089788854122
112.0,0.012058633379638195
120.0,0.011541860178112984
128.0,0.01115040760487318
144.0,0.010683584958314896
160.0,0.01018110103905201
176.0,0.009700809605419636
192.0,0.009276675991714
208.0,0.008765963837504387
224.0,0.00798217486590147
240.0,0.00742332311347127
256.0,0.007193535100668669
288.0,0.006739648059010506
320.0,0.005889908876270056
352.0,0.005014948081225157
384.0,0.0038185110315680504
416.0,0.002826966578140855
448.0,0.0020020976662635803
480.0,0.0015425564488396049
512.0,0.0013504901435226202
576.0,0.00033053182414732873
640.0,-9.400259295944124e-05
704.0,0.0004914995515719056
768.0,0.0011751495767384768
832.0,0.0008076295489445329
896.0,0.0014163822634145617
960.0,0.0010101341176778078
1024.0,0.00046314988867379725
1152.0,0.00092125911032781
1280.0,0.0011685783974826336
1408.0,-0.0013655850198119879
1536.0,-0.0020974897779524326
1664.0,-0.0026726960204541683
1792.0,-0.0019420997705310583
1920.0,-0.0003590568376239389
2048.0,0.0006990960682742298
2304.0,0.0005268657114356756
2560.0,-0.002342522842809558
2816.0,-0.0024697151966392994
3072.0,-0.0008309395052492619
3328.0,-0.001969453413039446
3584.0,-0.004170775413513184
3840.0,-0.006268422584980726
4096.0,-0.0018965797498822212
4608.0,-0.0009138309396803379
5120.0,-0.0012961378088220954
5632.0,-0.0005952139617875218
6144.0,0.0011503294808790088
6656.0,0.0005658444715663791
7168.0,0.002246716059744358
7680.0,0.0020771457348018885
8192.0,0.0011701687471941113
9216.0,-0.001592534244991839
10240.0,-0.003773896722123027
11264.0,-0.0009060760494321585
12288.0,0.004104885738343
13312.0,0.0008084054570645094
14336.0,-0.0016220625257119536
end
