version,3.0
numOfCh,1
type,point
parent_name,20-cuts
ch_type,1_1
kcount,1
numberNandB,1
brightnessNandB,1
carpet pos,0
pc,0
Time (ms),CH1 Auto-Correlation
1.0,0.035932451486587524
2.0,0.03570815175771713
3.0,0.03549031913280487
4.0,0.035280339419841766
5.0,0.035071682184934616
6.0,0.03486764058470726
7.0,0.034666758030653
8.0,0.034465059638023376
9.0,0.03426479175686836
10.0,0.0340639129281044
11.0,0.033865995705127716
12.0,0.03367084637284279
13.0,0.03347599506378174
14.0,0.03328912332653999
15.0,0.03310471028089523
16.0,0.032927729189395905
18.0,0.032586969435214996
20.0,0.032246850430965424
22.0,0.03191402927041054
24.0,0.03157612308859825
26.0,0.031240761280059814
28.0,0.03091568499803543
30.0,0.030598249286413193
32.0,0.030285105109214783
36.0,0.02968149445950985
40.0,0.029135441407561302
44.0,0.028618689626455307
48.0,0.028074463829398155
52.0,0.027534132823348045
56.0,0.027007611468434334
60.0,0.0265334565192461
64.0,0.026095649227499962
72.0,0.02521619386970997
80.0,0.024373944848775864
88.0,0.023574406281113625
96.0,0.022811774164438248
104.0,0.02205328457057476
112.0,0.021288977935910225
120.0,0.02053000219166279
128.0,0.01983014866709709
144.0,0.018441807478666306
160.0,0.01730979233980179
176.0,0.01631849817931652
192.0,0.015039356425404549
208.0,0.013556272722780704
224.0,0.011929793283343315
240.0,0.010510687716305256
256.0,0.009497350081801414
288.0,0.008092354983091354
320.0,0.00625664321705699
352.0,0.004908691626042128
384.0,0.003909038845449686
416.0,0.003233765484765172
448.0,0.0027638589963316917
480.0,0.002304024761542678
512.0,0.0010697749676182866
576.0,0.00011582492879824713
640.0,-0.0012982558691874146
704.0,-0.0031106644310057163
768.0,-0.004097508266568184
832.0,-0.005518391728401184
896.0,-0.007703250739723444
960.0,-0.007897564209997654
1024.0,-0.0070694005116820335
1152.0,-0.005147626623511314
1280.0,-0.0008619880536571145
1408.0,0.004287067335098982
1536.0,0.005741128697991371
1664.0,0.005727521143853664
1792.0,0.005963499192148447
1920.0,0.00551724573597312
2048.0,0.003111779922619462
2304.0,-0.002934556920081377
2560.0,-0.003512313589453697
2816.0,-0.0041816262528300285
3072.0,-0.0005675395950675011
3328.0,0.0005703021888621151
3584.0,0.00181214336771518
3840.0,-0.00012032585800625384
4096.0,-0.001551266759634018
4608.0,-0.0021340560633689165
5120.0,0.0009381826384924352
5632.0,0.003287450410425663
6144.0,-0.0051399157382547855
6656.0,-0.00566893070936203
7168.0,0.0003651717270258814
7680.0,-0.00504454318434
8192.0,-0.005453643389046192
9216.0,-0.000630320399068296
10240.0,-0.0005704807699657977
11264.0,0.004759038332849741
12288.0,-0.0012071813689544797
13312.0,-0.002044292399659753
14336.0,0.002236670581623912
end
