version,3.0
numOfCh,1
type,point
parent_name,20-cuts
ch_type,1_1
kcount,1
numberNandB,1
brightnessNandB,1
carpet pos,0
pc,0
Time (ms),CH1 Auto-Correlation
1.0,0.0916566252708435
2.0,0.0908287763595581
3.0,0.09001410007476807
4.0,0.08921588212251663
5.0,0.08841212093830109
6.0,0.08762291073799133
7.0,0.08686563372612
8.0,0.08610593527555466
9.0,0.08535414189100266
10.0,0.08460820466279984
11.0,0.08388490974903107
12.0,0.0831579864025116
13.0,0.0824262946844101
14.0,0.08169244229793549
15.0,0.08096481114625931
16.0,0.0802423283457756
18.0,0.07879281044006348
20.0,0.07737430185079575
22.0,0.07602246105670929
24.0,0.07471448928117752
26.0,0.07345237582921982
28.0,0.07224005460739136
30.0,0.07104730606079102
32.0,0.06986463814973831
36.0,0.0675392597913742
40.0,0.06535781919956207
44.0,0.06331311911344528
48.0,0.06129220128059387
52.0,0.05939362198114395
56.0,0.057612232863903046
60.0,0.055828750133514404
64.0,0.0539681501686573
72.0,0.05038858577609062
80.0,0.047197435051202774
88.0,0.04407162219285965
96.0,0.04107547551393509
104.0,0.038306478410959244
112.0,0.03593316301703453
120.0,0.0339478962123394
128.0,0.03218095004558563
144.0,0.029716141521930695
160.0,0.02734498679637909
176.0,0.025597823783755302
192.0,0.023867351934313774
208.0,0.022414760664105415
224.0,0.021550500765442848
240.0,0.02035638689994812
256.0,0.018843641504645348
288.0,0.01632164604961872
320.0,0.013706437312066555
352.0,0.010206745006144047
384.0,0.009221220389008522
416.0,0.011704927310347557
448.0,0.013806662522256374
480.0,0.013561325147747993
512.0,0.012369165197014809
576.0,0.014600246213376522
640.0,0.013680671341717243
704.0,0.009908080101013184
768.0,0.0039465888403356075
832.0,0.0017435221234336495
896.0,-0.002080783946439624
960.0,-0.011958313174545765
1024.0,-0.01686522550880909
1152.0,-0.01410720031708479
1280.0,-0.006019351538270712
1408.0,0.0015353645430877805
1536.0,0.0007491224678233266
1664.0,-0.0026870709843933582
1792.0,-0.003574886592105031
1920.0,0.003957063890993595
2048.0,0.0029374638106673956
2304.0,-0.009196901693940163
2560.0,-0.01837855391204357
2816.0,-0.013012255541980267
3072.0,-0.012272324413061142
3328.0,-0.002457448747009039
3584.0,0.012568720616400242
3840.0,0.012629738077521324
4096.0,0.007509948220103979
4608.0,-0.0012331741163507104
5120.0,0.004686438012868166
5632.0,-0.0013697176473215222
6144.0,-0.012780535034835339
6656.0,-0.01263647060841322
7168.0,-0.004288515076041222
7680.0,0.006070986855775118
8192.0,0.0011903849663212895
9216.0,-0.005459300242364407
10240.0,-0.00014489388559013605
11264.0,0.006258038803935051
12288.0,0.0008675372810102999
13312.0,-0.005672054830938578
14336.0,-0.044694554060697556
end
