version,3.0
numOfCh,1
type,point
parent_name,20-cuts
ch_type,1_1
kcount,1
numberNandB,1
brightnessNandB,1
carpet pos,0
pc,0
Time (ms),CH1 Auto-Correlation
1.0,0.07478252798318863
2.0,0.0741056501865387
3.0,0.07344125211238861
4.0,0.07278238236904144
5.0,0.07213430106639862
6.0,0.07149549573659897
7.0,0.07085127383470535
8.0,0.07021454721689224
9.0,0.06958354264497757
10.0,0.0689779594540596
11.0,0.06839172542095184
12.0,0.0678165927529335
13.0,0.06724173575639725
14.0,0.06666548550128937
15.0,0.0660954937338829
16.0,0.06553049385547638
18.0,0.06440649181604385
20.0,0.06332018971443176
22.0,0.06225242838263512
24.0,0.06120806932449341
26.0,0.06020660698413849
28.0,0.059252187609672546
30.0,0.058319441974163055
32.0,0.05737970769405365
36.0,0.05551480874419212
40.0,0.05376668646931648
44.0,0.052144281566143036
48.0,0.05070141702890396
52.0,0.049426883459091187
56.0,0.04818025231361389
60.0,0.046921029686927795
64.0,0.04571550711989403
72.0,0.043383922427892685
80.0,0.04116048291325569
88.0,0.03925956413149834
96.0,0.03737707808613777
104.0,0.03571895509958267
112.0,0.03401157259941101
120.0,0.0321822427213192
128.0,0.03025282919406891
144.0,0.026529863476753235
160.0,0.023849040269851685
176.0,0.021550988778471947
192.0,0.019718270748853683
208.0,0.018346356227993965
224.0,0.01695896126329899
240.0,0.015620783902704716
256.0,0.014160062186419964
288.0,0.01291507389396429
320.0,0.012437855824828148
352.0,0.010556582361459732
384.0,0.008330055512487888
416.0,0.007214934565126896
448.0,0.006199953146278858
480.0,0.005660982336848974
512.0,0.005766179878264666
576.0,0.006087854970246553
640.0,0.006036108359694481
704.0,0.003421918721869588
768.0,-0.0015023170271888375
832.0,-0.0054883151315152645
896.0,-0.008092624135315418
960.0,-0.007394822780042887
1024.0,-0.006353683769702911
1152.0,-0.003571624867618084
1280.0,-0.0011330980341881514
1408.0,-0.000907957146409899
1536.0,-0.004960252437740564
1664.0,-0.0016986711416393518
1792.0,0.0005633431719616055
1920.0,0.0025990644935518503
2048.0,0.0022103514056652784
2304.0,-0.003376858774572611
2560.0,-0.008001763373613358
2816.0,-0.008666968904435635
3072.0,-0.004480001516640186
3328.0,0.005636976100504398
3584.0,0.007297694683074951
3840.0,0.004742627497762442
4096.0,-0.0020195094402879477
4608.0,-0.016308732330799103
5120.0,-0.003682263195514679
5632.0,-0.0031503073405474424
6144.0,-0.004872429184615612
6656.0,0.003009622450917959
7168.0,0.014122367836534977
7680.0,0.012226210907101631
8192.0,0.0021939738653600216
9216.0,0.00032508987351320684
10240.0,0.0027669707778841257
11264.0,-0.005015282426029444
12288.0,-0.020153382793068886
13312.0,0.0016225989675149322
14336.0,0.005124092102050781
end
