version,3.0
numOfCh,1
type,point
parent_name,20-cuts
ch_type,1_1
kcount,1
numberNandB,1
brightnessNandB,1
carpet pos,0
pc,0
Time (ms),CH1 Auto-Correlation
1.0,0.03370035067200661
2.0,0.03345957025885582
3.0,0.03322247043251991
4.0,0.032985787838697433
5.0,0.03275259956717491
6.0,0.03252170979976654
7.0,0.032288189977407455
8.0,0.0320558026432991
9.0,0.031828269362449646
10.0,0.031608644872903824
11.0,0.03139488026499748
12.0,0.031182896345853806
13.0,0.0309812743216753
14.0,0.03078990988433361
15.0,0.030597034841775894
16.0,0.030403703451156616
18.0,0.03001607209444046
20.0,0.029641609638929367
22.0,0.02926160953938961
24.0,0.028886420652270317
26.0,0.028527647256851196
28.0,0.028193743899464607
30.0,0.027865810319781303
32.0,0.02754187397658825
36.0,0.026924051344394684
40.0,0.026354409754276276
44.0,0.025844207033514977
48.0,0.025359107181429863
52.0,0.024897001683712006
56.0,0.024406177923083305
60.0,0.0239165760576725
64.0,0.023468099534511566
72.0,0.022629383951425552
80.0,0.021768195554614067
88.0,0.021012092009186745
96.0,0.020249322056770325
104.0,0.019409799948334694
112.0,0.018571484833955765
120.0,0.01772761158645153
128.0,0.01698283664882183
144.0,0.015739815309643745
160.0,0.01439897995442152
176.0,0.013219958171248436
192.0,0.012213679030537605
208.0,0.011187693104147911
224.0,0.010066724382340908
240.0,0.009210501797497272
256.0,0.008688002824783325
288.0,0.007672212086617947
320.0,0.006883777678012848
352.0,0.006470431573688984
384.0,0.005318798590451479
416.0,0.0037865093909204006
448.0,0.0024509080685675144
480.0,0.0019485391676425934
512.0,0.0018050167709589005
576.0,0.0007468948024325073
640.0,-0.0010054920567199588
704.0,-0.0019188413862138987
768.0,-0.0025144442915916443
832.0,-0.002893988275900483
896.0,-0.0029622940346598625
960.0,-0.004080378450453281
1024.0,-0.005288361106067896
1152.0,-0.004966601729393005
1280.0,-0.003413802944123745
1408.0,-0.0032883547246456146
1536.0,-0.002322229091078043
1664.0,0.0006131641566753387
1792.0,0.0031043540220707655
1920.0,0.00035144801950082183
2048.0,-0.00021936224948149174
2304.0,0.0027891360223293304
2560.0,-0.0004473819280974567
2816.0,0.0007047356339171529
3072.0,-0.000216157830436714
3328.0,-0.005304204300045967
3584.0,-0.006910223048180342
3840.0,-0.006014600861817598
4096.0,-0.0007247661706060171
4608.0,0.004016789607703686
5120.0,0.004531090147793293
5632.0,-0.0008882744004949927
6144.0,0.00017503990966361016
6656.0,3.855661634588614e-05
7168.0,0.001570151187479496
7680.0,0.0011908961459994316
8192.0,-0.002873640740290284
9216.0,-0.0027202735655009747
10240.0,0.0023840274661779404
11264.0,0.005533084273338318
12288.0,-0.004058943595737219
13312.0,-0.004981942009180784
14336.0,-0.013523049652576447
end
