version,3.0
numOfCh,1
type,point
parent_name,20-cuts
ch_type,1_1
kcount,1
numberNandB,1
brightnessNandB,1
carpet pos,0
pc,0
Time (ms),CH1 Auto-Correlation
1.0,0.07699334621429443
2.0,0.07624965906143188
3.0,0.07550960779190063
4.0,0.07477409392595291
5.0,0.07404612749814987
6.0,0.07333587110042572
7.0,0.07262630015611649
8.0,0.0719277560710907
9.0,0.07125449925661087
10.0,0.07063733041286469
11.0,0.06999924033880234
12.0,0.06937389075756073
13.0,0.06876170635223389
14.0,0.06814945489168167
15.0,0.0675511583685875
16.0,0.06697871536016464
18.0,0.06580855697393417
20.0,0.06469719111919403
22.0,0.06363226473331451
24.0,0.06263398379087448
26.0,0.061670806258916855
28.0,0.0607156977057457
30.0,0.0597677007317543
32.0,0.05884379893541336
36.0,0.057140983641147614
40.0,0.05542761832475662
44.0,0.05382732301950455
48.0,0.052333198487758636
52.0,0.051052581518888474
56.0,0.049859628081321716
60.0,0.0486452616751194
64.0,0.04745689779520035
72.0,0.045124977827072144
80.0,0.04272979870438576
88.0,0.040517378598451614
96.0,0.03862641379237175
104.0,0.03691204637289047
112.0,0.03534030541777611
120.0,0.03412635996937752
128.0,0.03266369178891182
144.0,0.029868511483073235
160.0,0.027192192152142525
176.0,0.02526761405169964
192.0,0.023133981972932816
208.0,0.02050386555492878
224.0,0.01836981065571308
240.0,0.01674039475619793
256.0,0.015484091825783253
288.0,0.015551530756056309
320.0,0.014268297702074051
352.0,0.012578245252370834
384.0,0.011160612106323242
416.0,0.010320985689759254
448.0,0.009940764866769314
480.0,0.007977292872965336
512.0,0.0059542120434343815
576.0,0.003953414503484964
640.0,0.0009321290999650955
704.0,-0.00041904355748556554
768.0,0.0032421620562672615
832.0,0.006838025525212288
896.0,0.010403833352029324
960.0,0.014385862275958061
1024.0,0.01454685814678669
1152.0,0.009803304448723793
1280.0,0.012312804348766804
1408.0,0.010583390481770039
1536.0,0.006607094779610634
1664.0,0.005719943903386593
1792.0,0.004035110119730234
1920.0,0.0023935099598020315
2048.0,0.0005397514323703945
2304.0,0.0019858935847878456
2560.0,-0.00317851803265512
2816.0,-0.002092869719490409
3072.0,-0.0035400735214352608
3328.0,-0.0027137952856719494
3584.0,0.002318504499271512
3840.0,0.007115284912288189
4096.0,0.0019788797944784164
4608.0,0.004502279218286276
5120.0,-0.0037426648195832968
5632.0,-0.004998422227799892
6144.0,-0.005076954141259193
6656.0,-0.013380703516304493
7168.0,-0.010850153863430023
7680.0,-0.0020653442479670048
8192.0,-0.016202805563807487
9216.0,-0.010146879591047764
10240.0,-0.014506052248179913
11264.0,-0.008799749426543713
12288.0,0.006014024373143911
13312.0,0.009136774577200413
14336.0,0.012397047132253647
end
