version,3.0
numOfCh,1
type,point
parent_name,20-cuts
ch_type,1_1
kcount,1
numberNandB,1
brightnessNandB,1
carpet pos,0
pc,0
Time (ms),CH1 Auto-Correlation
1.0,0.06240285560488701
2.0,0.061934635043144226
3.0,0.06147650256752968
4.0,0.061025798320770264
5.0,0.060589298605918884
6.0,0.060160961002111435
7.0,0.05973167344927788
8.0,0.05930911749601364
9.0,0.05888501554727554
10.0,0.05846176669001579
11.0,0.05804792419075966
12.0,0.057631559669971466
13.0,0.057216402143239975
14.0,0.05680551379919052
15.0,0.05640546977519989
16.0,0.05601692944765091
18.0,0.05525705963373184
20.0,0.05451859161257744
22.0,0.05381584167480469
24.0,0.05313859507441521
26.0,0.05245079845190048
28.0,0.051763761788606644
30.0,0.051115792244672775
32.0,0.05051014572381973
36.0,0.04933619871735573
40.0,0.04821581393480301
44.0,0.047132279723882675
48.0,0.04606439545750618
52.0,0.04504816606640816
56.0,0.04406626150012016
60.0,0.04312090203166008
64.0,0.04222044348716736
72.0,0.04067251831293106
80.0,0.03928638994693756
88.0,0.03791565075516701
96.0,0.036625683307647705
104.0,0.035348910838365555
112.0,0.03400450199842453
120.0,0.03261769935488701
128.0,0.031402695924043655
144.0,0.029322771355509758
160.0,0.02740160934627056
176.0,0.025914695113897324
192.0,0.024488365277647972
208.0,0.022991880774497986
224.0,0.021508244797587395
240.0,0.02065337635576725
256.0,0.02006588503718376
288.0,0.01862192526459694
320.0,0.015577442944049835
352.0,0.0129932826384902
384.0,0.010699376463890076
416.0,0.008550221100449562
448.0,0.006802212912589312
480.0,0.0058629438281059265
512.0,0.005280414130538702
576.0,0.003970312885940075
640.0,-0.0002891435578931123
704.0,-0.004070783033967018
768.0,-0.006997318472713232
832.0,-0.009281397797167301
896.0,-0.00971011258661747
960.0,-0.008769790641963482
1024.0,-0.008521097712218761
1152.0,-0.002289334312081337
1280.0,-0.002994581824168563
1408.0,-0.002068206435069442
1536.0,0.00027349477750249207
1664.0,0.003051558043807745
1792.0,0.00409335782751441
1920.0,0.0015476644039154053
2048.0,-0.00023326757946051657
2304.0,-0.004344590939581394
2560.0,-0.009133991785347462
2816.0,-0.010859414935112
3072.0,-0.005585286766290665
3328.0,0.005427159368991852
3584.0,0.009780784137547016
3840.0,0.006368875503540039
4096.0,0.006563670001924038
4608.0,0.004492545034736395
5120.0,-0.0009790731128305197
5632.0,-0.0074575794860720634
6144.0,-0.00829262938350439
6656.0,-0.004106533247977495
7168.0,-0.008252394385635853
7680.0,-0.011128226295113564
8192.0,0.004529629833996296
9216.0,0.00018818285025190562
10240.0,0.010994375683367252
11264.0,-0.011540709994733334
12288.0,0.005473980214446783
13312.0,-0.008935706689953804
14336.0,0.025428077206015587
end
