version,3.0
numOfCh,1
type,point
parent_name,20-cuts
ch_type,1_1
kcount,1
numberNandB,1
brightnessNandB,1
carpet pos,0
pc,0
Time (ms),CH1 Auto-Correlation
1.0,0.051258910447359085
2.0,0.0508396252989769
3.0,0.05042151361703873
4.0,0.05001799017190933
5.0,0.04960762709379196
6.0,0.04920182749629021
7.0,0.04878828674554825
8.0,0.04837854951620102
9.0,0.04797491431236267
10.0,0.047569405287504196
11.0,0.04717179387807846
12.0,0.046788107603788376
13.0,0.04641374200582504
14.0,0.04604894667863846
15.0,0.04569472745060921
16.0,0.04534202814102173
18.0,0.044649388641119
20.0,0.04398200288414955
22.0,0.04331158101558685
24.0,0.04266566038131714
26.0,0.042028944939374924
28.0,0.04140443354845047
30.0,0.04080023989081383
32.0,0.040216632187366486
36.0,0.03909938782453537
40.0,0.03796129673719406
44.0,0.03687315061688423
48.0,0.03579411283135414
52.0,0.03473082184791565
56.0,0.033755578100681305
60.0,0.03282038867473602
64.0,0.03190812095999718
72.0,0.03006363846361637
80.0,0.028401292860507965
88.0,0.026956981047987938
96.0,0.025566263124346733
104.0,0.024248031899333
112.0,0.023055365309119225
120.0,0.021838858723640442
128.0,0.020536337047815323
144.0,0.018005644902586937
160.0,0.015567783266305923
176.0,0.013968528248369694
192.0,0.013043045997619629
208.0,0.012497630901634693
224.0,0.012128875590860844
240.0,0.011741605587303638
256.0,0.011369118466973305
288.0,0.010146960616111755
320.0,0.008616860024631023
352.0,0.007661784999072552
384.0,0.0073828804306685925
416.0,0.007433089427649975
448.0,0.008082063868641853
480.0,0.00870447140187025
512.0,0.009204418398439884
576.0,0.008035553619265556
640.0,0.0057021332904696465
704.0,0.005044919438660145
768.0,0.006747903302311897
832.0,0.006654050666838884
896.0,0.0072115943767130375
960.0,0.005018735770136118
1024.0,0.0039319125935435295
1152.0,0.0003635025641415268
1280.0,0.0005894615314900875
1408.0,-0.0009030186920426786
1536.0,-0.0016699285479262471
1664.0,-0.0006243090028874576
1792.0,0.0015240841312333941
1920.0,-0.0002688669483177364
2048.0,-0.005942349787801504
2304.0,-0.007814686745405197
2560.0,-0.004443990997970104
2816.0,-0.000923067273106426
3072.0,-0.0006685741245746613
3328.0,0.0023615651298314333
3584.0,0.00346820754930377
3840.0,-0.001550861750729382
4096.0,0.00047949841246008873
4608.0,0.0009379783878102899
5120.0,-0.00682238582521677
5632.0,-0.009128876030445099
6144.0,-0.010313574224710464
6656.0,-0.010815288871526718
7168.0,-0.003552424954250455
7680.0,-0.0002518350665923208
8192.0,0.003962636925280094
9216.0,0.0012754397466778755
10240.0,-0.0017711627297103405
11264.0,0.008096659556031227
12288.0,0.007616985123604536
13312.0,-0.00272467453032732
14336.0,-0.00804245937615633
end
