version,3.0
numOfCh,1
type,point
parent_name,20-cuts
ch_type,1_1
kcount,1
numberNandB,1
brightnessNandB,1
carpet pos,0
pc,0
Time (ms),CH1 Auto-Correlation
1.0,0.06286833435297012
2.0,0.06233726441860199
3.0,0.06182729825377464
4.0,0.06132035329937935
5.0,0.06082797050476074
6.0,0.060332730412483215
7.0,0.0598469153046608
8.0,0.059357620775699615
9.0,0.05886242538690567
10.0,0.05835704877972603
11.0,0.05784928426146507
12.0,0.05735617130994797
13.0,0.05684876814484596
14.0,0.05635634437203407
15.0,0.05586538836359978
16.0,0.055370740592479706
18.0,0.05439211428165436
20.0,0.05347589775919914
22.0,0.052601408213377
24.0,0.051755573600530624
26.0,0.05094442889094353
28.0,0.050164446234703064
30.0,0.04942186921834946
32.0,0.048701439052820206
36.0,0.04733871668577194
40.0,0.046066999435424805
44.0,0.04486837238073349
48.0,0.043734360486269
52.0,0.042704369872808456
56.0,0.041733138263225555
60.0,0.04081986844539642
64.0,0.03991290181875229
72.0,0.03833154961466789
80.0,0.036760374903678894
88.0,0.03529150038957596
96.0,0.033950332552194595
104.0,0.032545484602451324
112.0,0.031030919402837753
120.0,0.02948918379843235
128.0,0.027966514229774475
144.0,0.02551857940852642
160.0,0.023361168801784515
176.0,0.02130187675356865
192.0,0.019429396837949753
208.0,0.01798231527209282
224.0,0.017054853960871696
240.0,0.016449501737952232
256.0,0.015835009515285492
288.0,0.014951582066714764
320.0,0.01532683800905943
352.0,0.016451604664325714
384.0,0.017067739740014076
416.0,0.01587703265249729
448.0,0.014107628725469112
480.0,0.0137305473908782
512.0,0.013400516472756863
576.0,0.011049752123653889
640.0,0.00950975064188242
704.0,0.007663852069526911
768.0,0.006428771186619997
832.0,0.0056810881942510605
896.0,0.0059846737422049046
960.0,0.006945993285626173
1024.0,0.008012045174837112
1152.0,0.007945654913783073
1280.0,0.006515106186270714
1408.0,0.004810328595340252
1536.0,0.0069663263857364655
1664.0,0.010425114072859287
1792.0,0.0031045381911098957
1920.0,-0.003692724509164691
2048.0,-0.005736820865422487
2304.0,-0.0006682681851089001
2560.0,0.0049439179711043835
2816.0,0.004234501626342535
3072.0,0.005299871787428856
3328.0,0.0005719332839362323
3584.0,0.0005711105768568814
3840.0,0.004345723893493414
4096.0,0.005494117271155119
4608.0,-0.006026274058967829
5120.0,-0.011272873729467392
5632.0,-0.007688552141189575
6144.0,-0.01551108155399561
6656.0,-0.005858032498508692
7168.0,-0.005082940682768822
7680.0,-0.011188567616045475
8192.0,-0.005677116569131613
9216.0,-0.005893726367503405
10240.0,-0.003759797429665923
11264.0,-0.0008472411427646875
12288.0,0.0015315985074266791
13312.0,0.0010542955715209246
14336.0,-0.00014964057481847703
end
