version,3.0
numOfCh,1
type,point
parent_name,20-cuts
ch_type,1_1
kcount,1
numberNandB,1
brightnessNandB,1
carpet pos,0
pc,0
Time (ms),CH1 Auto-Correlation
1.0,0.06129073351621628
2.0,0.06079632043838501
3.0,0.060311492532491684
4.0,0.05984199047088623
5.0,0.0593758188188076
6.0,0.05891815200448036
7.0,0.058458831161260605
8.0,0.05799229070544243
9.0,0.057524148374795914
10.0,0.05705878511071205
11.0,0.056607574224472046
12.0,0.056166671216487885
13.0,0.055735211819410324
14.0,0.05529746785759926
15.0,0.05486193671822548
16.0,0.054442811757326126
18.0,0.05363890156149864
20.0,0.052836861461400986
22.0,0.05207327380776405
24.0,0.05135074630379677
26.0,0.05065801739692688
28.0,0.04995844140648842
30.0,0.0492771714925766
32.0,0.048629213124513626
36.0,0.04739075154066086
40.0,0.0461856834590435
44.0,0.04502606764435768
48.0,0.043881651014089584
52.0,0.042738039046525955
56.0,0.04161618649959564
60.0,0.04057975485920906
64.0,0.03954469412565231
72.0,0.03768040984869003
80.0,0.03599417209625244
88.0,0.0343637689948082
96.0,0.032683417201042175
104.0,0.03090750426054001
112.0,0.029024194926023483
120.0,0.02719034068286419
128.0,0.02551364339888096
144.0,0.022643599659204483
160.0,0.020310521125793457
176.0,0.01817997731268406
192.0,0.01631794311106205
208.0,0.015030363574624062
224.0,0.013717276975512505
240.0,0.012834211811423302
256.0,0.012340640649199486
288.0,0.010816986672580242
320.0,0.009343359619379044
352.0,0.008564816787838936
384.0,0.006951440125703812
416.0,0.004216413479298353
448.0,0.0007637052913196385
480.0,-0.002394890645518899
512.0,-0.004764528479427099
576.0,-0.006302536465227604
640.0,-0.005955980159342289
704.0,-0.004580958746373653
768.0,-0.0011097501264885068
832.0,0.000572714488953352
896.0,-0.0012193043949082494
960.0,-0.0015056668780744076
1024.0,1.9118278942187317e-05
1152.0,-0.0030323986429721117
1280.0,-0.007520494516938925
1408.0,-0.008053644560277462
1536.0,-0.007142932154238224
1664.0,-0.003944647032767534
1792.0,-0.0024008448235690594
1920.0,-0.004328624345362186
2048.0,-0.002451000502333045
2304.0,-0.0010526615660637617
2560.0,0.009564332664012909
2816.0,0.006950892508029938
3072.0,0.0015472212107852101
3328.0,-0.0006650124560110271
3584.0,0.0015684119425714016
3840.0,-0.006433878093957901
4096.0,-0.007717668078839779
4608.0,-0.006358797661960125
5120.0,-0.003936234395951033
5632.0,0.007919210940599442
6144.0,-0.0037213200703263283
6656.0,0.002581653418019414
7168.0,-0.0037271270994096994
7680.0,-0.006497890688478947
8192.0,0.0011369179701432586
9216.0,-0.0010011845733970404
10240.0,0.0017021946841850877
11264.0,-0.0018209208501502872
12288.0,-0.001118531683459878
13312.0,0.004549289122223854
14336.0,0.0023436828050762415
end
