version,3.0
numOfCh,1
type,point
parent_name,20-cuts
ch_type,1_1
kcount,1
numberNandB,1
brightnessNandB,1
carpet pos,0
pc,0
Time (ms),CH1 Auto-Correlation
1.0,0.07961602509021759
2.0,0.07905404269695282
3.0,0.07849940657615662
4.0,0.07794694602489471
5.0,0.07739973813295364
6.0,0.07686948031187057
7.0,0.07633403688669205
8.0,0.07580536603927612
9.0,0.07528859376907349
10.0,0.07475493848323822
11.0,0.0742153450846672
12.0,0.07369662076234818
13.0,0.07318706810474396
14.0,0.072688527405262
15.0,0.0721825659275055
16.0,0.07167759537696838
18.0,0.07068386673927307
20.0,0.06970437616109848
22.0,0.0687568262219429
24.0,0.06787113100290298
26.0,0.0670061931014061
28.0,0.06617172062397003
30.0,0.06532265990972519
32.0,0.0644756555557251
36.0,0.06282644718885422
40.0,0.06133517995476723
44.0,0.059971343725919724
48.0,0.05867515504360199
52.0,0.05738503113389015
56.0,0.05616312101483345
60.0,0.05509983375668526
64.0,0.054093655198812485
72.0,0.05218641087412834
80.0,0.050490375608205795
88.0,0.049167897552251816
96.0,0.047960877418518066
104.0,0.04662559553980827
112.0,0.0451308898627758
120.0,0.04367709904909134
128.0,0.042443886399269104
144.0,0.0402851328253746
160.0,0.038401827216148376
176.0,0.03693634644150734
192.0,0.035229720175266266
208.0,0.03384809195995331
224.0,0.03258563205599785
240.0,0.031010758131742477
256.0,0.029470233246684074
288.0,0.02726738713681698
320.0,0.025209499523043633
352.0,0.021915987133979797
384.0,0.019582470878958702
416.0,0.018472032621502876
448.0,0.017397433519363403
480.0,0.01692524366080761
512.0,0.017294971272349358
576.0,0.016656221821904182
640.0,0.01703176461160183
704.0,0.013974306173622608
768.0,0.013053607195615768
832.0,0.014727689325809479
896.0,0.016563396900892258
960.0,0.016100989654660225
1024.0,0.01006057858467102
1152.0,0.005547494161874056
1280.0,0.005545313470065594
1408.0,0.007421543821692467
1536.0,0.009442578069865704
1664.0,0.007588687818497419
1792.0,0.0061151511035859585
1920.0,0.0033768848516047
2048.0,-0.0003941684262827039
2304.0,0.0037650398444384336
2560.0,-0.004022730514407158
2816.0,-0.00938706286251545
3072.0,-0.008148523047566414
3328.0,0.0003529507084749639
3584.0,0.0013324973406270146
3840.0,-0.008112749084830284
4096.0,-0.005159810651093721
4608.0,-0.0047713154926896095
5120.0,-0.013968468643724918
5632.0,-0.015041028149425983
6144.0,-0.017859362065792084
6656.0,-0.01743174158036709
7168.0,-0.018399177119135857
7680.0,-0.004052663687616587
8192.0,-0.005407929886132479
9216.0,-0.009990004822611809
10240.0,-0.0023212237283587456
11264.0,0.013933413662016392
12288.0,0.03804713487625122
13312.0,0.012102929875254631
14336.0,-0.020589252933859825
end
