version,3.0
numOfCh,1
type,point
parent_name,20-cuts
ch_type,1_1
kcount,1
numberNandB,1
brightnessNandB,1
carpet pos,0
pc,0
Time (ms),CH1 Auto-Correlation
1.0,0.07884959131479263
2.0,0.07816560566425323
3.0,0.0774698406457901
4.0,0.0767904743552208
5.0,0.07613261044025421
6.0,0.07549788802862167
7.0,0.0748659148812294
8.0,0.07425042986869812
9.0,0.0736568421125412
10.0,0.07307379692792892
11.0,0.07248373329639435
12.0,0.07190853357315063
13.0,0.07134169340133667
14.0,0.07076283544301987
15.0,0.0701722651720047
16.0,0.06958165764808655
18.0,0.06840986758470535
20.0,0.0672619417309761
22.0,0.0661260336637497
24.0,0.0650467798113823
26.0,0.06403417885303497
28.0,0.06305146217346191
30.0,0.06206529587507248
32.0,0.061089400202035904
36.0,0.05907308682799339
40.0,0.05705980956554413
44.0,0.05509711429476738
48.0,0.05322085693478584
52.0,0.05142912641167641
56.0,0.049624767154455185
60.0,0.047974660992622375
64.0,0.046436913311481476
72.0,0.04365527629852295
80.0,0.04115348681807518
88.0,0.0389704704284668
96.0,0.0371432825922966
104.0,0.035647861659526825
112.0,0.034242063760757446
120.0,0.03281284496188164
128.0,0.03151777759194374
144.0,0.028625663369894028
160.0,0.02612629532814026
176.0,0.024171650409698486
192.0,0.02184702269732952
208.0,0.019569607451558113
224.0,0.018034491688013077
240.0,0.016761090606451035
256.0,0.015619320794939995
288.0,0.013453946448862553
320.0,0.011081877164542675
352.0,0.009371425025165081
384.0,0.009092070162296295
416.0,0.010345350950956345
448.0,0.010761098936200142
480.0,0.010951423086225986
512.0,0.010725701227784157
576.0,0.007107352372258902
640.0,0.004089054185897112
704.0,0.003267166670411825
768.0,0.004595115780830383
832.0,0.005393780302256346
896.0,0.003037194488570094
960.0,-0.0016272665234282613
1024.0,-0.004047003109008074
1152.0,-0.0020512903574854136
1280.0,-0.007840926758944988
1408.0,-0.007854636758565903
1536.0,0.004849293269217014
1664.0,0.008443839848041534
1792.0,0.0025927077513188124
1920.0,-0.0014176024124026299
2048.0,-0.00015987621736712754
2304.0,-0.0068597919307649136
2560.0,-0.009758982807397842
2816.0,-0.0132896164432168
3072.0,-0.01745978742837906
3328.0,-0.008202857337892056
3584.0,-0.015529637224972248
3840.0,-0.014774736016988754
4096.0,-0.006375736091285944
4608.0,-0.0014453947078436613
5120.0,0.0030306775588542223
5632.0,0.010198106057941914
6144.0,0.01675603911280632
6656.0,0.00615366455167532
7168.0,0.0003988879907410592
7680.0,-0.000858783780131489
8192.0,-0.0011319404002279043
9216.0,-0.011704467236995697
10240.0,0.0006103834020905197
11264.0,0.006675336044281721
12288.0,0.00817269366234541
13312.0,-0.002286032075062394
14336.0,-0.012571041472256184
end
