version,3.0
numOfCh,1
type,point
parent_name,20-cuts
ch_type,1_1
kcount,1
numberNandB,1
brightnessNandB,1
carpet pos,0
pc,0
Time (ms),CH1 Auto-Correlation
1.0,0.024306640028953552
2.0,0.02408210188150406
3.0,0.023858143016695976
4.0,0.02364141307771206
5.0,0.023425888270139694
6.0,0.02320757322013378
7.0,0.02299242466688156
8.0,0.022783411666750908
9.0,0.0225753802806139
10.0,0.022366462275385857
11.0,0.02215922623872757
12.0,0.021954461932182312
13.0,0.02175363525748253
14.0,0.021556926891207695
15.0,0.021361401304602623
16.0,0.02116554044187069
18.0,0.020790111273527145
20.0,0.020425008609890938
22.0,0.020068949088454247
24.0,0.01971299573779106
26.0,0.01936095952987671
28.0,0.01902206428349018
30.0,0.018694788217544556
32.0,0.018378810957074165
36.0,0.017751846462488174
40.0,0.0171847902238369
44.0,0.01668011210858822
48.0,0.016232989728450775
52.0,0.015817837789654732
56.0,0.015380685217678547
60.0,0.01494613941758871
64.0,0.014523032121360302
72.0,0.013741815462708473
80.0,0.013063856400549412
88.0,0.012417217716574669
96.0,0.011805837042629719
104.0,0.011234418489038944
112.0,0.010679115541279316
120.0,0.010070300661027431
128.0,0.009511466138064861
144.0,0.008547386154532433
160.0,0.007740182802081108
176.0,0.007059742230921984
192.0,0.0065482729114592075
208.0,0.006190582178533077
224.0,0.005902046337723732
240.0,0.005475284997373819
256.0,0.00504090404137969
288.0,0.004324997775256634
320.0,0.003613970708101988
352.0,0.0032873929012566805
384.0,0.003302703145891428
416.0,0.003296396229416132
448.0,0.00328356446698308
480.0,0.0030272926669567823
512.0,0.0024492666125297546
576.0,0.0023757116869091988
640.0,0.0027230374980717897
704.0,0.0032408994156867266
768.0,0.0033912830986082554
832.0,0.003407565876841545
896.0,0.003985551651567221
960.0,0.00444555189460516
1024.0,0.004610998090356588
1152.0,0.002630984177812934
1280.0,-0.000588800001423806
1408.0,-0.0018921461887657642
1536.0,-0.0009370922343805432
1664.0,-9.469646465731785e-05
1792.0,0.0009817169047892094
1920.0,0.0014533306239172816
2048.0,-0.0008952972129918635
2304.0,-0.0036115520633757114
2560.0,-0.004390092100948095
2816.0,-0.002509019337594509
3072.0,-0.001385344541631639
3328.0,-0.004738255869597197
3584.0,-0.0026271496899425983
3840.0,-0.0015113067347556353
4096.0,-0.002506149699911475
4608.0,3.7215657357592136e-05
5120.0,0.0011882903054356575
5632.0,0.0031685056164860725
6144.0,0.0033815917558968067
6656.0,0.002553128870204091
7168.0,-0.0008199044968932867
7680.0,-0.0009204628877341747
8192.0,-0.0041577513329684734
9216.0,-0.002163866301998496
10240.0,-0.0006144246435724199
11264.0,0.0015871181385591626
12288.0,0.001975630410015583
13312.0,-0.00544177507981658
14336.0,-0.002054166980087757
end
