version,3.0
numOfCh,1
type,point
parent_name,20-cuts
ch_type,1_1
kcount,1
numberNandB,1
brightnessNandB,1
carpet pos,0
pc,0
Time (ms),CH1 Auto-Correlation
1.0,0.07495856285095215
2.0,0.0743422657251358
3.0,0.07372937351465225
4.0,0.07312428206205368
5.0,0.07251773774623871
6.0,0.07190147787332535
7.0,0.07130341231822968
8.0,0.07071796804666519
9.0,0.07015518844127655
10.0,0.06959600001573563
11.0,0.06903955340385437
12.0,0.06849624961614609
13.0,0.06796672195196152
14.0,0.06744377315044403
15.0,0.06692283600568771
16.0,0.06641975045204163
18.0,0.06543279439210892
20.0,0.06447356939315796
22.0,0.06353219598531723
24.0,0.06261064857244492
26.0,0.061746060848236084
28.0,0.060918375849723816
30.0,0.060143355280160904
32.0,0.0593886524438858
36.0,0.05795624107122421
40.0,0.056569743901491165
44.0,0.05518680065870285
48.0,0.05384603887796402
52.0,0.05248096585273743
56.0,0.051169030368328094
60.0,0.04998781532049179
64.0,0.0488860122859478
72.0,0.046933915466070175
80.0,0.044899072498083115
88.0,0.0429561622440815
96.0,0.04116586595773697
104.0,0.039434175938367844
112.0,0.03793882206082344
120.0,0.036176897585392
128.0,0.03436576947569847
144.0,0.03156327083706856
160.0,0.02956034243106842
176.0,0.02749922126531601
192.0,0.025341223925352097
208.0,0.02312180958688259
224.0,0.02166914753615856
240.0,0.021064508706331253
256.0,0.020562956109642982
288.0,0.018338104709982872
320.0,0.016188276931643486
352.0,0.014967230148613453
384.0,0.013670834712684155
416.0,0.012954562902450562
448.0,0.013126780278980732
480.0,0.014026467688381672
512.0,0.014379101805388927
576.0,0.01174237485975027
640.0,0.01021578349173069
704.0,0.00778622180223465
768.0,0.006663387641310692
832.0,0.006247628480195999
896.0,0.005815330892801285
960.0,0.0013956227339804173
1024.0,-0.003986290656030178
1152.0,-0.009244178421795368
1280.0,-0.008118150755763054
1408.0,-0.003390548750758171
1536.0,-0.003221957478672266
1664.0,-0.0028016590513288975
1792.0,0.0009992048144340515
1920.0,0.005607243161648512
2048.0,0.008170400746166706
2304.0,0.015076715499162674
2560.0,0.01848687045276165
2816.0,0.013543536886572838
3072.0,0.011906356550753117
3328.0,0.013303907588124275
3584.0,-0.0024635291192680597
3840.0,-0.002779174828901887
4096.0,-0.007447239942848682
4608.0,-0.0007272638031281531
5120.0,0.001041560317389667
5632.0,-0.0033663997892290354
6144.0,-0.006883643567562103
6656.0,-0.007650506217032671
7168.0,-0.010633067227900028
7680.0,-0.0021882380824536085
8192.0,-0.0030480660498142242
9216.0,-0.0225550327450037
10240.0,0.003970547113567591
11264.0,-0.005760367959737778
12288.0,-0.029011597856879234
13312.0,0.015106873586773872
14336.0,-0.011076373048126698
end
