version,3.0
numOfCh,1
type,point
parent_name,20-cuts
ch_type,1_1
kcount,1
numberNandB,1
brightnessNandB,1
carpet pos,0
pc,0
Time (ms),CH1 Auto-Correlation
1.0,0.0554642416536808
2.0,0.055001504719257355
3.0,0.054540082812309265
4.0,0.05407309532165527
5.0,0.053611066192388535
6.0,0.05315570533275604
7.0,0.052708640694618225
8.0,0.052255645394325256
9.0,0.05183000862598419
10.0,0.05142348259687424
11.0,0.05101706460118294
12.0,0.050625279545784
13.0,0.05023627728223801
14.0,0.04985304921865463
15.0,0.04947339743375778
16.0,0.04909907653927803
18.0,0.048346053808927536
20.0,0.04759599640965462
22.0,0.04685082286596298
24.0,0.046135514974594116
26.0,0.045433588325977325
28.0,0.044741690158843994
30.0,0.04407452791929245
32.0,0.04337349534034729
36.0,0.041980549693107605
40.0,0.04072212800383568
44.0,0.03957834839820862
48.0,0.03847641870379448
52.0,0.0374198816716671
56.0,0.0364578478038311
60.0,0.03544503077864647
64.0,0.0343683660030365
72.0,0.03236551955342293
80.0,0.030527915805578232
88.0,0.028623854741454124
96.0,0.026832422241568565
104.0,0.025067519396543503
112.0,0.02347683720290661
120.0,0.022051898762583733
128.0,0.020575493574142456
144.0,0.017937706783413887
160.0,0.015932420268654823
176.0,0.014105381444096565
192.0,0.012387607246637344
208.0,0.010922126471996307
224.0,0.0095656868070364
240.0,0.008022093214094639
256.0,0.006438108626753092
288.0,0.003956361673772335
320.0,0.002074811141937971
352.0,0.0012579439207911491
384.0,0.0011058063246309757
416.0,0.0005451565375551581
448.0,0.0003679660730995238
480.0,-0.0009468473726883531
512.0,-0.001078781089745462
576.0,-0.0004486726247705519
640.0,-0.0003723837435245514
704.0,0.0010866892989724874
768.0,0.0017556793754920363
832.0,-0.00023079384118318558
896.0,-0.00338555290363729
960.0,-0.006862077862024307
1024.0,-0.007016306277364492
1152.0,-0.005537777207791805
1280.0,-0.004064877983182669
1408.0,0.0019565524999052286
1536.0,0.005947634112089872
1664.0,0.005822613835334778
1792.0,0.0040986682288348675
1920.0,0.002528144046664238
2048.0,-0.000830227043479681
2304.0,-0.004033157601952553
2560.0,-0.004459115210920572
2816.0,-0.0038907905109226704
3072.0,-0.004862791392952204
3328.0,0.000826427130959928
3584.0,0.004491009283810854
3840.0,0.0024307165294885635
4096.0,0.002825177740305662
4608.0,0.00034950519329868257
5120.0,0.007185440044850111
5632.0,-0.007224493660032749
6144.0,-0.0077339960262179375
6656.0,0.0014125771122053266
7168.0,-0.0022315785754472017
7680.0,-0.001073135295882821
8192.0,0.005088004283607006
9216.0,0.003048774553462863
10240.0,-0.00804987270385027
11264.0,-0.0007747382041998208
12288.0,-0.005606720689684153
13312.0,0.01126793585717678
14336.0,-0.02405526116490364
end
