version,3.0
numOfCh,1
type,point
parent_name,20-cuts
ch_type,1_1
kcount,1
numberNandB,1
brightnessNandB,1
carpet pos,0
pc,0
Time (ms),CH1 Auto-Correlation
1.0,0.028817130252718925
2.0,0.02859249897301197
3.0,0.028365841135382652
4.0,0.028137346729636192
5.0,0.027912402525544167
6.0,0.027684951201081276
7.0,0.027463117614388466
8.0,0.027243416756391525
9.0,0.02702747844159603
10.0,0.02681797929108143
11.0,0.02660534344613552
12.0,0.026391245424747467
13.0,0.026173265650868416
14.0,0.025958500802516937
15.0,0.02574489638209343
16.0,0.025533398613333702
18.0,0.025126202031970024
20.0,0.0247214175760746
22.0,0.024315843358635902
24.0,0.023913372308015823
26.0,0.02351374924182892
28.0,0.023115936666727066
30.0,0.022726750001311302
32.0,0.02235310897231102
36.0,0.021628007292747498
40.0,0.020905960351228714
44.0,0.020207660272717476
48.0,0.019536947831511497
52.0,0.018878156319260597
56.0,0.01824772357940674
60.0,0.01765851117670536
64.0,0.017080383375287056
72.0,0.015939490869641304
80.0,0.014892219565808773
88.0,0.013876039534807205
96.0,0.01290158648043871
104.0,0.011964838020503521
112.0,0.011113968677818775
120.0,0.010329529643058777
128.0,0.009633236564695835
144.0,0.0084063820540905
160.0,0.00730104511603713
176.0,0.006333962548524141
192.0,0.005535521078854799
208.0,0.004837461281567812
224.0,0.0043034544214606285
240.0,0.003888730425387621
256.0,0.0037232486065477133
288.0,0.003419044427573681
320.0,0.003034631023183465
352.0,0.002486216137185693
384.0,0.002039675833657384
416.0,0.001112689496949315
448.0,0.0007241123239509761
480.0,0.0008133192313835025
512.0,0.0012390257325023413
576.0,0.0013873506104573607
640.0,0.0013391970423981547
704.0,0.0017417921917513013
768.0,0.0023288410156965256
832.0,0.0019020745530724525
896.0,0.0008381839725188911
960.0,-0.0006494727567769587
1024.0,-0.0011394163593649864
1152.0,-0.0004787141806446016
1280.0,-0.00271513219922781
1408.0,-0.0016950935823842883
1536.0,0.0015955707058310509
1664.0,-0.001213879557326436
1792.0,-0.0021264818497002125
1920.0,-0.003637033747509122
2048.0,-0.0045052566565573215
2304.0,-0.0038837625179439783
2560.0,-0.003722579451277852
2816.0,-0.0019913185387849808
3072.0,-0.002997397445142269
3328.0,-0.0017614150419831276
3584.0,0.003717774758115411
3840.0,0.0022772992961108685
4096.0,0.0016534199239686131
4608.0,-0.00031907373340800405
5120.0,0.0014639155706390738
5632.0,0.002710623200982809
6144.0,-0.0031417503487318754
6656.0,-0.0029125469736754894
7168.0,0.0010424054926261306
7680.0,-0.0018715461483225226
8192.0,-0.002668954199180007
9216.0,-2.4919674615375698e-05
10240.0,-0.0007040451164357364
11264.0,0.005507830064743757
12288.0,0.0008006410207599401
13312.0,-0.005197432823479176
14336.0,0.0012720482191070914
end
