version,3.0
numOfCh,1
type,point
parent_name,20-cuts
ch_type,1_1
kcount,1
numberNandB,1
brightnessNandB,1
carpet pos,0
pc,0
Time (ms),CH1 Auto-Correlation
1.0,0.07322320342063904
2.0,0.07267605513334274
3.0,0.07214841991662979
4.0,0.07163000851869583
5.0,0.07111253589391708
6.0,0.07062062621116638
7.0,0.0701427310705185
8.0,0.0696709007024765
9.0,0.06919863820075989
10.0,0.0687352642416954
11.0,0.06829484552145004
12.0,0.06784225255250931
13.0,0.06740874797105789
14.0,0.06698721647262573
15.0,0.06656835973262787
16.0,0.06616226583719254
18.0,0.06534798443317413
20.0,0.06455614417791367
22.0,0.0637771263718605
24.0,0.0630202442407608
26.0,0.062298472970724106
28.0,0.061590731143951416
30.0,0.06091267243027687
32.0,0.060223210602998734
36.0,0.05884328484535217
40.0,0.05754672735929489
44.0,0.0563429519534111
48.0,0.055187053978443146
52.0,0.054062243551015854
56.0,0.052999697625637054
60.0,0.05190614238381386
64.0,0.050881121307611465
72.0,0.04905342310667038
80.0,0.047242388129234314
88.0,0.04547479376196861
96.0,0.0437258705496788
104.0,0.04215719923377037
112.0,0.04098203405737877
120.0,0.04000715911388397
128.0,0.03923835977911949
144.0,0.03788004443049431
160.0,0.03629170358181
176.0,0.03427108749747276
192.0,0.032021354883909225
208.0,0.030108245089650154
224.0,0.028145376592874527
240.0,0.02605844847857952
256.0,0.024177180603146553
288.0,0.022376706823706627
320.0,0.022573502734303474
352.0,0.023161370307207108
384.0,0.022846069186925888
416.0,0.020640650764107704
448.0,0.01830088160932064
480.0,0.016148066148161888
512.0,0.01517535001039505
576.0,0.013472913764417171
640.0,0.010698492638766766
704.0,0.00919016171246767
768.0,0.007790619507431984
832.0,0.008791080676019192
896.0,0.008813774213194847
960.0,0.006707863882184029
1024.0,0.004974298179149628
1152.0,0.0021308790892362595
1280.0,0.005139079876244068
1408.0,0.0043368861079216
1536.0,-0.004351973067969084
1664.0,-0.007863400503993034
1792.0,-0.007847392000257969
1920.0,-0.01097475178539753
2048.0,-0.011203859001398087
2304.0,-0.006908460054546595
2560.0,-0.0019198443042114377
2816.0,0.0021233779843896627
3072.0,-0.0017016057390719652
3328.0,-0.0012034582905471325
3584.0,0.003462038468569517
3840.0,0.004019260872155428
4096.0,-0.0034995097666978836
4608.0,-0.002232980215921998
5120.0,0.00018720970547292382
5632.0,-0.005431558936834335
6144.0,-0.0010982207022607327
6656.0,-0.006701502948999405
7168.0,-0.005714226979762316
7680.0,-0.0034477636218070984
8192.0,-0.005604005418717861
9216.0,0.0028229050803929567
10240.0,-0.01927674375474453
11264.0,-0.025326132774353027
12288.0,-0.00583802442997694
13312.0,0.009918187744915485
14336.0,0.022848788648843765
end
