version,3.0
numOfCh,1
type,point
parent_name,20-cuts
ch_type,1_1
kcount,1
numberNandB,1
brightnessNandB,1
carpet pos,0
pc,0
Time (ms),CH1 Auto-Correlation
1.0,0.06944067776203156
2.0,0.06884832680225372
3.0,0.0682496726512909
4.0,0.06765399128198624
5.0,0.06705272942781448
6.0,0.06646304577589035
7.0,0.06588294357061386
8.0,0.06529981642961502
9.0,0.06473516672849655
10.0,0.06419451534748077
11.0,0.06364957988262177
12.0,0.06309007108211517
13.0,0.06253065913915634
14.0,0.061981286853551865
15.0,0.0614204928278923
16.0,0.06087801977992058
18.0,0.05978379398584366
20.0,0.05870901793241501
22.0,0.05767790228128433
24.0,0.0566880963742733
26.0,0.05573319271206856
28.0,0.05480947718024254
30.0,0.05391314625740051
32.0,0.0530356727540493
36.0,0.05138049274682999
40.0,0.0497477687895298
44.0,0.04815896227955818
48.0,0.046647679060697556
52.0,0.04522998258471489
56.0,0.04386799409985542
60.0,0.04255581647157669
64.0,0.041282255202531815
72.0,0.03875410929322243
80.0,0.03622698038816452
88.0,0.03367196395993233
96.0,0.03123687580227852
104.0,0.02921350486576557
112.0,0.027480605989694595
120.0,0.025952793657779694
128.0,0.024493593722581863
144.0,0.02182011306285858
160.0,0.01925024949014187
176.0,0.017394140362739563
192.0,0.016087869182229042
208.0,0.015067433938384056
224.0,0.01394293550401926
240.0,0.012947751209139824
256.0,0.012524326331913471
288.0,0.011660943739116192
320.0,0.009826353751122952
352.0,0.006560920737683773
384.0,0.0037123775109648705
416.0,0.0005466288421303034
448.0,-0.0016747310291975737
480.0,-0.0029044440016150475
512.0,-0.0033420841209590435
576.0,-0.006421723868697882
640.0,-0.00914009939879179
704.0,-0.008690742775797844
768.0,-0.010290335863828659
832.0,-0.012682754546403885
896.0,-0.015135503374040127
960.0,-0.01584978587925434
1024.0,-0.01377282477915287
1152.0,-0.010082203894853592
1280.0,-0.00030585817876271904
1408.0,0.006407854612916708
1536.0,0.005203768610954285
1664.0,0.003814765252172947
1792.0,0.009159722365438938
1920.0,0.006523898337036371
2048.0,0.01002867054194212
2304.0,0.0033883824944496155
2560.0,-0.0004946306580677629
2816.0,-0.0017444795230403543
3072.0,-0.0034865327179431915
3328.0,-0.0015795156359672546
3584.0,0.0047407918609678745
3840.0,0.003767964895814657
4096.0,0.002166224643588066
4608.0,0.0001243490114575252
5120.0,-0.005204560700803995
5632.0,0.002116352552548051
6144.0,0.001086642500013113
6656.0,0.0034067060332745314
7168.0,-0.003351600142195821
7680.0,-0.007977289147675037
8192.0,0.004739109426736832
9216.0,-0.004209945444017649
10240.0,-0.0044179982505738735
11264.0,-0.0038127503357827663
12288.0,-0.0033530588261783123
13312.0,-0.0014546613674610853
14336.0,-0.0006063655600883067
end
