version,3.0
numOfCh,1
type,point
parent_name,20-cuts
ch_type,1_1
kcount,1
numberNandB,1
brightnessNandB,1
carpet pos,0
pc,0
Time (ms),CH1 Auto-Correlation
1.0,0.02614443376660347
2.0,0.025920866057276726
3.0,0.025703858584165573
4.0,0.025489410385489464
5.0,0.025280700996518135
6.0,0.025075120851397514
7.0,0.024869009852409363
8.0,0.024670273065567017
9.0,0.02447284758090973
10.0,0.024270247668027878
11.0,0.024071021005511284
12.0,0.02387814410030842
13.0,0.0236855186522007
14.0,0.023491008207201958
15.0,0.023296143859624863
16.0,0.023104827851057053
18.0,0.022721238434314728
20.0,0.022341633215546608
22.0,0.02197132259607315
24.0,0.02161293849349022
26.0,0.02126150019466877
28.0,0.02091914415359497
30.0,0.02057376317679882
32.0,0.020239556208252907
36.0,0.01960407756268978
40.0,0.018995411694049835
44.0,0.018407633528113365
48.0,0.01786263845860958
52.0,0.017346752807497978
56.0,0.016836604103446007
60.0,0.016332218423485756
64.0,0.0158431064337492
72.0,0.014929267577826977
80.0,0.014073807746171951
88.0,0.01325639896094799
96.0,0.012507990933954716
104.0,0.01188952848315239
112.0,0.011323726736009121
120.0,0.010800862684845924
128.0,0.0103367380797863
144.0,0.009615189395844936
160.0,0.008915663696825504
176.0,0.008308733813464642
192.0,0.007694843225181103
208.0,0.007057202979922295
224.0,0.006550365127623081
240.0,0.006424682680517435
256.0,0.006631593219935894
288.0,0.006642887368798256
320.0,0.006329126190394163
352.0,0.005518405232578516
384.0,0.004630395211279392
416.0,0.003964023198932409
448.0,0.003480001585558057
480.0,0.002742462558671832
512.0,0.0023737626615911722
576.0,0.0024100663140416145
640.0,0.0012183923972770572
704.0,-0.000239706234424375
768.0,-0.0013206949224695563
832.0,-0.0009825746528804302
896.0,-0.0008199074654839933
960.0,-0.0019145505502820015
1024.0,-0.003391853766515851
1152.0,-0.004130720626562834
1280.0,-0.003821213962510228
1408.0,-0.004248308017849922
1536.0,-0.0037559769116342068
1664.0,-0.0043883114121854305
1792.0,-0.003398184198886156
1920.0,-0.00156204157974571
2048.0,-0.0013659889809787273
2304.0,0.0014834774192422628
2560.0,0.0017456096829846501
2816.0,0.0010080704232677817
3072.0,0.0017573704244568944
3328.0,0.0015164791839197278
3584.0,-0.0011999409180134535
3840.0,-0.0021342767868191004
4096.0,-0.0015704960096627474
4608.0,-0.0003518579760566354
5120.0,-0.00046655660844407976
5632.0,-0.0018974464619532228
6144.0,-0.0015045120380818844
6656.0,0.0037284251302480698
7168.0,-0.0006489547668024898
7680.0,-0.004618844948709011
8192.0,-0.002009914955124259
9216.0,0.004801518749445677
10240.0,-0.0008037243969738483
11264.0,0.00022186350543051958
12288.0,0.001932940911501646
13312.0,-0.0033666498493403196
14336.0,-0.005711728241294622
end
