version,3.0
numOfCh,1
type,point
parent_name,20-cuts
ch_type,1_1
kcount,1
numberNandB,1
brightnessNandB,1
carpet pos,0
pc,0
Time (ms),CH1 Auto-Correlation
1.0,0.08478491008281708
2.0,0.08413559198379517
3.0,0.0835004672408104
4.0,0.08286862820386887
5.0,0.08221980929374695
6.0,0.08156400173902512
7.0,0.08091212809085846
8.0,0.08027330785989761
9.0,0.07964562624692917
10.0,0.07903213798999786
11.0,0.0784245952963829
12.0,0.07783377915620804
13.0,0.07723954319953918
14.0,0.07665685564279556
15.0,0.076068215072155
16.0,0.07547696679830551
18.0,0.07432952523231506
20.0,0.07319647073745728
22.0,0.07207639515399933
24.0,0.07100480794906616
26.0,0.06994706392288208
28.0,0.06891323626041412
30.0,0.0679081454873085
32.0,0.06689997017383575
36.0,0.06496027112007141
40.0,0.06304791569709778
44.0,0.06124664843082428
48.0,0.059545643627643585
52.0,0.05792185291647911
56.0,0.056275930255651474
60.0,0.05469083413481712
64.0,0.053266145288944244
72.0,0.05054633691906929
80.0,0.04789869859814644
88.0,0.045511871576309204
96.0,0.04343750327825546
104.0,0.04166026785969734
112.0,0.040093131363391876
120.0,0.03844602778553963
128.0,0.03695676103234291
144.0,0.03476060926914215
160.0,0.03297299146652222
176.0,0.031367797404527664
192.0,0.02950199879705906
208.0,0.0278160497546196
224.0,0.02613227441906929
240.0,0.024291547015309334
256.0,0.02264753356575966
288.0,0.018217822536826134
320.0,0.014475070871412754
352.0,0.012610871344804764
384.0,0.011410167440772057
416.0,0.008369792252779007
448.0,0.003994066268205643
480.0,0.001580523676238954
512.0,0.0010810091625899076
576.0,0.0024432092905044556
640.0,0.0010489996057003736
704.0,-0.0005890360334888101
768.0,-0.003449886804446578
832.0,-0.0071372585371136665
896.0,-0.007399025838822126
960.0,-0.0026909555308520794
1024.0,-0.0013001812621951103
1152.0,-0.0016317556146532297
1280.0,-0.003128714393824339
1408.0,-0.002336388686671853
1536.0,0.0011263038031756878
1664.0,0.005025441292673349
1792.0,0.011084196157753468
1920.0,0.006368872243911028
2048.0,-0.0011115378001704812
2304.0,-0.010801753960549831
2560.0,-0.020101744681596756
2816.0,-0.020663723349571228
3072.0,-0.009193290956318378
3328.0,0.0025045752990990877
3584.0,0.012965789064764977
3840.0,0.013400672934949398
4096.0,0.0012126899091526866
4608.0,-0.008528963662683964
5120.0,0.004656032659113407
5632.0,0.005852918606251478
6144.0,-0.01627786085009575
6656.0,-0.014620536006987095
7168.0,0.01334796380251646
7680.0,0.007468746975064278
8192.0,-0.004589340183883905
9216.0,0.0024861309211701155
10240.0,-0.015529071912169456
11264.0,-0.009741201065480709
12288.0,0.013241888023912907
13312.0,0.015822939574718475
14336.0,-0.00169267226010561
end
