version,3.0
numOfCh,1
type,point
parent_name,20-cuts
ch_type,1_1
kcount,1
numberNandB,1
brightnessNandB,1
carpet pos,0
pc,0
Time (ms),CH1 Auto-Correlation
1.0,0.031355056911706924
2.0,0.03114115260541439
3.0,0.030926214531064034
4.0,0.03071482852101326
5.0,0.03050861693918705
6.0,0.030303237959742546
7.0,0.030098382383584976
8.0,0.02989100106060505
9.0,0.02969074435532093
10.0,0.029489701613783836
11.0,0.02929382026195526
12.0,0.02910059131681919
13.0,0.02891538478434086
14.0,0.02873106673359871
15.0,0.028548570349812508
16.0,0.028370177373290062
18.0,0.028013166040182114
20.0,0.02765863761305809
22.0,0.027309775352478027
24.0,0.026964997872710228
26.0,0.02662362903356552
28.0,0.026291510090231895
30.0,0.025962376967072487
32.0,0.025634469464421272
36.0,0.024993136525154114
40.0,0.024349980056285858
44.0,0.023737359791994095
48.0,0.023177217692136765
52.0,0.02268240414559841
56.0,0.022240977734327316
60.0,0.021822065114974976
64.0,0.021406298503279686
72.0,0.020639661699533463
80.0,0.019932342693209648
88.0,0.019261837005615234
96.0,0.0185711570084095
104.0,0.018010230734944344
112.0,0.017514202743768692
120.0,0.016995789483189583
128.0,0.016485033556818962
144.0,0.01563568413257599
160.0,0.014829913154244423
176.0,0.013978373259305954
192.0,0.013256731443107128
208.0,0.012697000987827778
224.0,0.012135729193687439
240.0,0.011663568206131458
256.0,0.011247560381889343
288.0,0.010315444320440292
320.0,0.009572911076247692
352.0,0.00884211715310812
384.0,0.007711612619459629
416.0,0.006956976372748613
448.0,0.0068541658110916615
480.0,0.007017454132437706
512.0,0.0066139730624854565
576.0,0.005483240820467472
640.0,0.004871999379247427
704.0,0.0031258249655365944
768.0,0.0019053436117246747
832.0,0.00214220373891294
896.0,0.0026279136072844267
960.0,0.001893447944894433
1024.0,0.0008989020716398954
1152.0,-8.020109817152843e-05
1280.0,0.0027865255251526833
1408.0,0.00526747340336442
1536.0,0.004960943013429642
1664.0,0.0036715499591082335
1792.0,0.003321021795272827
1920.0,0.002831697929650545
2048.0,0.0007105146651156247
2304.0,0.0023960534017533064
2560.0,0.0013824980705976486
2816.0,-0.001358390087261796
3072.0,0.00042175446287728846
3328.0,0.0026094261556863785
3584.0,0.004435642622411251
3840.0,0.004994840826839209
4096.0,0.002362605417147279
4608.0,0.0030744632240384817
5120.0,0.003604000201448798
5632.0,-0.001324635581113398
6144.0,0.001266324077732861
6656.0,-0.0002945840824395418
7168.0,-0.0018991467077285051
7680.0,0.00032455119071528316
8192.0,-0.0036605310160666704
9216.0,-0.004906314890831709
10240.0,-0.007861046120524406
11264.0,-0.0038560491520911455
12288.0,-0.0047699082642793655
13312.0,-0.010653955861926079
14336.0,-0.013384031131863594
end
