version,3.0
numOfCh,1
type,point
parent_name,20-cuts
ch_type,1_1
kcount,1
numberNandB,1
brightnessNandB,1
carpet pos,0
pc,0
Time (ms),CH1 Auto-Correlation
1.0,0.049524154514074326
2.0,0.049063749611377716
3.0,0.04860009625554085
4.0,0.04813193529844284
5.0,0.04768124595284462
6.0,0.04722623527050018
7.0,0.04677432402968407
8.0,0.0463283509016037
9.0,0.045881498605012894
10.0,0.04543745145201683
11.0,0.04501096159219742
12.0,0.044589813798666
13.0,0.04417280852794647
14.0,0.04376659914851189
15.0,0.0433577299118042
16.0,0.04294828698039055
18.0,0.04217236861586571
20.0,0.04141204431653023
22.0,0.04064986854791641
24.0,0.03990727290511131
26.0,0.039202623069286346
28.0,0.038511499762535095
30.0,0.037823084741830826
32.0,0.03711836785078049
36.0,0.0357789546251297
40.0,0.03447377681732178
44.0,0.03327799588441849
48.0,0.03220365196466446
52.0,0.031217630952596664
56.0,0.030298637226223946
60.0,0.02939559333026409
64.0,0.02852620556950569
72.0,0.026928924024105072
80.0,0.02532714419066906
88.0,0.02367476001381874
96.0,0.02205265499651432
104.0,0.020532997325062752
112.0,0.019233860075473785
120.0,0.018003389239311218
128.0,0.01682421565055847
144.0,0.01468692347407341
160.0,0.013151431456208229
176.0,0.01161275990307331
192.0,0.009851689450442791
208.0,0.008365288376808167
224.0,0.007474889047443867
240.0,0.006868735421448946
256.0,0.006652811076492071
288.0,0.005994477309286594
320.0,0.004924480803310871
352.0,0.0037206721026450396
384.0,0.00289259129203856
416.0,0.0030690510757267475
448.0,0.0027316741179674864
480.0,0.0010898372856900096
512.0,-0.0006042004097253084
576.0,-0.0026021336670964956
640.0,-0.003467195201665163
704.0,-0.0037064601201564074
768.0,-0.003379852743819356
832.0,-0.0050416928716003895
896.0,-0.008538899943232536
960.0,-0.011501342058181763
1024.0,-0.011266730725765228
1152.0,-0.0066230338998138905
1280.0,-0.006581042893230915
1408.0,-0.0026141656562685966
1536.0,0.001160520943813026
1664.0,0.0022351148072630167
1792.0,0.0022202213294804096
1920.0,0.008047261275351048
2048.0,0.006480622570961714
2304.0,0.0009045391925610602
2560.0,0.002035959158092737
2816.0,-0.004547593649476767
3072.0,-0.006629388313740492
3328.0,-0.0028244771528989077
3584.0,-0.0026195559184998274
3840.0,0.0002960689889732748
4096.0,0.00018460050341673195
4608.0,-0.006710228975862265
5120.0,-0.002235415391623974
5632.0,0.002064596861600876
6144.0,0.003514091484248638
6656.0,0.003438602201640606
7168.0,-0.002393909264355898
7680.0,0.004559129476547241
8192.0,0.004762465134263039
9216.0,-0.0014739858452230692
10240.0,0.0027514242101460695
11264.0,-0.00628018518909812
12288.0,0.003527877852320671
13312.0,-0.001580544630996883
14336.0,-0.0013316454133018851
end
