version,3.0
numOfCh,1
type,point
parent_name,20-cuts
ch_type,1_1
kcount,1
numberNandB,1
brightnessNandB,1
carpet pos,0
pc,0
Time (ms),CH1 Auto-Correlation
1.0,0.07126060128211975
2.0,0.07057882100343704
3.0,0.06990063935518265
4.0,0.06920894980430603
5.0,0.06851382553577423
6.0,0.06782466918230057
7.0,0.0671500414609909
8.0,0.06648068875074387
9.0,0.06580863893032074
10.0,0.0651443675160408
11.0,0.06448043137788773
12.0,0.06381546705961227
13.0,0.06314068287611008
14.0,0.062464285641908646
15.0,0.061819083988666534
16.0,0.06118137389421463
18.0,0.0599430613219738
20.0,0.05872989073395729
22.0,0.05753966048359871
24.0,0.05636454373598099
26.0,0.05521436408162117
28.0,0.05409069359302521
30.0,0.053029753267765045
32.0,0.05201410502195358
36.0,0.04991740360856056
40.0,0.047794561833143234
44.0,0.04577045142650604
48.0,0.04385403171181679
52.0,0.04209144413471222
56.0,0.04046947509050369
60.0,0.03901785984635353
64.0,0.037750039249658585
72.0,0.035383906215429306
80.0,0.033295970410108566
88.0,0.03134699538350105
96.0,0.029663335531949997
104.0,0.02802155911922455
112.0,0.026535406708717346
120.0,0.025216612964868546
128.0,0.024228503927588463
144.0,0.022308260202407837
160.0,0.02056635171175003
176.0,0.019479237496852875
192.0,0.01793299987912178
208.0,0.016038574278354645
224.0,0.013435453176498413
240.0,0.010850805789232254
256.0,0.008752278983592987
288.0,0.006405561231076717
320.0,0.0054427096620202065
352.0,0.004576604347676039
384.0,0.0038437487091869116
416.0,0.004002130124717951
448.0,0.004464448429644108
480.0,0.00645524263381958
512.0,0.007321418263018131
576.0,0.006418505683541298
640.0,0.004988353233784437
704.0,0.0028154936153441668
768.0,6.758492236258462e-05
832.0,-0.0012934174155816436
896.0,-0.0005297358729876578
960.0,-0.004744370933622122
1024.0,-0.006401732563972473
1152.0,-0.0056084152311086655
1280.0,-0.0019058462930843234
1408.0,0.0011995439417660236
1536.0,-0.003566848346963525
1664.0,-0.0046690963208675385
1792.0,-0.0026788648683577776
1920.0,-0.0011900730896741152
2048.0,0.0006528014782816172
2304.0,0.003678864799439907
2560.0,-0.002073838608339429
2816.0,-0.004925423301756382
3072.0,-0.006504743359982967
3328.0,-0.002827931195497513
3584.0,0.0030758881475776434
3840.0,0.005559892393648624
4096.0,0.009852251037955284
4608.0,0.009154622443020344
5120.0,-0.008959251455962658
5632.0,-0.007551631424576044
6144.0,-0.01092502661049366
6656.0,0.004306635353714228
7168.0,-0.0021122624166309834
7680.0,-0.004821660462766886
8192.0,0.0008740447810851038
9216.0,-0.009737558662891388
10240.0,-0.005612553097307682
11264.0,0.0036642374470829964
12288.0,-0.0034113838337361813
13312.0,-0.003650645026937127
14336.0,0.00337661849334836
end
