version,3.0
numOfCh,1
type,point
parent_name,20-cuts
ch_type,1_1
kcount,1
numberNandB,1
brightnessNandB,1
carpet pos,0
pc,0
Time (ms),CH1 Auto-Correlation
1.0,0.10899186879396439
2.0,0.10832014679908752
3.0,0.10765381902456284
4.0,0.10699104517698288
5.0,0.10635799169540405
6.0,0.10574406385421753
7.0,0.10515476018190384
8.0,0.10456834733486176
9.0,0.10400276631116867
10.0,0.1034465953707695
11.0,0.10289224237203598
12.0,0.10234792530536652
13.0,0.10181199014186859
14.0,0.10130960494279861
15.0,0.10081328451633453
16.0,0.10033760219812393
18.0,0.09938786178827286
20.0,0.09846912324428558
22.0,0.09757490456104279
24.0,0.09669314324855804
26.0,0.09587272256612778
28.0,0.09510708600282669
30.0,0.09437716752290726
32.0,0.09367850422859192
36.0,0.09230929613113403
40.0,0.09089891612529755
44.0,0.08945295959711075
48.0,0.08796650171279907
52.0,0.08651401102542877
56.0,0.08516919612884521
60.0,0.08390387892723083
64.0,0.08275369554758072
72.0,0.0808364525437355
80.0,0.0791463702917099
88.0,0.0774787962436676
96.0,0.07581676542758942
104.0,0.07424627244472504
112.0,0.07296474277973175
120.0,0.07191102206707001
128.0,0.07066386938095093
144.0,0.06809257715940475
160.0,0.06490936130285263
176.0,0.061377380043268204
192.0,0.05828767642378807
208.0,0.05600688233971596
224.0,0.05425000190734863
240.0,0.052921224385499954
256.0,0.05162341892719269
288.0,0.04968823492527008
320.0,0.04742852598428726
352.0,0.045656390488147736
384.0,0.04372541233897209
416.0,0.04241636022925377
448.0,0.04095083102583885
480.0,0.03917624428868294
512.0,0.03755825757980347
576.0,0.034824829548597336
640.0,0.03026278130710125
704.0,0.02555854432284832
768.0,0.02109009027481079
832.0,0.020898519083857536
896.0,0.021708013489842415
960.0,0.020681630820035934
1024.0,0.02021912857890129
1152.0,0.016116829589009285
1280.0,0.01305114571005106
1408.0,0.015521477907896042
1536.0,0.013893473893404007
1664.0,0.0139528289437294
1792.0,0.013589760288596153
1920.0,0.010008554905653
2048.0,0.00901370495557785
2304.0,0.009928894229233265
2560.0,0.0025360824074596167
2816.0,-0.005728020332753658
3072.0,-0.012938303872942924
3328.0,-0.0010708466870710254
3584.0,0.010414913296699524
3840.0,0.009063753299415112
4096.0,0.0028453683480620384
4608.0,-0.00392216257750988
5120.0,-0.009741789661347866
5632.0,-0.0074713509529829025
6144.0,0.0012800163822248578
6656.0,-0.00561652984470129
7168.0,-0.009919152595102787
7680.0,-0.014932922087609768
8192.0,-0.02762599103152752
9216.0,-0.03443637862801552
10240.0,-0.01946590654551983
11264.0,-0.008750352077186108
12288.0,-0.0008651379612274468
13312.0,-0.01315637119114399
14336.0,-0.022368501871824265
end
