version,3.0
numOfCh,1
type,point
parent_name,20-cuts
ch_type,1_1
kcount,1
numberNandB,1
brightnessNandB,1
carpet pos,0
pc,0
Time (ms),CH1 Auto-Correlation
1.0,0.033929646015167236
2.0,0.033691275864839554
3.0,0.03345543146133423
4.0,0.033222779631614685
5.0,0.03299020603299141
6.0,0.032760243862867355
7.0,0.03253551200032234
8.0,0.03231215476989746
9.0,0.03209487721323967
10.0,0.031874917447566986
11.0,0.03166230022907257
12.0,0.031449735164642334
13.0,0.031239742413163185
14.0,0.031037310138344765
15.0,0.03083530068397522
16.0,0.030634233728051186
18.0,0.030248846858739853
20.0,0.029881039634346962
22.0,0.029531752690672874
24.0,0.029195239767432213
26.0,0.02887006290256977
28.0,0.028541959822177887
30.0,0.02820863015949726
32.0,0.027886120602488518
36.0,0.027272185310721397
40.0,0.026692096143960953
44.0,0.026091771200299263
48.0,0.02552036941051483
52.0,0.024979498237371445
56.0,0.024485990405082703
60.0,0.024023696780204773
64.0,0.023573171347379684
72.0,0.02260340191423893
80.0,0.021703116595745087
88.0,0.020909059792757034
96.0,0.02024783194065094
104.0,0.019615888595581055
112.0,0.018868017941713333
120.0,0.017972229048609734
128.0,0.017099911347031593
144.0,0.01564541459083557
160.0,0.014241988770663738
176.0,0.012729426845908165
192.0,0.011388263665139675
208.0,0.010280870832502842
224.0,0.009282451122999191
240.0,0.008532495237886906
256.0,0.007897243835031986
288.0,0.006660556886345148
320.0,0.005458297673612833
352.0,0.0046860030852258205
384.0,0.004728544503450394
416.0,0.004529641009867191
448.0,0.004201006609946489
480.0,0.0035300496965646744
512.0,0.002240298083052039
576.0,0.0008549292106181383
640.0,0.0003721283283084631
704.0,0.00039686085074208677
768.0,-0.00014455629570875317
832.0,-0.0019561462104320526
896.0,-0.00292498548515141
960.0,-0.0030214330181479454
1024.0,-0.002190900035202503
1152.0,-0.002188058802857995
1280.0,-0.0037118608597666025
1408.0,-0.004431076347827911
1536.0,-0.004328164737671614
1664.0,-0.0030940440483391285
1792.0,-0.0008630173979327083
1920.0,-0.00268844747915864
2048.0,-0.00483714509755373
2304.0,-0.0024748672731220722
2560.0,-0.0008964766166172922
2816.0,-0.002823954215273261
3072.0,0.0016127880662679672
3328.0,0.0030931562650948763
3584.0,0.003548281965777278
3840.0,0.00324102770537138
4096.0,0.0027804297860711813
4608.0,-0.0016090238932520151
5120.0,-0.00392086710780859
5632.0,-0.0053051430732011795
6144.0,-0.006019474472850561
6656.0,0.00422750785946846
7168.0,0.003809289773926139
7680.0,0.0008018753724172711
8192.0,-0.0022141593508422375
9216.0,0.0024221891071647406
10240.0,-0.0003254781768191606
11264.0,0.0020889611914753914
12288.0,-0.0011043534614145756
13312.0,-0.0026112671475857496
14336.0,0.0016821976751089096
end
