version,3.0
numOfCh,1
type,point
parent_name,20-cuts
ch_type,1_1
kcount,1
numberNandB,1
brightnessNandB,1
carpet pos,0
pc,0
Time (ms),CH1 Auto-Correlation
1.0,0.03597678244113922
2.0,0.035754963755607605
3.0,0.03553882613778114
4.0,0.03532540053129196
5.0,0.035112470388412476
6.0,0.034902628511190414
7.0,0.03469555452466011
8.0,0.034487757831811905
9.0,0.034277599304914474
10.0,0.03407532721757889
11.0,0.033873576670885086
12.0,0.03367670625448227
13.0,0.033480871468782425
14.0,0.03328363224864006
15.0,0.033088210970163345
16.0,0.03289495408535004
18.0,0.032514866441488266
20.0,0.03215328976511955
22.0,0.03180812671780586
24.0,0.03145946189761162
26.0,0.031109679490327835
28.0,0.030773228034377098
30.0,0.030451292172074318
32.0,0.03011849895119667
36.0,0.029459884390234947
40.0,0.02881048433482647
44.0,0.02819967456161976
48.0,0.027634309604763985
52.0,0.027109382674098015
56.0,0.026597794145345688
60.0,0.02609962224960327
64.0,0.025624264031648636
72.0,0.024838663637638092
80.0,0.02409397065639496
88.0,0.023441117256879807
96.0,0.022846048697829247
104.0,0.022220438346266747
112.0,0.021607281640172005
120.0,0.021009543910622597
128.0,0.020470280200242996
144.0,0.01955850049853325
160.0,0.018649987876415253
176.0,0.017492352053523064
192.0,0.016451172530651093
208.0,0.015398392453789711
224.0,0.014379271306097507
240.0,0.013482713140547276
256.0,0.012745039537549019
288.0,0.011187581345438957
320.0,0.009364631026983261
352.0,0.007619915064424276
384.0,0.006202904973179102
416.0,0.0046235909685492516
448.0,0.0028732880018651485
480.0,0.001257300958968699
512.0,-0.00023971154587343335
576.0,-0.0027398308739066124
640.0,-0.0034344622399657965
704.0,-0.003115684725344181
768.0,-0.003562719328328967
832.0,-0.0035291060339659452
896.0,-0.002806976903229952
960.0,-0.002774299355223775
1024.0,-0.0037270926404744387
1152.0,-0.004704013932496309
1280.0,-0.005730960518121719
1408.0,-0.005504800006747246
1536.0,-0.003588177729398012
1664.0,-0.002080086851492524
1792.0,-0.0022006372455507517
1920.0,-0.00077811413211748
2048.0,-0.0009039666620083153
2304.0,-0.00013228454918134958
2560.0,0.0024881353601813316
2816.0,0.00618978776037693
3072.0,0.005222809035331011
3328.0,-0.0010342387249693274
3584.0,-0.004919723141938448
3840.0,-0.004596977960318327
4096.0,-0.002676772652193904
4608.0,0.001626785728149116
5120.0,0.0010458165779709816
5632.0,-0.003673297818750143
6144.0,-0.0008765750098973513
6656.0,-0.0010545584373176098
7168.0,-0.0032262091990560293
7680.0,-0.005217634607106447
8192.0,0.00024522244348190725
9216.0,-0.001085303258150816
10240.0,-0.0017257184954360127
11264.0,0.005526591092348099
12288.0,-0.008745597675442696
13312.0,-0.0015489771030843258
14336.0,0.02327594719827175
end
