version,3.0
numOfCh,1
type,point
parent_name,20-cuts
ch_type,1_1
kcount,1
numberNandB,1
brightnessNandB,1
carpet pos,0
pc,0
Time (ms),CH1 Auto-Correlation
1.0,0.027614301070570946
2.0,0.027410060167312622
3.0,0.027203703299164772
4.0,0.027000775560736656
5.0,0.026800544932484627
6.0,0.026608655229210854
7.0,0.02641204744577408
8.0,0.026216620579361916
9.0,0.026023073121905327
10.0,0.025833941996097565
11.0,0.025644725188612938
12.0,0.025460226461291313
13.0,0.02528296411037445
14.0,0.025114255025982857
15.0,0.02494651824235916
16.0,0.02477644383907318
18.0,0.024444734677672386
20.0,0.024122485890984535
22.0,0.023816699162125587
24.0,0.023525597527623177
26.0,0.023244261741638184
28.0,0.022963611409068108
30.0,0.02268325909972191
32.0,0.02240057848393917
36.0,0.0218338780105114
40.0,0.02129468135535717
44.0,0.02077491395175457
48.0,0.020269036293029785
52.0,0.019818976521492004
56.0,0.01941373012959957
60.0,0.01905837096273899
64.0,0.01871062070131302
72.0,0.018025528639554977
80.0,0.017321931198239326
88.0,0.01666203886270523
96.0,0.01608283445239067
104.0,0.015509410761296749
112.0,0.014959508553147316
120.0,0.014430796727538109
128.0,0.013983864337205887
144.0,0.013084582053124905
160.0,0.012089215219020844
176.0,0.011057564057409763
192.0,0.010212435387074947
208.0,0.009465799666941166
224.0,0.008781063370406628
240.0,0.008212492801249027
256.0,0.007733843754976988
288.0,0.006863830145448446
320.0,0.005870465654879808
352.0,0.004679414443671703
384.0,0.0038243583403527737
416.0,0.0030874719377607107
448.0,0.002364872954785824
480.0,0.0013596249045804143
512.0,0.0002467946906108409
576.0,-0.0015424792654812336
640.0,-0.0033620239701122046
704.0,-0.004038578364998102
768.0,-0.004430635366588831
832.0,-0.0034365833271294832
896.0,-0.003297935239970684
960.0,-0.0036244115326553583
1024.0,-0.0042586480267345905
1152.0,-0.0034152499865740538
1280.0,-0.001692220801487565
1408.0,-0.0008562359143979847
1536.0,0.00012853856605943292
1664.0,0.0002212233521277085
1792.0,-0.0012946134665980935
1920.0,-0.0026754827704280615
2048.0,-0.0017303620697930455
2304.0,-0.004713384434580803
2560.0,-0.0032859444618225098
2816.0,-0.0010188078740611672
3072.0,0.004231343045830727
3328.0,0.0069920639507472515
3584.0,0.005339277442544699
3840.0,-0.0008013256592676044
4096.0,-0.0017804823582991958
4608.0,-0.0005695137660950422
5120.0,-0.0021767057478427887
5632.0,-0.004037840291857719
6144.0,0.0024141408503055573
6656.0,0.0009742379770614207
7168.0,0.0011552805081009865
7680.0,0.0022538898047059774
8192.0,-0.004725332837551832
9216.0,-0.0014472315087914467
10240.0,0.0034489519894123077
11264.0,0.001485428772866726
12288.0,-0.00898035615682602
13312.0,0.003917830530554056
14336.0,0.003223908133804798
end
