version,3.0
numOfCh,1
type,point
parent_name,20-cuts
ch_type,1_1
kcount,1
numberNandB,1
brightnessNandB,1
carpet pos,0
pc,0
Time (ms),CH1 Auto-Correlation
1.0,0.07717347890138626
2.0,0.07658382505178452
3.0,0.07599259912967682
4.0,0.07540801912546158
5.0,0.0748523622751236
6.0,0.07430896908044815
7.0,0.07378432154655457
8.0,0.07325609028339386
9.0,0.0727386325597763
10.0,0.07222781330347061
11.0,0.07174345850944519
12.0,0.07127107679843903
13.0,0.07079744338989258
14.0,0.07033374905586243
15.0,0.06987703591585159
16.0,0.06940837949514389
18.0,0.06849203258752823
20.0,0.06761741638183594
22.0,0.06677554547786713
24.0,0.06591857224702835
26.0,0.06509684771299362
28.0,0.06430312991142273
30.0,0.06352387368679047
32.0,0.06275869160890579
36.0,0.061216071248054504
40.0,0.05964021012187004
44.0,0.05805673077702522
48.0,0.05656372383236885
52.0,0.055169478058815
56.0,0.053887661546468735
60.0,0.05274566635489464
64.0,0.05167708173394203
72.0,0.049646541476249695
80.0,0.04782955348491669
88.0,0.04624469578266144
96.0,0.04468917474150658
104.0,0.043190233409404755
112.0,0.041827671229839325
120.0,0.04044390842318535
128.0,0.03884707763791084
144.0,0.03565599024295807
160.0,0.032641418278217316
176.0,0.03010985255241394
192.0,0.02771926298737526
208.0,0.025269821286201477
224.0,0.023072294890880585
240.0,0.020233681425452232
256.0,0.017319239675998688
288.0,0.012728477828204632
320.0,0.009450268931686878
352.0,0.006361463572829962
384.0,0.0034993335139006376
416.0,0.000654537754599005
448.0,-0.0021598886232823133
480.0,-0.004460293799638748
512.0,-0.006594292353838682
576.0,-0.00955360196530819
640.0,-0.011264965869486332
704.0,-0.010430190712213516
768.0,-0.009401809424161911
832.0,-0.008194799534976482
896.0,-0.005449794698506594
960.0,-0.0012160702608525753
1024.0,-1.635357148188632e-05
1152.0,-0.0015031996881589293
1280.0,-0.006199447438120842
1408.0,-0.008181842043995857
1536.0,-0.011512246914207935
1664.0,-0.012640067376196384
1792.0,-0.009090271778404713
1920.0,-0.006440845318138599
2048.0,-0.0013651918852701783
2304.0,-0.003281246405094862
2560.0,-0.0062151276506483555
2816.0,0.005345565266907215
3072.0,0.01493336446583271
3328.0,0.007253066636621952
3584.0,-0.007156652864068747
3840.0,-0.005276279523968697
4096.0,0.0028987142723053694
4608.0,0.004429835360497236
5120.0,0.003916306886821985
5632.0,3.4694930945988744e-05
6144.0,-0.0015594209544360638
6656.0,-0.014156529679894447
7168.0,-0.00414443900808692
7680.0,0.0053380937315523624
8192.0,0.002894223667681217
9216.0,0.0042821974493563175
10240.0,-0.013494355604052544
11264.0,0.0036874753423035145
12288.0,0.006287513300776482
13312.0,-0.011952560395002365
14336.0,0.0077195181511342525
end
