version,3.0
numOfCh,1
type,point
parent_name,20-cuts
ch_type,1_1
kcount,1
numberNandB,1
brightnessNandB,1
carpet pos,0
pc,0
Time (ms),CH1 Auto-Correlation
1.0,0.024973731487989426
2.0,0.024738317355513573
3.0,0.024510137736797333
4.0,0.02428131364285946
5.0,0.024054426699876785
6.0,0.023830246180295944
7.0,0.02361317351460457
8.0,0.023396633565425873
9.0,0.023183483630418777
10.0,0.022969672456383705
11.0,0.022765988484025
12.0,0.02255973592400551
13.0,0.022351274266839027
14.0,0.022147804498672485
15.0,0.021949460729956627
16.0,0.02175194025039673
18.0,0.02136877551674843
20.0,0.020993957296013832
22.0,0.020627226680517197
24.0,0.020272178575396538
26.0,0.01992776058614254
28.0,0.019597724080085754
30.0,0.019287515431642532
32.0,0.018983587622642517
36.0,0.01840221881866455
40.0,0.0178617462515831
44.0,0.017315538600087166
48.0,0.016779804602265358
52.0,0.016244154423475266
56.0,0.015761690214276314
60.0,0.015321973711252213
64.0,0.014911448583006859
72.0,0.014209091663360596
80.0,0.013641991652548313
88.0,0.013118060305714607
96.0,0.01255098357796669
104.0,0.011959776282310486
112.0,0.0114440331235528
120.0,0.010946790687739849
128.0,0.010478019714355469
144.0,0.009436117485165596
160.0,0.008383858948946
176.0,0.007348700426518917
192.0,0.006369059439748526
208.0,0.005423072259873152
224.0,0.004663362167775631
240.0,0.004121663048863411
256.0,0.0037225547712296247
288.0,0.0031865525525063276
320.0,0.0026821631472557783
352.0,0.002241706708446145
384.0,0.0021143374033272266
416.0,0.0018981160828843713
448.0,0.0011329303961247206
480.0,0.0003440248256083578
512.0,-1.8473079762770794e-05
576.0,-0.0008920333930291235
640.0,-0.0015283493557944894
704.0,-0.0019251201301813126
768.0,-0.0013860061299055815
832.0,-0.0005572455702349544
896.0,0.00012499191507231444
960.0,-0.0004847766540478915
1024.0,-0.0005898934323340654
1152.0,0.0008509017643518746
1280.0,0.00018775984062813222
1408.0,-0.002943291561678052
1536.0,-0.003450252115726471
1664.0,-0.0030804085545241833
1792.0,-0.0026473132893443108
1920.0,-0.002699252450838685
2048.0,-0.001402290421538055
2304.0,7.06981445546262e-05
2560.0,-0.0003608296683523804
2816.0,0.00018144708883482963
3072.0,0.001600486459210515
3328.0,-0.0006895212572999299
3584.0,-0.002040980150923133
3840.0,0.000281711807474494
4096.0,0.0017125122249126434
4608.0,-0.0008493625791743398
5120.0,-0.0014565165620297194
5632.0,-0.003157271770760417
6144.0,-0.00023762333148624748
6656.0,-0.0010516548063606024
7168.0,0.003173680743202567
7680.0,-0.001018075505271554
8192.0,0.0005991896032355726
9216.0,0.0010093882447108626
10240.0,-8.225034980569035e-05
11264.0,0.00017148170445580035
12288.0,0.0023640559520572424
13312.0,-0.002249946352094412
14336.0,0.0006373436190187931
end
