version,3.0
numOfCh,1
type,point
parent_name,20-cuts
ch_type,1_1
kcount,1
numberNandB,1
brightnessNandB,1
carpet pos,0
pc,0
Time (ms),CH1 Auto-Correlation
1.0,0.1119609847664833
2.0,0.11116147041320801
3.0,0.11034823209047318
4.0,0.10955874621868134
5.0,0.10877957195043564
6.0,0.10801656544208527
7.0,0.10725473612546921
8.0,0.10652387142181396
9.0,0.10581859946250916
10.0,0.10512528568506241
11.0,0.1044454574584961
12.0,0.10378733277320862
13.0,0.10312750190496445
14.0,0.10247913748025894
15.0,0.10185109078884125
16.0,0.10120254009962082
18.0,0.09985155612230301
20.0,0.09854339808225632
22.0,0.09728928655385971
24.0,0.0960453450679779
26.0,0.09483250230550766
28.0,0.09365150332450867
30.0,0.09247811138629913
32.0,0.0913088470697403
36.0,0.08905155211687088
40.0,0.08685649931430817
44.0,0.08470936864614487
48.0,0.08279211819171906
52.0,0.08094976097345352
56.0,0.0792403444647789
60.0,0.07762602716684341
64.0,0.07607551664113998
72.0,0.07326874136924744
80.0,0.0707704946398735
88.0,0.06844186037778854
96.0,0.0662340372800827
104.0,0.06395398825407028
112.0,0.061842188239097595
120.0,0.059598036110401154
128.0,0.05719553306698799
144.0,0.05242908000946045
160.0,0.04776904359459877
176.0,0.044022269546985626
192.0,0.04136636480689049
208.0,0.038790952414274216
224.0,0.036712151020765305
240.0,0.03463774174451828
256.0,0.03313661366701126
288.0,0.03036626987159252
320.0,0.026959862560033798
352.0,0.023444553837180138
384.0,0.018407123163342476
416.0,0.012582104653120041
448.0,0.008414418436586857
480.0,0.0054537830874323845
512.0,0.003143282374367118
576.0,0.0013692389475181699
640.0,-0.0009318069787696004
704.0,-0.0012167674722149968
768.0,0.0006905432092025876
832.0,0.0024942802265286446
896.0,0.004363722633570433
960.0,0.0048986938782036304
1024.0,0.005113532301038504
1152.0,-0.003097387496381998
1280.0,-0.015517177991569042
1408.0,-0.013309813104569912
1536.0,-0.00492972694337368
1664.0,-0.007137043867260218
1792.0,-0.0035583197604864836
1920.0,-0.0004853441205341369
2048.0,-0.004475812893360853
2304.0,-0.009031292982399464
2560.0,-0.008035638369619846
2816.0,-0.01436229981482029
3072.0,-0.02651137486100197
3328.0,-0.019729508087038994
3584.0,-0.002834532642737031
3840.0,0.0012920981971547008
4096.0,0.0023217613343149424
4608.0,0.008885795250535011
5120.0,-0.01931711472570896
5632.0,0.0017927773296833038
6144.0,0.01992742344737053
6656.0,0.005374784115701914
7168.0,0.004961858037859201
7680.0,-0.0022598206996917725
8192.0,-0.005226845853030682
9216.0,-0.0356810986995697
10240.0,0.01782696694135666
11264.0,0.018173465505242348
12288.0,0.01909533701837063
13312.0,-0.021464882418513298
14336.0,0.03124646097421646
end
