version,3.0
numOfCh,1
type,point
parent_name,20-cuts
ch_type,1_1
kcount,1
numberNandB,1
brightnessNandB,1
carpet pos,0
pc,0
Time (ms),CH1 Auto-Correlation
1.0,0.0909782275557518
2.0,0.09035748988389969
3.0,0.08974152058362961
4.0,0.08912348002195358
5.0,0.0885273814201355
6.0,0.08795023709535599
7.0,0.08738456666469574
8.0,0.08682667464017868
9.0,0.0862760841846466
10.0,0.08571876585483551
11.0,0.08516476303339005
12.0,0.08462019264698029
13.0,0.08408248424530029
14.0,0.08354238420724869
15.0,0.08301526308059692
16.0,0.08248507231473923
18.0,0.08143480122089386
20.0,0.0804339200258255
22.0,0.07947365939617157
24.0,0.07856755703687668
26.0,0.07768864184617996
28.0,0.07683012634515762
30.0,0.07598273456096649
32.0,0.07514715939760208
36.0,0.07336337864398956
40.0,0.07150852680206299
44.0,0.06966490298509598
48.0,0.06798624992370605
52.0,0.06645070016384125
56.0,0.06495577841997147
60.0,0.06349194794893265
64.0,0.0621207095682621
72.0,0.05938318371772766
80.0,0.056644290685653687
88.0,0.054147329181432724
96.0,0.05191170051693916
104.0,0.04982263594865799
112.0,0.047797366976737976
120.0,0.045524533838033676
128.0,0.04339791461825371
144.0,0.03975255414843559
160.0,0.03679938614368439
176.0,0.034179043024778366
192.0,0.031743619590997696
208.0,0.02980571798980236
224.0,0.02880309335887432
240.0,0.028237879276275635
256.0,0.02777225151658058
288.0,0.02646063268184662
320.0,0.023276126012206078
352.0,0.01938539743423462
384.0,0.01579979807138443
416.0,0.0133210439234972
448.0,0.01160584855824709
480.0,0.010111642070114613
512.0,0.007757735904306173
576.0,0.001690185279585421
640.0,-0.005641976837068796
704.0,-0.009935175068676472
768.0,-0.012475602328777313
832.0,-0.014535348862409592
896.0,-0.017549563199281693
960.0,-0.021150004118680954
1024.0,-0.0204633679240942
1152.0,-0.02221592329442501
1280.0,-0.01772027648985386
1408.0,-0.017332538962364197
1536.0,-0.02282867766916752
1664.0,-0.02189752459526062
1792.0,-0.01506471261382103
1920.0,-0.013166540302336216
2048.0,-0.012539753690361977
2304.0,0.0039166477508842945
2560.0,0.01646735519170761
2816.0,0.0144424419850111
3072.0,0.009353558532893658
3328.0,0.008249765262007713
3584.0,0.01003169734030962
3840.0,0.008401255123317242
4096.0,-0.003503647865727544
4608.0,-0.014834893867373466
5120.0,-0.018761109560728073
5632.0,0.007848486304283142
6144.0,0.01763591542840004
6656.0,0.009562536142766476
7168.0,-0.019969308748841286
7680.0,-0.0198442954570055
8192.0,0.0011613628594204783
9216.0,0.01022658497095108
10240.0,0.001974149839952588
11264.0,-0.003883626777678728
12288.0,-0.002718559233471751
13312.0,0.0107050072401762
14336.0,-0.003124931827187538
end
