version,3.0
numOfCh,1
type,point
parent_name,20-cuts
ch_type,1_1
kcount,1
numberNandB,1
brightnessNandB,1
carpet pos,0
pc,0
Time (ms),CH1 Auto-Correlation
1.0,0.04756560176610947
2.0,0.047169048339128494
3.0,0.046794500201940536
4.0,0.04642648622393608
5.0,0.04606889933347702
6.0,0.045718953013420105
7.0,0.04537234082818031
8.0,0.045022379606962204
9.0,0.044677555561065674
10.0,0.04433821514248848
11.0,0.044015444815158844
12.0,0.04369867593050003
13.0,0.04337945953011513
14.0,0.0430537573993206
15.0,0.04274078831076622
16.0,0.04242773726582527
18.0,0.041834477335214615
20.0,0.04127887263894081
22.0,0.04073810577392578
24.0,0.040218863636255264
26.0,0.03970681130886078
28.0,0.03919901326298714
30.0,0.038674429059028625
32.0,0.03814074769616127
36.0,0.03708191215991974
40.0,0.03604186698794365
44.0,0.03509609028697014
48.0,0.034165192395448685
52.0,0.03323296085000038
56.0,0.03229659050703049
60.0,0.03141249343752861
64.0,0.03058299794793129
72.0,0.028987715020775795
80.0,0.02748975344002247
88.0,0.026151731610298157
96.0,0.024968918412923813
104.0,0.023864619433879852
112.0,0.022769374772906303
120.0,0.021742258220911026
128.0,0.02090468816459179
144.0,0.019335776567459106
160.0,0.01751033030450344
176.0,0.015577360987663269
192.0,0.013639550656080246
208.0,0.011668108403682709
224.0,0.009889730252325535
240.0,0.008145545609295368
256.0,0.006899463944137096
288.0,0.005724988412111998
320.0,0.0046426355838775635
352.0,0.0032406391110271215
384.0,0.0026151107158511877
416.0,0.00219726818613708
448.0,0.0013823205372318625
480.0,-0.0003776571829803288
512.0,-0.0027826239820569754
576.0,-0.005413853097707033
640.0,-0.004065786954015493
704.0,-0.0006728970329277217
768.0,0.004099271725863218
832.0,0.008539450354874134
896.0,0.0106586879119277
960.0,0.010257730260491371
1024.0,0.009937277063727379
1152.0,0.007936010137200356
1280.0,0.004148532636463642
1408.0,-0.0011280605103820562
1536.0,-0.003453655634075403
1664.0,-0.0033963501919060946
1792.0,-0.002538769505918026
1920.0,-0.0021668842528015375
2048.0,-0.003328006947413087
2304.0,-0.006066208239644766
2560.0,-0.0011470712488517165
2816.0,0.0009201397188007832
3072.0,-0.0058936127461493015
3328.0,-0.011535760015249252
3584.0,-0.0012007324257865548
3840.0,0.004434497561305761
4096.0,-0.0015455040847882628
4608.0,-0.0035197297111153603
5120.0,0.001856681308709085
5632.0,-0.0036586204078048468
6144.0,0.000336533528752625
6656.0,0.005612674634903669
7168.0,-0.006611057557165623
7680.0,0.004680975805968046
8192.0,-0.004004999529570341
9216.0,-0.0038604626897722483
10240.0,-0.005289454013109207
11264.0,-0.003220187732949853
12288.0,-0.0003492530668154359
13312.0,0.007466841954737902
14336.0,0.00804187636822462
end
