version,3.0
numOfCh,1
type,point
parent_name,20-cuts
ch_type,1_1
kcount,1
numberNandB,1
brightnessNandB,1
carpet pos,0
pc,0
Time (ms),CH1 Auto-Correlation
1.0,0.09830860793590546
2.0,0.09767932444810867
3.0,0.09705362468957901
4.0,0.0964311808347702
5.0,0.09580536931753159
6.0,0.09519203007221222
7.0,0.09456972777843475
8.0,0.09397165477275848
9.0,0.09337873011827469
10.0,0.09280528873205185
11.0,0.09223456680774689
12.0,0.09168410301208496
13.0,0.09113491326570511
14.0,0.09058929234743118
15.0,0.09004586189985275
16.0,0.08949915319681168
18.0,0.08838782459497452
20.0,0.08728668838739395
22.0,0.08620001375675201
24.0,0.08516355603933334
26.0,0.08415840566158295
28.0,0.08318965882062912
30.0,0.08225569128990173
32.0,0.0813312977552414
36.0,0.0796421468257904
40.0,0.07808627188205719
44.0,0.07658079266548157
48.0,0.07508636265993118
52.0,0.07367285341024399
56.0,0.07228081673383713
60.0,0.07087438553571701
64.0,0.06956025958061218
72.0,0.06734470278024673
80.0,0.06529223173856735
88.0,0.06309850513935089
96.0,0.060843970626592636
104.0,0.05873904004693031
112.0,0.05690343305468559
120.0,0.05515004321932793
128.0,0.05317430943250656
144.0,0.04878781735897064
160.0,0.04472127556800842
176.0,0.041183892637491226
192.0,0.03800831735134125
208.0,0.03552024066448212
224.0,0.0329354852437973
240.0,0.030349131673574448
256.0,0.028159288689494133
288.0,0.025774173438549042
320.0,0.023105697706341743
352.0,0.02167857252061367
384.0,0.02009856142103672
416.0,0.01951083168387413
448.0,0.01811523362994194
480.0,0.01651022583246231
512.0,0.0135433878749609
576.0,0.009032942354679108
640.0,0.0051828837022185326
704.0,0.0025192201137542725
768.0,-0.001612792955711484
832.0,-0.004662878345698118
896.0,-0.007295758929103613
960.0,-0.009194059297442436
1024.0,-0.00968836061656475
1152.0,-0.011203601956367493
1280.0,-0.005784313194453716
1408.0,4.636397716240026e-05
1536.0,0.0010363663313910365
1664.0,-0.003927213605493307
1792.0,0.0009450623765587807
1920.0,0.004735121503472328
2048.0,0.007071978412568569
2304.0,0.0026135968510061502
2560.0,-0.00020215052063576877
2816.0,-0.010443350300192833
3072.0,-0.01900583505630493
3328.0,-0.018305465579032898
3584.0,-0.019507890567183495
3840.0,-0.00450472766533494
4096.0,0.006454844959080219
4608.0,0.0007684757583774626
5120.0,-0.009593365713953972
5632.0,-0.010881243273615837
6144.0,0.00849209539592266
6656.0,0.02815217524766922
7168.0,0.01547111663967371
7680.0,-0.006029635667800903
8192.0,-0.006644552107900381
9216.0,-0.013543508015573025
10240.0,-0.01708236150443554
11264.0,0.007726750802248716
12288.0,-0.013589518144726753
13312.0,0.01697097346186638
14336.0,-0.006087303161621094
end
