version,3.0
numOfCh,1
type,point
parent_name,20-cuts
ch_type,1_1
kcount,1
numberNandB,1
brightnessNandB,1
carpet pos,0
pc,0
Time (ms),CH1 Auto-Correlation
1.0,0.029184577986598015
2.0,0.028930295258760452
3.0,0.028678836300969124
4.0,0.02842463180422783
5.0,0.028174588456749916
6.0,0.02793286368250847
7.0,0.0276873167604208
8.0,0.027451368048787117
9.0,0.027223579585552216
10.0,0.026999032124876976
11.0,0.026777487248182297
12.0,0.02656342089176178
13.0,0.026358846575021744
14.0,0.026157407090067863
15.0,0.025966621935367584
16.0,0.025778265669941902
18.0,0.0253988616168499
20.0,0.025029286742210388
22.0,0.0246675256639719
24.0,0.02430904470384121
26.0,0.023959627375006676
28.0,0.023613516241312027
30.0,0.023274818435311317
32.0,0.022938933223485947
36.0,0.022285960614681244
40.0,0.02165582962334156
44.0,0.021030154079198837
48.0,0.020391251891851425
52.0,0.01977662742137909
56.0,0.01922820694744587
60.0,0.01873256452381611
64.0,0.018243681639432907
72.0,0.017235934734344482
80.0,0.016234569251537323
88.0,0.015282085165381432
96.0,0.014442446641623974
104.0,0.013661767356097698
112.0,0.012977623380720615
120.0,0.012364691123366356
128.0,0.011702196672558784
144.0,0.010497168637812138
160.0,0.009638751856982708
176.0,0.008724701590836048
192.0,0.007706172298640013
208.0,0.006571806967258453
224.0,0.0055125923827290535
240.0,0.004571771249175072
256.0,0.003761366242542863
288.0,0.0027454548981040716
320.0,0.002269722754135728
352.0,0.001994240330532193
384.0,0.0017010141164064407
416.0,0.0013676556991413236
448.0,0.0014873764012008905
480.0,0.002186991274356842
512.0,0.0030309385620057583
576.0,0.0030602377373725176
640.0,0.003121962072327733
704.0,0.002225083764642477
768.0,0.0008041156106628478
832.0,0.0005788663984276354
896.0,0.0012407585745677352
960.0,0.002077376237139106
1024.0,0.002121514640748501
1152.0,0.00014244606427382678
1280.0,-0.000574246165342629
1408.0,-0.0020141517743468285
1536.0,-0.0032040749210864305
1664.0,-0.0030826141592115164
1792.0,-0.0031985456589609385
1920.0,-0.004046941641718149
2048.0,-0.006563063245266676
2304.0,-0.0063606188632547855
2560.0,-0.005187372677028179
2816.0,-0.0038381246849894524
3072.0,-0.0011487662559375167
3328.0,-0.0025939566548913717
3584.0,-0.005069632548838854
3840.0,0.00016960965876933187
4096.0,0.0013093254528939724
4608.0,0.0028647002764046192
5120.0,0.005757571198046207
5632.0,0.006595829967409372
6144.0,0.001089785248041153
6656.0,-0.0014462647959589958
7168.0,-0.006377497222274542
7680.0,-0.0024720635265111923
8192.0,-0.003996354062110186
9216.0,-0.0011283825151622295
10240.0,0.002287496579810977
11264.0,0.0028125124517828226
12288.0,-0.002097582910209894
13312.0,-0.0023451615124940872
14336.0,0.00048472362686879933
end
