version,3.0
numOfCh,1
type,point
parent_name,20-cuts
ch_type,1_1
kcount,1
numberNandB,1
brightnessNandB,1
carpet pos,0
pc,0
Time (ms),CH1 Auto-Correlation
1.0,0.03115495853126049
2.0,0.030947355553507805
3.0,0.030741948634386063
4.0,0.030546365305781364
5.0,0.030353689566254616
6.0,0.03016485832631588
7.0,0.02997800149023533
8.0,0.02979395166039467
9.0,0.029612310230731964
10.0,0.029436612501740456
11.0,0.02926180697977543
12.0,0.029087994247674942
13.0,0.02891692705452442
14.0,0.028743471950292587
15.0,0.028575867414474487
16.0,0.028412068262696266
18.0,0.02809232287108898
20.0,0.027792643755674362
22.0,0.02749503217637539
24.0,0.027192017063498497
26.0,0.02688666060566902
28.0,0.02656286396086216
30.0,0.026248712092638016
32.0,0.025946255773305893
36.0,0.02533729560673237
40.0,0.024745957925915718
44.0,0.024200057610869408
48.0,0.02367807738482952
52.0,0.023154743015766144
56.0,0.02262251079082489
60.0,0.022091872990131378
64.0,0.021571669727563858
72.0,0.02065795660018921
80.0,0.019857095554471016
88.0,0.01915680058300495
96.0,0.018542638048529625
104.0,0.018061092123389244
112.0,0.017652982845902443
120.0,0.017255160957574844
128.0,0.016855377703905106
144.0,0.016060415655374527
160.0,0.015367599204182625
176.0,0.014589579775929451
192.0,0.013806821778416634
208.0,0.013000709936022758
224.0,0.012065590359270573
240.0,0.011118035763502121
256.0,0.010127671994268894
288.0,0.007924752309918404
320.0,0.005926219280809164
352.0,0.004123303107917309
384.0,0.0028246548026800156
416.0,0.0024203865323215723
448.0,0.0018011087086051702
480.0,0.0009438313427381217
512.0,0.00010904173541348428
576.0,-0.0013564217370003462
640.0,-0.0019141675438731909
704.0,-0.0020394176244735718
768.0,-0.002515234053134918
832.0,-0.0025611279997974634
896.0,-0.001824468607082963
960.0,-0.0016153294127434492
1024.0,-0.001601240481249988
1152.0,0.00015571017866022885
1280.0,0.0007985553820617497
1408.0,0.0016768748173490167
1536.0,0.0017322116764262319
1664.0,0.001309886109083891
1792.0,-0.0011535696685314178
1920.0,-0.0020526060834527016
2048.0,-0.002648653695359826
2304.0,-0.004091517999768257
2560.0,5.144371243659407e-05
2816.0,0.004261997994035482
3072.0,0.006425717379897833
3328.0,0.006742747966200113
3584.0,0.0009342687553726137
3840.0,-0.0015396650414913893
4096.0,-0.0007989433943293989
4608.0,0.0003096877771895379
5120.0,-0.003751744283363223
5632.0,0.00047124168486334383
6144.0,0.0004855481383856386
6656.0,-0.00629136897623539
7168.0,-0.004687710199505091
7680.0,-0.0011136727407574654
8192.0,-0.002606694120913744
9216.0,0.00448631914332509
10240.0,-0.007057709153741598
11264.0,-0.005862690508365631
12288.0,0.00854140892624855
13312.0,-0.008456705138087273
14336.0,0.0010079883504658937
end
