version,3.0
numOfCh,1
type,point
parent_name,20-cuts
ch_type,1_1
kcount,1
numberNandB,1
brightnessNandB,1
carpet pos,0
pc,0
Time (ms),CH1 Auto-Correlation
1.0,0.07876937836408615
2.0,0.07809026539325714
3.0,0.0774320513010025
4.0,0.07677093148231506
5.0,0.07610667496919632
6.0,0.07545870542526245
7.0,0.07481811940670013
8.0,0.07417882233858109
9.0,0.07354704290628433
10.0,0.07293271273374557
11.0,0.07233993709087372
12.0,0.07176527380943298
13.0,0.07118099927902222
14.0,0.07060177624225616
15.0,0.07002980262041092
16.0,0.06946368515491486
18.0,0.06833739578723907
20.0,0.06720846891403198
22.0,0.066057488322258
24.0,0.06495969742536545
26.0,0.06388580799102783
28.0,0.06281984597444534
30.0,0.0617852546274662
32.0,0.06076093018054962
36.0,0.05877572298049927
40.0,0.056909579783678055
44.0,0.055076099932193756
48.0,0.05333207920193672
52.0,0.05165378376841545
56.0,0.05008501559495926
60.0,0.048616912215948105
64.0,0.047199640423059464
72.0,0.04441716521978378
80.0,0.04178062826395035
88.0,0.03914850205183029
96.0,0.03653329610824585
104.0,0.03393857553601265
112.0,0.03159790486097336
120.0,0.02945690229535103
128.0,0.027351263910531998
144.0,0.023823320865631104
160.0,0.021447258070111275
176.0,0.01984996348619461
192.0,0.01840391755104065
208.0,0.017764827236533165
224.0,0.017937151715159416
240.0,0.017807049676775932
256.0,0.017295729368925095
288.0,0.015830134972929955
320.0,0.01339738816022873
352.0,0.010084887966513634
384.0,0.006679235957562923
416.0,0.004514537286013365
448.0,0.003477270482107997
480.0,0.0036144794430583715
512.0,0.004489883314818144
576.0,0.0055879284627735615
640.0,0.005034967325627804
704.0,0.003939117304980755
768.0,0.002719701500609517
832.0,0.0027766020502895117
896.0,0.0068428791128098965
960.0,0.007224617060273886
1024.0,0.004461863078176975
1152.0,0.005407644901424646
1280.0,-0.0005518413381651044
1408.0,-0.0013638747623190284
1536.0,-0.0030436809174716473
1664.0,-0.0021410975605249405
1792.0,-0.001733882469125092
1920.0,-0.0013585545821115375
2048.0,0.00234134285710752
2304.0,-0.003035684349015355
2560.0,-0.0031281202100217342
2816.0,-1.4151105460769031e-05
3072.0,-0.006781792268157005
3328.0,-0.003804647596552968
3584.0,0.0007887509418651462
3840.0,-0.0025575479958206415
4096.0,-0.006924340967088938
4608.0,-0.0012017189292237163
5120.0,0.0006360521074384451
5632.0,-0.0018467088229954243
6144.0,-0.001776027726009488
6656.0,-0.0035133028868585825
7168.0,0.00013266049791127443
7680.0,0.001014153123833239
8192.0,-0.0020161978900432587
9216.0,-0.0015560067258775234
10240.0,0.00456915982067585
11264.0,0.00425024563446641
12288.0,-0.018585404381155968
13312.0,-0.030107302591204643
14336.0,0.017390867695212364
end
