version,3.0
numOfCh,1
type,point
parent_name,20-cuts
ch_type,1_1
kcount,1
numberNandB,1
brightnessNandB,1
carpet pos,0
pc,0
Time (ms),CH1 Auto-Correlation
1.0,0.02529389224946499
2.0,0.02507343702018261
3.0,0.02486283890902996
4.0,0.02465139515697956
5.0,0.024442514404654503
6.0,0.02423858270049095
7.0,0.024032481014728546
8.0,0.02383415773510933
9.0,0.023635925725102425
10.0,0.023435046896338463
11.0,0.023237476125359535
12.0,0.023039404302835464
13.0,0.022841691970825195
14.0,0.022646499797701836
15.0,0.022454192861914635
16.0,0.02226409502327442
18.0,0.021882645785808563
20.0,0.021520689129829407
22.0,0.021172622218728065
24.0,0.020839834585785866
26.0,0.020514197647571564
28.0,0.020193878561258316
30.0,0.019869089126586914
32.0,0.019550718367099762
36.0,0.018916232511401176
40.0,0.018289433792233467
44.0,0.017693372443318367
48.0,0.017124444246292114
52.0,0.01653578318655491
56.0,0.01596561074256897
60.0,0.015420298092067242
64.0,0.014910274185240269
72.0,0.014010350219905376
80.0,0.01317199319601059
88.0,0.012320027686655521
96.0,0.011497152969241142
104.0,0.0107492720708251
112.0,0.010096359066665173
120.0,0.00952957384288311
128.0,0.008950690738856792
144.0,0.007828001864254475
160.0,0.006760710850358009
176.0,0.005903128534555435
192.0,0.005213674157857895
208.0,0.00451998645439744
224.0,0.004028798546642065
240.0,0.0035901390947401524
256.0,0.003322912147268653
288.0,0.0028326665051281452
320.0,0.0022644794080406427
352.0,0.002030248986557126
384.0,0.0014555809320881963
416.0,0.0011570424539968371
448.0,0.0011689614038914442
480.0,0.0014740213518962264
512.0,0.0019336249679327011
576.0,0.0028891079127788544
640.0,0.002762158866971731
704.0,0.0010543325915932655
768.0,-0.0006644620443694293
832.0,-0.0003579275798983872
896.0,0.0006173992878757417
960.0,0.001663526170887053
1024.0,0.0014144678134471178
1152.0,-0.0006482939934358001
1280.0,-0.0014763018116354942
1408.0,-0.002541791182011366
1536.0,-0.002688812790438533
1664.0,2.6113733838428743e-05
1792.0,-0.00048528617480769753
1920.0,-0.0004080951039213687
2048.0,0.0004508031706791371
2304.0,0.0006724398699589074
2560.0,-0.004880042281001806
2816.0,-0.003953680861741304
3072.0,-0.001990841468796134
3328.0,-0.001382462796755135
3584.0,-0.0012058166321367025
3840.0,0.0017479556845501065
4096.0,0.0018387280870229006
4608.0,0.004472651984542608
5120.0,0.001939679030328989
5632.0,0.0028296413365751505
6144.0,-0.0013211547629907727
6656.0,0.0008979488629847765
7168.0,-0.0036851277109235525
7680.0,-0.003926726058125496
8192.0,-0.004552976693958044
9216.0,0.0012652454897761345
10240.0,7.067681872285903e-05
11264.0,0.0013487697578966618
12288.0,-0.005053488537669182
13312.0,-0.002551647135987878
14336.0,-0.004191594664007425
end
