version,3.0
numOfCh,1
type,point
parent_name,20-cuts
ch_type,1_1
kcount,1
numberNandB,1
brightnessNandB,1
carpet pos,0
pc,0
Time (ms),CH1 Auto-Correlation
1.0,0.06023373827338219
2.0,0.059658151119947433
3.0,0.059109415858983994
4.0,0.058565814048051834
5.0,0.0580335333943367
6.0,0.0575140006840229
7.0,0.057018425315618515
8.0,0.056528493762016296
9.0,0.05604845657944679
10.0,0.05558927357196808
11.0,0.05513555929064751
12.0,0.054683126509189606
13.0,0.05423295125365257
14.0,0.0537835918366909
15.0,0.053333427757024765
16.0,0.05291237309575081
18.0,0.05209222435951233
20.0,0.051327239722013474
22.0,0.05058418959379196
24.0,0.04987386614084244
26.0,0.04918435588479042
28.0,0.048520125448703766
30.0,0.04789720103144646
32.0,0.04729166254401207
36.0,0.04618920758366585
40.0,0.045104049146175385
44.0,0.04399501904845238
48.0,0.0428629033267498
52.0,0.04172030836343765
56.0,0.04063772037625313
60.0,0.03969110548496246
64.0,0.03886338323354721
72.0,0.03755456954240799
80.0,0.03646088019013405
88.0,0.0353560633957386
96.0,0.034071892499923706
104.0,0.032835159450769424
112.0,0.03170951083302498
120.0,0.030668649822473526
128.0,0.029583720490336418
144.0,0.027362514287233353
160.0,0.02497853897511959
176.0,0.023007752373814583
192.0,0.021364912390708923
208.0,0.019692718982696533
224.0,0.018216006457805634
240.0,0.016975199803709984
256.0,0.015940209850668907
288.0,0.013736057095229626
320.0,0.011429122649133205
352.0,0.009085312485694885
384.0,0.006868177559226751
416.0,0.004521959461271763
448.0,0.002745244186371565
480.0,0.0021177229937165976
512.0,0.001511343289166689
576.0,-0.00010901146742980927
640.0,-0.0011654498521238565
704.0,-0.0026700617745518684
768.0,-0.0018234857125207782
832.0,-0.0008913204655982554
896.0,-0.0016054679872468114
960.0,-0.0006084645865485072
1024.0,-0.003217549528926611
1152.0,-0.005503145977854729
1280.0,-0.0034346790052950382
1408.0,0.0003098204324487597
1536.0,0.0007770687225274742
1664.0,-1.9009421521332115e-05
1792.0,-0.0026588065084069967
1920.0,-0.005782161373645067
2048.0,-0.008237806148827076
2304.0,-0.0068571907468140125
2560.0,-0.004408142063766718
2816.0,0.0008224333287216723
3072.0,0.008466372266411781
3328.0,0.011304532177746296
3584.0,0.005945783108472824
3840.0,-0.0001661261630943045
4096.0,0.003723034868016839
4608.0,-0.003810078604146838
5120.0,-0.008957250975072384
5632.0,-0.003273559268563986
6144.0,0.0007580757373943925
6656.0,0.0003058327711187303
7168.0,0.0017146484460681677
7680.0,0.004537336528301239
8192.0,-0.006414845120161772
9216.0,-0.006965705193579197
10240.0,-0.004694810137152672
11264.0,-0.00149547157343477
12288.0,-0.0006064812187105417
13312.0,0.006217306479811668
14336.0,0.009916186332702637
end
