version,3.0
numOfCh,1
type,point
parent_name,20-cuts
ch_type,1_1
kcount,1
numberNandB,1
brightnessNandB,1
carpet pos,0
pc,0
Time (ms),CH1 Auto-Correlation
1.0,0.04035388305783272
2.0,0.04010681435465813
3.0,0.0398661270737648
4.0,0.039622712880373
5.0,0.03938371315598488
6.0,0.03914494067430496
7.0,0.038910653442144394
8.0,0.038683101534843445
9.0,0.03845672309398651
10.0,0.038233909755945206
11.0,0.03801572695374489
12.0,0.03779091686010361
13.0,0.037575796246528625
14.0,0.0373615026473999
15.0,0.03715205192565918
16.0,0.036946818232536316
18.0,0.03654525429010391
20.0,0.03616338595747948
22.0,0.03578982129693031
24.0,0.035415083169937134
26.0,0.03503762185573578
28.0,0.03465808928012848
30.0,0.03428199142217636
32.0,0.03392045199871063
36.0,0.033241014927625656
40.0,0.032550565898418427
44.0,0.03191244229674339
48.0,0.031357090920209885
52.0,0.03082692250609398
56.0,0.030285809189081192
60.0,0.02969529666006565
64.0,0.029107239097356796
72.0,0.02814497984945774
80.0,0.027406418696045876
88.0,0.02671300619840622
96.0,0.025976160541176796
104.0,0.025217914953827858
112.0,0.02444559521973133
120.0,0.023649729788303375
128.0,0.022915681824088097
144.0,0.02180309407413006
160.0,0.020625200122594833
176.0,0.019355226308107376
192.0,0.018384914845228195
208.0,0.017675835639238358
224.0,0.017103983089327812
240.0,0.01636221818625927
256.0,0.015441492199897766
288.0,0.013698737137019634
320.0,0.012085171416401863
352.0,0.010981113649904728
384.0,0.009858128614723682
416.0,0.008737712167203426
448.0,0.008066914044320583
480.0,0.008040196262300014
512.0,0.0074944281950592995
576.0,0.006556364707648754
640.0,0.00629548542201519
704.0,0.006104751955717802
768.0,0.00631292350590229
832.0,0.006240809801965952
896.0,0.005954520311206579
960.0,0.005128736607730389
1024.0,0.0043032169342041016
1152.0,0.003566343104466796
1280.0,0.002166815334931016
1408.0,-5.376520493882708e-05
1536.0,-0.003364930860698223
1664.0,-0.00509609142318368
1792.0,-0.004740533418953419
1920.0,-0.00400174967944622
2048.0,-0.003752040909603238
2304.0,-0.006337885744869709
2560.0,-0.005691477097570896
2816.0,-0.002285757102072239
3072.0,-0.004175757989287376
3328.0,-0.0044263675808906555
3584.0,-0.0018344615818932652
3840.0,0.0017311902483925223
4096.0,0.00016755257092881948
4608.0,0.0015189661644399166
5120.0,0.0010841147741302848
5632.0,-0.002809444209560752
6144.0,-0.00363659905269742
6656.0,-0.00030751724261790514
7168.0,-0.002376803196966648
7680.0,-0.0034849089570343494
8192.0,-0.001584984827786684
9216.0,0.0023003844544291496
10240.0,-0.003306012600660324
11264.0,-0.014282810501754284
12288.0,-0.01743367128074169
13312.0,0.01438616868108511
14336.0,0.03647071123123169
end
