version,3.0
numOfCh,1
type,point
parent_name,20-cuts
ch_type,1_1
kcount,1
numberNandB,1
brightnessNandB,1
carpet pos,0
pc,0
Time (ms),CH1 Auto-Correlation
1.0,0.059047773480415344
2.0,0.058414991945028305
3.0,0.057779859751462936
4.0,0.05716337636113167
5.0,0.05655518174171448
6.0,0.05596468597650528
7.0,0.05538678169250488
8.0,0.054811399430036545
9.0,0.054241303354501724
10.0,0.05366620421409607
11.0,0.053102411329746246
12.0,0.05254717171192169
13.0,0.051990654319524765
14.0,0.051423780620098114
15.0,0.05085546895861626
16.0,0.05029361695051193
18.0,0.04920658841729164
20.0,0.04813123866915703
22.0,0.047106511890888214
24.0,0.04609683156013489
26.0,0.04510946944355965
28.0,0.044120337814092636
30.0,0.04316211864352226
32.0,0.04224816709756851
36.0,0.04055248945951462
40.0,0.03887111321091652
44.0,0.037309419363737106
48.0,0.03579750657081604
52.0,0.03433806449174881
56.0,0.0328918918967247
60.0,0.031538013368844986
64.0,0.03025832027196884
72.0,0.027720216661691666
80.0,0.02520069107413292
88.0,0.022814426571130753
96.0,0.020498568192124367
104.0,0.01843629963696003
112.0,0.01647777296602726
120.0,0.014703460969030857
128.0,0.013484513387084007
144.0,0.01170884259045124
160.0,0.010332438163459301
176.0,0.009594958275556564
192.0,0.008806643076241016
208.0,0.008143238723278046
224.0,0.007559177931398153
240.0,0.006441734731197357
256.0,0.005196696147322655
288.0,0.0026271906681358814
320.0,0.0009926065104082227
352.0,0.0008129169000312686
384.0,0.002277954248711467
416.0,0.0034973067231476307
448.0,0.0041784667409956455
480.0,0.004600714426487684
512.0,0.0035802386701107025
576.0,0.0014339745976030827
640.0,-0.001607908634468913
704.0,-0.004572758451104164
768.0,-0.0067971632815897465
832.0,-0.00860760360956192
896.0,-0.006583290174603462
960.0,-0.002234499668702483
1024.0,-0.002978288335725665
1152.0,-0.004206813406199217
1280.0,-0.002894857432693243
1408.0,0.0036124656908214092
1536.0,-0.0014033096376806498
1664.0,-0.0015149270184338093
1792.0,-0.0052703493274748325
1920.0,-0.0037688440643250942
2048.0,-0.007906424812972546
2304.0,-0.005276824813336134
2560.0,0.0024445028975605965
2816.0,0.0027109950315207243
3072.0,0.009721001610159874
3328.0,0.007733521517366171
3584.0,0.00435797031968832
3840.0,0.0001786585635272786
4096.0,-0.002038777805864811
4608.0,-0.004885467700660229
5120.0,-0.0021131415851414204
5632.0,-0.0023751365952193737
6144.0,0.005875472445040941
6656.0,0.007363831624388695
7168.0,-0.004053934942930937
7680.0,-0.009753666818141937
8192.0,-0.006280235480517149
9216.0,0.001726397662423551
10240.0,0.00011741685739252716
11264.0,0.0026898307260125875
12288.0,-0.0010165706044062972
13312.0,-0.006089532747864723
14336.0,-0.0009531463147141039
end
