version,3.0
numOfCh,1
type,point
parent_name,20-cuts
ch_type,1_1
kcount,1
numberNandB,1
brightnessNandB,1
carpet pos,0
pc,0
Time (ms),CH1 Auto-Correlation
1.0,0.07449906319379807
2.0,0.07388573884963989
3.0,0.07328072935342789
4.0,0.07267949730157852
5.0,0.07207486033439636
6.0,0.07147614657878876
7.0,0.0708950012922287
8.0,0.07031861692667007
9.0,0.06975163519382477
10.0,0.06920138001441956
11.0,0.06866715848445892
12.0,0.06813729554414749
13.0,0.06762685626745224
14.0,0.06713134050369263
15.0,0.0666346549987793
16.0,0.06615592539310455
18.0,0.06518197059631348
20.0,0.06418885290622711
22.0,0.06321001797914505
24.0,0.06224047392606735
26.0,0.06127848103642464
28.0,0.060300011187791824
30.0,0.059320591390132904
32.0,0.058385081589221954
36.0,0.056617144495248795
40.0,0.05488190799951553
44.0,0.0531633123755455
48.0,0.051537804305553436
52.0,0.05000004544854164
56.0,0.0485231913626194
60.0,0.047094184905290604
64.0,0.04566654562950134
72.0,0.04285963624715805
80.0,0.040088262408971786
88.0,0.03738262504339218
96.0,0.03511228412389755
104.0,0.033325545489788055
112.0,0.031837403774261475
120.0,0.03044922649860382
128.0,0.029159540310502052
144.0,0.02617660164833069
160.0,0.0235306229442358
176.0,0.021439339965581894
192.0,0.019369835034012794
208.0,0.017364097759127617
224.0,0.015682119876146317
240.0,0.013897334225475788
256.0,0.011697245761752129
288.0,0.007250151131302118
320.0,0.0028610052540898323
352.0,0.0008348256815224886
384.0,-5.454048732644878e-05
416.0,-0.0002909642644226551
448.0,-8.102654101094231e-05
480.0,0.00020931597100570798
512.0,0.0019195977365598083
576.0,0.003574479604139924
640.0,0.006090827286243439
704.0,0.006681443657726049
768.0,0.005391060374677181
832.0,0.006462038028985262
896.0,0.00985034741461277
960.0,0.011865188367664814
1024.0,0.008077014237642288
1152.0,-0.0008262281189672649
1280.0,-0.0030120587907731533
1408.0,-0.0010851511033251882
1536.0,0.004906854592263699
1664.0,0.00895096268504858
1792.0,0.009523161686956882
1920.0,0.009537720121443272
2048.0,0.005378883332014084
2304.0,-0.002543699461966753
2560.0,-0.0019761600997298956
2816.0,0.0034212437458336353
3072.0,0.0038498288486152887
3328.0,-0.006118128541857004
3584.0,-0.0010069082491099834
3840.0,0.0009909147629514337
4096.0,-0.011778345331549644
4608.0,0.003824737388640642
5120.0,0.0023181522265076637
5632.0,0.004462051670998335
6144.0,-0.009274741634726524
6656.0,-0.0034714362118393183
7168.0,-0.0007854326395317912
7680.0,0.009811367839574814
8192.0,-0.00015099025040399283
9216.0,-0.0024193404242396355
10240.0,-0.010133251547813416
11264.0,-0.013840778730809689
12288.0,-0.010459911078214645
13312.0,-0.0019494923762977123
14336.0,-0.009523820132017136
end
