version,3.0
numOfCh,1
type,point
parent_name,20-cuts
ch_type,1_1
kcount,1
numberNandB,1
brightnessNandB,1
carpet pos,0
pc,0
Time (ms),CH1 Auto-Correlation
1.0,0.06355717033147812
2.0,0.06294263154268265
3.0,0.062334828078746796
4.0,0.06173401325941086
5.0,0.0611349381506443
6.0,0.06055815517902374
7.0,0.0599810965359211
8.0,0.05941525846719742
9.0,0.0588565319776535
10.0,0.05830172449350357
11.0,0.05774722993373871
12.0,0.05720026418566704
13.0,0.056650009006261826
14.0,0.05612151324748993
15.0,0.055588047951459885
16.0,0.05507424846291542
18.0,0.054086100310087204
20.0,0.05310458317399025
22.0,0.05216746777296066
24.0,0.05128192529082298
26.0,0.05043710768222809
28.0,0.049620453268289566
30.0,0.04883177950978279
32.0,0.04808126017451286
36.0,0.04671328887343407
40.0,0.04554717242717743
44.0,0.04443837329745293
48.0,0.04333624243736267
52.0,0.042276836931705475
56.0,0.041248809546232224
60.0,0.040255624800920486
64.0,0.039322417229413986
72.0,0.037505656480789185
80.0,0.035841695964336395
88.0,0.03423863649368286
96.0,0.03261223062872887
104.0,0.0311075821518898
112.0,0.02957829087972641
120.0,0.027947189286351204
128.0,0.026445120573043823
144.0,0.02329263836145401
160.0,0.02015731856226921
176.0,0.017511313781142235
192.0,0.01551338192075491
208.0,0.013777078129351139
224.0,0.012430746108293533
240.0,0.011492065154016018
256.0,0.010899733752012253
288.0,0.010479752905666828
320.0,0.010072492063045502
352.0,0.009478230029344559
384.0,0.009350117295980453
416.0,0.008538899943232536
448.0,0.007697084918618202
480.0,0.006149441935122013
512.0,0.0050394777208566666
576.0,0.005371730774641037
640.0,0.006205501966178417
704.0,0.0074775489047169685
768.0,0.007360600866377354
832.0,0.006285089533776045
896.0,0.005598207004368305
960.0,0.005409227684140205
1024.0,0.006459501106292009
1152.0,0.0015956173883751035
1280.0,-0.0013970865402370691
1408.0,-0.0029092025943100452
1536.0,-0.00373147614300251
1664.0,-0.0017557062674313784
1792.0,0.002780245617032051
1920.0,0.0021043308079242706
2048.0,-0.0011654483387246728
2304.0,-0.0020435014739632607
2560.0,-0.0041443356312811375
2816.0,-0.0057622650638222694
3072.0,-0.00949262734502554
3328.0,-0.008126949891448021
3584.0,0.00044716644333675504
3840.0,-0.0027864305302500725
4096.0,0.0010014220606535673
4608.0,0.0017681991448625922
5120.0,-0.010401619598269463
5632.0,-0.0071638887748122215
6144.0,-0.0049818167462944984
6656.0,-0.006644774228334427
7168.0,-0.0024931568186730146
7680.0,-0.000553668534848839
8192.0,0.009483040310442448
9216.0,0.0022820024751126766
10240.0,0.013623281382024288
11264.0,0.011537831276655197
12288.0,0.007514290511608124
13312.0,-0.010401476174592972
14336.0,-0.029350483790040016
end
