version,3.0
numOfCh,1
type,point
parent_name,20-cuts
ch_type,1_1
kcount,1
numberNandB,1
brightnessNandB,1
carpet pos,0
pc,0
Time (ms),CH1 Auto-Correlation
1.0,0.09242469817399979
2.0,0.0918496772646904
3.0,0.09127980470657349
4.0,0.09071406722068787
5.0,0.09014922380447388
6.0,0.0895799994468689
7.0,0.08902838826179504
8.0,0.08848541229963303
9.0,0.08794756978750229
10.0,0.08740539848804474
11.0,0.08687201142311096
12.0,0.08633466064929962
13.0,0.08581298589706421
14.0,0.08527931571006775
15.0,0.08474280685186386
16.0,0.08422788977622986
18.0,0.08319449424743652
20.0,0.08218608051538467
22.0,0.08121353387832642
24.0,0.08028421550989151
26.0,0.07934395968914032
28.0,0.0783754512667656
30.0,0.07741772383451462
32.0,0.07646538317203522
36.0,0.07463829964399338
40.0,0.07291648536920547
44.0,0.07128239423036575
48.0,0.06970920413732529
52.0,0.06816178560256958
56.0,0.06667175889015198
60.0,0.06522173434495926
64.0,0.0638362392783165
72.0,0.06135956570506096
80.0,0.05904744192957878
88.0,0.0569443516433239
96.0,0.05511593073606491
104.0,0.053657691925764084
112.0,0.05211576446890831
120.0,0.05064041167497635
128.0,0.049264632165431976
144.0,0.045484479516744614
160.0,0.041499629616737366
176.0,0.037647828459739685
192.0,0.033456798642873764
208.0,0.029104765504598618
224.0,0.02541981264948845
240.0,0.021862169727683067
256.0,0.01815936528146267
288.0,0.012213913723826408
320.0,0.007926994934678078
352.0,0.004382646176964045
384.0,0.0014205906772986054
416.0,0.0009991929400712252
448.0,0.0018227186519652605
480.0,0.002462362637743354
512.0,0.0027599323075264692
576.0,0.001924552721902728
640.0,-0.00018760719103738666
704.0,-0.002827379619702697
768.0,-0.005671318154782057
832.0,-0.009427228011190891
896.0,-0.016267700120806694
960.0,-0.021614473313093185
1024.0,-0.023442698642611504
1152.0,-0.020796244964003563
1280.0,-0.016271207481622696
1408.0,-0.011045953258872032
1536.0,-0.011382765136659145
1664.0,-0.010809688828885555
1792.0,-0.007313986774533987
1920.0,-0.0034266836009919643
2048.0,-0.005496031604707241
2304.0,0.004366223234683275
2560.0,0.002096048556268215
2816.0,-0.0023656333796679974
3072.0,0.009474552236497402
3328.0,0.01094318088144064
3584.0,-0.003620709292590618
3840.0,-0.0009079724550247192
4096.0,-0.009318786673247814
4608.0,0.008901647292077541
5120.0,-8.629491276224144e-06
5632.0,0.004460230004042387
6144.0,-0.01582091487944126
6656.0,-0.013726864010095596
7168.0,0.011613517999649048
7680.0,0.012889323756098747
8192.0,0.0004070106951985508
9216.0,-0.011201193556189537
10240.0,-0.002074360614642501
11264.0,0.0093955397605896
12288.0,-0.00012190796405775473
13312.0,-0.012368380092084408
14336.0,0.006174567621201277
end
