version,3.0
numOfCh,1
type,point
parent_name,20-cuts
ch_type,1_1
kcount,1
numberNandB,1
brightnessNandB,1
carpet pos,0
pc,0
Time (ms),CH1 Auto-Correlation
1.0,0.029796453192830086
2.0,0.029568282887339592
3.0,0.02933959849178791
4.0,0.02910943143069744
5.0,0.028880786150693893
6.0,0.02865765243768692
7.0,0.028438881039619446
8.0,0.02822618931531906
9.0,0.028014827519655228
10.0,0.0278078131377697
11.0,0.027601132169365883
12.0,0.02739054337143898
13.0,0.027182340621948242
14.0,0.026978187263011932
15.0,0.02677641436457634
16.0,0.026577230542898178
18.0,0.02619200199842453
20.0,0.025824403390288353
22.0,0.02545291930437088
24.0,0.025093305855989456
26.0,0.0247302558273077
28.0,0.024382244795560837
30.0,0.024050487205386162
32.0,0.02374524064362049
36.0,0.02315281331539154
40.0,0.022604357451200485
44.0,0.02209048718214035
48.0,0.021563582122325897
52.0,0.021041803061962128
56.0,0.020523792132735252
60.0,0.020018132403492928
64.0,0.01951766386628151
72.0,0.018493274226784706
80.0,0.0175525713711977
88.0,0.016679322347044945
96.0,0.01590130291879177
104.0,0.015207118354737759
112.0,0.014620207250118256
120.0,0.014099910855293274
128.0,0.013615858741104603
144.0,0.012794082053005695
160.0,0.012196662835776806
176.0,0.011455980129539967
192.0,0.010531975887715816
208.0,0.009482050314545631
224.0,0.008330688811838627
240.0,0.007394107989966869
256.0,0.0064973775297403336
288.0,0.005106772296130657
320.0,0.004285621922463179
352.0,0.003920919727534056
384.0,0.003871339140459895
416.0,0.0035909886937588453
448.0,0.0032679692376405
480.0,0.0025794045068323612
512.0,0.0017634875839576125
576.0,0.000781225913669914
640.0,0.0004706945037469268
704.0,0.0017757536843419075
768.0,0.0018390518380329013
832.0,0.0016469481633976102
896.0,7.7328848419711e-05
960.0,-0.001804133178666234
1024.0,-0.0028305556625127792
1152.0,-0.0012896584812551737
1280.0,0.00021349301096051931
1408.0,-0.00014216822455637157
1536.0,0.002424305770546198
1664.0,0.0008190175285562873
1792.0,-0.0028722467832267284
1920.0,-0.0036699960473924875
2048.0,-0.0029517074581235647
2304.0,-0.0033657720778137445
2560.0,0.0014894603518769145
2816.0,0.001949205412529409
3072.0,0.0021608895622193813
3328.0,0.0008705292129889131
3584.0,-0.0010307200718671083
3840.0,-0.004100097343325615
4096.0,-0.002961210673674941
4608.0,-0.00112039630766958
5120.0,-0.0012575447326526046
5632.0,-0.003335664514452219
6144.0,-0.0018983293557539582
6656.0,-0.0020244852639734745
7168.0,-0.0010262132855132222
7680.0,0.003792242845520377
8192.0,0.005061843898147345
9216.0,-0.0009652868611738086
10240.0,-8.750772394705564e-05
11264.0,0.0031358059495687485
12288.0,-0.004451876971870661
13312.0,-0.002782957861199975
14336.0,-0.005965907592326403
end
