version,3.0
numOfCh,1
type,point
parent_name,4-cuts
ch_type,1_1
kcount,1
numberNandB,1
brightnessNandB,1
carpet pos,0
pc,0
Time (ms),CH1 Auto-Correlation
1.0,0.10655267536640167
2.0,0.10601288080215454
3.0,0.10546299070119858
4.0,0.10492166131734848
5.0,0.10439613461494446
6.0,0.10387192666530609
7.0,0.10336168110370636
8.0,0.1028408408164978
9.0,0.10232878476381302
10.0,0.10181523114442825
11.0,0.10128459334373474
12.0,0.10075496882200241
13.0,0.10023228824138641
14.0,0.09973002225160599
15.0,0.09923116862773895
16.0,0.09874040633440018
18.0,0.09774310886859894
20.0,0.0967240110039711
22.0,0.09572752565145493
24.0,0.09476719796657562
26.0,0.09381236135959625
28.0,0.09284354746341705
30.0,0.09188836812973022
32.0,0.090960793197155
36.0,0.08921191096305847
40.0,0.08765470236539841
44.0,0.0861545130610466
48.0,0.08471613377332687
52.0,0.08338972181081772
56.0,0.08209946751594543
60.0,0.08086051046848297
64.0,0.07962758094072342
72.0,0.07719457894563675
80.0,0.07493999600410461
88.0,0.0727609395980835
96.0,0.07077614217996597
104.0,0.06885602325201035
112.0,0.06709647923707962
120.0,0.06539690494537354
128.0,0.06358882039785385
144.0,0.059623390436172485
160.0,0.05546216666698456
176.0,0.05155745521187782
192.0,0.047993339598178864
208.0,0.044664736837148666
224.0,0.04184822738170624
240.0,0.03918670117855072
256.0,0.036687061190605164
288.0,0.03334786742925644
320.0,0.030521733686327934
352.0,0.027390366420149803
384.0,0.024587946012616158
416.0,0.021496018394827843
448.0,0.018727121874690056
480.0,0.016164980828762054
512.0,0.013641059398651123
576.0,0.008919064886868
640.0,0.005053508561104536
704.0,0.002529383869841695
768.0,0.0009462670423090458
832.0,0.0035328425001353025
896.0,0.004729723557829857
960.0,0.0020388192497193813
1024.0,-0.0005917695234529674
1152.0,-0.008381610736250877
1280.0,-0.014541646465659142
1408.0,-0.011150317266583443
1536.0,-0.012127027846872807
1664.0,-0.011344815604388714
1792.0,-0.004339053761214018
1920.0,-0.0014062033733353019
2048.0,-0.0011029592715203762
2304.0,0.0032167313620448112
2560.0,0.01284718606621027
2816.0,0.013719713315367699
3072.0,0.009636283852159977
3328.0,0.008749589323997498
3584.0,0.00868484377861023
3840.0,0.004824787378311157
4096.0,0.0027578745502978563
4608.0,-0.009340550750494003
5120.0,-0.013816921040415764
5632.0,-0.005713859107345343
6144.0,-0.010039551183581352
6656.0,-0.005386949051171541
7168.0,-0.039892204105854034
7680.0,-0.009864586405456066
8192.0,0.00657849945127964
9216.0,-0.014360994100570679
10240.0,-0.02109081856906414
11264.0,0.007663032505661249
12288.0,0.023257700726389885
13312.0,-0.023250607773661613
14336.0,0.017782097682356834
end
