version,3.0
numOfCh,1
type,point
parent_name,4-cuts
ch_type,1_1
kcount,1
numberNandB,1
brightnessNandB,1
carpet pos,0
pc,0
Time (ms),CH1 Auto-Correlation
1.0,0.042067959904670715
2.0,0.041865427047014236
3.0,0.04166153818368912
4.0,0.041465114802122116
5.0,0.04126965254545212
6.0,0.041069019585847855
7.0,0.04086815565824509
8.0,0.04067718982696533
9.0,0.04049113020300865
10.0,0.04030474275350571
11.0,0.04012284055352211
12.0,0.03994234651327133
13.0,0.03976237028837204
14.0,0.039581965655088425
15.0,0.039406727999448776
16.0,0.03923051059246063
18.0,0.03887316957116127
20.0,0.038508400321006775
22.0,0.03815362975001335
24.0,0.037811052054166794
26.0,0.037481047213077545
28.0,0.03716268762946129
30.0,0.03686993941664696
32.0,0.03658748045563698
36.0,0.03602679446339607
40.0,0.035467587411403656
44.0,0.03492053225636482
48.0,0.034384436905384064
52.0,0.03385479003190994
56.0,0.03333223611116409
60.0,0.03280874714255333
64.0,0.032280802726745605
72.0,0.031333331018686295
80.0,0.03048739768564701
88.0,0.029676033183932304
96.0,0.028873968869447708
104.0,0.02811393514275551
112.0,0.027309540659189224
120.0,0.026450756937265396
128.0,0.025620881468057632
144.0,0.02412465587258339
160.0,0.022977331653237343
176.0,0.02199746109545231
192.0,0.021228989586234093
208.0,0.02073519118130207
224.0,0.020411958917975426
240.0,0.02010161429643631
256.0,0.01958903856575489
288.0,0.01777104288339615
320.0,0.015903107821941376
352.0,0.014421854168176651
384.0,0.012963301502168179
416.0,0.011391104198992252
448.0,0.010194499045610428
480.0,0.009533420205116272
512.0,0.009235238656401634
576.0,0.00814000703394413
640.0,0.007467932533472776
704.0,0.006848437245935202
768.0,0.007309737149626017
832.0,0.0068174744956195354
896.0,0.007425795309245586
960.0,0.009165298193693161
1024.0,0.010188785381615162
1152.0,0.008130615577101707
1280.0,0.004681889899075031
1408.0,0.0012634813319891691
1536.0,-0.0003598006151150912
1664.0,0.0020980986300855875
1792.0,0.004476542584598064
1920.0,0.008113982155919075
2048.0,0.011095116846263409
2304.0,0.010727623477578163
2560.0,0.006176842376589775
2816.0,0.006674673408269882
3072.0,0.007029011379927397
3328.0,0.0006449528154917061
3584.0,-0.009202463552355766
3840.0,-0.011271977797150612
4096.0,-0.007484895642846823
4608.0,-0.00514221889898181
5120.0,0.005396690685302019
5632.0,-0.000832193938549608
6144.0,-0.010907229036092758
6656.0,-0.008680914528667927
7168.0,-0.0023440609220415354
7680.0,0.0008961260318756104
8192.0,-0.007771376520395279
9216.0,-0.016573263332247734
10240.0,-0.006208678707480431
11264.0,-0.019571153447031975
12288.0,-0.0013778074644505978
13312.0,0.010320881381630898
14336.0,0.013346959836781025
end
