version,3.0
numOfCh,1
type,point
parent_name,4-cuts
ch_type,1_1
kcount,1
numberNandB,1
brightnessNandB,1
carpet pos,0
pc,0
Time (ms),CH1 Auto-Correlation
1.0,0.07150791585445404
2.0,0.07097593694925308
3.0,0.07045651227235794
4.0,0.06993639469146729
5.0,0.06942039728164673
6.0,0.06891432404518127
7.0,0.06840386986732483
8.0,0.06789274513721466
9.0,0.06737790256738663
10.0,0.06687014549970627
11.0,0.06636707484722137
12.0,0.06586474925279617
13.0,0.06536972522735596
14.0,0.0648789256811142
15.0,0.06440193206071854
16.0,0.06394185870885849
18.0,0.06304380297660828
20.0,0.062153059989213943
22.0,0.06132261082530022
24.0,0.06054989993572235
26.0,0.05979039892554283
28.0,0.05903404951095581
30.0,0.05827266722917557
32.0,0.057515110820531845
36.0,0.0560031458735466
40.0,0.05456896871328354
44.0,0.053248513489961624
48.0,0.05205138400197029
52.0,0.05100052431225777
56.0,0.050068072974681854
60.0,0.04921634495258331
64.0,0.04843353480100632
72.0,0.04692577198147774
80.0,0.045466382056474686
88.0,0.04413016512989998
96.0,0.04305108264088631
104.0,0.04205412045121193
112.0,0.04104451835155487
120.0,0.039853617548942566
128.0,0.038606300950050354
144.0,0.03617974743247032
160.0,0.033548228442668915
176.0,0.030422190204262733
192.0,0.028248431161046028
208.0,0.027009129524230957
224.0,0.026263801380991936
240.0,0.025488518178462982
256.0,0.024328086525201797
288.0,0.020418912172317505
320.0,0.01825113594532013
352.0,0.01779250241816044
384.0,0.016588430851697922
416.0,0.0147556746378541
448.0,0.014121235348284245
480.0,0.015032194554805756
512.0,0.015217223204672337
576.0,0.015139707364141941
640.0,0.01256534457206726
704.0,0.01064613088965416
768.0,0.00829975213855505
832.0,0.005074355751276016
896.0,0.001601978437975049
960.0,0.0006241057999432087
1024.0,-0.0013934364542365074
1152.0,-0.0011011729948222637
1280.0,-0.0005206114728935063
1408.0,-0.004885835573077202
1536.0,-0.011148546822369099
1664.0,-0.013944877311587334
1792.0,-0.012635654769837856
1920.0,-0.015367229469120502
2048.0,-0.020956164225935936
2304.0,-0.02589983306825161
2560.0,-0.024654898792505264
2816.0,-0.023741809651255608
3072.0,-0.014740301296114922
3328.0,-0.0022583131212741137
3584.0,0.005476105958223343
3840.0,0.01307960320264101
4096.0,0.017094945535063744
4608.0,0.017681704834103584
5120.0,0.018296513706445694
5632.0,0.003189626382663846
6144.0,-0.017696864902973175
6656.0,-0.017566557973623276
7168.0,-0.01850120723247528
7680.0,-0.00825937557965517
8192.0,0.003211169969290495
9216.0,0.025532646104693413
10240.0,0.002713344292715192
11264.0,-0.01865725964307785
12288.0,-0.014369005337357521
13312.0,0.00207707192748785
14336.0,0.015499187633395195
end
