version,3.0
numOfCh,1
type,point
parent_name,4-cuts
ch_type,1_1
kcount,1
numberNandB,1
brightnessNandB,1
carpet pos,0
pc,0
Time (ms),CH1 Auto-Correlation
1.0,0.08609513938426971
2.0,0.08560173958539963
3.0,0.08512448519468307
4.0,0.08464297652244568
5.0,0.08416685461997986
6.0,0.0836842805147171
7.0,0.08320814371109009
8.0,0.08273260295391083
9.0,0.08226451277732849
10.0,0.08180340379476547
11.0,0.0813552588224411
12.0,0.08091938495635986
13.0,0.08048098534345627
14.0,0.08004926890134811
15.0,0.07962334156036377
16.0,0.07919751852750778
18.0,0.07836414128541946
20.0,0.07754877954721451
22.0,0.07677929848432541
24.0,0.07601623237133026
26.0,0.0752766877412796
28.0,0.07456634193658829
30.0,0.07386910170316696
32.0,0.07320642471313477
36.0,0.07196491211652756
40.0,0.07080996781587601
44.0,0.06977320462465286
48.0,0.06883887201547623
52.0,0.06801892817020416
56.0,0.06722726672887802
60.0,0.06645984202623367
64.0,0.06569268554449081
72.0,0.06410980224609375
80.0,0.06263034045696259
88.0,0.06125130131840706
96.0,0.06001456454396248
104.0,0.05882175266742706
112.0,0.057738181203603745
120.0,0.056554850190877914
128.0,0.055454105138778687
144.0,0.053284868597984314
160.0,0.05113412067294121
176.0,0.04933803156018257
192.0,0.04814935103058815
208.0,0.04701435565948486
224.0,0.045998670160770416
240.0,0.0451335571706295
256.0,0.04389925301074982
288.0,0.04063205048441887
320.0,0.038104843348264694
352.0,0.035127025097608566
384.0,0.030914153903722763
416.0,0.02731774002313614
448.0,0.024598006159067154
480.0,0.02241896092891693
512.0,0.0205034501850605
576.0,0.017694668844342232
640.0,0.013864932581782341
704.0,0.011730735190212727
768.0,0.012299476191401482
832.0,0.012801523320376873
896.0,0.009861300699412823
960.0,0.006501865107566118
1024.0,0.003900345414876938
1152.0,0.002427124883979559
1280.0,-0.002125993836671114
1408.0,-0.005065681878477335
1536.0,-0.011536732316017151
1664.0,-0.015157989226281643
1792.0,-0.019963055849075317
1920.0,-0.019668245688080788
2048.0,-0.016665149480104446
2304.0,-0.007639900781214237
2560.0,-0.0059481277130544186
2816.0,-0.004558987449854612
3072.0,-0.0025989871937781572
3328.0,0.0011856157798320055
3584.0,0.00885266624391079
3840.0,0.009747103787958622
4096.0,0.014523321762681007
4608.0,0.0067752753384411335
5120.0,-0.01541875023394823
5632.0,-0.029573069885373116
6144.0,-0.02843206189572811
6656.0,-0.007906628772616386
7168.0,0.010510441847145557
7680.0,0.008524617180228233
8192.0,-0.005437130108475685
9216.0,-0.01669565960764885
10240.0,-0.01877298206090927
11264.0,0.03761366009712219
12288.0,0.028278280049562454
13312.0,0.0005459289532154799
14336.0,-0.0296036284416914
end
