version,3.0
numOfCh,1
type,point
parent_name,4-cuts
ch_type,1_1
kcount,1
numberNandB,1
brightnessNandB,1
carpet pos,0
pc,0
Time (ms),CH1 Auto-Correlation
1.0,0.09064682573080063
2.0,0.09005331248044968
3.0,0.08945725113153458
4.0,0.08887483179569244
5.0,0.0882973000407219
6.0,0.08774310350418091
7.0,0.08718181401491165
8.0,0.08662351220846176
9.0,0.08606929332017899
10.0,0.08552230149507523
11.0,0.08497803658246994
12.0,0.08445655554533005
13.0,0.08395159989595413
14.0,0.08345259726047516
15.0,0.08295537531375885
16.0,0.0824732556939125
18.0,0.08153975009918213
20.0,0.08063273131847382
22.0,0.07973579317331314
24.0,0.07884839177131653
26.0,0.07799860835075378
28.0,0.07719189673662186
30.0,0.07642122358083725
32.0,0.07565169781446457
36.0,0.0741320252418518
40.0,0.07265850156545639
44.0,0.07124722003936768
48.0,0.06991000473499298
52.0,0.06864727288484573
56.0,0.06746836006641388
60.0,0.06633010506629944
64.0,0.0652235895395279
72.0,0.06314203888177872
80.0,0.06084059178829193
88.0,0.05876997858285904
96.0,0.056900233030319214
104.0,0.055106908082962036
112.0,0.053422294557094574
120.0,0.05174575373530388
128.0,0.05009441450238228
144.0,0.04677741974592209
160.0,0.04325965419411659
176.0,0.04002063348889351
192.0,0.037238314747810364
208.0,0.03493611887097359
224.0,0.032818783074617386
240.0,0.03129515424370766
256.0,0.030337227508425713
288.0,0.027390040457248688
320.0,0.025466298684477806
352.0,0.024310678243637085
384.0,0.023676469922065735
416.0,0.02317732758820057
448.0,0.023825805634260178
480.0,0.02418842725455761
512.0,0.023016195744276047
576.0,0.022197166457772255
640.0,0.02021191082894802
704.0,0.018537046387791634
768.0,0.013692586682736874
832.0,0.008229535073041916
896.0,0.001783203799277544
960.0,-0.0029533044435083866
1024.0,-0.0029434808529913425
1152.0,0.0027616648003458977
1280.0,0.003717635292559862
1408.0,-0.005992901511490345
1536.0,-0.016538554802536964
1664.0,-0.016616523265838623
1792.0,-0.012519454583525658
1920.0,-0.006732877343893051
2048.0,-0.003506819950416684
2304.0,-0.00454877270385623
2560.0,0.003825337393209338
2816.0,0.0011737151071429253
3072.0,0.006828898098319769
3328.0,0.004028504714369774
3584.0,0.001722523127682507
3840.0,-0.004335911013185978
4096.0,-0.022956162691116333
4608.0,-0.027371900156140327
5120.0,-0.023568520322442055
5632.0,-0.0042598373256623745
6144.0,-0.0005407881108112633
6656.0,-0.0024855744559317827
7168.0,-0.017190251499414444
7680.0,-0.01687777228653431
8192.0,-0.006315671373158693
9216.0,0.029691267758607864
10240.0,0.00407381122931838
11264.0,-0.00376423099078238
12288.0,0.016913875937461853
13312.0,-0.006680052727460861
14336.0,-0.02505909465253353
end
