version,3.0
numOfCh,1
type,point
parent_name,4-cuts
ch_type,1_1
kcount,1
numberNandB,1
brightnessNandB,1
carpet pos,0
pc,0
Time (ms),CH1 Auto-Correlation
1.0,0.05559476092457771
2.0,0.05511905997991562
3.0,0.05465686321258545
4.0,0.0542050339281559
5.0,0.053753484040498734
6.0,0.05331331863999367
7.0,0.05289778113365173
8.0,0.05247088894248009
9.0,0.052055422216653824
10.0,0.0516393780708313
11.0,0.05122998356819153
12.0,0.05083615332841873
13.0,0.050438109785318375
14.0,0.05005764216184616
15.0,0.04968826100230217
16.0,0.04931190237402916
18.0,0.04861437529325485
20.0,0.04792454093694687
22.0,0.04723603278398514
24.0,0.04655682295560837
26.0,0.045904241502285004
28.0,0.04529273882508278
30.0,0.04472208023071289
32.0,0.04416622593998909
36.0,0.043095942586660385
40.0,0.04209797456860542
44.0,0.041127122938632965
48.0,0.0401451475918293
52.0,0.039184022694826126
56.0,0.03824000433087349
60.0,0.03732208162546158
64.0,0.0364534817636013
72.0,0.03498096764087677
80.0,0.03345079347491264
88.0,0.03195904940366745
96.0,0.03045574389398098
104.0,0.02904808148741722
112.0,0.02784605883061886
120.0,0.02669798955321312
128.0,0.025686608627438545
144.0,0.023712920024991035
160.0,0.021554622799158096
176.0,0.019367657601833344
192.0,0.017498428001999855
208.0,0.015594910830259323
224.0,0.01388105470687151
240.0,0.012272844091057777
256.0,0.011233024299144745
288.0,0.01016291044652462
320.0,0.009586896747350693
352.0,0.007619013544172049
384.0,0.0059677367098629475
416.0,0.004522555973380804
448.0,0.004366123583167791
480.0,0.005488816648721695
512.0,0.006250778213143349
576.0,0.008015298284590244
640.0,0.00909493863582611
704.0,0.00957563053816557
768.0,0.008356472477316856
832.0,0.00721868546679616
896.0,0.006724558304995298
960.0,0.006073471624404192
1024.0,0.0059410217218101025
1152.0,0.004237110260874033
1280.0,0.0038934422191232443
1408.0,0.0023558074608445168
1536.0,-0.0022490560077130795
1664.0,-0.005213076714426279
1792.0,-0.00588752469047904
1920.0,0.0005106554017402232
2048.0,0.004087174776941538
2304.0,0.004330850206315517
2560.0,0.002516799606382847
2816.0,0.0016434608260169625
3072.0,0.0019992818124592304
3328.0,0.0028800158761441708
3584.0,0.005536647979170084
3840.0,0.003745518857613206
4096.0,-9.256102202925831e-05
4608.0,-0.0006026420160196722
5120.0,5.7524845033185557e-05
5632.0,-0.00498609896749258
6144.0,-0.006800999864935875
6656.0,-0.006905430927872658
7168.0,-0.007695356383919716
7680.0,-0.010508766397833824
8192.0,-0.009456945583224297
9216.0,-0.009391139261424541
10240.0,0.004168444778770208
11264.0,-0.009461037814617157
12288.0,-0.002309974515810609
13312.0,0.00858730636537075
14336.0,-0.0006789606413803995
end
