version,3.0
numOfCh,1
type,point
parent_name,4-cuts
ch_type,1_1
kcount,1
numberNandB,1
brightnessNandB,1
carpet pos,0
pc,0
Time (ms),CH1 Auto-Correlation
1.0,0.02672129124403
2.0,0.02652047574520111
3.0,0.02631724253296852
4.0,0.026111077517271042
5.0,0.02590741217136383
6.0,0.025699585676193237
7.0,0.025494424626231194
8.0,0.025291671976447105
9.0,0.025093315169215202
10.0,0.02489721216261387
11.0,0.02470291405916214
12.0,0.024509916082024574
13.0,0.02431907318532467
14.0,0.024127470329403877
15.0,0.023938270285725594
16.0,0.0237532090395689
18.0,0.023397821933031082
20.0,0.023051265627145767
22.0,0.022712774574756622
24.0,0.022383835166692734
26.0,0.022059474140405655
28.0,0.021736161783337593
30.0,0.021416032686829567
32.0,0.021106673404574394
36.0,0.020532408729195595
40.0,0.020008891820907593
44.0,0.019496453925967216
48.0,0.01897270977497101
52.0,0.018471380695700645
56.0,0.018003130331635475
60.0,0.01756438985466957
64.0,0.017143558710813522
72.0,0.016308598220348358
80.0,0.015507470816373825
88.0,0.014802771620452404
96.0,0.014170569367706776
104.0,0.013621887192130089
112.0,0.013119680806994438
120.0,0.012614892795681953
128.0,0.012106713838875294
144.0,0.011145440861582756
160.0,0.009952789172530174
176.0,0.008910040371119976
192.0,0.008240537717938423
208.0,0.0077433097176253796
224.0,0.007371996063739061
240.0,0.0070937261916697025
256.0,0.006943561136722565
288.0,0.0062828632071614265
320.0,0.005407039541751146
352.0,0.0046331570483744144
384.0,0.004434115719050169
416.0,0.004711317829787731
448.0,0.004607526119798422
480.0,0.0047707087360322475
512.0,0.005528540350496769
576.0,0.0053368546068668365
640.0,0.004239810165017843
704.0,0.003853150876238942
768.0,0.003048580838367343
832.0,0.0024933884851634502
896.0,0.000677961390465498
960.0,0.0003402699949219823
1024.0,0.00028066293452866375
1152.0,0.0005400063819251955
1280.0,0.0008548927726224065
1408.0,0.00045979759306646883
1536.0,8.958231046563014e-05
1664.0,-0.0006041371379978955
1792.0,-0.00014082739653531462
1920.0,-0.0014452881878241897
2048.0,-0.001763452892191708
2304.0,0.0009784083813428879
2560.0,-0.001015659887343645
2816.0,-0.0023096182849258184
3072.0,-0.0011033319169655442
3328.0,-0.004451954271644354
3584.0,-0.004826482851058245
3840.0,-0.00440035667270422
4096.0,-0.005482708103954792
4608.0,-0.003570990636944771
5120.0,-0.0010824283817782998
5632.0,-0.000633268675301224
6144.0,-0.0014470344176515937
6656.0,-6.994089198997244e-05
7168.0,-0.0001719807187328115
7680.0,0.0018856802489608526
8192.0,0.002661243313923478
9216.0,-0.00042956150718964636
10240.0,0.0014048222219571471
11264.0,-0.0014182599261403084
12288.0,-0.0006821837741881609
13312.0,0.004296421073377132
14336.0,-0.001400875742547214
end
