version,3.0
numOfCh,1
type,point
parent_name,4-cuts
ch_type,1_1
kcount,1
numberNandB,1
brightnessNandB,1
carpet pos,0
pc,0
Time (ms),CH1 Auto-Correlation
1.0,0.10904131829738617
2.0,0.10841649025678635
3.0,0.10779660195112228
4.0,0.10718387365341187
5.0,0.10659696161746979
6.0,0.10602662712335587
7.0,0.10548080503940582
8.0,0.10493715107440948
9.0,0.10440929234027863
10.0,0.10388311743736267
11.0,0.10336125642061234
12.0,0.1028549075126648
13.0,0.1023595780134201
14.0,0.10189444571733475
15.0,0.10144133865833282
16.0,0.10100403428077698
18.0,0.10015135258436203
20.0,0.09929994493722916
22.0,0.09849432855844498
24.0,0.09769204258918762
26.0,0.09692861139774323
28.0,0.09623894095420837
30.0,0.09557637572288513
32.0,0.09492725133895874
36.0,0.09365231543779373
40.0,0.09232160449028015
44.0,0.09096869081258774
48.0,0.0896109938621521
52.0,0.08829621970653534
56.0,0.08709748834371567
60.0,0.08598552644252777
64.0,0.08495301753282547
72.0,0.08325580507516861
80.0,0.08171294629573822
88.0,0.08025453239679337
96.0,0.07877079397439957
104.0,0.07739339768886566
112.0,0.07619882375001907
120.0,0.07538024336099625
128.0,0.07445477694272995
144.0,0.07208786904811859
160.0,0.06933300942182541
176.0,0.0660797655582428
192.0,0.06296371668577194
208.0,0.060283489525318146
224.0,0.05749572068452835
240.0,0.054939400404691696
256.0,0.052829667925834656
288.0,0.050639621913433075
320.0,0.04851134121417999
352.0,0.04651422053575516
384.0,0.04403593763709068
416.0,0.041611503809690475
448.0,0.03941008821129799
480.0,0.036907635629177094
512.0,0.03451809659600258
576.0,0.03035000152885914
640.0,0.02926046960055828
704.0,0.027838362380862236
768.0,0.028118515387177467
832.0,0.029542041942477226
896.0,0.03083719313144684
960.0,0.031579721719026566
1024.0,0.02906952053308487
1152.0,0.027641169726848602
1280.0,0.02119014970958233
1408.0,0.01656300202012062
1536.0,0.015497463755309582
1664.0,0.015334561467170715
1792.0,0.010672296397387981
1920.0,0.005852987989783287
2048.0,0.0070457542315125465
2304.0,0.01605246588587761
2560.0,0.004797702189534903
2816.0,-0.014733763411641121
3072.0,-0.020187214016914368
3328.0,-0.012787792831659317
3584.0,-0.010951049625873566
3840.0,-0.01273247878998518
4096.0,-0.0076784105040133
4608.0,-0.01188313402235508
5120.0,-0.014303112402558327
5632.0,-0.0037919096648693085
6144.0,0.0005060308030806482
6656.0,-0.02535863034427166
7168.0,-0.03625180199742317
7680.0,-0.04661593958735466
8192.0,-0.03784557804465294
9216.0,-0.04149189963936806
10240.0,-0.016531070694327354
11264.0,0.019848499447107315
12288.0,0.03903990983963013
13312.0,0.04203221574425697
14336.0,0.0340975858271122
end
