version,3.0
numOfCh,1
type,point
parent_name,4-cuts
ch_type,1_1
kcount,1
numberNandB,1
brightnessNandB,1
carpet pos,0
pc,0
Time (ms),CH1 Auto-Correlation
1.0,0.06855162233114243
2.0,0.06816898286342621
3.0,0.06779264658689499
4.0,0.06742224097251892
5.0,0.06704831123352051
6.0,0.06667228788137436
7.0,0.06628964841365814
8.0,0.0659111887216568
9.0,0.0655411034822464
10.0,0.06518343091011047
11.0,0.06481967121362686
12.0,0.06445824354887009
13.0,0.06409579515457153
14.0,0.06373635679483414
15.0,0.06337305158376694
16.0,0.06302716583013535
18.0,0.06236089766025543
20.0,0.06170948967337608
22.0,0.06108029931783676
24.0,0.06044263020157814
26.0,0.05981605127453804
28.0,0.05920986086130142
30.0,0.058622926473617554
32.0,0.05805037170648575
36.0,0.05697277933359146
40.0,0.05598203465342522
44.0,0.055075835436582565
48.0,0.05419410020112991
52.0,0.053315602242946625
56.0,0.05249454081058502
60.0,0.05169174447655678
64.0,0.05087658762931824
72.0,0.049232352524995804
80.0,0.0476517453789711
88.0,0.04617088660597801
96.0,0.04487885534763336
104.0,0.043703481554985046
112.0,0.042687129229307175
120.0,0.041715107858181
128.0,0.04075314849615097
144.0,0.039187606424093246
160.0,0.03794240579009056
176.0,0.03682566061615944
192.0,0.0357467420399189
208.0,0.03489537164568901
224.0,0.033937498927116394
240.0,0.03317524492740631
256.0,0.03262657672166824
288.0,0.03141764551401138
320.0,0.030417699366807938
352.0,0.030162490904331207
384.0,0.029953429475426674
416.0,0.028510214760899544
448.0,0.025954827666282654
480.0,0.023875171318650246
512.0,0.022456800565123558
576.0,0.019879339262843132
640.0,0.01782292127609253
704.0,0.016416747123003006
768.0,0.014561373740434647
832.0,0.015524083748459816
896.0,0.017604757100343704
960.0,0.019223792478442192
1024.0,0.019647525623440742
1152.0,0.02114357240498066
1280.0,0.020620066672563553
1408.0,0.01732565462589264
1536.0,0.020264331251382828
1664.0,0.02042645961046219
1792.0,0.019366849213838577
1920.0,0.017231669276952744
2048.0,0.01545168086886406
2304.0,0.0131673039868474
2560.0,0.01200049463659525
2816.0,0.012351064942777157
3072.0,0.010400699451565742
3328.0,0.006939927116036415
3584.0,0.00421878881752491
3840.0,0.0031666746363043785
4096.0,-0.0023236724082380533
4608.0,-0.0030574328266084194
5120.0,-0.011003986932337284
5632.0,-0.016845928505063057
6144.0,-0.008952628821134567
6656.0,-0.013870793394744396
7168.0,-0.025478050112724304
7680.0,-0.021236110478639603
8192.0,-0.01660599373281002
9216.0,-0.022311830893158913
10240.0,-0.03081274963915348
11264.0,-0.010782908648252487
12288.0,-0.0038657542318105698
13312.0,-0.005459379870444536
14336.0,0.02310352586209774
end
