version,3.0
numOfCh,1
type,point
parent_name,4-cuts
ch_type,1_1
kcount,1
numberNandB,1
brightnessNandB,1
carpet pos,0
pc,0
Time (ms),CH1 Auto-Correlation
1.0,0.06790698319673538
2.0,0.06743473559617996
3.0,0.0669746845960617
4.0,0.06651267409324646
5.0,0.06606346368789673
6.0,0.06562528014183044
7.0,0.0652054026722908
8.0,0.06476631760597229
9.0,0.06434299796819687
10.0,0.0639207661151886
11.0,0.06349316239356995
12.0,0.06306761503219604
13.0,0.0626428872346878
14.0,0.06223613768815994
15.0,0.06181998923420906
16.0,0.06141507625579834
18.0,0.06060686334967613
20.0,0.05982566624879837
22.0,0.059070780873298645
24.0,0.05834558606147766
26.0,0.05767485499382019
28.0,0.05706843361258507
30.0,0.05648788809776306
32.0,0.055904973298311234
36.0,0.05486061051487923
40.0,0.053938232362270355
44.0,0.05309952795505524
48.0,0.052310146391391754
52.0,0.051526691764593124
56.0,0.05078696459531784
60.0,0.05006959289312363
64.0,0.04929579421877861
72.0,0.04770803824067116
80.0,0.04605074226856232
88.0,0.04453156515955925
96.0,0.04305950552225113
104.0,0.04175254702568054
112.0,0.04059241712093353
120.0,0.03942806273698807
128.0,0.03829982504248619
144.0,0.036042120307683945
160.0,0.034087173640728
176.0,0.03226236253976822
192.0,0.03047564998269081
208.0,0.02849234640598297
224.0,0.027035148814320564
240.0,0.026367047801613808
256.0,0.025677280500531197
288.0,0.02308453805744648
320.0,0.020249776542186737
352.0,0.017695443704724312
384.0,0.016700126230716705
416.0,0.01514500379562378
448.0,0.01218823529779911
480.0,0.009051419794559479
512.0,0.007332046516239643
576.0,0.007366808131337166
640.0,0.0076997182331979275
704.0,0.005739713553339243
768.0,0.0029334325809031725
832.0,0.002845766954123974
896.0,0.003799649653956294
960.0,0.0028977671172469854
1024.0,0.003979366272687912
1152.0,0.005725775379687548
1280.0,0.006870153825730085
1408.0,0.008854970335960388
1536.0,0.010196514427661896
1664.0,0.01110281702131033
1792.0,0.011413454078137875
1920.0,0.008354672230780125
2048.0,0.008164451457560062
2304.0,0.004131840076297522
2560.0,-0.005746867973357439
2816.0,-0.004840540699660778
3072.0,-0.002182315569370985
3328.0,-0.00590626010671258
3584.0,-0.005333179607987404
3840.0,0.000179062073584646
4096.0,-0.0004886810202151537
4608.0,0.00580159667879343
5120.0,-0.003664990421384573
5632.0,0.00026654836256057024
6144.0,0.005838723853230476
6656.0,-0.006708560977131128
7168.0,-0.010608242824673653
7680.0,-0.004108175169676542
8192.0,-0.00942190270870924
9216.0,-0.010883468203246593
10240.0,-0.003226923756301403
11264.0,-0.008346539922058582
12288.0,0.006197007838636637
13312.0,-0.0024225665256381035
14336.0,-0.023442886769771576
end
