version,3.0
numOfCh,1
type,point
parent_name,4-cuts
ch_type,1_1
kcount,1
numberNandB,1
brightnessNandB,1
carpet pos,0
pc,0
Time (ms),CH1 Auto-Correlation
1.0,0.03363519906997681
2.0,0.03342405706644058
3.0,0.03321395069360733
4.0,0.03300942853093147
5.0,0.03280825540423393
6.0,0.03260833024978638
7.0,0.03240830451250076
8.0,0.03220890462398529
9.0,0.032010968774557114
10.0,0.03182217478752136
11.0,0.03163532167673111
12.0,0.03145179525017738
13.0,0.03126916289329529
14.0,0.03108876757323742
15.0,0.030910389497876167
16.0,0.03073260188102722
18.0,0.03038010746240616
20.0,0.030034886673092842
22.0,0.02970273606479168
24.0,0.029378054663538933
26.0,0.02905689738690853
28.0,0.028742706403136253
30.0,0.02842981554567814
32.0,0.02811344526708126
36.0,0.027528971433639526
40.0,0.02700067311525345
44.0,0.026501251384615898
48.0,0.026019573211669922
52.0,0.02556358464062214
56.0,0.025107983499765396
60.0,0.024636374786496162
64.0,0.02415487729012966
72.0,0.023187126964330673
80.0,0.0222373865544796
88.0,0.021332167088985443
96.0,0.020449163392186165
104.0,0.019623184576630592
112.0,0.018815528601408005
120.0,0.018070446327328682
128.0,0.01741277053952217
144.0,0.016315340995788574
160.0,0.015504715032875538
176.0,0.015065634623169899
192.0,0.014771687798202038
208.0,0.01458730548620224
224.0,0.014373455196619034
240.0,0.013996004126966
256.0,0.01348965521901846
288.0,0.012781202793121338
320.0,0.012096577323973179
352.0,0.01149402093142271
384.0,0.011036666110157967
416.0,0.010121134109795094
448.0,0.009128223173320293
480.0,0.008502459153532982
512.0,0.007924183271825314
576.0,0.007403231225907803
640.0,0.007254951633512974
704.0,0.006940129678696394
768.0,0.006362758111208677
832.0,0.004764891229569912
896.0,0.004091538954526186
960.0,0.0044374349527060986
1024.0,0.0038110241293907166
1152.0,0.0009252313175238669
1280.0,0.00027848611352965236
1408.0,-0.0030920440331101418
1536.0,-0.005604354664683342
1664.0,-0.00727881072089076
1792.0,-0.008423669263720512
1920.0,-0.005585989449173212
2048.0,-0.005902500357478857
2304.0,-0.007302698213607073
2560.0,-0.006482333410531282
2816.0,-0.005479027051478624
3072.0,-0.004281092435121536
3328.0,-0.003085087286308408
3584.0,-0.004279381595551968
3840.0,-0.0035550796892493963
4096.0,-0.00175015302374959
4608.0,-0.0011594101088121533
5120.0,0.003545064013451338
5632.0,0.008988872170448303
6144.0,0.009404553100466728
6656.0,0.005298011004924774
7168.0,-0.002383100800216198
7680.0,-0.009493260644376278
8192.0,-0.012764601968228817
9216.0,-0.0038755445275455713
10240.0,0.00264593749307096
11264.0,0.005134243052452803
12288.0,0.0010335379047319293
13312.0,-0.003497484140098095
14336.0,0.0015469464706256986
end
