version,3.0
numOfCh,1
type,point
parent_name,4-cuts
ch_type,1_1
kcount,1
numberNandB,1
brightnessNandB,1
carpet pos,0
pc,0
Time (ms),CH1 Auto-Correlation
1.0,0.018383748829364777
2.0,0.018195196986198425
3.0,0.01801331155002117
4.0,0.017827613279223442
5.0,0.017643265426158905
6.0,0.017459582537412643
7.0,0.017278147861361504
8.0,0.01710171066224575
9.0,0.01693381369113922
10.0,0.016766944900155067
11.0,0.016604263335466385
12.0,0.016444487497210503
13.0,0.01628616452217102
14.0,0.016127077862620354
15.0,0.015975039452314377
16.0,0.01582208275794983
18.0,0.015525148250162601
20.0,0.015230566263198853
22.0,0.014933938160538673
24.0,0.014642463065683842
26.0,0.014365856535732746
28.0,0.014105621725320816
30.0,0.013852096162736416
32.0,0.013595174998044968
36.0,0.013111790642142296
40.0,0.012668841518461704
44.0,0.012241623364388943
48.0,0.011841791681945324
52.0,0.011459947563707829
56.0,0.01109005231410265
60.0,0.010722092352807522
64.0,0.010366934351623058
72.0,0.009695175103843212
80.0,0.009052853100001812
88.0,0.008397645317018032
96.0,0.00779668940231204
104.0,0.007193704601377249
112.0,0.006548002827912569
120.0,0.005897591821849346
128.0,0.005252777133136988
144.0,0.004185971338301897
160.0,0.003404399612918496
176.0,0.0028506112284958363
192.0,0.002363835461437702
208.0,0.001745395129546523
224.0,0.0011288502719253302
240.0,0.0007065281388349831
256.0,0.00030856698867864907
288.0,9.047997446032241e-05
320.0,3.8912341551622376e-05
352.0,-0.00026681533199734986
384.0,-0.000457628455478698
416.0,-0.0003821158315986395
448.0,-0.0003002979210577905
480.0,-0.0001542246318422258
512.0,9.88627380138496e-06
576.0,0.00019858060113620013
640.0,0.0007706321775913239
704.0,0.0012233814923092723
768.0,0.0005091759958304465
832.0,0.00013613935152534395
896.0,-0.00015029568749014288
960.0,0.00026967268786393106
1024.0,0.0011713840067386627
1152.0,0.0009324786369688809
1280.0,0.0008035741630010307
1408.0,0.0014990924391895533
1536.0,0.0018507495988160372
1664.0,0.0011906225699931383
1792.0,0.00012081921158824116
1920.0,-0.0018682349473237991
2048.0,-0.0010049543343484402
2304.0,0.00023871635494288057
2560.0,0.0007822026964277029
2816.0,-6.356410449370742e-05
3072.0,0.0008050352334976196
3328.0,-0.0005061663687229156
3584.0,-0.0008895224309526384
3840.0,-0.00046668463619425893
4096.0,0.0008732263813726604
4608.0,-0.00037830433575436473
5120.0,-0.0014824654208496213
5632.0,-0.0027323411777615547
6144.0,-0.0020739901810884476
6656.0,-0.001357085071504116
7168.0,-0.0007392594125121832
7680.0,-0.00032218341948464513
8192.0,-0.00015446824545506388
9216.0,0.00013745012984145433
10240.0,0.0001446735259378329
11264.0,0.000718853494618088
12288.0,0.0005108223995193839
13312.0,0.0011706976220011711
14336.0,-0.0005695443833246827
end
