version,3.0
numOfCh,1
type,point
parent_name,4-cuts
ch_type,1_1
kcount,1
numberNandB,1
brightnessNandB,1
carpet pos,0
pc,0
Time (ms),CH1 Auto-Correlation
1.0,0.07915665209293365
2.0,0.07875976711511612
3.0,0.07836249470710754
4.0,0.07797326892614365
5.0,0.07757679373025894
6.0,0.07717151194810867
7.0,0.07676950097084045
8.0,0.076370008289814
9.0,0.07596708834171295
10.0,0.07556489109992981
11.0,0.07517212629318237
12.0,0.07479143887758255
13.0,0.0744134709239006
14.0,0.07405778765678406
15.0,0.07370034605264664
16.0,0.07334951311349869
18.0,0.07266975939273834
20.0,0.07202509045600891
22.0,0.07141878455877304
24.0,0.07083024084568024
26.0,0.0702688992023468
28.0,0.06972014158964157
30.0,0.06917454302310944
32.0,0.0686405822634697
36.0,0.06757842749357224
40.0,0.06652796268463135
44.0,0.06543941795825958
48.0,0.06428489089012146
52.0,0.06310062855482101
56.0,0.061938509345054626
60.0,0.060853052884340286
64.0,0.05986224114894867
72.0,0.05809583142399788
80.0,0.056417450308799744
88.0,0.05472511053085327
96.0,0.053094424307346344
104.0,0.05148503556847572
112.0,0.05003473535180092
120.0,0.04882146418094635
128.0,0.04783731698989868
144.0,0.0457293763756752
160.0,0.04324783757328987
176.0,0.040696002542972565
192.0,0.03855859488248825
208.0,0.03658322989940643
224.0,0.03471990302205086
240.0,0.03296768665313721
256.0,0.03144020587205887
288.0,0.029471388086676598
320.0,0.02789749763906002
352.0,0.025893576443195343
384.0,0.023720115423202515
416.0,0.021910907700657845
448.0,0.019956238567829132
480.0,0.01853030174970627
512.0,0.017575718462467194
576.0,0.0137429628521204
640.0,0.007862742058932781
704.0,0.0031146055553108454
768.0,-4.1016370232682675e-05
832.0,-0.0002920623228419572
896.0,-0.0013991936575621367
960.0,-0.004387545399367809
1024.0,-0.007464710623025894
1152.0,-0.010424953885376453
1280.0,-0.008820714429020882
1408.0,-0.010446403175592422
1536.0,-0.01853644847869873
1664.0,-0.027710217982530594
1792.0,-0.029486533254384995
1920.0,-0.023673061281442642
2048.0,-0.01866295002400875
2304.0,-0.01362153235822916
2560.0,-0.004013958852738142
2816.0,0.004335280042141676
3072.0,0.002554461592808366
3328.0,0.005660769063979387
3584.0,0.0034888600930571556
3840.0,-0.00012132610572734848
4096.0,0.0008047018200159073
4608.0,-0.004172798711806536
5120.0,0.0015422012656927109
5632.0,0.00152003753464669
6144.0,-0.0015424503944814205
6656.0,0.002448846586048603
7168.0,-0.006722243037074804
7680.0,-0.0026546225417405367
8192.0,-0.006729579996317625
9216.0,0.012766500934958458
10240.0,-0.0012028883211314678
11264.0,0.0016965052345767617
12288.0,0.02472000941634178
13312.0,-0.04567308351397514
14336.0,-0.0266946442425251
end
