version,3.0
numOfCh,1
type,point
parent_name,4-cuts
ch_type,1_1
kcount,1
numberNandB,1
brightnessNandB,1
carpet pos,0
pc,0
Time (ms),CH1 Auto-Correlation
1.0,0.07962058484554291
2.0,0.07906407117843628
3.0,0.07852179557085037
4.0,0.07798124104738235
5.0,0.07744280248880386
6.0,0.07692204415798187
7.0,0.0763900876045227
8.0,0.07586551457643509
9.0,0.07534981518983841
10.0,0.07482379674911499
11.0,0.07429122924804688
12.0,0.07378794997930527
13.0,0.07329365611076355
14.0,0.07281109690666199
15.0,0.07231613993644714
16.0,0.07183057814836502
18.0,0.07085549831390381
20.0,0.06988909840583801
22.0,0.06895077973604202
24.0,0.0680570974946022
26.0,0.06715648621320724
28.0,0.06628166884183884
30.0,0.06541747599840164
32.0,0.0645766407251358
36.0,0.06300117075443268
40.0,0.06157584488391876
44.0,0.0602504163980484
48.0,0.05895351245999336
52.0,0.057671304792165756
56.0,0.056483108550310135
60.0,0.05545470491051674
64.0,0.05449402332305908
72.0,0.052705686539411545
80.0,0.05129029229283333
88.0,0.05018458142876625
96.0,0.04907025024294853
104.0,0.0478428415954113
112.0,0.04648783802986145
120.0,0.04514926299452782
128.0,0.04388635233044624
144.0,0.04153282567858696
160.0,0.039424486458301544
176.0,0.037105072289705276
192.0,0.035004135221242905
208.0,0.033537477254867554
224.0,0.032401613891124725
240.0,0.03099120408296585
256.0,0.029200559481978416
288.0,0.025554854422807693
320.0,0.022436022758483887
352.0,0.018551649525761604
384.0,0.014934206381440163
416.0,0.012560768984258175
448.0,0.011675246991217136
480.0,0.011616275645792484
512.0,0.011024564504623413
576.0,0.009223705157637596
640.0,0.009745598770678043
704.0,0.007511813193559647
768.0,0.005709434859454632
832.0,0.005513293668627739
896.0,0.0053198859095573425
960.0,0.004232203122228384
1024.0,0.002118985867127776
1152.0,0.0002904105349443853
1280.0,-0.001780409482307732
1408.0,-0.0024612336419522762
1536.0,-0.006873427890241146
1664.0,-0.010989421047270298
1792.0,-0.011895419098436832
1920.0,-0.012756719253957272
2048.0,-0.012565607205033302
2304.0,-0.007020880933851004
2560.0,-0.0051128314808011055
2816.0,-0.004762911703437567
3072.0,0.010303855873644352
3328.0,0.023641403764486313
3584.0,0.017863094806671143
3840.0,0.008165786974132061
4096.0,-0.0028350348584353924
4608.0,-0.0026101714465767145
5120.0,-0.006517685949802399
5632.0,-0.00294636026956141
6144.0,-0.00024364360433537513
6656.0,0.00451554823666811
7168.0,-0.006127697881311178
7680.0,-0.02369559183716774
8192.0,-0.030055394396185875
9216.0,-0.0020826905965805054
10240.0,0.009242675267159939
11264.0,-0.014753199182450771
12288.0,-0.008625498972833157
13312.0,-0.0017905480926856399
14336.0,0.021140029653906822
end
