version,3.0
numOfCh,1
type,point
parent_name,4-cuts
ch_type,1_1
kcount,1
numberNandB,1
brightnessNandB,1
carpet pos,0
pc,0
Time (ms),CH1 Auto-Correlation
1.0,0.07124297320842743
2.0,0.07071603834629059
3.0,0.07019153982400894
4.0,0.06966698169708252
5.0,0.06915666162967682
6.0,0.06863491982221603
7.0,0.0681120976805687
8.0,0.06758925318717957
9.0,0.06705312430858612
10.0,0.06654001027345657
11.0,0.06603781133890152
12.0,0.06553507596254349
13.0,0.06502715498209
14.0,0.06451406329870224
15.0,0.06401485949754715
16.0,0.06353150308132172
18.0,0.06259263306856155
20.0,0.06168796122074127
22.0,0.06082872673869133
24.0,0.05999653413891792
26.0,0.05920792371034622
28.0,0.05846190080046654
30.0,0.05771538242697716
32.0,0.05696645751595497
36.0,0.055534299463033676
40.0,0.05409067124128342
44.0,0.05268257111310959
48.0,0.05141663923859596
52.0,0.05017795041203499
56.0,0.048996701836586
60.0,0.04779396951198578
64.0,0.04665794596076012
72.0,0.04485219344496727
80.0,0.043299850076436996
88.0,0.041762687265872955
96.0,0.04021043702960014
104.0,0.03862025961279869
112.0,0.03685041144490242
120.0,0.03502226248383522
128.0,0.03331085667014122
144.0,0.030256658792495728
160.0,0.027822820469737053
176.0,0.025924302637577057
192.0,0.024016421288251877
208.0,0.021706044673919678
224.0,0.0193061213940382
240.0,0.017038529738783836
256.0,0.01532108522951603
288.0,0.012513828463852406
320.0,0.009213365614414215
352.0,0.0066604926250875
384.0,0.006225660443305969
416.0,0.005619766656309366
448.0,0.004714231006801128
480.0,0.0026270037051290274
512.0,0.0015592805575579405
576.0,-0.00044977167272008955
640.0,-0.0032149425242096186
704.0,-0.00590249290689826
768.0,-0.006147715263068676
832.0,-0.005496516823768616
896.0,-0.007559625431895256
960.0,-0.009652755223214626
1024.0,-0.010316574014723301
1152.0,-0.009211137890815735
1280.0,-0.006708616856485605
1408.0,-0.004713056143373251
1536.0,0.0019570121075958014
1664.0,0.00997938308864832
1792.0,0.013777452521026134
1920.0,0.01225836668163538
2048.0,0.012721320614218712
2304.0,0.0023208449129015207
2560.0,0.006475717760622501
2816.0,0.0037562758661806583
3072.0,-0.005573136266320944
3328.0,-0.003666252363473177
3584.0,-0.0009521004976704717
3840.0,0.002032508375123143
4096.0,0.004483457189053297
4608.0,0.007307723630219698
5120.0,-0.01552713755518198
5632.0,-0.008796900510787964
6144.0,0.008560147136449814
6656.0,-0.0010071902070194483
7168.0,-0.007219740655273199
7680.0,-0.020492853596806526
8192.0,-0.0065523236989974976
9216.0,-0.009757701307535172
10240.0,0.007043410558253527
11264.0,-0.013538533821702003
12288.0,0.0020712511613965034
13312.0,-0.0014476424548774958
14336.0,0.012918010354042053
end
