version,3.0
numOfCh,1
type,point
parent_name,4-cuts
ch_type,1_1
kcount,1
numberNandB,1
brightnessNandB,1
carpet pos,0
pc,0
Time (ms),CH1 Auto-Correlation
1.0,0.023809334263205528
2.0,0.023605896160006523
3.0,0.023400453850626945
4.0,0.02319440245628357
5.0,0.02299383468925953
6.0,0.02279667742550373
7.0,0.02260129153728485
8.0,0.022410815581679344
9.0,0.022225050255656242
10.0,0.022038541734218597
11.0,0.021854795515537262
12.0,0.021674102172255516
13.0,0.02149699628353119
14.0,0.021321319043636322
15.0,0.021149909123778343
16.0,0.02098163217306137
18.0,0.0206444151699543
20.0,0.020324401557445526
22.0,0.020021729171276093
24.0,0.019731707870960236
26.0,0.019455740228295326
28.0,0.019197974354028702
30.0,0.018949106335639954
32.0,0.018693262711167336
36.0,0.018200218677520752
40.0,0.01771446317434311
44.0,0.0172277744859457
48.0,0.01675885170698166
52.0,0.0163273848593235
56.0,0.01594384014606476
60.0,0.01557796262204647
64.0,0.015233363956212997
72.0,0.014660926535725594
80.0,0.01412893831729889
88.0,0.013664278201758862
96.0,0.013231953606009483
104.0,0.012816641479730606
112.0,0.012340156361460686
120.0,0.011867324821650982
128.0,0.011393232271075249
144.0,0.01049026194959879
160.0,0.009606800973415375
176.0,0.008876577019691467
192.0,0.008201665244996548
208.0,0.007544657215476036
224.0,0.0071321395225822926
240.0,0.006652243435382843
256.0,0.00621721800416708
288.0,0.005464563146233559
320.0,0.004537420812994242
352.0,0.0034398501738905907
384.0,0.0023858225904405117
416.0,0.0014384661335498095
448.0,0.0013525213580578566
480.0,0.0015690531581640244
512.0,0.0016093453159555793
576.0,0.0010888774413615465
640.0,0.0010138421785086393
704.0,0.0009498933795839548
768.0,0.0009836165700107813
832.0,0.00044778449228033423
896.0,-0.0015269655268639326
960.0,-0.003000443335622549
1024.0,-0.0037249005399644375
1152.0,-0.003696054220199585
1280.0,-0.004459276795387268
1408.0,-0.002600987907499075
1536.0,-0.0013417800655588508
1664.0,-0.0009064318728633225
1792.0,-0.0010300102876499295
1920.0,-0.0012029482750222087
2048.0,-8.835467451717705e-05
2304.0,0.001802027109079063
2560.0,0.0012156569864600897
2816.0,0.0010702466825023293
3072.0,0.00041444002999924123
3328.0,-0.0009702586103230715
3584.0,-0.0037128932308405638
3840.0,-0.0048489938490092754
4096.0,-0.002938070334494114
4608.0,-0.0005711181438528001
5120.0,-0.0008023619302548468
5632.0,0.0011396555928513408
6144.0,-0.0012369387550279498
6656.0,-0.0010079927742481232
7168.0,0.0017326059751212597
7680.0,0.0022051255218684673
8192.0,0.0017925796564668417
9216.0,-0.0015542729524895549
10240.0,0.0016364502953365445
11264.0,-0.005572664085775614
12288.0,0.005216970574110746
13312.0,-0.0014000649098306894
14336.0,0.001410208991728723
end
