version,3.0
numOfCh,1
type,point
parent_name,4-cuts
ch_type,1_1
kcount,1
numberNandB,1
brightnessNandB,1
carpet pos,0
pc,0
Time (ms),CH1 Auto-Correlation
1.0,0.06156730279326439
2.0,0.06115403771400452
3.0,0.060742396861314774
4.0,0.06033060699701309
5.0,0.05992387980222702
6.0,0.059513721615076065
7.0,0.059109561145305634
8.0,0.05870573967695236
9.0,0.05829703062772751
10.0,0.05789602920413017
11.0,0.05751374363899231
12.0,0.0571422316133976
13.0,0.05677967891097069
14.0,0.056425515562295914
15.0,0.056077923625707626
16.0,0.055732253938913345
18.0,0.05504335090517998
20.0,0.054380640387535095
22.0,0.05371783301234245
24.0,0.05307161062955856
26.0,0.05244703218340874
28.0,0.051848676055669785
30.0,0.051243677735328674
32.0,0.05065518245100975
36.0,0.04949655756354332
40.0,0.04835088923573494
44.0,0.04718075320124626
48.0,0.04605390504002571
52.0,0.04494917765259743
56.0,0.043858602643013
60.0,0.042765744030475616
64.0,0.04168025031685829
72.0,0.03966190665960312
80.0,0.037862587720155716
88.0,0.03630158677697182
96.0,0.03493187576532364
104.0,0.03374549001455307
112.0,0.03257172554731369
120.0,0.0312171820551157
128.0,0.029821546748280525
144.0,0.027606088668107986
160.0,0.02555195987224579
176.0,0.023520832881331444
192.0,0.021892238408327103
208.0,0.02039949968457222
224.0,0.01867084763944149
240.0,0.017192261293530464
256.0,0.015718430280685425
288.0,0.012468622997403145
320.0,0.010689366608858109
352.0,0.009672810323536396
384.0,0.009117747657001019
416.0,0.009402113035321236
448.0,0.009462108835577965
480.0,0.009008895605802536
512.0,0.008609157986938953
576.0,0.008271700702607632
640.0,0.005769738461822271
704.0,0.003950810059905052
768.0,0.004787062760442495
832.0,0.0049940492026507854
896.0,0.004603136330842972
960.0,0.0029626775067299604
1024.0,0.001493630581535399
1152.0,-0.00039872017805464566
1280.0,0.000548939686268568
1408.0,-0.0015747310826554894
1536.0,-0.003736750688403845
1664.0,-0.006577361840754747
1792.0,-0.008980811573565006
1920.0,-0.013189480639994144
2048.0,-0.013340682722628117
2304.0,-0.010623889043927193
2560.0,-0.008548885583877563
2816.0,-0.006513276137411594
3072.0,-0.005776253063231707
3328.0,-0.003849966684356332
3584.0,0.0008310960256494582
3840.0,0.005406273063272238
4096.0,0.0005502401036210358
4608.0,-0.0029301440808922052
5120.0,6.877021951368079e-05
5632.0,-0.0017066122964024544
6144.0,0.00242850324138999
6656.0,0.00640203058719635
7168.0,0.0015916612464934587
7680.0,0.0017256231512874365
8192.0,0.0007090640719980001
9216.0,0.00036675037699751556
10240.0,0.001518084085546434
11264.0,-0.02004222944378853
12288.0,-0.013363107107579708
13312.0,0.016824962571263313
14336.0,0.016403021290898323
end
