version,3.0
numOfCh,1
type,point
parent_name,4-cuts
ch_type,1_1
kcount,1
numberNandB,1
brightnessNandB,1
carpet pos,0
pc,0
Time (ms),CH1 Auto-Correlation
1.0,0.027139876037836075
2.0,0.026935113593935966
3.0,0.026730066165328026
4.0,0.026523780077695847
5.0,0.026320094242691994
6.0,0.026116451248526573
7.0,0.02591179497539997
8.0,0.025711771100759506
9.0,0.025515630841255188
10.0,0.02532321773469448
11.0,0.025136832147836685
12.0,0.024951210245490074
13.0,0.02477332577109337
14.0,0.024593031033873558
15.0,0.024409417062997818
16.0,0.024226855486631393
18.0,0.023877820000052452
20.0,0.023536844179034233
22.0,0.02319973334670067
24.0,0.022868206724524498
26.0,0.022546693682670593
28.0,0.0222393237054348
30.0,0.021946700289845467
32.0,0.021655358374118805
36.0,0.021101688966155052
40.0,0.020572597160935402
44.0,0.02008921094238758
48.0,0.019616901874542236
52.0,0.01914990320801735
56.0,0.018674155697226524
60.0,0.018224315717816353
64.0,0.017792144790291786
72.0,0.016942715272307396
80.0,0.016054559499025345
88.0,0.015195087529718876
96.0,0.01439660880714655
104.0,0.013621335849165916
112.0,0.012944788672029972
120.0,0.012336068786680698
128.0,0.011717845685780048
144.0,0.010585904121398926
160.0,0.009475280530750751
176.0,0.008314093574881554
192.0,0.007240280508995056
208.0,0.006156700663268566
224.0,0.005258126184344292
240.0,0.004606562200933695
256.0,0.003957187756896019
288.0,0.003016707021743059
320.0,0.001680806395597756
352.0,0.00013083452358841896
384.0,-0.0013826838694512844
416.0,-0.002899301704019308
448.0,-0.003749997355043888
480.0,-0.004328818991780281
512.0,-0.004641217179596424
576.0,-0.0038908938877284527
640.0,-0.0029783511999994516
704.0,-0.002334777032956481
768.0,-0.001987265422940254
832.0,-0.0009064783807843924
896.0,0.0010174185736104846
960.0,0.0018352022161707282
1024.0,0.001231952104717493
1152.0,0.0009584540384821594
1280.0,0.0007623565616086125
1408.0,0.0009801071137189865
1536.0,-0.0005718099419027567
1664.0,-0.005104165058583021
1792.0,-0.005793125834316015
1920.0,-0.0061159501783549786
2048.0,-0.004055915400385857
2304.0,0.0012998534366488457
2560.0,0.002012397861108184
2816.0,0.00020096923981327564
3072.0,-0.0028677014634013176
3328.0,-0.00010881323396461084
3584.0,0.0008634089608676732
3840.0,-0.0017400820506736636
4096.0,-0.00461733341217041
4608.0,0.0009645614773035049
5120.0,0.0002450680476613343
5632.0,0.0016168939182534814
6144.0,0.0023779135663062334
6656.0,0.0017606670735403895
7168.0,0.0010680833365768194
7680.0,0.0013809220399707556
8192.0,-0.004301011562347412
9216.0,-0.0027783976402133703
10240.0,0.000845705100800842
11264.0,-0.0001607404265087098
12288.0,0.0007533630705438554
13312.0,0.0008414449985139072
14336.0,-0.0008264839416369796
end
