version,3.0
numOfCh,1
type,point
parent_name,4-cuts
ch_type,1_1
kcount,1
numberNandB,1
brightnessNandB,1
carpet pos,0
pc,0
Time (ms),CH1 Auto-Correlation
1.0,0.02473266050219536
2.0,0.02453727275133133
3.0,0.024342285469174385
4.0,0.024149682372808456
5.0,0.023958688601851463
6.0,0.023768091574311256
7.0,0.023584263399243355
8.0,0.02340010367333889
9.0,0.023217206820845604
10.0,0.02303474210202694
11.0,0.022852176800370216
12.0,0.02266848087310791
13.0,0.022487152367830276
14.0,0.022305885329842567
15.0,0.02212369628250599
16.0,0.021947072818875313
18.0,0.0215940922498703
20.0,0.02124815247952938
22.0,0.02091088518500328
24.0,0.02058969996869564
26.0,0.020270604640245438
28.0,0.019949879497289658
30.0,0.01962493546307087
32.0,0.019306819885969162
36.0,0.01870036870241165
40.0,0.01811308227479458
44.0,0.017528340220451355
48.0,0.016971711069345474
52.0,0.016429079696536064
56.0,0.015876688063144684
60.0,0.015325390733778477
64.0,0.014794965274631977
72.0,0.01375508215278387
80.0,0.01279519498348236
88.0,0.011862126179039478
96.0,0.01100905891507864
104.0,0.010178991593420506
112.0,0.009414195083081722
120.0,0.008756829425692558
128.0,0.008124811574816704
144.0,0.006873816717416048
160.0,0.005761941894888878
176.0,0.005039078649133444
192.0,0.00448249327018857
208.0,0.0037684435956180096
224.0,0.002985358703881502
240.0,0.002399634337052703
256.0,0.0019564214162528515
288.0,0.0014535466907545924
320.0,0.0009751316974870861
352.0,-1.4859679140499793e-05
384.0,-0.0008178785210475326
416.0,-0.00117984670214355
448.0,-0.0010330539662390947
480.0,-0.0007360587478615344
512.0,-0.0004284182214178145
576.0,-0.0001461939245928079
640.0,-0.0003661575319711119
704.0,-0.0005824496620334685
768.0,-0.001151610747911036
832.0,-0.0007463027141056955
896.0,-2.9106689908076078e-05
960.0,0.00011269431706750765
1024.0,-0.00031628707074560225
1152.0,-0.0017429582076147199
1280.0,-0.001051632221788168
1408.0,0.002091791946440935
1536.0,0.0020020119845867157
1664.0,0.001360623398795724
1792.0,0.0012589142424985766
1920.0,0.0014520363183692098
2048.0,0.0006656783516518772
2304.0,-0.0010485653765499592
2560.0,-5.90413183090277e-05
2816.0,0.0008698075544089079
3072.0,0.00291272415779531
3328.0,0.0012254375033080578
3584.0,0.0014701184118166566
3840.0,0.0029668298084288836
4096.0,0.000968816049862653
4608.0,4.1724630136741325e-05
5120.0,-0.003143155248835683
5632.0,-0.0002202025061706081
6144.0,0.0007647897000424564
6656.0,-0.0022614405024796724
7168.0,-0.00035786311491392553
7680.0,0.0006709159351885319
8192.0,-0.0013596079079434276
9216.0,-0.0022118412889540195
10240.0,-0.001136386301368475
11264.0,-0.0009088178048841655
12288.0,-0.001408570446074009
13312.0,-0.0009614410228095949
14336.0,0.0005407937569543719
end
