version,3.0
numOfCh,1
type,point
parent_name,4-cuts
ch_type,1_1
kcount,1
numberNandB,1
brightnessNandB,1
carpet pos,0
pc,0
Time (ms),CH1 Auto-Correlation
1.0,0.028569664806127548
2.0,0.028365911915898323
3.0,0.028166232630610466
4.0,0.027968937531113625
5.0,0.027771497145295143
6.0,0.027571432292461395
7.0,0.02737118862569332
8.0,0.027176275849342346
9.0,0.02697988785803318
10.0,0.026782672852277756
11.0,0.026581136509776115
12.0,0.026378678157925606
13.0,0.026181863620877266
14.0,0.02598726935684681
15.0,0.02579340711236
16.0,0.025602875277400017
18.0,0.02521885745227337
20.0,0.024834375828504562
22.0,0.024445809423923492
24.0,0.02405618689954281
26.0,0.023673515766859055
28.0,0.02330603636801243
30.0,0.02295234613120556
32.0,0.02260282076895237
36.0,0.02191195823252201
40.0,0.021250193938612938
44.0,0.020602846518158913
48.0,0.019971519708633423
52.0,0.019382527098059654
56.0,0.018816327676177025
60.0,0.018261445686221123
64.0,0.017706871032714844
72.0,0.016647018492221832
80.0,0.015677472576498985
88.0,0.014737017452716827
96.0,0.013837035745382309
104.0,0.01298445463180542
112.0,0.012159558944404125
120.0,0.011357125826179981
128.0,0.010585382580757141
144.0,0.00923334714025259
160.0,0.008198468014597893
176.0,0.0074351467192173
192.0,0.006789966952055693
208.0,0.006267357151955366
224.0,0.005761698354035616
240.0,0.005233952775597572
256.0,0.004722888115793467
288.0,0.004019702319055796
320.0,0.0028331514913588762
352.0,0.001896537491120398
384.0,0.0010027677053585649
416.0,0.00042558106360957026
448.0,0.00012449196947272867
480.0,0.00025935409939847887
512.0,0.0005958621622994542
576.0,0.0004445875238161534
640.0,-0.0001298256975132972
704.0,-0.0009167476673610508
768.0,-0.0012721216771751642
832.0,-0.0010060432832688093
896.0,0.0007880093762651086
960.0,0.0018964114133268595
1024.0,0.0013488095719367266
1152.0,-3.2848663522599963e-06
1280.0,-3.140557964798063e-05
1408.0,0.000861412612721324
1536.0,-0.000158577662659809
1664.0,-0.0030416129156947136
1792.0,-0.005378466099500656
1920.0,-0.004238410387188196
2048.0,-0.0026479666121304035
2304.0,0.0015261390944942832
2560.0,0.0024584373459219933
2816.0,0.001127843395806849
3072.0,-0.0048111798241734505
3328.0,-0.004909563809633255
3584.0,-0.0010851932456716895
3840.0,0.0041738529689610004
4096.0,0.0018890739884227514
4608.0,-0.000429805601015687
5120.0,0.0035594564396888018
5632.0,9.85818769549951e-05
6144.0,0.0010112910531461239
6656.0,-0.003740439424291253
7168.0,-0.007989375852048397
7680.0,-0.0027091873344033957
8192.0,-0.0017913307528942823
9216.0,-0.00027490637148730457
10240.0,0.0038589630275964737
11264.0,-0.0010854819556698203
12288.0,-0.0028984262607991695
13312.0,-0.0013792436802759767
14336.0,0.009806027635931969
end
