version,3.0
numOfCh,1
type,point
parent_name,4-cuts
ch_type,1_1
kcount,1
numberNandB,1
brightnessNandB,1
carpet pos,0
pc,0
Time (ms),CH1 Auto-Correlation
1.0,0.03780616819858551
2.0,0.03760921210050583
3.0,0.03741446137428284
4.0,0.037219271063804626
5.0,0.03702380135655403
6.0,0.036831334233284
7.0,0.0366460420191288
8.0,0.036461252719163895
9.0,0.03628486767411232
10.0,0.03611296787858009
11.0,0.035943955183029175
12.0,0.03577817231416702
13.0,0.03561542555689812
14.0,0.035453103482723236
15.0,0.03528914228081703
16.0,0.03512692451477051
18.0,0.034810930490493774
20.0,0.03450261801481247
22.0,0.03421199321746826
24.0,0.03392590209841728
26.0,0.03364628553390503
28.0,0.03336034715175629
30.0,0.03307228907942772
32.0,0.03278538957238197
36.0,0.03224356845021248
40.0,0.03172515705227852
44.0,0.031202474609017372
48.0,0.030669696629047394
52.0,0.0301604475826025
56.0,0.0296768955886364
60.0,0.029207542538642883
64.0,0.028756417334079742
72.0,0.027844995260238647
80.0,0.0269396360963583
88.0,0.026115266606211662
96.0,0.025242337957024574
104.0,0.024286411702632904
112.0,0.02338327281177044
120.0,0.022575460374355316
128.0,0.021876316517591476
144.0,0.02066599391400814
160.0,0.019701458513736725
176.0,0.01898428425192833
192.0,0.018375303596258163
208.0,0.017907526344060898
224.0,0.017587337642908096
240.0,0.01747419312596321
256.0,0.017462048679590225
288.0,0.01706749200820923
320.0,0.016529932618141174
352.0,0.016027629375457764
384.0,0.014955645427107811
416.0,0.013986573554575443
448.0,0.013089493848383427
480.0,0.012336802668869495
512.0,0.011999199166893959
576.0,0.011645016260445118
640.0,0.011676737107336521
704.0,0.012066757306456566
768.0,0.012356611900031567
832.0,0.011588105000555515
896.0,0.009682516567409039
960.0,0.007829142734408379
1024.0,0.0069956365041434765
1152.0,0.007100075017660856
1280.0,0.005050471052527428
1408.0,0.0036649855319410563
1536.0,0.004809612408280373
1664.0,0.005299996118992567
1792.0,0.005830868147313595
1920.0,0.00412128446623683
2048.0,0.003278074786067009
2304.0,0.003121644025668502
2560.0,0.004783103242516518
2816.0,0.0010641549015417695
3072.0,-0.001826434163376689
3328.0,0.000485703261801973
3584.0,0.001367973512969911
3840.0,-0.0004330186056904495
4096.0,0.0008693746058270335
4608.0,-9.482015593675897e-05
5120.0,-0.0035207108594477177
5632.0,-0.009132360108196735
6144.0,-0.015326599590480328
6656.0,-0.016238998621702194
7168.0,-0.016944248229265213
7680.0,-0.012002674862742424
8192.0,-0.0059038070030510426
9216.0,-0.006013033911585808
10240.0,0.0002957398828584701
11264.0,-0.000671733112540096
12288.0,-0.0004854770959354937
13312.0,0.016228068619966507
14336.0,-2.636064891703427e-05
end
