version,3.0
numOfCh,1
type,point
parent_name,4-cuts
ch_type,1_1
kcount,1
numberNandB,1
brightnessNandB,1
carpet pos,0
pc,0
Time (ms),CH1 Auto-Correlation
1.0,0.03467661514878273
2.0,0.03446849063038826
3.0,0.03426099568605423
4.0,0.0340535044670105
5.0,0.03383916988968849
6.0,0.033623937517404556
7.0,0.03340717405080795
8.0,0.0331890843808651
9.0,0.03297901153564453
10.0,0.03276912122964859
11.0,0.03256114572286606
12.0,0.032353632152080536
13.0,0.032148513942956924
14.0,0.031940627843141556
15.0,0.031737059354782104
16.0,0.03152868151664734
18.0,0.031126737594604492
20.0,0.03073609620332718
22.0,0.030349835753440857
24.0,0.029965708032250404
26.0,0.02959842048585415
28.0,0.029244890436530113
30.0,0.028900444507598877
32.0,0.02856268920004368
36.0,0.02792401798069477
40.0,0.027333170175552368
44.0,0.026787366718053818
48.0,0.02627229131758213
52.0,0.0257691890001297
56.0,0.025300079956650734
60.0,0.02482890896499157
64.0,0.024363959208130836
72.0,0.0235295407474041
80.0,0.022813893854618073
88.0,0.02215871587395668
96.0,0.021557945758104324
104.0,0.021037131547927856
112.0,0.020586960017681122
120.0,0.020157039165496826
128.0,0.019688956439495087
144.0,0.018720010295510292
160.0,0.01786062866449356
176.0,0.01710493117570877
192.0,0.01648918353021145
208.0,0.016042599454522133
224.0,0.01567838340997696
240.0,0.015515772625803947
256.0,0.015209426172077656
288.0,0.014146390371024609
320.0,0.013438514433801174
352.0,0.012683057226240635
384.0,0.011828354559838772
416.0,0.010945324786007404
448.0,0.010591108351945877
480.0,0.010538440197706223
512.0,0.010437221266329288
576.0,0.009452844969928265
640.0,0.007588003762066364
704.0,0.005991959944367409
768.0,0.004185859579592943
832.0,0.003236600197851658
896.0,0.0027028473559767008
960.0,0.001280977507121861
1024.0,-0.0019647039007395506
1152.0,-0.00560035789385438
1280.0,-0.007311925292015076
1408.0,-0.00841321237385273
1536.0,-0.009567508473992348
1664.0,-0.012069438584148884
1792.0,-0.011476395651698112
1920.0,-0.009267262183129787
2048.0,-0.00842238124459982
2304.0,-0.006203660741448402
2560.0,-0.0025776848196983337
2816.0,0.0002228244993602857
3072.0,0.004404633305966854
3328.0,0.007987432181835175
3584.0,0.008107485249638557
3840.0,0.007356411311775446
4096.0,0.007219051476567984
4608.0,-0.0003467098867986351
5120.0,-0.006828388199210167
5632.0,-0.011344905942678452
6144.0,-0.011129872873425484
6656.0,-0.004459453281015158
7168.0,0.004595839884132147
7680.0,0.011790655553340912
8192.0,0.010377680882811546
9216.0,-0.010502485558390617
10240.0,-0.004120517987757921
11264.0,0.013273517601191998
12288.0,-0.002575402846559882
13312.0,-0.012906850315630436
14336.0,0.0063875047490000725
end
