version,3.0
numOfCh,1
type,point
parent_name,4-cuts
ch_type,1_1
kcount,1
numberNandB,1
brightnessNandB,1
carpet pos,0
pc,0
Time (ms),CH1 Auto-Correlation
1.0,0.05911644920706749
2.0,0.058550845831632614
3.0,0.05797743797302246
4.0,0.05741811543703079
5.0,0.0568656399846077
6.0,0.05632784962654114
7.0,0.0558047816157341
8.0,0.05529109761118889
9.0,0.054781585931777954
10.0,0.05426861718297005
11.0,0.053766727447509766
12.0,0.053273096680641174
13.0,0.05277722701430321
14.0,0.05227315053343773
15.0,0.051771823316812515
16.0,0.05127689242362976
18.0,0.050308775156736374
20.0,0.04935469478368759
22.0,0.048434581607580185
24.0,0.047507211565971375
26.0,0.046602848917245865
28.0,0.045698169618844986
30.0,0.044820379465818405
32.0,0.04398810863494873
36.0,0.04240291193127632
40.0,0.040848128497600555
44.0,0.039401594549417496
48.0,0.03805078938603401
52.0,0.03672201558947563
56.0,0.03538203611969948
60.0,0.03414271026849747
64.0,0.03298254683613777
72.0,0.03073068894445896
80.0,0.02854989655315876
88.0,0.026530686765909195
96.0,0.024645481258630753
104.0,0.022882454097270966
112.0,0.02101122960448265
120.0,0.01924501731991768
128.0,0.01798917166888714
144.0,0.01598300412297249
160.0,0.014575811102986336
176.0,0.013569897972047329
192.0,0.012336775660514832
208.0,0.011208290234208107
224.0,0.01035506371408701
240.0,0.009304559789597988
256.0,0.008097227662801743
288.0,0.005514524877071381
320.0,0.003715031547471881
352.0,0.0012693814933300018
384.0,0.0009614877635613084
416.0,0.0016914973966777325
448.0,0.003665367839857936
480.0,0.005830816924571991
512.0,0.005548233166337013
576.0,0.004036575555801392
640.0,0.001352065708488226
704.0,-0.0009512057295069098
768.0,-0.000986997620202601
832.0,-0.000863915600348264
896.0,0.0021524946205317974
960.0,0.0044180722907185555
1024.0,0.0016253100475296378
1152.0,-0.005543774925172329
1280.0,-0.00835410039871931
1408.0,-0.004710163921117783
1536.0,-0.004462001379579306
1664.0,-0.004943914711475372
1792.0,-0.005787314847111702
1920.0,4.825836185773369e-06
2048.0,0.0010062606306746602
2304.0,-0.009409653022885323
2560.0,-0.010029172524809837
2816.0,0.0014473937917500734
3072.0,0.002193620428442955
3328.0,0.0023120620753616095
3584.0,0.0013172684703022242
3840.0,0.0009394753724336624
4096.0,-0.004237401764839888
4608.0,0.002497999230399728
5120.0,0.005226016044616699
5632.0,-0.007358347997069359
6144.0,-0.003807306755334139
6656.0,0.0003683451795950532
7168.0,-0.00034079881152138114
7680.0,-0.0025777879636734724
8192.0,0.007022315636277199
9216.0,-0.0019973560702055693
10240.0,0.01055083703249693
11264.0,-0.007121149450540543
12288.0,-0.009289517998695374
13312.0,0.00307858525775373
14336.0,-0.01067748386412859
end
