version,3.0
numOfCh,1
type,point
parent_name,4-cuts
ch_type,1_1
kcount,1
numberNandB,1
brightnessNandB,1
carpet pos,0
pc,0
Time (ms),CH1 Auto-Correlation
1.0,0.02466125227510929
2.0,0.024447843432426453
3.0,0.02423958294093609
4.0,0.02403588965535164
5.0,0.023833906278014183
6.0,0.02363862283527851
7.0,0.023440225049853325
8.0,0.023249560967087746
9.0,0.023059887811541557
10.0,0.022868428379297256
11.0,0.022679205983877182
12.0,0.022491976618766785
13.0,0.022305738180875778
14.0,0.02211948111653328
15.0,0.021933114156126976
16.0,0.021753821521997452
18.0,0.02141045592725277
20.0,0.02106923609972
22.0,0.020739519968628883
24.0,0.020423345267772675
26.0,0.02012447454035282
28.0,0.019830085337162018
30.0,0.019537586718797684
32.0,0.019258050248026848
36.0,0.018709823489189148
40.0,0.018181707710027695
44.0,0.01767611876130104
48.0,0.01719300076365471
52.0,0.016728676855564117
56.0,0.0162909384816885
60.0,0.01586838625371456
64.0,0.015456787310540676
72.0,0.01473107561469078
80.0,0.01405089721083641
88.0,0.01346198096871376
96.0,0.01286803837865591
104.0,0.012278260663151741
112.0,0.011674829758703709
120.0,0.011115971021354198
128.0,0.010635879822075367
144.0,0.009828539565205574
160.0,0.009137427434325218
176.0,0.008374138735234737
192.0,0.007641705218702555
208.0,0.0068807112984359264
224.0,0.006115470081567764
240.0,0.005264002829790115
256.0,0.004586560185998678
288.0,0.004097568336874247
320.0,0.003381159622222185
352.0,0.0026518970262259245
384.0,0.0020684446208178997
416.0,0.0014393951278179884
448.0,0.0005825120024383068
480.0,-0.00030766247073188424
512.0,-0.000802168040536344
576.0,-0.0006448067142628133
640.0,0.00014984763402026147
704.0,0.0009370744228363037
768.0,0.0008919412503018975
832.0,0.0001688104384811595
896.0,0.00023831755970604718
960.0,0.0012486939085647464
1024.0,0.001055423403158784
1152.0,-0.0001568794687045738
1280.0,-0.0024005703162401915
1408.0,-0.004110782407224178
1536.0,-0.005475734826177359
1664.0,-0.005967190954834223
1792.0,-0.005531435366719961
1920.0,-0.003123824717476964
2048.0,-0.0007515368633903563
2304.0,0.0009045437327586114
2560.0,-0.0009457959095016122
2816.0,0.0007484222296625376
3072.0,0.0038945940323174
3328.0,0.0021446479950100183
3584.0,0.00013229693286120892
3840.0,-3.7852329114684835e-05
4096.0,-0.000306479400023818
4608.0,-0.003396705025807023
5120.0,-0.0019054401200264692
5632.0,-0.001970682293176651
6144.0,0.002081997925415635
6656.0,0.002107083098962903
7168.0,0.004741464741528034
7680.0,0.002656190888956189
8192.0,-0.0022940838243812323
9216.0,-0.0028902068734169006
10240.0,0.0013213473139330745
11264.0,-0.0036320099607110023
12288.0,0.0014691944234073162
13312.0,0.00013925494567956775
14336.0,-0.002806277247145772
end
