version,3.0
numOfCh,1
type,point
parent_name,4-cuts
ch_type,1_1
kcount,1
numberNandB,1
brightnessNandB,1
carpet pos,0
pc,0
Time (ms),CH1 Auto-Correlation
1.0,0.06601198017597198
2.0,0.0655684620141983
3.0,0.06512006372213364
4.0,0.06466894596815109
5.0,0.0642283707857132
6.0,0.06379488110542297
7.0,0.06336959451436996
8.0,0.06294911354780197
9.0,0.06253523379564285
10.0,0.06212908774614334
11.0,0.06171780452132225
12.0,0.06131291389465332
13.0,0.06091415509581566
14.0,0.06052266061306
15.0,0.0601341612637043
16.0,0.05975072830915451
18.0,0.05901367962360382
20.0,0.058298639953136444
22.0,0.05760810151696205
24.0,0.05691974610090256
26.0,0.056250572204589844
28.0,0.055619027465581894
30.0,0.0550115704536438
32.0,0.05440841615200043
36.0,0.053251832723617554
40.0,0.05215557664632797
44.0,0.05111633241176605
48.0,0.05014314502477646
52.0,0.04920153319835663
56.0,0.04827991500496864
60.0,0.04737385734915733
64.0,0.04657003656029701
72.0,0.04513039439916611
80.0,0.043678365647792816
88.0,0.04226554185152054
96.0,0.04100963845849037
104.0,0.03972902148962021
112.0,0.038470081984996796
120.0,0.037385955452919006
128.0,0.0364375077188015
144.0,0.03438612073659897
160.0,0.03270561620593071
176.0,0.031503818929195404
192.0,0.029991958290338516
208.0,0.027961449697613716
224.0,0.02607457898557186
240.0,0.024740232154726982
256.0,0.023866670206189156
288.0,0.022159801796078682
320.0,0.0206022746860981
352.0,0.01914038322865963
384.0,0.01784631982445717
416.0,0.017076052725315094
448.0,0.017284560948610306
480.0,0.017679264768958092
512.0,0.017923349514603615
576.0,0.016426805406808853
640.0,0.013709542341530323
704.0,0.009720686823129654
768.0,0.005149162374436855
832.0,0.002251580823212862
896.0,-0.001683856942690909
960.0,-0.004707027226686478
1024.0,-0.006227579433470964
1152.0,-0.006775770336389542
1280.0,-0.006208582315593958
1408.0,-0.008047958835959435
1536.0,-0.008692624047398567
1664.0,-0.009771606884896755
1792.0,-0.012479974888265133
1920.0,-0.015085287392139435
2048.0,-0.014012228697538376
2304.0,-0.007663897704333067
2560.0,-0.007441751658916473
2816.0,-0.008185689337551594
3072.0,-0.01083159726113081
3328.0,-0.012282020412385464
3584.0,-0.011483626440167427
3840.0,-0.003805424552410841
4096.0,0.009066340513527393
4608.0,0.02222108095884323
5120.0,0.014170024544000626
5632.0,0.0023342373315244913
6144.0,-0.00344257615506649
6656.0,-0.00029551811167038977
7168.0,-1.4447068679146469e-05
7680.0,-0.010629571042954922
8192.0,-0.013762010261416435
9216.0,0.0034562302753329277
10240.0,-0.00031278288224712014
11264.0,0.001602037576958537
12288.0,-0.011164382100105286
13312.0,-0.010493958368897438
14336.0,0.011614544317126274
end
