version,3.0
numOfCh,1
type,point
parent_name,4-cuts
ch_type,1_1
kcount,1
numberNandB,1
brightnessNandB,1
carpet pos,0
pc,0
Time (ms),CH1 Auto-Correlation
1.0,0.07894562929868698
2.0,0.07835229486227036
3.0,0.07775935530662537
4.0,0.07717648148536682
5.0,0.07661502063274384
6.0,0.07606485486030579
7.0,0.07551413774490356
8.0,0.0749703049659729
9.0,0.07444962114095688
10.0,0.07394732534885406
11.0,0.07344629615545273
12.0,0.07295975089073181
13.0,0.07248599082231522
14.0,0.07200232148170471
15.0,0.07150855660438538
16.0,0.0710161030292511
18.0,0.07005327194929123
20.0,0.06911468505859375
22.0,0.06816906481981277
24.0,0.06724551320075989
26.0,0.06635189056396484
28.0,0.06548929959535599
30.0,0.0646146684885025
32.0,0.0637531727552414
36.0,0.06197405606508255
40.0,0.06015699356794357
44.0,0.05838317051529884
48.0,0.05670153722167015
52.0,0.05513513833284378
56.0,0.05356428399682045
60.0,0.05208553746342659
64.0,0.05072161555290222
72.0,0.048159267753362656
80.0,0.045720405876636505
88.0,0.04357665777206421
96.0,0.04165913909673691
104.0,0.04002275690436363
112.0,0.03844672814011574
120.0,0.0369674414396286
128.0,0.03573361039161682
144.0,0.03306712955236435
160.0,0.030781295150518417
176.0,0.02873862534761429
192.0,0.026411913335323334
208.0,0.024491632357239723
224.0,0.023270361125469208
240.0,0.022277839481830597
256.0,0.021462008357048035
288.0,0.019630344584584236
320.0,0.017357459291815758
352.0,0.014996454119682312
384.0,0.013619961217045784
416.0,0.012457463890314102
448.0,0.012309952639043331
480.0,0.011854646727442741
512.0,0.011000062339007854
576.0,0.00801694206893444
640.0,0.0035902191884815693
704.0,0.003314059693366289
768.0,0.0033062887378036976
832.0,0.0004051370779052377
896.0,-0.003743845736607909
960.0,-0.008170287124812603
1024.0,-0.009083453565835953
1152.0,-0.005662122275680304
1280.0,-0.0035460577346384525
1408.0,-0.0010849456302821636
1536.0,0.0010401386534795165
1664.0,-0.004696753807365894
1792.0,-0.009238369762897491
1920.0,-0.008304483257234097
2048.0,-0.008813566528260708
2304.0,-0.01761051081120968
2560.0,-0.007170796860009432
2816.0,-0.0068382322788238525
3072.0,-0.006834396161139011
3328.0,-0.004099579062312841
3584.0,-0.008407880552113056
3840.0,-0.004367461893707514
4096.0,0.009222380816936493
4608.0,0.009508231654763222
5120.0,0.004735212307423353
5632.0,0.004580163862556219
6144.0,0.0014434490585699677
6656.0,-0.001399285509251058
7168.0,-0.006230773404240608
7680.0,-0.01319598313421011
8192.0,-0.011858496814966202
9216.0,0.005361609160900116
10240.0,0.009304912760853767
11264.0,-0.0027797212824225426
12288.0,-0.006440696306526661
13312.0,0.002540750429034233
14336.0,0.00041489946306683123
end
