version,3.0
numOfCh,1
type,point
parent_name,4-cuts
ch_type,1_1
kcount,1
numberNandB,1
brightnessNandB,1
carpet pos,0
pc,0
Time (ms),CH1 Auto-Correlation
1.0,0.07207389175891876
2.0,0.07156963646411896
3.0,0.07107118517160416
4.0,0.0705668106675148
5.0,0.07006346434354782
6.0,0.06957469135522842
7.0,0.0690898597240448
8.0,0.06861492991447449
9.0,0.06814521551132202
10.0,0.06767067313194275
11.0,0.06718841195106506
12.0,0.06671673059463501
13.0,0.06624424457550049
14.0,0.06579139828681946
15.0,0.06534803658723831
16.0,0.06489986181259155
18.0,0.0640246719121933
20.0,0.06317992508411407
22.0,0.062350742518901825
24.0,0.06157964840531349
26.0,0.060812149196863174
28.0,0.06002521514892578
30.0,0.059229206293821335
32.0,0.0584387369453907
36.0,0.05691590905189514
40.0,0.055502619594335556
44.0,0.05413741618394852
48.0,0.052809979766607285
52.0,0.051545608788728714
56.0,0.05031176283955574
60.0,0.04910638928413391
64.0,0.047979168593883514
72.0,0.04590460658073425
80.0,0.043837837874889374
88.0,0.04188179597258568
96.0,0.04014847055077553
104.0,0.03856722265481949
112.0,0.03710838407278061
120.0,0.03560812026262283
128.0,0.034132469445466995
144.0,0.03184038773179054
160.0,0.03017513081431389
176.0,0.028448041528463364
192.0,0.026121124625205994
208.0,0.023303689435124397
224.0,0.02075771987438202
240.0,0.018442826345562935
256.0,0.016665462404489517
288.0,0.01418478973209858
320.0,0.012230312451720238
352.0,0.010982534848153591
384.0,0.009506895206868649
416.0,0.007848481647670269
448.0,0.007361604366451502
480.0,0.006621558219194412
512.0,0.005231308285146952
576.0,2.2722304493072443e-05
640.0,-0.002373909344896674
704.0,-0.002158574992790818
768.0,0.00011231823009438813
832.0,0.001553568639792502
896.0,0.0016975696198642254
960.0,0.00036642482155002654
1024.0,0.00040642180829308927
1152.0,0.0006840347778052092
1280.0,0.0009827878093346953
1408.0,-0.005461816675961018
1536.0,-0.013630676083266735
1664.0,-0.0142420819029212
1792.0,-0.009307083673775196
1920.0,-0.005708156619220972
2048.0,-0.004907000809907913
2304.0,0.0013688992476090789
2560.0,0.00604940066114068
2816.0,0.007330466061830521
3072.0,0.007391948718577623
3328.0,0.008521649986505508
3584.0,0.01057294849306345
3840.0,0.007530150935053825
4096.0,0.008043606765568256
4608.0,-0.00403336388990283
5120.0,-0.009119095280766487
5632.0,-0.0024696162436157465
6144.0,-0.0036838073283433914
6656.0,0.009651100262999535
7168.0,-0.0014797078911215067
7680.0,0.0013904509833082557
8192.0,-0.01312459260225296
9216.0,-0.007470370270311832
10240.0,-0.010064349509775639
11264.0,-0.006243894342333078
12288.0,-0.0032003154046833515
13312.0,-0.006233911029994488
14336.0,0.0009836797835305333
end
