version,3.0
numOfCh,1
type,point
parent_name,4-cuts
ch_type,1_1
kcount,1
numberNandB,1
brightnessNandB,1
carpet pos,0
pc,0
Time (ms),CH1 Auto-Correlation
1.0,0.059430744498968124
2.0,0.059001293033361435
3.0,0.05858569219708443
4.0,0.0581827387213707
5.0,0.05778271704912186
6.0,0.057385124266147614
7.0,0.056992873549461365
8.0,0.056597717106342316
9.0,0.05622139945626259
10.0,0.05585524067282677
11.0,0.05549720302224159
12.0,0.05513841658830643
13.0,0.05477605760097504
14.0,0.054422203451395035
15.0,0.054073214530944824
16.0,0.053709726780653
18.0,0.05300183966755867
20.0,0.052295804023742676
22.0,0.05160404369235039
24.0,0.05091042071580887
26.0,0.0502055287361145
28.0,0.049502525478601456
30.0,0.048790089786052704
32.0,0.048073433339595795
36.0,0.04671504721045494
40.0,0.045386701822280884
44.0,0.04409012198448181
48.0,0.04283634573221207
52.0,0.04162340611219406
56.0,0.04045860096812248
60.0,0.0393538624048233
64.0,0.03833536431193352
72.0,0.03642956167459488
80.0,0.034735310822725296
88.0,0.033183302730321884
96.0,0.031683724373579025
104.0,0.03011857159435749
112.0,0.028538567945361137
120.0,0.027085892856121063
128.0,0.025766611099243164
144.0,0.023321306332945824
160.0,0.021278105676174164
176.0,0.019873330369591713
192.0,0.018582435324788094
208.0,0.017262937501072884
224.0,0.016188666224479675
240.0,0.01553077157586813
256.0,0.01549504417926073
288.0,0.0165298692882061
320.0,0.0169112216681242
352.0,0.016495853662490845
384.0,0.015436396934092045
416.0,0.013568473979830742
448.0,0.011249201372265816
480.0,0.010219479911029339
512.0,0.008473074994981289
576.0,0.005379863549023867
640.0,0.0027209518011659384
704.0,0.0009560040780343115
768.0,-0.0008287291275337338
832.0,-0.0023735682480037212
896.0,-0.002488902537152171
960.0,-0.0018941183807328343
1024.0,-0.002715534996241331
1152.0,-0.0020181939471513033
1280.0,0.00233639613725245
1408.0,0.00923987291753292
1536.0,0.008749098517000675
1664.0,0.003621215932071209
1792.0,0.000977492076344788
1920.0,0.0016975408652797341
2048.0,-0.0013990041334182024
2304.0,-0.002352645853534341
2560.0,0.0024393450003117323
2816.0,0.0037621220108121634
3072.0,4.7062072553671896e-05
3328.0,-0.009483728557825089
3584.0,-0.018787074834108353
3840.0,-0.012211881577968597
4096.0,-0.003761254483833909
4608.0,-0.0043655396439135075
5120.0,-0.010440228506922722
5632.0,-0.0037215370684862137
6144.0,-0.0033327508717775345
6656.0,-0.002750982530415058
7168.0,0.00852610170841217
7680.0,0.006361423991620541
8192.0,-0.00029699670267291367
9216.0,0.007680954411625862
10240.0,0.0012765182182192802
11264.0,-0.008786257356405258
12288.0,-0.007332001347094774
13312.0,-0.007671130821108818
14336.0,-0.001830086694099009
end
