version,3.0
numOfCh,1
type,point
parent_name,4-cuts
ch_type,1_1
kcount,1
numberNandB,1
brightnessNandB,1
carpet pos,0
pc,0
Time (ms),CH1 Auto-Correlation
1.0,0.055254943668842316
2.0,0.054810553789138794
3.0,0.05438276007771492
4.0,0.0539606548845768
5.0,0.05354337766766548
6.0,0.05313015729188919
7.0,0.05271676182746887
8.0,0.05230322852730751
9.0,0.05190189555287361
10.0,0.05150733143091202
11.0,0.0511232428252697
12.0,0.05074772983789444
13.0,0.0503714494407177
14.0,0.05001584440469742
15.0,0.04966582730412483
16.0,0.049324676394462585
18.0,0.04864294454455376
20.0,0.04796890541911125
22.0,0.04731615260243416
24.0,0.046646613627672195
26.0,0.04599082097411156
28.0,0.045372508466243744
30.0,0.044758547097444534
32.0,0.04415188357234001
36.0,0.042982764542102814
40.0,0.041812267154455185
44.0,0.040657833218574524
48.0,0.03959835320711136
52.0,0.03863029554486275
56.0,0.037806909531354904
60.0,0.037095069885253906
64.0,0.0364435538649559
72.0,0.03521013632416725
80.0,0.03407570719718933
88.0,0.033168941736221313
96.0,0.032477278262376785
104.0,0.03172536939382553
112.0,0.030753569677472115
120.0,0.029894165694713593
128.0,0.029126832261681557
144.0,0.027703065425157547
160.0,0.025986574590206146
176.0,0.024057822301983833
192.0,0.022069808095693588
208.0,0.020321333780884743
224.0,0.018747584894299507
240.0,0.01729677990078926
256.0,0.01573394238948822
288.0,0.013173523359000683
320.0,0.011492601595818996
352.0,0.009451762773096561
384.0,0.007102865260094404
416.0,0.005968043580651283
448.0,0.005185557994991541
480.0,0.004803092684596777
512.0,0.0039043084252625704
576.0,0.0014143910957500339
640.0,-0.0012646566610783339
704.0,-0.0013855237048119307
768.0,-0.0015981226461008191
832.0,-0.000898235070053488
896.0,-0.0017126967431977391
960.0,-0.003068343736231327
1024.0,-0.0044823274947702885
1152.0,-0.007317724172025919
1280.0,-0.005702859256416559
1408.0,-0.0025617110077291727
1536.0,-0.0021139599848538637
1664.0,-0.0005881141987629235
1792.0,0.001482639112509787
1920.0,0.0011162225855514407
2048.0,0.0008321698987856507
2304.0,0.004224063362926245
2560.0,0.0023606508038938046
2816.0,-0.0038598489481955767
3072.0,-0.01057810802012682
3328.0,-0.013175259344279766
3584.0,-0.005261688958853483
3840.0,0.006640679202973843
4096.0,0.0063452282920479774
4608.0,0.008054051548242569
5120.0,-0.0037233124021440744
5632.0,-0.014797954820096493
6144.0,-0.0030792143661528826
6656.0,0.003000840311869979
7168.0,-0.005201228894293308
7680.0,-0.0024459022097289562
8192.0,0.0031068476382642984
9216.0,-0.0022534560412168503
10240.0,-0.014324398711323738
11264.0,0.004901471547782421
12288.0,0.00789568480104208
13312.0,0.008666494861245155
14336.0,-0.005894129630178213
end
