version,3.0
numOfCh,1
type,point
parent_name,4-cuts
ch_type,1_1
kcount,1
numberNandB,1
brightnessNandB,1
carpet pos,0
pc,0
Time (ms),CH1 Auto-Correlation
1.0,0.08945353329181671
2.0,0.08891280740499496
3.0,0.08837412297725677
4.0,0.08783614635467529
5.0,0.08731284737586975
6.0,0.0867987647652626
7.0,0.08628647029399872
8.0,0.08577163517475128
9.0,0.08526240289211273
10.0,0.0847628116607666
11.0,0.08425478637218475
12.0,0.08376245945692062
13.0,0.0832856222987175
14.0,0.08281149715185165
15.0,0.08235303312540054
16.0,0.081912100315094
18.0,0.08101782202720642
20.0,0.0801800787448883
22.0,0.07938266545534134
24.0,0.07856321334838867
26.0,0.07772368937730789
28.0,0.07690059393644333
30.0,0.07612341642379761
32.0,0.07537300139665604
36.0,0.07391899824142456
40.0,0.07251448184251785
44.0,0.07113730907440186
48.0,0.06980208307504654
52.0,0.06843089312314987
56.0,0.06707587093114853
60.0,0.06579627841711044
64.0,0.06458601355552673
72.0,0.062274377793073654
80.0,0.06023488938808441
88.0,0.058260370045900345
96.0,0.056284766644239426
104.0,0.05436806380748749
112.0,0.052506137639284134
120.0,0.0504547618329525
128.0,0.048461295664310455
144.0,0.044970471411943436
160.0,0.04186670109629631
176.0,0.039372172206640244
192.0,0.03691243752837181
208.0,0.035388220101594925
224.0,0.03473813459277153
240.0,0.03454744815826416
256.0,0.03467821329832077
288.0,0.03453325107693672
320.0,0.03372449055314064
352.0,0.03239721432328224
384.0,0.03131575509905815
416.0,0.030901532620191574
448.0,0.030076047405600548
480.0,0.028449535369873047
512.0,0.027208968997001648
576.0,0.025235764682292938
640.0,0.024544574320316315
704.0,0.025173433125019073
768.0,0.02331073023378849
832.0,0.020902736112475395
896.0,0.019496874883770943
960.0,0.016988107934594154
1024.0,0.01357214991003275
1152.0,0.010204557329416275
1280.0,0.012265658937394619
1408.0,0.009971803985536098
1536.0,0.005391394253820181
1664.0,0.004577974323183298
1792.0,0.0023804029915481806
1920.0,0.00334213231690228
2048.0,-0.0012922469759359956
2304.0,0.0040173702873289585
2560.0,0.001709683332592249
2816.0,0.002661770675331354
3072.0,0.011467177420854568
3328.0,0.010633395984768867
3584.0,0.0001761810708558187
3840.0,-0.004762202966958284
4096.0,-0.012499620206654072
4608.0,-0.020662354305386543
5120.0,-0.021979890763759613
5632.0,-0.020932093262672424
6144.0,-0.012429329566657543
6656.0,-0.01072030421346426
7168.0,-0.020287049934267998
7680.0,-0.027750344946980476
8192.0,-0.02051664888858795
9216.0,0.0002935896045528352
10240.0,0.013882390223443508
11264.0,0.005617140326648951
12288.0,0.009697673842310905
13312.0,0.013689037412405014
14336.0,-0.009795458987355232
end
