version,3.0
numOfCh,1
type,point
parent_name,4-cuts
ch_type,1_1
kcount,1
numberNandB,1
brightnessNandB,1
carpet pos,0
pc,0
Time (ms),CH1 Auto-Correlation
1.0,0.03137844055891037
2.0,0.031187916174530983
3.0,0.030997302383184433
4.0,0.030812395736575127
5.0,0.03063354454934597
6.0,0.03045567311346531
7.0,0.03027849830687046
8.0,0.03009890764951706
9.0,0.029926061630249023
10.0,0.029753372073173523
11.0,0.029584653675556183
12.0,0.029418228194117546
13.0,0.029258960857987404
14.0,0.029101241379976273
15.0,0.028943896293640137
16.0,0.028790239244699478
18.0,0.02848994731903076
20.0,0.028188806027173996
22.0,0.027892783284187317
24.0,0.027601243928074837
26.0,0.027310634031891823
28.0,0.0270269513130188
30.0,0.026749631389975548
32.0,0.026476042345166206
36.0,0.025931507349014282
40.0,0.02538188546895981
44.0,0.024847110733389854
48.0,0.024346906691789627
52.0,0.023878313601017
56.0,0.02343834564089775
60.0,0.023016419261693954
64.0,0.022599002346396446
72.0,0.021816156804561615
80.0,0.0210987888276577
88.0,0.02044002152979374
96.0,0.019812503829598427
104.0,0.019271625205874443
112.0,0.01876695081591606
120.0,0.018222706392407417
128.0,0.017674271017313004
144.0,0.016754550859332085
160.0,0.015874747186899185
176.0,0.015178417786955833
192.0,0.014463099651038647
208.0,0.013719205744564533
224.0,0.012926272116601467
240.0,0.012299982830882072
256.0,0.011789878830313683
288.0,0.010561550036072731
320.0,0.009330574423074722
352.0,0.00848231092095375
384.0,0.0075434353202581406
416.0,0.006350902374833822
448.0,0.005501107312738895
480.0,0.005045534111559391
512.0,0.004459152929484844
576.0,0.002726375125348568
640.0,0.0025522569194436073
704.0,0.001957192085683346
768.0,0.0011120125418528914
832.0,0.0015144288772717118
896.0,0.0028121010400354862
960.0,0.0031152856536209583
1024.0,0.0027212821878492832
1152.0,0.0005093956715427339
1280.0,0.0016767533961683512
1408.0,0.0017141458811238408
1536.0,0.002697668969631195
1664.0,0.0030655041337013245
1792.0,-0.00021312246099114418
1920.0,-0.0038606419693678617
2048.0,-0.006278331391513348
2304.0,-0.006829375866800547
2560.0,-0.004495027009397745
2816.0,-0.0052467877976596355
3072.0,-0.002475351095199585
3328.0,-0.00024840564583428204
3584.0,-0.0013208185555413365
3840.0,-0.0027968622744083405
4096.0,-0.00034836953273043036
4608.0,-0.0006705926498398185
5120.0,0.006673627067357302
5632.0,-0.003436091123148799
6144.0,-0.0007327949861064553
6656.0,0.0005258385208435357
7168.0,-0.004353158641606569
7680.0,0.00020712493278551847
8192.0,-0.0036455667577683926
9216.0,-0.0018090157536789775
10240.0,-0.0023681859020143747
11264.0,-0.0048404657281935215
12288.0,-0.00514545664191246
13312.0,0.0024656776804476976
14336.0,0.015109083615243435
end
