version,3.0
numOfCh,1
type,point
parent_name,4-cuts
ch_type,1_1
kcount,1
numberNandB,1
brightnessNandB,1
carpet pos,0
pc,0
Time (ms),CH1 Auto-Correlation
1.0,0.06274235248565674
2.0,0.06230657175183296
3.0,0.06187589466571808
4.0,0.0614556260406971
5.0,0.061045948415994644
6.0,0.06063985079526901
7.0,0.06024156138300896
8.0,0.05985065922141075
9.0,0.059460919350385666
10.0,0.059080712497234344
11.0,0.05869768559932709
12.0,0.058321814984083176
13.0,0.05795768275856972
14.0,0.05759831517934799
15.0,0.05725127458572388
16.0,0.056895025074481964
18.0,0.05617222934961319
20.0,0.05545172840356827
22.0,0.05473402887582779
24.0,0.054042067378759384
26.0,0.05335278809070587
28.0,0.05268009379506111
30.0,0.05200999230146408
32.0,0.05134489759802818
36.0,0.05007332190871239
40.0,0.04887179657816887
44.0,0.047764770686626434
48.0,0.04671185463666916
52.0,0.045694973319768906
56.0,0.044755708426237106
60.0,0.04391000047326088
64.0,0.043103523552417755
72.0,0.04149327054619789
80.0,0.03992899879813194
88.0,0.038507524877786636
96.0,0.03711052983999252
104.0,0.03580542653799057
112.0,0.034760937094688416
120.0,0.03372061252593994
128.0,0.03255564719438553
144.0,0.030176706612110138
160.0,0.02812572568655014
176.0,0.026211239397525787
192.0,0.024979762732982635
208.0,0.023965800181031227
224.0,0.023370275273919106
240.0,0.022634277120232582
256.0,0.021666869521141052
288.0,0.02043057046830654
320.0,0.01961074210703373
352.0,0.0184074267745018
384.0,0.0178504828363657
416.0,0.017607659101486206
448.0,0.0162294190376997
480.0,0.014915667474269867
512.0,0.013784310780465603
576.0,0.010880323126912117
640.0,0.008367013186216354
704.0,0.0033852362539619207
768.0,-0.0008339309715665877
832.0,-0.0025355597026646137
896.0,-0.0011926527367904782
960.0,0.0005772275617346168
1024.0,0.0017440924420952797
1152.0,0.0005642251926474273
1280.0,-0.005043844226747751
1408.0,-0.004151975270360708
1536.0,-0.0029913350008428097
1664.0,-0.005523118656128645
1792.0,-0.011159220710396767
1920.0,-0.013912071473896503
2048.0,-0.011873114854097366
2304.0,-0.01755138486623764
2560.0,-0.017194978892803192
2816.0,-0.011918568052351475
3072.0,0.0005531054339371622
3328.0,0.003959402441978455
3584.0,0.009042365476489067
3840.0,0.007914452813565731
4096.0,0.00539530860260129
4608.0,0.0008628172799944878
5120.0,0.0034201957751065493
5632.0,-0.003961211070418358
6144.0,-0.009245512075722218
6656.0,0.000982434256002307
7168.0,0.008310318924486637
7680.0,0.004037954844534397
8192.0,0.002166242338716984
9216.0,-0.0065777194686234
10240.0,-0.004104885272681713
11264.0,-0.010373634286224842
12288.0,0.00020054535707458854
13312.0,-0.0037383486051112413
14336.0,0.004669044632464647
end
