version,3.0
numOfCh,1
type,point
parent_name,4-cuts
ch_type,1_1
kcount,1
numberNandB,1
brightnessNandB,1
carpet pos,0
pc,0
Time (ms),CH1 Auto-Correlation
1.0,0.0641976073384285
2.0,0.06374683231115341
3.0,0.0633002445101738
4.0,0.06285015493631363
5.0,0.06240413710474968
6.0,0.061968885362148285
7.0,0.06153949722647667
8.0,0.06112215295433998
9.0,0.06071086227893829
10.0,0.06031092256307602
11.0,0.059903018176555634
12.0,0.05951790511608124
13.0,0.05914400517940521
14.0,0.05875686928629875
15.0,0.058392997831106186
16.0,0.058039240539073944
18.0,0.05733379349112511
20.0,0.056647010147571564
22.0,0.05599300190806389
24.0,0.05537895858287811
26.0,0.05480114743113518
28.0,0.05426294729113579
30.0,0.05374943092465401
32.0,0.0532301589846611
36.0,0.05217933654785156
40.0,0.05110849440097809
44.0,0.05004112794995308
48.0,0.048941776156425476
52.0,0.04782705008983612
56.0,0.046721383929252625
60.0,0.04561588540673256
64.0,0.04452378302812576
72.0,0.042255330830812454
80.0,0.04018542170524597
88.0,0.03836488351225853
96.0,0.0366649255156517
104.0,0.035033419728279114
112.0,0.033526480197906494
120.0,0.03216296061873436
128.0,0.030887838453054428
144.0,0.028784967958927155
160.0,0.027139494195580482
176.0,0.02558172680437565
192.0,0.02429382875561714
208.0,0.02322233095765114
224.0,0.022765934467315674
240.0,0.022762000560760498
256.0,0.022876232862472534
288.0,0.022249868139624596
320.0,0.021093690767884254
352.0,0.01953614130616188
384.0,0.017825379967689514
416.0,0.015876196324825287
448.0,0.01347599271684885
480.0,0.011667094193398952
512.0,0.010113180615007877
576.0,0.010239513590931892
640.0,0.010392308235168457
704.0,0.01107611320912838
768.0,0.01167560089379549
832.0,0.010477379895746708
896.0,0.008485645055770874
960.0,0.005883446894586086
1024.0,0.00449801329523325
1152.0,0.0025270951446145773
1280.0,-0.0010914616286754608
1408.0,-0.003204240230843425
1536.0,-0.004224163945764303
1664.0,-0.002792374463751912
1792.0,-0.00508293230086565
1920.0,-0.003946040757000446
2048.0,-0.009281753562390804
2304.0,-0.017381701618433
2560.0,-0.01630028337240219
2816.0,-0.011532268486917019
3072.0,-0.016373267397284508
3328.0,-0.015825215727090836
3584.0,-0.00812160037457943
3840.0,-0.0052381535060703754
4096.0,0.0008420386002399027
4608.0,0.007943706586956978
5120.0,0.01188475452363491
5632.0,0.014972837641835213
6144.0,0.004399785306304693
6656.0,-0.0014339153422042727
7168.0,-0.007107701152563095
7680.0,-0.01283449400216341
8192.0,-0.0159473679959774
9216.0,-0.007937268353998661
10240.0,0.0058036730624735355
11264.0,0.009500897489488125
12288.0,0.008844709023833275
13312.0,0.0024480209685862064
14336.0,-0.007085086777806282
end
