version,3.0
numOfCh,1
type,point
parent_name,4-cuts
ch_type,1_1
kcount,1
numberNandB,1
brightnessNandB,1
carpet pos,0
pc,0
Time (ms),CH1 Auto-Correlation
1.0,0.03720832243561745
2.0,0.03699718043208122
3.0,0.03679027035832405
4.0,0.0365857295691967
5.0,0.03638497740030289
6.0,0.03618484362959862
7.0,0.0359850712120533
8.0,0.035784218460321426
9.0,0.035584159195423126
10.0,0.035386160016059875
11.0,0.035187412053346634
12.0,0.034990306943655014
13.0,0.03479982167482376
14.0,0.03460945561528206
15.0,0.034422941505908966
16.0,0.03423326089978218
18.0,0.03385413438081741
20.0,0.03349519893527031
22.0,0.03314714506268501
24.0,0.03281187266111374
26.0,0.03248338773846626
28.0,0.03215348348021507
30.0,0.0318312793970108
32.0,0.0315130390226841
36.0,0.030899524688720703
40.0,0.030272342264652252
44.0,0.029637407511472702
48.0,0.029019426554441452
52.0,0.02842087112367153
56.0,0.0278544370085001
60.0,0.027323218062520027
64.0,0.026823868975043297
72.0,0.025926589965820312
80.0,0.025140272453427315
88.0,0.024480033665895462
96.0,0.023871049284934998
104.0,0.02328641712665558
112.0,0.022687025368213654
120.0,0.022062838077545166
128.0,0.021510139107704163
144.0,0.02064661681652069
160.0,0.01970948465168476
176.0,0.01880442164838314
192.0,0.018130915239453316
208.0,0.017757471650838852
224.0,0.017444241791963577
240.0,0.017138583585619926
256.0,0.01671465113759041
288.0,0.015632202848792076
320.0,0.014663295820355415
352.0,0.013407262973487377
384.0,0.01228250376880169
416.0,0.011117558926343918
448.0,0.010196610353887081
480.0,0.009748291224241257
512.0,0.008911913260817528
576.0,0.006401923950761557
640.0,0.004709931556135416
704.0,0.003382270224392414
768.0,0.0017740390030667186
832.0,-0.0002819285436999053
896.0,-0.001330010243691504
960.0,-0.0024450907949358225
1024.0,-0.0027576524298638105
1152.0,-0.005546100437641144
1280.0,-0.008465875871479511
1408.0,-0.010294375009834766
1536.0,-0.01087928656488657
1664.0,-0.008383556269109249
1792.0,-0.006563524249941111
1920.0,-0.004584171809256077
2048.0,-0.003934185020625591
2304.0,0.0008298755856230855
2560.0,0.0008596610859967768
2816.0,0.0011792697478085756
3072.0,0.0020649314392358065
3328.0,0.001483182073570788
3584.0,-0.0005972522194497287
3840.0,-0.0014847683487460017
4096.0,0.00038509207661263645
4608.0,0.0022976582404226065
5120.0,-0.003959608729928732
5632.0,-0.008492173627018929
6144.0,-0.00967412255704403
6656.0,0.0006993984570726752
7168.0,0.008129657246172428
7680.0,0.00358907924965024
8192.0,-0.004780367482453585
9216.0,0.0008358742343261838
10240.0,0.0021133888512849808
11264.0,0.000281854416243732
12288.0,0.002315415535122156
13312.0,0.001260175253264606
14336.0,0.0006400894490070641
end
