version,3.0
numOfCh,1
type,point
parent_name,4-cuts
ch_type,1_1
kcount,1
numberNandB,1
brightnessNandB,1
carpet pos,0
pc,0
Time (ms),CH1 Auto-Correlation
1.0,0.0662706196308136
2.0,0.0658608078956604
3.0,0.06544466316699982
4.0,0.0650302916765213
5.0,0.06462068110704422
6.0,0.06421976536512375
7.0,0.06382982432842255
8.0,0.06344291567802429
9.0,0.06305315345525742
10.0,0.06265244632959366
11.0,0.06225473806262016
12.0,0.06186862662434578
13.0,0.06148863583803177
14.0,0.061107296496629715
15.0,0.060729511082172394
16.0,0.060350071638822556
18.0,0.059625182300806046
20.0,0.058942653238773346
22.0,0.058267347514629364
24.0,0.057590141892433167
26.0,0.05691393092274666
28.0,0.05625434219837189
30.0,0.05559477210044861
32.0,0.0549389123916626
36.0,0.05372639372944832
40.0,0.05257334187626839
44.0,0.05144616961479187
48.0,0.05041833221912384
52.0,0.049442533403635025
56.0,0.0485260933637619
60.0,0.04764486104249954
64.0,0.04671259969472885
72.0,0.04488329216837883
80.0,0.04325922206044197
88.0,0.04179771989583969
96.0,0.0405098982155323
104.0,0.03927844762802124
112.0,0.03794896975159645
120.0,0.036754678934812546
128.0,0.035710472613573074
144.0,0.0336369164288044
160.0,0.03142596036195755
176.0,0.029518621042370796
192.0,0.02777978591620922
208.0,0.02653052657842636
224.0,0.025504866614937782
240.0,0.024616025388240814
256.0,0.023881763219833374
288.0,0.0227168221026659
320.0,0.022341031581163406
352.0,0.02211117558181286
384.0,0.02254575677216053
416.0,0.02255082130432129
448.0,0.020885905250906944
480.0,0.01954995095729828
512.0,0.018521590158343315
576.0,0.01578969694674015
640.0,0.014780430123209953
704.0,0.012004694901406765
768.0,0.009376507252454758
832.0,0.008078736253082752
896.0,0.007775693200528622
960.0,0.006142519414424896
1024.0,0.0028109480626881123
1152.0,-0.0017155495006591082
1280.0,-0.006061167921870947
1408.0,-0.006550605874508619
1536.0,-0.0059906430542469025
1664.0,-0.008247371762990952
1792.0,-0.004518324509263039
1920.0,-0.0037447987124323845
2048.0,-0.005607468541711569
2304.0,-0.002958102384582162
2560.0,0.0007826926885172725
2816.0,-0.0021469611674547195
3072.0,-0.0024448756594210863
3328.0,0.0036884057335555553
3584.0,0.0036612253170460463
3840.0,0.0003775879740715027
4096.0,0.002094927243888378
4608.0,-0.00914795696735382
5120.0,-0.010696697048842907
5632.0,-0.015008661895990372
6144.0,-0.00591615866869688
6656.0,-0.0004028259718324989
7168.0,-0.00402241013944149
7680.0,-0.0006979236495681107
8192.0,-0.003968058619648218
9216.0,-0.006616104394197464
10240.0,-0.002706959145143628
11264.0,0.0044501181691884995
12288.0,0.01243880670517683
13312.0,0.0023106327280402184
14336.0,-0.004658149089664221
end
