version,3.0
numOfCh,1
type,point
parent_name,4-cuts
ch_type,1_1
kcount,1
numberNandB,1
brightnessNandB,1
carpet pos,0
pc,0
Time (ms),CH1 Auto-Correlation
1.0,0.0270401444286108
2.0,0.02682499960064888
3.0,0.026618188247084618
4.0,0.02641630731523037
5.0,0.026217758655548096
6.0,0.02601558156311512
7.0,0.025819815695285797
8.0,0.025629114359617233
9.0,0.025441372767090797
10.0,0.025252528488636017
11.0,0.025070084258913994
12.0,0.024883197620511055
13.0,0.02470174804329872
14.0,0.02451651357114315
15.0,0.02433389239013195
16.0,0.02415781468153
18.0,0.023818600922822952
20.0,0.023494137451052666
22.0,0.023171441629529
24.0,0.0228494293987751
26.0,0.022527890279889107
28.0,0.022196738049387932
30.0,0.021878229454159737
32.0,0.021580178290605545
36.0,0.020981842651963234
40.0,0.02040952444076538
44.0,0.019853290170431137
48.0,0.019311528652906418
52.0,0.01881202682852745
56.0,0.018335843458771706
60.0,0.017885494977235794
64.0,0.017452780157327652
72.0,0.016611909493803978
80.0,0.015858836472034454
88.0,0.015243110246956348
96.0,0.014660998247563839
104.0,0.014093991369009018
112.0,0.013523365370929241
120.0,0.012969350442290306
128.0,0.012474441900849342
144.0,0.01160371582955122
160.0,0.010841493494808674
176.0,0.010099224746227264
192.0,0.009409187361598015
208.0,0.008901132270693779
224.0,0.008316216990351677
240.0,0.007767933886498213
256.0,0.007314624264836311
288.0,0.006412415765225887
320.0,0.00573149137198925
352.0,0.005096689332276583
384.0,0.004427669104188681
416.0,0.004259910434484482
448.0,0.004393455572426319
480.0,0.0043439483270049095
512.0,0.004223145544528961
576.0,0.003799823811277747
640.0,0.002615658100694418
704.0,0.0023211247753351927
768.0,0.002737991511821747
832.0,0.0029011813458055258
896.0,0.0022812916431576014
960.0,0.0012365068541839719
1024.0,0.0005730271223001182
1152.0,0.0008860521484166384
1280.0,0.002573423320427537
1408.0,0.0038389975670725107
1536.0,0.0027147317305207253
1664.0,0.0011899761157110333
1792.0,0.002463869983330369
1920.0,0.0030597401782870293
2048.0,0.004548751283437014
2304.0,0.004754318855702877
2560.0,0.0008031928446143866
2816.0,0.0015636361204087734
3072.0,-0.0017746000085026026
3328.0,-0.000790137448348105
3584.0,-8.434392839262728e-06
3840.0,0.0008866882417351007
4096.0,0.003836307441815734
4608.0,-0.0003678420034702867
5120.0,-0.004390222951769829
5632.0,4.701586476585362e-06
6144.0,0.0024062152951955795
6656.0,-0.00014767469838261604
7168.0,-0.003988383803516626
7680.0,-0.0067944652400910854
8192.0,-0.005881272256374359
9216.0,-0.0027227194514125586
10240.0,-0.002083113184198737
11264.0,-0.004742313176393509
12288.0,-0.0003571637498680502
13312.0,0.0007168794400058687
14336.0,-0.006345571484416723
end
