version,3.0
numOfCh,1
type,point
parent_name,4-cuts
ch_type,1_1
kcount,1
numberNandB,1
brightnessNandB,1
carpet pos,0
pc,0
Time (ms),CH1 Auto-Correlation
1.0,0.022860068827867508
2.0,0.022669032216072083
3.0,0.02248006872832775
4.0,0.02229163981974125
5.0,0.022110017016530037
6.0,0.02193511463701725
7.0,0.021765239536762238
8.0,0.021596401929855347
9.0,0.0214255191385746
10.0,0.021253034472465515
11.0,0.021086473017930984
12.0,0.02092221938073635
13.0,0.020755980163812637
14.0,0.02058996818959713
15.0,0.020424988120794296
16.0,0.020258938893675804
18.0,0.019920658320188522
20.0,0.019586004316806793
22.0,0.019263068214058876
24.0,0.018960731104016304
26.0,0.018675547093153
28.0,0.018396466970443726
30.0,0.018125386908650398
32.0,0.01786106452345848
36.0,0.017331844195723534
40.0,0.016834430396556854
44.0,0.016372377052903175
48.0,0.015916775912046432
52.0,0.01545918732881546
56.0,0.014990315772593021
60.0,0.014540466479957104
64.0,0.014109699986875057
72.0,0.013282138854265213
80.0,0.012503305450081825
88.0,0.011789524927735329
96.0,0.011195963248610497
104.0,0.01068147923797369
112.0,0.010290813632309437
120.0,0.009939075447618961
128.0,0.009589691646397114
144.0,0.009112998843193054
160.0,0.008728011511266232
176.0,0.008268802426755428
192.0,0.007992897182703018
208.0,0.007568666245788336
224.0,0.007015729323029518
240.0,0.006321219261735678
256.0,0.005759717430919409
288.0,0.005180714651942253
320.0,0.005080584902316332
352.0,0.005051477812230587
384.0,0.005044575780630112
416.0,0.004823889583349228
448.0,0.004438730888068676
480.0,0.0041351281106472015
512.0,0.003948410041630268
576.0,0.00240971683524549
640.0,0.00028676018700934947
704.0,-0.0004091495356988162
768.0,0.00011425019329180941
832.0,-0.00019177867216058075
896.0,-0.0007168605807237327
960.0,-0.0014248257502913475
1024.0,-0.0019444853533059359
1152.0,-0.0021833181381225586
1280.0,-0.003662105416879058
1408.0,-0.003946509677916765
1536.0,-0.0025463246274739504
1664.0,-0.0008410740410909057
1792.0,-0.0009817106183618307
1920.0,-0.0009552682749927044
2048.0,-0.0010283426381647587
2304.0,0.0018428771290928125
2560.0,0.00444985693320632
2816.0,0.004779017996042967
3072.0,0.0027946506161242723
3328.0,0.0013052534777671099
3584.0,-0.002733785193413496
3840.0,-0.003936703782528639
4096.0,-0.003957036882638931
4608.0,-0.002045400207862258
5120.0,-9.369633517053444e-06
5632.0,0.0024658036418259144
6144.0,-0.0015027271583676338
6656.0,-0.002687830710783601
7168.0,-0.004289675038307905
7680.0,-0.0014794301241636276
8192.0,0.003086525248363614
9216.0,-0.002805870957672596
10240.0,2.3624281311640516e-05
11264.0,0.003400889690965414
12288.0,-0.0067404164001345634
13312.0,0.0006989531102590263
14336.0,-0.0022709325421601534
end
