version,3.0
numOfCh,1
type,point
parent_name,4-cuts
ch_type,1_1
kcount,1
numberNandB,1
brightnessNandB,1
carpet pos,0
pc,0
Time (ms),CH1 Auto-Correlation
1.0,0.029737230390310287
2.0,0.029538514092564583
3.0,0.02934599481523037
4.0,0.02915215864777565
5.0,0.028961732983589172
6.0,0.02877228520810604
7.0,0.028584398329257965
8.0,0.0283912792801857
9.0,0.028201842680573463
10.0,0.028020638972520828
11.0,0.02784506045281887
12.0,0.027673646807670593
13.0,0.027501245960593224
14.0,0.027336010709404945
15.0,0.027170857414603233
16.0,0.027009369805455208
18.0,0.02668587863445282
20.0,0.02637682668864727
22.0,0.026070935651659966
24.0,0.025773068889975548
26.0,0.02548132836818695
28.0,0.0252017043530941
30.0,0.024932367727160454
32.0,0.02467239834368229
36.0,0.024174630641937256
40.0,0.023699961602687836
44.0,0.02325025014579296
48.0,0.02282245084643364
52.0,0.02241893671452999
56.0,0.02204708755016327
60.0,0.02167503908276558
64.0,0.021298110485076904
72.0,0.020510954782366753
80.0,0.019784219563007355
88.0,0.019105490297079086
96.0,0.018376082181930542
104.0,0.017671646550297737
112.0,0.017069341614842415
120.0,0.01647440902888775
128.0,0.015858642756938934
144.0,0.01466978807002306
160.0,0.013570113107562065
176.0,0.012627474032342434
192.0,0.011821023188531399
208.0,0.011266550980508327
224.0,0.010572299361228943
240.0,0.009782564826309681
256.0,0.009269298054277897
288.0,0.008812966756522655
320.0,0.007987581193447113
352.0,0.006975412368774414
384.0,0.006192049942910671
416.0,0.005146494135260582
448.0,0.003963301423937082
480.0,0.003178619546815753
512.0,0.002749835141003132
576.0,0.0022485777735710144
640.0,0.001637977664358914
704.0,0.0016708853654563427
768.0,0.00149435899220407
832.0,0.002049807459115982
896.0,0.0023660026490688324
960.0,0.0023435489274561405
1024.0,0.0016389311058446765
1152.0,0.00239463965408504
1280.0,0.001655462197959423
1408.0,-0.000713324174284935
1536.0,-0.0028218000661581755
1664.0,-0.004622400738298893
1792.0,-0.00298776151612401
1920.0,-0.00013420326285995543
2048.0,0.0011505240108817816
2304.0,-0.0003127446980215609
2560.0,-0.0027162274345755577
2816.0,-0.0010302001610398293
3072.0,-0.0005796654731966555
3328.0,-0.0014445276465266943
3584.0,-0.0052618710324168205
3840.0,-0.003447888884693384
4096.0,0.0007535033510066569
4608.0,-0.002894363598898053
5120.0,-0.0007750238291919231
5632.0,-0.0013317425036802888
6144.0,0.000936110329348594
6656.0,-0.002773064188659191
7168.0,-0.00012402189895510674
7680.0,-0.0070122922770679
8192.0,-0.004434647969901562
9216.0,-0.0021299810614436865
10240.0,0.0032482061069458723
11264.0,8.108230395009741e-05
12288.0,0.006838264875113964
13312.0,0.0003694198385346681
14336.0,-0.0010804348858073354
end
