version,3.0
numOfCh,1
type,point
parent_name,4-cuts
ch_type,1_1
kcount,1
numberNandB,1
brightnessNandB,1
carpet pos,0
pc,0
Time (ms),CH1 Auto-Correlation
1.0,0.0338083878159523
2.0,0.0335882231593132
3.0,0.033372607082128525
4.0,0.033154115080833435
5.0,0.032941531389951706
6.0,0.03272965922951698
7.0,0.03251713886857033
8.0,0.03230708837509155
9.0,0.0320967361330986
10.0,0.031881727278232574
11.0,0.03166772797703743
12.0,0.031458839774131775
13.0,0.03124740906059742
14.0,0.03104083053767681
15.0,0.03083142265677452
16.0,0.03062036819756031
18.0,0.03021710366010666
20.0,0.029823359102010727
22.0,0.029448026791214943
24.0,0.029088130220770836
26.0,0.02874218113720417
28.0,0.028406355530023575
30.0,0.028068656101822853
32.0,0.027726728469133377
36.0,0.02706415392458439
40.0,0.026431789621710777
44.0,0.025828132405877113
48.0,0.025265593081712723
52.0,0.024740563705563545
56.0,0.024241071194410324
60.0,0.023756854236125946
64.0,0.023295581340789795
72.0,0.02241096831858158
80.0,0.021604103967547417
88.0,0.02085779421031475
96.0,0.020181091502308846
104.0,0.019597304984927177
112.0,0.01911594532430172
120.0,0.018681542947888374
128.0,0.0182183850556612
144.0,0.017223631963133812
160.0,0.016436230391263962
176.0,0.01588427647948265
192.0,0.01547462772578001
208.0,0.015108569525182247
224.0,0.014711204916238785
240.0,0.014243916608393192
256.0,0.013786869123578072
288.0,0.012694750912487507
320.0,0.0118570476770401
352.0,0.011219341307878494
384.0,0.010359945707023144
416.0,0.009238304570317268
448.0,0.008429033681750298
480.0,0.007664809003472328
512.0,0.007030169013887644
576.0,0.006622845306992531
640.0,0.0063453721813857555
704.0,0.005743526853621006
768.0,0.005165733862668276
832.0,0.003104662522673607
896.0,0.0006242136587388813
960.0,-6.82853496982716e-05
1024.0,-0.0012080498272553086
1152.0,-0.003908451646566391
1280.0,-0.007421494927257299
1408.0,-0.00729316845536232
1536.0,-0.007212186697870493
1664.0,-0.006784068886190653
1792.0,-0.008339449763298035
1920.0,-0.008904003538191319
2048.0,-0.009818511083722115
2304.0,-0.0071175117045640945
2560.0,-0.007841319777071476
2816.0,-0.004753804299980402
3072.0,-0.0017161793075501919
3328.0,0.0006326134316623211
3584.0,0.003403698094189167
3840.0,0.005728389602154493
4096.0,0.0042107850313186646
4608.0,0.0049542030319571495
5120.0,0.0027072534430772066
5632.0,-0.00012256746413186193
6144.0,-0.001107502612285316
6656.0,-0.0017422607634216547
7168.0,-0.007016673218458891
7680.0,-0.00487388763576746
8192.0,-0.0006884628674015403
9216.0,0.004585513845086098
10240.0,0.0024145995266735554
11264.0,-0.008442150428891182
12288.0,-0.004133178852498531
13312.0,0.002197511261329055
14336.0,0.002883580280467868
end
