version,3.0
numOfCh,1
type,point
parent_name,4-cuts
ch_type,1_1
kcount,1
numberNandB,1
brightnessNandB,1
carpet pos,0
pc,0
Time (ms),CH1 Auto-Correlation
1.0,0.06370464712381363
2.0,0.06323473155498505
3.0,0.06277421116828918
4.0,0.06231456622481346
5.0,0.06185299530625343
6.0,0.061400458216667175
7.0,0.06094824895262718
8.0,0.06049293652176857
9.0,0.06004820391535759
10.0,0.05960164591670036
11.0,0.05915255472064018
12.0,0.05870828405022621
13.0,0.058267686516046524
14.0,0.057838551700115204
15.0,0.057409919798374176
16.0,0.05698932334780693
18.0,0.05617531016469002
20.0,0.05536062270402908
22.0,0.05457055941224098
24.0,0.05380808934569359
26.0,0.053049031645059586
28.0,0.052313465625047684
30.0,0.051585085690021515
32.0,0.05089687556028366
36.0,0.04961005970835686
40.0,0.04845033586025238
44.0,0.04732435196638107
48.0,0.046161916106939316
52.0,0.04502275213599205
56.0,0.043914373964071274
60.0,0.04280649498105049
64.0,0.04177910089492798
72.0,0.03989303484559059
80.0,0.03826729953289032
88.0,0.03703111782670021
96.0,0.03585945442318916
104.0,0.034735701978206635
112.0,0.03371318802237511
120.0,0.032646294683218
128.0,0.03159807622432709
144.0,0.02925482764840126
160.0,0.02661275304853916
176.0,0.02416764199733734
192.0,0.022559205070137978
208.0,0.021614445373415947
224.0,0.021247949451208115
240.0,0.02113836631178856
256.0,0.020624369382858276
288.0,0.01852484792470932
320.0,0.0161037165671587
352.0,0.014615599997341633
384.0,0.013640890829265118
416.0,0.012224940583109856
448.0,0.010979716666042805
480.0,0.008384358137845993
512.0,0.005617687478661537
576.0,0.0033869249746203423
640.0,0.0022068042308092117
704.0,0.0011164023308083415
768.0,0.00027818838134407997
832.0,-0.0007138422224670649
896.0,-0.00248425779864192
960.0,-0.005993405822664499
1024.0,-0.007932290434837341
1152.0,-0.012317600660026073
1280.0,-0.015386716462671757
1408.0,-0.017584912478923798
1536.0,-0.02003074623644352
1664.0,-0.017806796357035637
1792.0,-0.01579219475388527
1920.0,-0.01824617013335228
2048.0,-0.014768258668482304
2304.0,-0.011287680827081203
2560.0,0.0005909620085731149
2816.0,0.016621900722384453
3072.0,0.022257020696997643
3328.0,0.02108663134276867
3584.0,0.01576313190162182
3840.0,0.012964999303221703
4096.0,0.001959114568307996
4608.0,-0.017342137172818184
5120.0,-0.02262081205844879
5632.0,-0.004251378588378429
6144.0,0.013644147664308548
6656.0,0.010820096358656883
7168.0,0.006860469002276659
7680.0,-0.009414411149919033
8192.0,-0.012768061831593513
9216.0,0.008013371378183365
10240.0,0.0012497409479692578
11264.0,-0.005782552063465118
12288.0,0.005483238026499748
13312.0,-0.0006371341878548265
14336.0,-0.0012924557086080313
end
