version,3.0
numOfCh,1
type,point
parent_name,4-cuts
ch_type,1_1
kcount,1
numberNandB,1
brightnessNandB,1
carpet pos,0
pc,0
Time (ms),CH1 Auto-Correlation
1.0,0.061758436262607574
2.0,0.06134093925356865
3.0,0.06092637777328491
4.0,0.060502782464027405
5.0,0.06008361279964447
6.0,0.05966838821768761
7.0,0.059258636087179184
8.0,0.05884464830160141
9.0,0.05843799188733101
10.0,0.05803430452942848
11.0,0.057629041373729706
12.0,0.05722161754965782
13.0,0.05681733787059784
14.0,0.05640479177236557
15.0,0.05600867420434952
16.0,0.05560629442334175
18.0,0.05481426417827606
20.0,0.05402822047472
22.0,0.053269315510988235
24.0,0.052529651671648026
26.0,0.05180514603853226
28.0,0.05106647312641144
30.0,0.050324324518442154
32.0,0.04959134757518768
36.0,0.048204049468040466
40.0,0.04686545208096504
44.0,0.04559137299656868
48.0,0.04429478943347931
52.0,0.043016426265239716
56.0,0.04177500680088997
60.0,0.040603216737508774
64.0,0.03945118188858032
72.0,0.03727341815829277
80.0,0.03521355614066124
88.0,0.03339549899101257
96.0,0.031898293644189835
104.0,0.03056543879210949
112.0,0.02940889075398445
120.0,0.028511231765151024
128.0,0.027791138738393784
144.0,0.026588475331664085
160.0,0.02592981606721878
176.0,0.02520429901778698
192.0,0.02407483384013176
208.0,0.022571852430701256
224.0,0.021069448441267014
240.0,0.019531572237610817
256.0,0.018441349267959595
288.0,0.015857771039009094
320.0,0.013615512289106846
352.0,0.01241507288068533
384.0,0.011164951138198376
416.0,0.008501964621245861
448.0,0.005675822496414185
480.0,0.0032855200115591288
512.0,0.001989445649087429
576.0,0.0019332274096086621
640.0,0.002814391627907753
704.0,0.004255126696079969
768.0,0.0034375034738332033
832.0,0.0012187078827992082
896.0,-0.00020308028615545481
960.0,0.0003333028289489448
1024.0,-0.0003809672489296645
1152.0,-0.0027172414120286703
1280.0,-0.002049323869869113
1408.0,-0.0023293844424188137
1536.0,-0.0018875012174248695
1664.0,-0.0006256595370359719
1792.0,-0.004674809984862804
1920.0,-0.007667474448680878
2048.0,-0.011165295727550983
2304.0,-0.009590507484972477
2560.0,-0.010509094223380089
2816.0,-0.013448393903672695
3072.0,-0.010938440449535847
3328.0,0.0028469606768339872
3584.0,0.009569109417498112
3840.0,0.003900672774761915
4096.0,0.005240084603428841
4608.0,0.010999820195138454
5120.0,0.007639496587216854
5632.0,0.0034960045013576746
6144.0,0.00011196313425898552
6656.0,-0.011964096687734127
7168.0,-0.008735381066799164
7680.0,-0.007937345653772354
8192.0,0.004029814153909683
9216.0,0.0036128133069723845
10240.0,-0.002646093722432852
11264.0,-0.006788535043597221
12288.0,0.0006785236182622612
13312.0,-0.001781842322088778
14336.0,-0.010917793959379196
end
