version,3.0
numOfCh,1
type,point
parent_name,4-cuts
ch_type,1_1
kcount,1
numberNandB,1
brightnessNandB,1
carpet pos,0
pc,0
Time (ms),CH1 Auto-Correlation
1.0,0.037692394107580185
2.0,0.03746799752116203
3.0,0.037247128784656525
4.0,0.037031497806310654
5.0,0.03682105243206024
6.0,0.036613818258047104
7.0,0.0364190898835659
8.0,0.036229319870471954
9.0,0.03604799509048462
10.0,0.03587403893470764
11.0,0.03569605574011803
12.0,0.03551898151636124
13.0,0.03533957153558731
14.0,0.03517032414674759
15.0,0.03499535471200943
16.0,0.03482436016201973
18.0,0.034489430487155914
20.0,0.03415914997458458
22.0,0.033846963196992874
24.0,0.033541224896907806
26.0,0.03323410823941231
28.0,0.032929301261901855
30.0,0.032625239342451096
32.0,0.03231200575828552
36.0,0.03171521797776222
40.0,0.031165417283773422
44.0,0.030631691217422485
48.0,0.030109532177448273
52.0,0.029600050300359726
56.0,0.029122238978743553
60.0,0.02864576317369938
64.0,0.028173185884952545
72.0,0.027354195713996887
80.0,0.0265312809497118
88.0,0.02566220983862877
96.0,0.024756168946623802
104.0,0.023882092908024788
112.0,0.02302955463528633
120.0,0.022263256832957268
128.0,0.02165917493402958
144.0,0.020771294832229614
160.0,0.019942989572882652
176.0,0.01918385550379753
192.0,0.018550043925642967
208.0,0.018012337386608124
224.0,0.017557915300130844
240.0,0.016945859417319298
256.0,0.016343671828508377
288.0,0.015418031252920628
320.0,0.014695355668663979
352.0,0.013754344545304775
384.0,0.012870426289737225
416.0,0.012096415273845196
448.0,0.011520955711603165
480.0,0.010916639119386673
512.0,0.010318168438971043
576.0,0.008948920294642448
640.0,0.007372514810413122
704.0,0.005924925673753023
768.0,0.0052946787327528
832.0,0.004769682884216309
896.0,0.004335316829383373
960.0,0.0024534687399864197
1024.0,-0.0008862552931532264
1152.0,-0.0031066392548382282
1280.0,-0.003910079598426819
1408.0,-0.002699942560866475
1536.0,-0.001498695113696158
1664.0,0.00010563604882918298
1792.0,0.0007684603915549815
1920.0,0.0021701587829738855
2048.0,0.0031921181362122297
2304.0,0.004514201544225216
2560.0,0.0012370767071843147
2816.0,0.0015474444953724742
3072.0,0.0023901453241705894
3328.0,0.000706636521499604
3584.0,0.0036946504842489958
3840.0,0.005044062156230211
4096.0,-0.0004380499303806573
4608.0,-0.006603614892810583
5120.0,-0.008974890224635601
5632.0,-0.00453303474932909
6144.0,-0.002433337736874819
6656.0,-0.003756748978048563
7168.0,-0.006428465712815523
7680.0,-0.007720661349594593
8192.0,-0.01000289712101221
9216.0,-0.0037853766698390245
10240.0,-0.005193822085857391
11264.0,-0.0020103040151298046
12288.0,0.010219386778771877
13312.0,0.010676217265427113
14336.0,0.006590770557522774
end
