version,3.0
numOfCh,1
type,point
parent_name,4-cuts
ch_type,1_1
kcount,1
numberNandB,1
brightnessNandB,1
carpet pos,0
pc,0
Time (ms),CH1 Auto-Correlation
1.0,0.07343066483736038
2.0,0.07300624251365662
3.0,0.07258791476488113
4.0,0.07217887043952942
5.0,0.07177750021219254
6.0,0.07138899713754654
7.0,0.07100296020507812
8.0,0.0706297978758812
9.0,0.07025720179080963
10.0,0.06989095360040665
11.0,0.06953368335962296
12.0,0.06917042285203934
13.0,0.06881657987833023
14.0,0.06845436245203018
15.0,0.06810026615858078
16.0,0.06775438040494919
18.0,0.06708482652902603
20.0,0.06644827127456665
22.0,0.06585123389959335
24.0,0.06526023149490356
26.0,0.06470109522342682
28.0,0.06416500359773636
30.0,0.06364306807518005
32.0,0.06313145160675049
36.0,0.06213962659239769
40.0,0.06118686497211456
44.0,0.06026139110326767
48.0,0.05936386063694954
52.0,0.05848725885152817
56.0,0.057652998715639114
60.0,0.05682183429598808
64.0,0.05610261112451553
72.0,0.05473050847649574
80.0,0.05340059846639633
88.0,0.052034053951501846
96.0,0.05060187354683876
104.0,0.04917927458882332
112.0,0.04783482477068901
120.0,0.04652794450521469
128.0,0.04536346346139908
144.0,0.04293077811598778
160.0,0.04041934385895729
176.0,0.03795890510082245
192.0,0.03537454828619957
208.0,0.033031973987817764
224.0,0.030942143872380257
240.0,0.02894940786063671
256.0,0.0273559782654047
288.0,0.02461916022002697
320.0,0.022027185186743736
352.0,0.019993234425783157
384.0,0.01874615252017975
416.0,0.0177210234105587
448.0,0.01673770509660244
480.0,0.015580451115965843
512.0,0.014501526951789856
576.0,0.012454732321202755
640.0,0.011763225309550762
704.0,0.010408826172351837
768.0,0.009528595954179764
832.0,0.009792678989470005
896.0,0.007146967574954033
960.0,0.0035637575201690197
1024.0,0.0001544243423268199
1152.0,-0.005116264335811138
1280.0,-0.008100377395749092
1408.0,-0.004942305386066437
1536.0,-0.0063835810869932175
1664.0,-0.007300196681171656
1792.0,-0.007634853478521109
1920.0,-0.011364951729774475
2048.0,-0.017931664362549782
2304.0,-0.016160793602466583
2560.0,-0.01574932038784027
2816.0,-0.012578464113175869
3072.0,-0.01630857028067112
3328.0,-0.008644888177514076
3584.0,-0.0012460476718842983
3840.0,0.0018318014917895198
4096.0,0.0032819064799696207
4608.0,0.006119429599493742
5120.0,-0.0023003341630101204
5632.0,0.004593973513692617
6144.0,0.008028850890696049
6656.0,0.005138424690812826
7168.0,0.00844158511608839
7680.0,-0.005134448874741793
8192.0,-0.01979723758995533
9216.0,-0.006328092887997627
10240.0,0.00789356417953968
11264.0,0.009229426272213459
12288.0,-0.014640109613537788
13312.0,-0.023509176447987556
14336.0,0.014269490726292133
end
