version,3.0
numOfCh,1
type,point
parent_name,4-cuts
ch_type,1_1
kcount,1
numberNandB,1
brightnessNandB,1
carpet pos,0
pc,0
Time (ms),CH1 Auto-Correlation
1.0,0.05097990855574608
2.0,0.05053352564573288
3.0,0.05009979009628296
4.0,0.04966459423303604
5.0,0.04922858998179436
6.0,0.04881461709737778
7.0,0.04840019717812538
8.0,0.047985225915908813
9.0,0.047574207186698914
10.0,0.047165703028440475
11.0,0.046762432903051376
12.0,0.04636697843670845
13.0,0.04597597196698189
14.0,0.0455881804227829
15.0,0.04520537331700325
16.0,0.04483252018690109
18.0,0.04409152641892433
20.0,0.043376822024583817
22.0,0.04267087206244469
24.0,0.0419718474149704
26.0,0.04127916693687439
28.0,0.0405966192483902
30.0,0.03991693630814552
32.0,0.03923232480883598
36.0,0.037892747670412064
40.0,0.03662976250052452
44.0,0.035425201058387756
48.0,0.03429689258337021
52.0,0.03318670392036438
56.0,0.03209047392010689
60.0,0.03098670206964016
64.0,0.029877210035920143
72.0,0.027878332883119583
80.0,0.026212302967905998
88.0,0.02475552260875702
96.0,0.023430993780493736
104.0,0.022252965718507767
112.0,0.021230731159448624
120.0,0.020311059430241585
128.0,0.019404759630560875
144.0,0.0175578985363245
160.0,0.01610555127263069
176.0,0.01471224706619978
192.0,0.013526403345167637
208.0,0.012555504217743874
224.0,0.012003016658127308
240.0,0.011614887975156307
256.0,0.011491823941469193
288.0,0.010651876218616962
320.0,0.009776776656508446
352.0,0.008780097588896751
384.0,0.007270725443959236
416.0,0.006172330118715763
448.0,0.005096909124404192
480.0,0.004239048343151808
512.0,0.003072196850553155
576.0,0.0011458994122222066
640.0,0.00020882731769233942
704.0,0.0006903706234879792
768.0,0.0018753120675683022
832.0,0.004964417777955532
896.0,0.009038339368999004
960.0,0.008813666179776192
1024.0,0.008548978716135025
1152.0,0.005915401969105005
1280.0,0.00742367235943675
1408.0,0.005584884434938431
1536.0,0.0014361104695126414
1664.0,-0.0027848065365105867
1792.0,-0.0013557708589360118
1920.0,0.0009886854095384479
2048.0,0.0029820294585078955
2304.0,0.005011925008147955
2560.0,0.0018620564369484782
2816.0,-0.003241301514208317
3072.0,-0.000824274611659348
3328.0,0.0014230773085728288
3584.0,-0.0007734995451755822
3840.0,-0.002879031468182802
4096.0,-0.007694699801504612
4608.0,-0.012491033412516117
5120.0,-0.004530042409896851
5632.0,-0.00875864177942276
6144.0,-0.007135942578315735
6656.0,-0.006262196693569422
7168.0,-0.003314976580440998
7680.0,-0.0007913237786851823
8192.0,-0.00701106246560812
9216.0,0.004569261334836483
10240.0,0.006820651702582836
11264.0,0.001623506541363895
12288.0,0.003031366039067507
13312.0,-0.005390392616391182
14336.0,-0.0036193185951560736
end
