version,3.0
numOfCh,1
type,point
parent_name,4-cuts
ch_type,1_1
kcount,1
numberNandB,1
brightnessNandB,1
carpet pos,0
pc,0
Time (ms),CH1 Auto-Correlation
1.0,0.09104558080434799
2.0,0.09049336612224579
3.0,0.0899398922920227
4.0,0.08938682824373245
5.0,0.08884702622890472
6.0,0.0883227214217186
7.0,0.08781157433986664
8.0,0.08731012791395187
9.0,0.08681710064411163
10.0,0.08632656931877136
11.0,0.08583512157201767
12.0,0.08535273373126984
13.0,0.0848754420876503
14.0,0.08439873158931732
15.0,0.08392780274152756
16.0,0.08345472812652588
18.0,0.08253423869609833
20.0,0.08165871351957321
22.0,0.08081721514463425
24.0,0.08001340180635452
26.0,0.07923796772956848
28.0,0.07848016172647476
30.0,0.0777241513133049
32.0,0.0769617110490799
36.0,0.07536943256855011
40.0,0.07374012470245361
44.0,0.07220175862312317
48.0,0.07076039910316467
52.0,0.06949904561042786
56.0,0.06829424947500229
60.0,0.06713959574699402
64.0,0.06604913622140884
72.0,0.06400197744369507
80.0,0.06195420026779175
88.0,0.0600237213075161
96.0,0.05817335844039917
104.0,0.056420888751745224
112.0,0.054769232869148254
120.0,0.05298401415348053
128.0,0.051352359354496
144.0,0.04864751920104027
160.0,0.04653942584991455
176.0,0.044825293123722076
192.0,0.0436529740691185
208.0,0.042321790009737015
224.0,0.04124367609620094
240.0,0.040267214179039
256.0,0.039374176412820816
288.0,0.03659238666296005
320.0,0.032433442771434784
352.0,0.028058206662535667
384.0,0.024767328053712845
416.0,0.023547763004899025
448.0,0.021975131705403328
480.0,0.020425425842404366
512.0,0.019583726301789284
576.0,0.014665357768535614
640.0,0.010130159556865692
704.0,0.008123732171952724
768.0,0.006804498378187418
832.0,0.004765857011079788
896.0,0.0008301418856717646
960.0,-0.0036519141867756844
1024.0,-0.005201051011681557
1152.0,-0.009721697308123112
1280.0,-0.014150048606097698
1408.0,-0.016698291525244713
1536.0,-0.0159086212515831
1664.0,-0.011104995384812355
1792.0,-0.012801949866116047
1920.0,-0.015831682831048965
2048.0,-0.015902409330010414
2304.0,-0.005218751262873411
2560.0,0.000849227886646986
2816.0,0.0021690414287149906
3072.0,0.000883143802639097
3328.0,-0.0035515292547643185
3584.0,0.004526790231466293
3840.0,0.010244891978800297
4096.0,0.004242861643433571
4608.0,0.015530494041740894
5120.0,0.02280387096107006
5632.0,0.005490039940923452
6144.0,-0.017826776951551437
6656.0,-0.02957816794514656
7168.0,-0.02078062668442726
7680.0,0.0061110141687095165
8192.0,0.013573945499956608
9216.0,-0.005071017891168594
10240.0,-0.007091163191944361
11264.0,-0.01993308775126934
12288.0,0.003948541823774576
13312.0,-0.0066057597286999226
14336.0,-0.004670051392167807
end
