version,3.0
numOfCh,1
type,point
parent_name,4-cuts
ch_type,1_1
kcount,1
numberNandB,1
brightnessNandB,1
carpet pos,0
pc,0
Time (ms),CH1 Auto-Correlation
1.0,0.03253716602921486
2.0,0.032336436212062836
3.0,0.032136496156454086
4.0,0.03194330632686615
5.0,0.03175415098667145
6.0,0.03156507760286331
7.0,0.03137607127428055
8.0,0.031189056113362312
9.0,0.031004570424556732
10.0,0.030823471024632454
11.0,0.030647961422801018
12.0,0.030466681346297264
13.0,0.03028264082968235
14.0,0.03009595349431038
15.0,0.029914161190390587
16.0,0.02973562851548195
18.0,0.029375780373811722
20.0,0.029020870104432106
22.0,0.028657525777816772
24.0,0.028285758569836617
26.0,0.027922460809350014
28.0,0.027573037892580032
30.0,0.027232656255364418
32.0,0.026897063478827477
36.0,0.026244815438985825
40.0,0.025639234110713005
44.0,0.025056906044483185
48.0,0.024513740092515945
52.0,0.02401738055050373
56.0,0.023556780070066452
60.0,0.02311021462082863
64.0,0.022641072049736977
72.0,0.021774476394057274
80.0,0.020999157801270485
88.0,0.020278699696063995
96.0,0.019648712128400803
104.0,0.01908816583454609
112.0,0.018586156889796257
120.0,0.018055509775877
128.0,0.017571859061717987
144.0,0.016564829275012016
160.0,0.015565901063382626
176.0,0.01466504205018282
192.0,0.013813880272209644
208.0,0.012980162166059017
224.0,0.012249021790921688
240.0,0.01154063269495964
256.0,0.010771524161100388
288.0,0.009707433171570301
320.0,0.008890345692634583
352.0,0.007904473692178726
384.0,0.006902169901877642
416.0,0.006293691229075193
448.0,0.005599717143923044
480.0,0.004837819375097752
512.0,0.004259048495441675
576.0,0.0036538615822792053
640.0,0.0023127009626477957
704.0,0.0006421856232918799
768.0,-0.00016408320516347885
832.0,-0.0010880791814997792
896.0,-0.001755434088408947
960.0,-0.0018527822103351355
1024.0,-0.0018184215296059847
1152.0,-0.0019069487461820245
1280.0,-0.0018788331653922796
1408.0,-0.0016213683411478996
1536.0,-0.0019097052281722426
1664.0,-0.0033110887743532658
1792.0,-0.0026072217151522636
1920.0,-0.0013073927257210016
2048.0,-0.0009279141668230295
2304.0,-0.0009535470744594932
2560.0,-0.0006600854103453457
2816.0,-0.002968781627714634
3072.0,-0.0074477666057646275
3328.0,-0.009800765663385391
3584.0,-0.005166712682694197
3840.0,0.002094270894303918
4096.0,0.003045871155336499
4608.0,0.0011014576302841306
5120.0,-0.0006619164487347007
5632.0,-0.0037719998508691788
6144.0,-0.0035132155753672123
6656.0,0.002712884219363332
7168.0,-0.0004749495710711926
7680.0,0.0011142626171931624
8192.0,0.0020036431960761547
9216.0,0.007567223161458969
10240.0,-0.0022552853915840387
11264.0,-0.010546315461397171
12288.0,-0.001588923274539411
13312.0,0.005978431086987257
14336.0,0.0038595921359956264
end
