version,3.0
numOfCh,1
type,point
parent_name,4-cuts
ch_type,1_1
kcount,1
numberNandB,1
brightnessNandB,1
carpet pos,0
pc,0
Time (ms),CH1 Auto-Correlation
1.0,0.020731056109070778
2.0,0.020520813763141632
3.0,0.02031736820936203
4.0,0.02011355571448803
5.0,0.019908087328076363
6.0,0.019703969359397888
7.0,0.019502388313412666
8.0,0.019306151196360588
9.0,0.019114064052700996
10.0,0.018921008333563805
11.0,0.018731966614723206
12.0,0.01854778453707695
13.0,0.018369849771261215
14.0,0.01819624751806259
15.0,0.018023379147052765
16.0,0.01785016432404518
18.0,0.01751687563955784
20.0,0.017193468287587166
22.0,0.016873754560947418
24.0,0.016560424119234085
26.0,0.01624419167637825
28.0,0.01593826897442341
30.0,0.0156584270298481
32.0,0.015377992764115334
36.0,0.01483933161944151
40.0,0.014347166754305363
44.0,0.01388528011739254
48.0,0.013412983156740665
52.0,0.01294320821762085
56.0,0.012458792887628078
60.0,0.011975539848208427
64.0,0.011538004502654076
72.0,0.010700244456529617
80.0,0.009980902075767517
88.0,0.009427443146705627
96.0,0.00887959636747837
104.0,0.008265593089163303
112.0,0.007677349727600813
120.0,0.007210087031126022
128.0,0.006846181116998196
144.0,0.006215211935341358
160.0,0.005582587327808142
176.0,0.004980285651981831
192.0,0.004491368308663368
208.0,0.004124158062040806
224.0,0.003911302424967289
240.0,0.003777251811698079
256.0,0.0034784928429871798
288.0,0.002672883216291666
320.0,0.0019431584514677525
352.0,0.0016922908835113049
384.0,0.001994095742702484
416.0,0.0025599715299904346
448.0,0.00276204408146441
480.0,0.0022794469259679317
512.0,0.0017838090425357223
576.0,0.002308587310835719
640.0,0.0025068249087780714
704.0,0.0015654576709493995
768.0,0.0005422421381808817
832.0,0.0008897018269635737
896.0,0.0022459866013377905
960.0,0.0022065213415771723
1024.0,0.0020295812282711267
1152.0,0.001746838097460568
1280.0,0.0017010383307933807
1408.0,6.264152034418657e-05
1536.0,0.0006791273481212556
1664.0,0.0007175212376751006
1792.0,0.0003839832788798958
1920.0,0.0022642957046628
2048.0,0.0020931470207870007
2304.0,0.0015250208089128137
2560.0,0.0009323420817963779
2816.0,0.003144635818898678
3072.0,0.0005453023477457464
3328.0,0.001911723637022078
3584.0,-0.0006780059775337577
3840.0,-0.00016170409799087793
4096.0,0.0011777139734476805
4608.0,-0.0010947660775855184
5120.0,-0.002762327203527093
5632.0,-0.00042399935773573816
6144.0,-0.00035647250479087234
6656.0,-0.002710893517360091
7168.0,-0.003557678312063217
7680.0,-0.0007112093735486269
8192.0,-0.0008579989662393928
9216.0,-0.0008222960750572383
10240.0,-0.003409550990909338
11264.0,-0.0003806194581557065
12288.0,-0.0011226972565054893
13312.0,-0.0035270322114229202
14336.0,0.0004202270647510886
end
