version,3.0
numOfCh,1
type,point
parent_name,4-cuts
ch_type,1_1
kcount,1
numberNandB,1
brightnessNandB,1
carpet pos,0
pc,0
Time (ms),CH1 Auto-Correlation
1.0,0.07212882488965988
2.0,0.0715426504611969
3.0,0.07093983888626099
4.0,0.07034599781036377
5.0,0.069762222468853
6.0,0.06917744129896164
7.0,0.06858809292316437
8.0,0.068014957010746
9.0,0.06744609028100967
10.0,0.06689193099737167
11.0,0.06633961945772171
12.0,0.06578467786312103
13.0,0.06523167341947556
14.0,0.0646967738866806
15.0,0.06417583674192429
16.0,0.063648521900177
18.0,0.0626319870352745
20.0,0.06166023388504982
22.0,0.060756437480449677
24.0,0.05986291915178299
26.0,0.058991823345422745
28.0,0.058150120079517365
30.0,0.05733703449368477
32.0,0.05653179809451103
36.0,0.054997824132442474
40.0,0.05352082848548889
44.0,0.052086539566516876
48.0,0.050690118223428726
52.0,0.04934144392609596
56.0,0.047984685748815536
60.0,0.046681057661771774
64.0,0.04546156898140907
72.0,0.04303370416164398
80.0,0.04082123935222626
88.0,0.038694269955158234
96.0,0.03643311932682991
104.0,0.03418567031621933
112.0,0.032181333750486374
120.0,0.030184797942638397
128.0,0.028242722153663635
144.0,0.024438975378870964
160.0,0.021236661821603775
176.0,0.018104394897818565
192.0,0.014888712204992771
208.0,0.011977300979197025
224.0,0.009681420400738716
240.0,0.0076636080630123615
256.0,0.005797810386866331
288.0,0.003325558267533779
320.0,0.0019296134123578668
352.0,0.0014064882416278124
384.0,0.000778983230702579
416.0,0.0006763589917682111
448.0,0.0013190313475206494
480.0,0.002086927415803075
512.0,0.002590434392914176
576.0,0.002503231866285205
640.0,0.00556804658845067
704.0,0.00788644328713417
768.0,0.008410494774580002
832.0,0.0056319269351661205
896.0,0.0019743037410080433
960.0,0.00011103499127784744
1024.0,-0.0020079100504517555
1152.0,0.00040008759242482483
1280.0,0.00421080831438303
1408.0,0.004465836100280285
1536.0,-0.003420318244025111
1664.0,-0.0073038022965192795
1792.0,-0.009124213829636574
1920.0,-0.008505766279995441
2048.0,-0.0041958061046898365
2304.0,-0.002366764238104224
2560.0,-0.0064765941351652145
2816.0,-0.0031602836679667234
3072.0,-0.00426119938492775
3328.0,-0.006686941254884005
3584.0,0.0021326469723135233
3840.0,0.006599879823625088
4096.0,0.00891293864697218
4608.0,0.0009936777641996741
5120.0,0.005267544649541378
5632.0,0.0013512001605704427
6144.0,-0.0027576033025979996
6656.0,-0.008433321490883827
7168.0,-0.006703212391585112
7680.0,0.0013685676967725158
8192.0,0.003839525394141674
9216.0,0.0027395393699407578
10240.0,-0.005529973190277815
11264.0,-0.01591850258409977
12288.0,-0.008505931124091148
13312.0,0.0020937721710652113
14336.0,0.009084445424377918
end
