version,3.0
numOfCh,1
type,point
parent_name,4-cuts
ch_type,1_1
kcount,1
numberNandB,1
brightnessNandB,1
carpet pos,0
pc,0
Time (ms),CH1 Auto-Correlation
1.0,0.06472305953502655
2.0,0.0642073005437851
3.0,0.06369270384311676
4.0,0.06318594515323639
5.0,0.0626828670501709
6.0,0.062180910259485245
7.0,0.061677951365709305
8.0,0.06118450686335564
9.0,0.06068803369998932
10.0,0.06021154671907425
11.0,0.059761714190244675
12.0,0.05931367725133896
13.0,0.05888436362147331
14.0,0.05845974385738373
15.0,0.05804906040430069
16.0,0.05764513090252876
18.0,0.056880198419094086
20.0,0.0561450757086277
22.0,0.05544609576463699
24.0,0.054807331413030624
26.0,0.05420824512839317
28.0,0.05365125834941864
30.0,0.053129661828279495
32.0,0.052600860595703125
36.0,0.05150335282087326
40.0,0.050431881099939346
44.0,0.04934077337384224
48.0,0.04824996367096901
52.0,0.047196533530950546
56.0,0.046125371009111404
60.0,0.045011620968580246
64.0,0.0438288152217865
72.0,0.04157623276114464
80.0,0.039478182792663574
88.0,0.037501513957977295
96.0,0.03574274107813835
104.0,0.03425949439406395
112.0,0.03280011564493179
120.0,0.03138583526015282
128.0,0.03003542870283127
144.0,0.027910428121685982
160.0,0.025900591164827347
176.0,0.024250833317637444
192.0,0.02229667268693447
208.0,0.02060273103415966
224.0,0.019394293427467346
240.0,0.017747176811099052
256.0,0.01638484001159668
288.0,0.014367730356752872
320.0,0.012981471605598927
352.0,0.012393804267048836
384.0,0.012265863828361034
416.0,0.012448948808014393
448.0,0.012841135263442993
480.0,0.012870308011770248
512.0,0.013112066313624382
576.0,0.016650114208459854
640.0,0.019579851999878883
704.0,0.02048567868769169
768.0,0.018532153218984604
832.0,0.01245913840830326
896.0,0.00621433462947607
960.0,0.0020217455457895994
1024.0,0.002808580407872796
1152.0,0.003680977737531066
1280.0,0.006712698377668858
1408.0,0.004987593274563551
1536.0,0.0026828679256141186
1664.0,-8.247556979767978e-05
1792.0,-0.0019377394346520305
1920.0,-0.005069014150649309
2048.0,-0.00591090926900506
2304.0,0.004003020469099283
2560.0,0.0037775239907205105
2816.0,0.007551874499768019
3072.0,0.009340465068817139
3328.0,0.006185608450323343
3584.0,0.0058003985323011875
3840.0,0.01068056095391512
4096.0,0.007122148759663105
4608.0,0.0030237045139074326
5120.0,-0.001522729522548616
5632.0,-0.0029228508938103914
6144.0,-0.007347106467932463
6656.0,-0.00793035514652729
7168.0,-0.004630285780876875
7680.0,-0.01266900822520256
8192.0,-0.015293675474822521
9216.0,-0.014984526671469212
10240.0,-0.002510051243007183
11264.0,-0.0107047650963068
12288.0,-0.010628077201545238
13312.0,-0.010821479372680187
14336.0,0.008322234265506268
end
