version,3.0
numOfCh,1
type,point
parent_name,4-cuts
ch_type,1_1
kcount,1
numberNandB,1
brightnessNandB,1
carpet pos,0
pc,0
Time (ms),CH1 Auto-Correlation
1.0,0.04267117381095886
2.0,0.0424749031662941
3.0,0.04227869212627411
4.0,0.04208925738930702
5.0,0.04190504923462868
6.0,0.04171473905444145
7.0,0.04152737557888031
8.0,0.04133855551481247
9.0,0.04115041717886925
10.0,0.040966201573610306
11.0,0.04078223928809166
12.0,0.04059525206685066
13.0,0.04040615260601044
14.0,0.04021674767136574
15.0,0.04003068059682846
16.0,0.0398503802716732
18.0,0.03948381170630455
20.0,0.03911614418029785
22.0,0.03875104710459709
24.0,0.03838825598359108
26.0,0.038038983941078186
28.0,0.03770071640610695
30.0,0.03736216574907303
32.0,0.03701907396316528
36.0,0.036337874829769135
40.0,0.03567555546760559
44.0,0.03506549447774887
48.0,0.03447612002491951
52.0,0.03387073799967766
56.0,0.03326960280537605
60.0,0.032707881182432175
64.0,0.032148297876119614
72.0,0.031063714995980263
80.0,0.030062735080718994
88.0,0.029204746708273888
96.0,0.028443094342947006
104.0,0.02772331051528454
112.0,0.027066824957728386
120.0,0.02648838423192501
128.0,0.025977393612265587
144.0,0.025127913802862167
160.0,0.024384021759033203
176.0,0.023683756589889526
192.0,0.023000406101346016
208.0,0.022344082593917847
224.0,0.02179567515850067
240.0,0.021175915375351906
256.0,0.020752646028995514
288.0,0.019978206604719162
320.0,0.01975896582007408
352.0,0.019873879849910736
384.0,0.02005944773554802
416.0,0.019944244995713234
448.0,0.019441504031419754
480.0,0.018894165754318237
512.0,0.017727157101035118
576.0,0.015247240662574768
640.0,0.012964638881385326
704.0,0.011735718697309494
768.0,0.012107024900615215
832.0,0.013240820728242397
896.0,0.013284612447023392
960.0,0.011905569583177567
1024.0,0.010779283940792084
1152.0,0.006840915884822607
1280.0,0.0037701281253248453
1408.0,0.0022073695436120033
1536.0,0.0011021221289411187
1664.0,-0.0016072456492111087
1792.0,-0.0021616865415126085
1920.0,0.000567405135370791
2048.0,-0.0012509432854130864
2304.0,-0.006078304257243872
2560.0,-0.008120597340166569
2816.0,-0.0054522012360394
3072.0,-0.00570761039853096
3328.0,-0.005993309430778027
3584.0,-0.0035336639266461134
3840.0,-0.0006508781225420535
4096.0,-0.002725694328546524
4608.0,-0.005769964773207903
5120.0,-0.009112472645938396
5632.0,-0.005723714828491211
6144.0,-0.0005080123082734644
6656.0,0.0031193376053124666
7168.0,0.005617151968181133
7680.0,-0.0013530394062399864
8192.0,-0.004356082528829575
9216.0,-0.013818739913403988
10240.0,-0.00677716126665473
11264.0,0.0029002150986343622
12288.0,0.005064862314611673
13312.0,0.007818210870027542
14336.0,0.01081439945846796
end
