version,3.0
numOfCh,1
type,point
parent_name,4-cuts
ch_type,1_1
kcount,1
numberNandB,1
brightnessNandB,1
carpet pos,0
pc,0
Time (ms),CH1 Auto-Correlation
1.0,0.02960395999252796
2.0,0.02939743734896183
3.0,0.029188353568315506
4.0,0.028974859043955803
5.0,0.028771599754691124
6.0,0.028574388474225998
7.0,0.02838069014251232
8.0,0.028187954798340797
9.0,0.027997329831123352
10.0,0.027807161211967468
11.0,0.027620630338788033
12.0,0.027435142546892166
13.0,0.027254590764641762
14.0,0.027083389461040497
15.0,0.02690742537379265
16.0,0.026736265048384666
18.0,0.026399916037917137
20.0,0.02607400342822075
22.0,0.025754816830158234
24.0,0.02543419413268566
26.0,0.025121193379163742
28.0,0.02481437847018242
30.0,0.024522239342331886
32.0,0.024231135845184326
36.0,0.023667650297284126
40.0,0.02313857525587082
44.0,0.022602373734116554
48.0,0.022087564691901207
52.0,0.021629540249705315
56.0,0.021175498142838478
60.0,0.0207282193005085
64.0,0.020294643938541412
72.0,0.019486380741000175
80.0,0.018660113215446472
88.0,0.01785135827958584
96.0,0.017124705016613007
104.0,0.016420768573880196
112.0,0.01575317047536373
120.0,0.015196319669485092
128.0,0.014769138768315315
144.0,0.013999175280332565
160.0,0.013252472504973412
176.0,0.012552982196211815
192.0,0.012043176218867302
208.0,0.011502373963594437
224.0,0.01068695355206728
240.0,0.009895702823996544
256.0,0.008981808088719845
288.0,0.007522551342844963
320.0,0.00678265979513526
352.0,0.006167462561279535
384.0,0.0058891745284199715
416.0,0.00573327112942934
448.0,0.0054076979868113995
480.0,0.005511886440217495
512.0,0.006117857061326504
576.0,0.0062227509915828705
640.0,0.006243615876883268
704.0,0.006191872991621494
768.0,0.005576772149652243
832.0,0.004663111642003059
896.0,0.004147043917328119
960.0,0.0034099905751645565
1024.0,0.0022254956420511007
1152.0,0.002435364294797182
1280.0,0.002795969368889928
1408.0,0.003454748308286071
1536.0,0.002620019717141986
1664.0,0.0020161555148661137
1792.0,0.0035839076153934
1920.0,0.004298314452171326
2048.0,0.005899855867028236
2304.0,0.004158440046012402
2560.0,0.0035383913200348616
2816.0,0.0018204235238954425
3072.0,0.0007693390944041312
3328.0,-0.0007704048184677958
3584.0,0.0001611618063179776
3840.0,-0.0012816146481782198
4096.0,-0.0004883817746303976
4608.0,-0.0009556888253428042
5120.0,-0.0010672276839613914
5632.0,-0.004898808430880308
6144.0,-0.008008615113794804
6656.0,-0.0099400095641613
7168.0,-0.005467820912599564
7680.0,-0.005606358405202627
8192.0,-0.007867438718676567
9216.0,-0.005939087830483913
10240.0,-0.00038518881774507463
11264.0,-0.004948147106915712
12288.0,0.00570607278496027
13312.0,0.0031509252730757
14336.0,0.011639963835477829
end
