version,3.0
numOfCh,1
type,point
parent_name,4-cuts
ch_type,1_1
kcount,1
numberNandB,1
brightnessNandB,1
carpet pos,0
pc,0
Time (ms),CH1 Auto-Correlation
1.0,0.06221408769488335
2.0,0.06176464632153511
3.0,0.06132260710000992
4.0,0.06088927388191223
5.0,0.06046994775533676
6.0,0.06005783751606941
7.0,0.05965760350227356
8.0,0.05926097556948662
9.0,0.05886460840702057
10.0,0.05848107486963272
11.0,0.058105699717998505
12.0,0.0577276274561882
13.0,0.05735224485397339
14.0,0.05697958916425705
15.0,0.05661224573850632
16.0,0.05624657869338989
18.0,0.05550727620720863
20.0,0.05480207875370979
22.0,0.054136134684085846
24.0,0.0534948892891407
26.0,0.05288784205913544
28.0,0.052292898297309875
30.0,0.05170553922653198
32.0,0.05111658200621605
36.0,0.04996110871434212
40.0,0.04880356416106224
44.0,0.04771967604756355
48.0,0.046667732298374176
52.0,0.04559103772044182
56.0,0.04451080039143562
60.0,0.04346675053238869
64.0,0.04245692864060402
72.0,0.0405597984790802
80.0,0.0386628620326519
88.0,0.03684000298380852
96.0,0.0351332351565361
104.0,0.0336160883307457
112.0,0.03214298188686371
120.0,0.030691906809806824
128.0,0.02948068082332611
144.0,0.027566535398364067
160.0,0.02591882087290287
176.0,0.024202369153499603
192.0,0.022939154878258705
208.0,0.02173052728176117
224.0,0.02005263976752758
240.0,0.01820095255970955
256.0,0.01699516363441944
288.0,0.015515247359871864
320.0,0.014116976410150528
352.0,0.012973304837942123
384.0,0.011219046078622341
416.0,0.009527737274765968
448.0,0.008467208594083786
480.0,0.008426671847701073
512.0,0.007878193631768227
576.0,0.007467320188879967
640.0,0.008746981620788574
704.0,0.011293078772723675
768.0,0.012086499482393265
832.0,0.011944875121116638
896.0,0.01135923434048891
960.0,0.010423317551612854
1024.0,0.010714435949921608
1152.0,0.0065390439704060555
1280.0,0.0019026548834517598
1408.0,-0.00018327333964407444
1536.0,0.002346145221963525
1664.0,0.0009488911018706858
1792.0,0.0006420430727303028
1920.0,0.0030073842499405146
2048.0,0.00229834602214396
2304.0,0.0011408895952627063
2560.0,-0.0029064940754324198
2816.0,-0.00972754042595625
3072.0,-0.008258786983788013
3328.0,-0.01412997581064701
3584.0,-0.021266477182507515
3840.0,-0.020593110471963882
4096.0,-0.01690034009516239
4608.0,-0.01414067205041647
5120.0,-0.0028600955847650766
5632.0,0.00015374948270618916
6144.0,-0.002257460029795766
6656.0,0.006348619237542152
7168.0,0.014507349580526352
7680.0,0.02149723842740059
8192.0,0.006006062962114811
9216.0,-3.610840576584451e-05
10240.0,-0.0036568576470017433
11264.0,-0.014634444378316402
12288.0,-0.005680415313690901
13312.0,0.003117510350421071
14336.0,-7.972693128976971e-05
end
