version,3.0
numOfCh,1
type,point
parent_name,4-cuts
ch_type,1_1
kcount,1
numberNandB,1
brightnessNandB,1
carpet pos,0
pc,0
Time (ms),CH1 Auto-Correlation
1.0,0.027596743777394295
2.0,0.027398519217967987
3.0,0.027193378657102585
4.0,0.026994600892066956
5.0,0.02679305151104927
6.0,0.026590513065457344
7.0,0.02638799324631691
8.0,0.026189088821411133
9.0,0.025997109711170197
10.0,0.025806335732340813
11.0,0.025616638362407684
12.0,0.025431416928768158
13.0,0.02524644322693348
14.0,0.02506157010793686
15.0,0.024877887219190598
16.0,0.02469806745648384
18.0,0.024345917627215385
20.0,0.024008024483919144
22.0,0.02367340214550495
24.0,0.0233522467315197
26.0,0.023054884746670723
28.0,0.0227569118142128
30.0,0.02246222272515297
32.0,0.0221768319606781
36.0,0.021641986444592476
40.0,0.021151401102542877
44.0,0.020668553188443184
48.0,0.020205475389957428
52.0,0.019745122641324997
56.0,0.019274132326245308
60.0,0.018808996304869652
64.0,0.018386706709861755
72.0,0.01762261427938938
80.0,0.016942599788308144
88.0,0.01634272001683712
96.0,0.01579129509627819
104.0,0.01527133584022522
112.0,0.014784027822315693
120.0,0.014357970096170902
128.0,0.01398547738790512
144.0,0.01324124913662672
160.0,0.012795733287930489
176.0,0.01245941873639822
192.0,0.011881892569363117
208.0,0.011193339712917805
224.0,0.010344966314733028
240.0,0.009485378861427307
256.0,0.008539951406419277
288.0,0.007176520768553019
320.0,0.00608242629095912
352.0,0.005067114252597094
384.0,0.004495942499488592
416.0,0.003932230174541473
448.0,0.0033666035160422325
480.0,0.0030974186956882477
512.0,0.0029433818999677896
576.0,0.002600859384983778
640.0,0.0020397163461893797
704.0,0.001467157038860023
768.0,0.0018729408038780093
832.0,0.0014558772090822458
896.0,0.000215481297345832
960.0,-0.0008983720326796174
1024.0,-0.0022375527769327164
1152.0,-0.00495931738987565
1280.0,-0.005888264160603285
1408.0,-0.006272670812904835
1536.0,-0.005631742998957634
1664.0,-0.004699255805462599
1792.0,-0.00494322320446372
1920.0,-0.004458613693714142
2048.0,-0.003203803673386574
2304.0,-0.0006479609292000532
2560.0,0.0010053962469100952
2816.0,0.001328419428318739
3072.0,-4.78451038361527e-05
3328.0,-0.003502887673676014
3584.0,-0.0056749493815004826
3840.0,-0.0026168660260736942
4096.0,-4.708629785454832e-05
4608.0,0.0029288639780133963
5120.0,0.003658187109977007
5632.0,0.003299480304121971
6144.0,-0.002024977933615446
6656.0,-0.004616918973624706
7168.0,-0.001883635064586997
7680.0,-0.0006382142892107368
8192.0,-0.0004761745221912861
9216.0,0.0037669437006115913
10240.0,0.004418601281940937
11264.0,-0.007245393469929695
12288.0,-0.003492012619972229
13312.0,-0.0010278072440996766
14336.0,0.004380455706268549
end
