version,3.0
numOfCh,1
type,point
parent_name,4-cuts
ch_type,1_1
kcount,1
numberNandB,1
brightnessNandB,1
carpet pos,0
pc,0
Time (ms),CH1 Auto-Correlation
1.0,0.022836491465568542
2.0,0.022632872685790062
3.0,0.022430799901485443
4.0,0.022231746464967728
5.0,0.022035127505660057
6.0,0.02183624915778637
7.0,0.02163374051451683
8.0,0.021434566006064415
9.0,0.021238192915916443
10.0,0.021043289452791214
11.0,0.020846744999289513
12.0,0.02065448649227619
13.0,0.0204575527459383
14.0,0.02026331052184105
15.0,0.020075004547834396
16.0,0.01988823339343071
18.0,0.019529856741428375
20.0,0.019165439531207085
22.0,0.018805773928761482
24.0,0.018461640924215317
26.0,0.01813160814344883
28.0,0.01780703291296959
30.0,0.017487069591879845
32.0,0.017177371308207512
36.0,0.016563307493925095
40.0,0.01597519777715206
44.0,0.015424072742462158
48.0,0.014906054362654686
52.0,0.014418818056583405
56.0,0.013948025181889534
60.0,0.013501743786036968
64.0,0.01304424088448286
72.0,0.012202134355902672
80.0,0.011444325558841228
88.0,0.0107289282605052
96.0,0.010111358016729355
104.0,0.009583140723407269
112.0,0.009189721196889877
120.0,0.008913151919841766
128.0,0.008748569525778294
144.0,0.00838032178580761
160.0,0.007735713850706816
176.0,0.0071158818900585175
192.0,0.006525859236717224
208.0,0.006088939495384693
224.0,0.005915588699281216
240.0,0.0059070708230137825
256.0,0.005726255476474762
288.0,0.005223775748163462
320.0,0.004629714414477348
352.0,0.0035679982975125313
384.0,0.003152051940560341
416.0,0.0028127541299909353
448.0,0.002716673072427511
480.0,0.0022183365654200315
512.0,0.0017001534579321742
576.0,-0.0003261957608629018
640.0,-0.0005461435066536069
704.0,-0.0011698047164827585
768.0,-0.0025436158757656813
832.0,-0.003358827205374837
896.0,-0.0033044007141143084
960.0,-0.002849961631000042
1024.0,-0.0027690527494996786
1152.0,-0.0019142640521749854
1280.0,-0.0023745987564325333
1408.0,-0.0014333139406517148
1536.0,-0.0004719501012004912
1664.0,-0.0018540386809036136
1792.0,-0.0003775942313950509
1920.0,9.787418821360916e-05
2048.0,0.0013741335133090615
2304.0,0.0015373625792562962
2560.0,0.0013476622989401221
2816.0,0.0022928696125745773
3072.0,-0.00013118097558617592
3328.0,-0.003285167971625924
3584.0,-0.0060119470581412315
3840.0,-0.002720538293942809
4096.0,0.0007749586366117001
4608.0,-0.0006369377369992435
5120.0,-0.0032778605818748474
5632.0,-0.001771642710082233
6144.0,-0.0016066700918599963
6656.0,-6.411967478925362e-05
7168.0,0.004171949345618486
7680.0,-0.0008330800919793546
8192.0,-0.001797156292013824
9216.0,0.002441597171127796
10240.0,0.0027821564581245184
11264.0,-0.00251531763933599
12288.0,-0.00012652059376705438
13312.0,-0.0008521685376763344
14336.0,-0.0029184205923229456
end
