version,3.0
numOfCh,1
type,point
parent_name,4-cuts
ch_type,1_1
kcount,1
numberNandB,1
brightnessNandB,1
carpet pos,0
pc,0
Time (ms),CH1 Auto-Correlation
1.0,0.029567673802375793
2.0,0.029348911717534065
3.0,0.029128946363925934
4.0,0.02890659309923649
5.0,0.02868695557117462
6.0,0.028473524376749992
7.0,0.028265273198485374
8.0,0.02805737964808941
9.0,0.02785058319568634
10.0,0.027643688023090363
11.0,0.027439599856734276
12.0,0.027239812538027763
13.0,0.027042241767048836
14.0,0.02684834785759449
15.0,0.026655355468392372
16.0,0.026458406820893288
18.0,0.026085516437888145
20.0,0.025723490864038467
22.0,0.025376321747899055
24.0,0.025041919201612473
26.0,0.024721909314393997
28.0,0.02440975047647953
30.0,0.024094022810459137
32.0,0.023768702521920204
36.0,0.023112893104553223
40.0,0.022465964779257774
44.0,0.021840007975697517
48.0,0.021253036335110664
52.0,0.020698940381407738
56.0,0.020140113309025764
60.0,0.01960427686572075
64.0,0.019098550081253052
72.0,0.018166951835155487
80.0,0.017292538657784462
88.0,0.01650136709213257
96.0,0.015864500775933266
104.0,0.015294174663722515
112.0,0.014802055433392525
120.0,0.014397982507944107
128.0,0.014083280228078365
144.0,0.013776060193777084
160.0,0.013487160205841064
176.0,0.013177142478525639
192.0,0.013009650632739067
208.0,0.012856868095695972
224.0,0.012706871144473553
240.0,0.012612221762537956
256.0,0.012381059117615223
288.0,0.012009605765342712
320.0,0.011537454091012478
352.0,0.011090059764683247
384.0,0.01127484068274498
416.0,0.011515697464346886
448.0,0.011412377469241619
480.0,0.010752595961093903
512.0,0.009639709256589413
576.0,0.007805200759321451
640.0,0.006679040379822254
704.0,0.0059469821862876415
768.0,0.005703693255782127
832.0,0.005268505774438381
896.0,0.0049492488615214825
960.0,0.004516179673373699
1024.0,0.004162184428423643
1152.0,0.004214407876133919
1280.0,0.003782951273024082
1408.0,0.002421730663627386
1536.0,0.0011889392044395208
1664.0,-0.00034601124934852123
1792.0,-0.00078645657049492
1920.0,-0.002072789939120412
2048.0,-0.0014690159587189555
2304.0,-0.004254091996699572
2560.0,-0.004841742571443319
2816.0,-0.007356982212513685
3072.0,-0.006853518541902304
3328.0,-0.003892651991918683
3584.0,-0.003222850849851966
3840.0,0.0006632410222664475
4096.0,0.001824924605898559
4608.0,0.0026112489867955446
5120.0,0.004029273521155119
5632.0,0.005844960454851389
6144.0,0.0038169368635863066
6656.0,-0.002024287823587656
7168.0,-0.00635566795244813
7680.0,-0.008094850927591324
8192.0,-0.009074433706700802
9216.0,-0.004162140190601349
10240.0,0.0006916648708283901
11264.0,0.002895913552492857
12288.0,-0.0040477910079061985
13312.0,-0.008074169978499413
14336.0,0.0029261403251439333
end
