version,3.0
numOfCh,1
type,point
parent_name,4-cuts
ch_type,1_1
kcount,1
numberNandB,1
brightnessNandB,1
carpet pos,0
pc,0
Time (ms),CH1 Auto-Correlation
1.0,0.0667782798409462
2.0,0.06632842868566513
3.0,0.06588677316904068
4.0,0.06544597446918488
5.0,0.06500394642353058
6.0,0.06456926465034485
7.0,0.06413958221673965
8.0,0.06371966749429703
9.0,0.06329892575740814
10.0,0.06290129572153091
11.0,0.062499143183231354
12.0,0.062099672853946686
13.0,0.06170498579740524
14.0,0.06131521239876747
15.0,0.06093572452664375
16.0,0.06056296080350876
18.0,0.05984111875295639
20.0,0.05913703516125679
22.0,0.05843100696802139
24.0,0.05773406848311424
26.0,0.05705496668815613
28.0,0.05637170746922493
30.0,0.05570307746529579
32.0,0.05504840612411499
36.0,0.05373557284474373
40.0,0.05247980356216431
44.0,0.05126465857028961
48.0,0.05009664595127106
52.0,0.04898696765303612
56.0,0.047939859330654144
60.0,0.04695400968194008
64.0,0.046064116060733795
72.0,0.044369593262672424
80.0,0.04270236939191818
88.0,0.0412488728761673
96.0,0.04001220315694809
104.0,0.03884129971265793
112.0,0.03756033629179001
120.0,0.0364009365439415
128.0,0.03544950485229492
144.0,0.03347890079021454
160.0,0.031313423067331314
176.0,0.029224343597888947
192.0,0.027477910742163658
208.0,0.025743840262293816
224.0,0.023751553148031235
240.0,0.02200777642428875
256.0,0.020246878266334534
288.0,0.017023248597979546
320.0,0.013522680848836899
352.0,0.01062987744808197
384.0,0.007256307173520327
416.0,0.003971037920564413
448.0,0.0023937043733894825
480.0,0.0014809512067586184
512.0,0.0006564398645423353
576.0,-0.0008985591703094542
640.0,8.582266309531406e-05
704.0,0.0032523353584110737
768.0,0.005060873925685883
832.0,0.007664629723876715
896.0,0.00999980978667736
960.0,0.010764392092823982
1024.0,0.009776136837899685
1152.0,0.008391345851123333
1280.0,0.004064079839736223
1408.0,-0.0016613242914900184
1536.0,-0.007280892692506313
1664.0,-0.011819169856607914
1792.0,-0.008843619376420975
1920.0,-0.006565168034285307
2048.0,-0.005332593340426683
2304.0,-0.004974816460162401
2560.0,-0.011747878976166248
2816.0,-0.005249750800430775
3072.0,0.001228561857715249
3328.0,-0.003354666754603386
3584.0,-0.009088288992643356
3840.0,-0.005393228493630886
4096.0,0.006170035805553198
4608.0,0.005400253459811211
5120.0,0.009192980825901031
5632.0,0.003921446856111288
6144.0,-0.00915493443608284
6656.0,-0.010141754522919655
7168.0,-0.01682162657380104
7680.0,-0.008029413409531116
8192.0,-0.007441426627337933
9216.0,0.004069965332746506
10240.0,0.007320431526750326
11264.0,-0.0029815302696079016
12288.0,-0.0040239375084638596
13312.0,0.0033347357530146837
14336.0,-0.008733619004487991
end
