version,3.0
numOfCh,1
type,point
parent_name,4-cuts
ch_type,1_1
kcount,1
numberNandB,1
brightnessNandB,1
carpet pos,0
pc,0
Time (ms),CH1 Auto-Correlation
1.0,0.02912014164030552
2.0,0.028910012915730476
3.0,0.028702478855848312
4.0,0.02849862538278103
5.0,0.02829960733652115
6.0,0.02810622937977314
7.0,0.027906810864806175
8.0,0.027711937204003334
9.0,0.027519872412085533
10.0,0.027331365272402763
11.0,0.027143225073814392
12.0,0.02695288322865963
13.0,0.026769442483782768
14.0,0.02658259868621826
15.0,0.026399970054626465
16.0,0.026218540966510773
18.0,0.02587982267141342
20.0,0.02555389329791069
22.0,0.02523835562169552
24.0,0.024925149977207184
26.0,0.024617746472358704
28.0,0.024311967194080353
30.0,0.02401997707784176
32.0,0.023739881813526154
36.0,0.02322203665971756
40.0,0.02271917834877968
44.0,0.022231288254261017
48.0,0.021755658090114594
52.0,0.021291935816407204
56.0,0.020854635164141655
60.0,0.020445868372917175
64.0,0.02006012201309204
72.0,0.019289016723632812
80.0,0.01863662153482437
88.0,0.01808985322713852
96.0,0.017514145001769066
104.0,0.01693698950111866
112.0,0.01635194942355156
120.0,0.01575513184070587
128.0,0.015162487514317036
144.0,0.01411400642246008
160.0,0.01337377168238163
176.0,0.012732668779790401
192.0,0.011850571259856224
208.0,0.010967989452183247
224.0,0.010084970854222775
240.0,0.009363565593957901
256.0,0.008914650417864323
288.0,0.008664824068546295
320.0,0.007892669178545475
352.0,0.006873083300888538
384.0,0.006169361062347889
416.0,0.005522635765373707
448.0,0.005244515836238861
480.0,0.005046542268246412
512.0,0.005131932906806469
576.0,0.004998430609703064
640.0,0.003957521170377731
704.0,0.002911960007622838
768.0,0.0021445651073008776
832.0,0.0025206885766237974
896.0,0.002645640866830945
960.0,0.003065449418500066
1024.0,0.0037367346230894327
1152.0,0.004589362069964409
1280.0,0.004401464480906725
1408.0,0.0037921236362308264
1536.0,0.003499996615573764
1664.0,0.003723384812474251
1792.0,0.002302521374076605
1920.0,0.0009322094265371561
2048.0,0.00016319804126396775
2304.0,-0.0008243283373303711
2560.0,0.00017732162086758763
2816.0,0.0009606644161976874
3072.0,0.002728056162595749
3328.0,0.0003394698433112353
3584.0,-0.0029297680594027042
3840.0,-0.004293970763683319
4096.0,-0.006166146136820316
4608.0,-0.005644228775054216
5120.0,-0.0052529131062328815
5632.0,-0.005377905443310738
6144.0,-0.001302350778132677
6656.0,-0.0033318782225251198
7168.0,-0.009428323246538639
7680.0,-0.006718404591083527
8192.0,-0.0019983944948762655
9216.0,0.004694413859397173
10240.0,0.0027460562996566296
11264.0,0.005210033152252436
12288.0,0.0021844159346073866
13312.0,-0.00414971774443984
14336.0,-0.000254189275437966
end
