version,3.0
numOfCh,1
type,point
parent_name,4-cuts
ch_type,1_1
kcount,1
numberNandB,1
brightnessNandB,1
carpet pos,0
pc,0
Time (ms),CH1 Auto-Correlation
1.0,0.08378816395998001
2.0,0.08326258510351181
3.0,0.08272536844015121
4.0,0.08220505714416504
5.0,0.08168504387140274
6.0,0.08118820190429688
7.0,0.08069542795419693
8.0,0.08020196110010147
9.0,0.07973144948482513
10.0,0.07925200462341309
11.0,0.0787728875875473
12.0,0.0782940536737442
13.0,0.07780803740024567
14.0,0.07732106745243073
15.0,0.07683812826871872
16.0,0.07635103911161423
18.0,0.07534676045179367
20.0,0.07436445355415344
22.0,0.07341598719358444
24.0,0.07248824089765549
26.0,0.0715714618563652
28.0,0.07066493481397629
30.0,0.06977252662181854
32.0,0.06887545436620712
36.0,0.06722421199083328
40.0,0.06571314483880997
44.0,0.06425187736749649
48.0,0.06287700682878494
52.0,0.06163718178868294
56.0,0.06054636836051941
60.0,0.05944836884737015
64.0,0.05834536999464035
72.0,0.05642838776111603
80.0,0.05461173877120018
88.0,0.05306052044034004
96.0,0.05163019523024559
104.0,0.050393540412187576
112.0,0.049228835850954056
120.0,0.04810268431901932
128.0,0.047055453062057495
144.0,0.044881414622068405
160.0,0.04312749579548836
176.0,0.04190029576420784
192.0,0.04087259992957115
208.0,0.03988618031144142
224.0,0.039053454995155334
240.0,0.03839711472392082
256.0,0.0372004508972168
288.0,0.034745149314403534
320.0,0.03371470421552658
352.0,0.033969003707170486
384.0,0.03390774130821228
416.0,0.033588699996471405
448.0,0.033199165016412735
480.0,0.03204003721475601
512.0,0.0293467678129673
576.0,0.02465169131755829
640.0,0.02184002660214901
704.0,0.019252430647611618
768.0,0.015649339184165
832.0,0.016294648870825768
896.0,0.016092592850327492
960.0,0.014486609026789665
1024.0,0.012542491778731346
1152.0,0.0065901754423975945
1280.0,0.0052256048657000065
1408.0,0.008067985065281391
1536.0,0.012839183211326599
1664.0,0.01048897486180067
1792.0,0.008703024126589298
1920.0,0.005102701485157013
2048.0,0.0016991745214909315
2304.0,-0.0007444433867931366
2560.0,-0.004812419880181551
2816.0,-0.007280242163687944
3072.0,-0.007467767223715782
3328.0,-0.012187479063868523
3584.0,-0.008447498083114624
3840.0,-0.006807988975197077
4096.0,-7.445602932421025e-06
4608.0,0.0035755105782300234
5120.0,0.002800281858071685
5632.0,0.0005082766874693334
6144.0,-0.007287674583494663
6656.0,-0.006315835285931826
7168.0,-0.00829228013753891
7680.0,-0.00032823352375999093
8192.0,0.004841335117816925
9216.0,-0.008978569880127907
10240.0,-0.021562421694397926
11264.0,-0.039462022483348846
12288.0,-0.02236846648156643
13312.0,0.0011760264169424772
14336.0,0.02075326256453991
end
