version,3.0
numOfCh,1
type,point
parent_name,4-cuts
ch_type,1_1
kcount,1
numberNandB,1
brightnessNandB,1
carpet pos,0
pc,0
Time (ms),CH1 Auto-Correlation
1.0,0.027876606211066246
2.0,0.027690252289175987
3.0,0.02750493586063385
4.0,0.027319559827446938
5.0,0.027137715369462967
6.0,0.026961911469697952
7.0,0.02679036557674408
8.0,0.02662377804517746
9.0,0.026459315791726112
10.0,0.026297705247998238
11.0,0.026136506348848343
12.0,0.025983858853578568
13.0,0.025832602754235268
14.0,0.025682421401143074
15.0,0.02553367428481579
16.0,0.025387434288859367
18.0,0.025113118812441826
20.0,0.024854985997080803
22.0,0.02460288442671299
24.0,0.024350780993700027
26.0,0.024095531553030014
28.0,0.02383042871952057
30.0,0.023565318435430527
32.0,0.023305047303438187
36.0,0.022791074588894844
40.0,0.022270826622843742
44.0,0.021777251735329628
48.0,0.021313248202204704
52.0,0.020856179296970367
56.0,0.02041168138384819
60.0,0.019968334585428238
64.0,0.019539915025234222
72.0,0.018726566806435585
80.0,0.017933141440153122
88.0,0.0171744953840971
96.0,0.016430245712399483
104.0,0.015758534893393517
112.0,0.01512733194977045
120.0,0.01451855804771185
128.0,0.013920983299612999
144.0,0.01280653104186058
160.0,0.011745413765311241
176.0,0.010731291957199574
192.0,0.010034668259322643
208.0,0.009458865970373154
224.0,0.008996503427624702
240.0,0.008557137101888657
256.0,0.008151454851031303
288.0,0.007326198276132345
320.0,0.006806861609220505
352.0,0.006239245180040598
384.0,0.005860515870153904
416.0,0.005540135316550732
448.0,0.005474313162267208
480.0,0.005305409897118807
512.0,0.0048292530700564384
576.0,0.0038196665700525045
640.0,0.002656567143276334
704.0,0.0009504050249233842
768.0,-0.0004011771234218031
832.0,-0.0008091626223176718
896.0,-0.0011360448552295566
960.0,-0.0010058314073830843
1024.0,-0.00032189363264478743
1152.0,0.0029245291370898485
1280.0,0.005065223667770624
1408.0,0.0036946029867976904
1536.0,0.002278171945363283
1664.0,0.002450133441016078
1792.0,0.003052262356504798
1920.0,0.003969717770814896
2048.0,0.003255159594118595
2304.0,0.00247639836743474
2560.0,0.002234378596767783
2816.0,0.0010120125953108072
3072.0,7.823245141480584e-06
3328.0,-0.00011477547377580777
3584.0,-0.0020681857131421566
3840.0,0.0001300973235629499
4096.0,0.0011726908851414919
4608.0,-0.0026798690669238567
5120.0,-0.0072841583751142025
5632.0,-0.003420931985601783
6144.0,-0.0032132400665432215
6656.0,-0.004462081473320723
7168.0,-0.006256716325879097
7680.0,-0.004474308341741562
8192.0,0.00013107880658935755
9216.0,-0.003438579849898815
10240.0,-0.0014069986063987017
11264.0,0.002966367406770587
12288.0,0.0028650378808379173
13312.0,0.003908303566277027
14336.0,0.0018987141083925962
end
