version,3.0
numOfCh,1
type,point
parent_name,4-cuts
ch_type,1_1
kcount,1
numberNandB,1
brightnessNandB,1
carpet pos,0
pc,0
Time (ms),CH1 Auto-Correlation
1.0,0.09840091317892075
2.0,0.0978517085313797
3.0,0.09731508046388626
4.0,0.09680269658565521
5.0,0.0963025912642479
6.0,0.09578205645084381
7.0,0.0952625721693039
8.0,0.09476278722286224
9.0,0.09427180886268616
10.0,0.09379265457391739
11.0,0.09331358969211578
12.0,0.09283680468797684
13.0,0.0923699289560318
14.0,0.09191019088029861
15.0,0.09145625680685043
16.0,0.09101004153490067
18.0,0.09014465659856796
20.0,0.08931942284107208
22.0,0.08851515501737595
24.0,0.08774750679731369
26.0,0.08701442182064056
28.0,0.08628402650356293
30.0,0.08559133857488632
32.0,0.08494166284799576
36.0,0.08373004198074341
40.0,0.08257803320884705
44.0,0.08147376775741577
48.0,0.08043469488620758
52.0,0.07941818982362747
56.0,0.07839899510145187
60.0,0.07734855264425278
64.0,0.07627207785844803
72.0,0.07414265722036362
80.0,0.07206807285547256
88.0,0.07008209079504013
96.0,0.06823554635047913
104.0,0.06654572486877441
112.0,0.06480368971824646
120.0,0.06317759305238724
128.0,0.061484333127737045
144.0,0.058162230998277664
160.0,0.055376555770635605
176.0,0.05292012542486191
192.0,0.0506378673017025
208.0,0.04813254997134209
224.0,0.04575234651565552
240.0,0.04376758635044098
256.0,0.04162997007369995
288.0,0.03722043335437775
320.0,0.03349844366312027
352.0,0.030386047437787056
384.0,0.02715948596596718
416.0,0.024152657017111778
448.0,0.021124539896845818
480.0,0.01904364489018917
512.0,0.017122546210885048
576.0,0.014477800577878952
640.0,0.013551338575780392
704.0,0.012426179833710194
768.0,0.01233720127493143
832.0,0.014178850688040257
896.0,0.01677284948527813
960.0,0.018788384273648262
1024.0,0.0176861509680748
1152.0,0.01700579933822155
1280.0,0.01783517189323902
1408.0,0.015128308907151222
1536.0,0.00957431923598051
1664.0,0.007291997317224741
1792.0,0.006390820257365704
1920.0,0.007637763395905495
2048.0,0.008702698163688183
2304.0,0.016762765124440193
2560.0,0.005653278902173042
2816.0,-0.00770751666277647
3072.0,-0.004178386181592941
3328.0,0.009324999526143074
3584.0,0.008051359094679356
3840.0,0.004221340641379356
4096.0,-0.0013594403862953186
4608.0,0.00243017403408885
5120.0,-0.011176448315382004
5632.0,-0.02049112692475319
6144.0,-0.012408875860273838
6656.0,-0.013911766931414604
7168.0,-0.013090051710605621
7680.0,-0.02526422217488289
8192.0,-0.019522760063409805
9216.0,-0.024745505303144455
10240.0,0.00928542111068964
11264.0,-0.011164052411913872
12288.0,-0.022096319124102592
13312.0,-0.02070324495434761
14336.0,0.03707492724061012
end
