version,3.0
numOfCh,1
type,point
parent_name,4-cuts
ch_type,1_1
kcount,1
numberNandB,1
brightnessNandB,1
carpet pos,0
pc,0
Time (ms),CH1 Auto-Correlation
1.0,0.08199803531169891
2.0,0.08149883151054382
3.0,0.08101140707731247
4.0,0.08052010089159012
5.0,0.08002974838018417
6.0,0.07954885065555573
7.0,0.07908345013856888
8.0,0.07863219082355499
9.0,0.07818988710641861
10.0,0.07775363326072693
11.0,0.07732611149549484
12.0,0.07691746205091476
13.0,0.07651986926794052
14.0,0.0761176198720932
15.0,0.07570324838161469
16.0,0.07528240978717804
18.0,0.07446642220020294
20.0,0.07369999587535858
22.0,0.07290718704462051
24.0,0.07211240381002426
26.0,0.07130350917577744
28.0,0.07051853090524673
30.0,0.06974229961633682
32.0,0.06898556649684906
36.0,0.06748634576797485
40.0,0.06606125831604004
44.0,0.06470415741205215
48.0,0.06340751051902771
52.0,0.06215955689549446
56.0,0.0609821155667305
60.0,0.059915315359830856
64.0,0.05887897312641144
72.0,0.05682078003883362
80.0,0.05493292212486267
88.0,0.0532480925321579
96.0,0.05161130800843239
104.0,0.050125863403081894
112.0,0.04863010719418526
120.0,0.04722915217280388
128.0,0.04580989107489586
144.0,0.043198682367801666
160.0,0.040435899049043655
176.0,0.03727953881025314
192.0,0.03476269543170929
208.0,0.03271569684147835
224.0,0.031041404232382774
240.0,0.02928803116083145
256.0,0.02734280377626419
288.0,0.022640686482191086
320.0,0.017988109961152077
352.0,0.013324215076863766
384.0,0.010152800939977169
416.0,0.00823766179382801
448.0,0.006650237366557121
480.0,0.005541015416383743
512.0,0.0038448087871074677
576.0,-0.00039284888771362603
640.0,-0.0013787824427708983
704.0,0.0018598405877128243
768.0,0.00516340509057045
832.0,0.006698337383568287
896.0,0.009695221669971943
960.0,0.012330787256360054
1024.0,0.012910386547446251
1152.0,0.012276943773031235
1280.0,0.008543956093490124
1408.0,0.000560410728212446
1536.0,-0.004541437141597271
1664.0,-0.004804892931133509
1792.0,-0.009440623223781586
1920.0,-0.005817769560962915
2048.0,-0.0016587163554504514
2304.0,0.0032789676915854216
2560.0,0.003803502768278122
2816.0,-0.0015234011225402355
3072.0,-0.001056511653587222
3328.0,-0.002670676913112402
3584.0,0.0003405022725928575
3840.0,-0.0023536256048828363
4096.0,-0.0001782305189408362
4608.0,0.005379759706556797
5120.0,0.007204609923064709
5632.0,-0.009883170016109943
6144.0,-0.014775106683373451
6656.0,-0.013931450434029102
7168.0,-0.01973600499331951
7680.0,-0.020588818937540054
8192.0,-0.01186981238424778
9216.0,0.003739746753126383
10240.0,0.003823706181719899
11264.0,-0.012320078909397125
12288.0,0.0011231976095587015
13312.0,0.011235152371227741
14336.0,0.03500843420624733
end
