version,3.0
numOfCh,1
type,point
parent_name,4-cuts
ch_type,1_1
kcount,1
numberNandB,1
brightnessNandB,1
carpet pos,0
pc,0
Time (ms),CH1 Auto-Correlation
1.0,0.02982662431895733
2.0,0.029626350849866867
3.0,0.029426226392388344
4.0,0.029223626479506493
5.0,0.02902592346072197
6.0,0.028828447684645653
7.0,0.028635671362280846
8.0,0.028447799384593964
9.0,0.028261682018637657
10.0,0.028082281351089478
11.0,0.027900902554392815
12.0,0.027716679498553276
13.0,0.027532119303941727
14.0,0.027348997071385384
15.0,0.02716420590877533
16.0,0.02698194794356823
18.0,0.0266281645745039
20.0,0.026285136118531227
22.0,0.025945544242858887
24.0,0.025613002479076385
26.0,0.025282543152570724
28.0,0.024956507608294487
30.0,0.024638323113322258
32.0,0.02434089407324791
36.0,0.023773612454533577
40.0,0.023243222385644913
44.0,0.022742606699466705
48.0,0.02226150780916214
52.0,0.021806739270687103
56.0,0.021366626024246216
60.0,0.020941441878676414
64.0,0.02053673379123211
72.0,0.01969694159924984
80.0,0.018887195736169815
88.0,0.018113337457180023
96.0,0.01736651174724102
104.0,0.016689270734786987
112.0,0.01612463779747486
120.0,0.01558668352663517
128.0,0.015039157122373581
144.0,0.014109562151134014
160.0,0.013370062224566936
176.0,0.012618204578757286
192.0,0.0116858696565032
208.0,0.010633192956447601
224.0,0.009645888581871986
240.0,0.008734096772968769
256.0,0.007736262399703264
288.0,0.005600419361144304
320.0,0.004103686660528183
352.0,0.0029180683195590973
384.0,0.0025050861295312643
416.0,0.0024273996241390705
448.0,0.0021226988174021244
480.0,0.0019048363901674747
512.0,0.0015750990714877844
576.0,0.0016618388472124934
640.0,0.0021704817190766335
704.0,0.001955706160515547
768.0,0.002527601085603237
832.0,0.003042767057195306
896.0,0.0025034367572516203
960.0,0.001281311153434217
1024.0,0.0005385337863117456
1152.0,-0.0008111376082524657
1280.0,-0.0011409519938752055
1408.0,0.0009361330303363502
1536.0,0.005150112323462963
1664.0,0.006451101042330265
1792.0,0.003254525363445282
1920.0,-0.00040418619755655527
2048.0,-0.002107789972797036
2304.0,0.0014935943763703108
2560.0,0.002591162221506238
2816.0,0.0007694250671193004
3072.0,-0.0003006290353368968
3328.0,-0.0003187827533110976
3584.0,-0.0024635798763483763
3840.0,-0.0029953080229461193
4096.0,0.0008069955511018634
4608.0,-0.0032346330117434263
5120.0,-0.0039762770757079124
5632.0,-0.0036211712285876274
6144.0,-0.006887635216116905
6656.0,0.0003664283431135118
7168.0,-0.001811913214623928
7680.0,-0.008454686030745506
8192.0,-0.0017689192900434136
9216.0,0.00187132996506989
10240.0,0.00016972859157249331
11264.0,0.00022902897035237402
12288.0,0.0033283757511526346
13312.0,-0.00036712948349304497
14336.0,0.0015421167481690645
end
