version,3.0
numOfCh,1
type,point
parent_name,4-cuts
ch_type,1_1
kcount,1
numberNandB,1
brightnessNandB,1
carpet pos,0
pc,0
Time (ms),CH1 Auto-Correlation
1.0,0.0715286135673523
2.0,0.07097157835960388
3.0,0.07042378187179565
4.0,0.0698874294757843
5.0,0.06935369968414307
6.0,0.0688374862074852
7.0,0.0683092325925827
8.0,0.06780650466680527
9.0,0.06731586158275604
10.0,0.06684636324644089
11.0,0.06639549881219864
12.0,0.0659538134932518
13.0,0.06551975756883621
14.0,0.0650765672326088
15.0,0.06463588774204254
16.0,0.06420128792524338
18.0,0.06331221014261246
20.0,0.06243463605642319
22.0,0.06156320497393608
24.0,0.06072257086634636
26.0,0.05988789349794388
28.0,0.059047069400548935
30.0,0.05821026861667633
32.0,0.05740952491760254
36.0,0.055947914719581604
40.0,0.05453208088874817
44.0,0.053139448165893555
48.0,0.051788926124572754
52.0,0.05055338144302368
56.0,0.04939977824687958
60.0,0.04830378293991089
64.0,0.04725201800465584
72.0,0.04545021802186966
80.0,0.04392888769507408
88.0,0.04244342818856239
96.0,0.041091058403253555
104.0,0.03971732407808304
112.0,0.03837570920586586
120.0,0.03708089888095856
128.0,0.035988762974739075
144.0,0.03404325991868973
160.0,0.03228263556957245
176.0,0.030573854222893715
192.0,0.028591517359018326
208.0,0.027247071266174316
224.0,0.026357505470514297
240.0,0.025872835889458656
256.0,0.025566186755895615
288.0,0.024120638146996498
320.0,0.021575337275862694
352.0,0.02019372768700123
384.0,0.020171498879790306
416.0,0.020625805482268333
448.0,0.020181413739919662
480.0,0.018691452220082283
512.0,0.017057077959179878
576.0,0.01405860111117363
640.0,0.011912044137716293
704.0,0.009989037178456783
768.0,0.0057158214040100574
832.0,0.004216144792735577
896.0,0.0037394401151686907
960.0,0.0020842854864895344
1024.0,0.000575998448766768
1152.0,-0.0018404694274067879
1280.0,-0.0033053334336727858
1408.0,0.0011527814203873277
1536.0,0.0031861593015491962
1664.0,0.0051750969141721725
1792.0,0.010893093422055244
1920.0,0.011322855949401855
2048.0,0.006245930679142475
2304.0,0.0027431100606918335
2560.0,-0.006138686090707779
2816.0,-0.01709943637251854
3072.0,-0.023661920800805092
3328.0,-0.02498238906264305
3584.0,-0.02030363865196705
3840.0,-0.01468034740537405
4096.0,-0.006989338900893927
4608.0,-0.0034213708713650703
5120.0,-0.0031469203531742096
5632.0,-0.0006580123445019126
6144.0,0.009221993386745453
6656.0,0.019752265885472298
7168.0,0.022002294659614563
7680.0,0.007129612844437361
8192.0,0.0020049698650836945
9216.0,-0.0002826389390975237
10240.0,-0.027069369331002235
11264.0,-0.010746137239038944
12288.0,-0.00827332679182291
13312.0,0.007301599718630314
14336.0,0.0008647991926409304
end
