version,3.0
numOfCh,1
type,point
parent_name,4-cuts
ch_type,1_1
kcount,1
numberNandB,1
brightnessNandB,1
carpet pos,0
pc,0
Time (ms),CH1 Auto-Correlation
1.0,0.07527150213718414
2.0,0.07472998648881912
3.0,0.07419409602880478
4.0,0.07366100698709488
5.0,0.07311977446079254
6.0,0.07258687913417816
7.0,0.0720570981502533
8.0,0.07155092060565948
9.0,0.07105248421430588
10.0,0.07055862993001938
11.0,0.07008206844329834
12.0,0.06959875673055649
13.0,0.06913838535547256
14.0,0.06868632137775421
15.0,0.06823350489139557
16.0,0.06777625530958176
18.0,0.06690151244401932
20.0,0.0660490021109581
22.0,0.06520868837833405
24.0,0.06436546891927719
26.0,0.06351849436759949
28.0,0.0626787394285202
30.0,0.061851616948843
32.0,0.061054620891809464
36.0,0.059567809104919434
40.0,0.0581553690135479
44.0,0.05678154528141022
48.0,0.055443570017814636
52.0,0.054210592061281204
56.0,0.05304979160428047
60.0,0.051872968673706055
64.0,0.05074052885174751
72.0,0.04865061491727829
80.0,0.04661872610449791
88.0,0.044808678328990936
96.0,0.043110426515340805
104.0,0.04138817638158798
112.0,0.039797406643629074
120.0,0.03825158625841141
128.0,0.03672904893755913
144.0,0.034083396196365356
160.0,0.03142448142170906
176.0,0.028704341500997543
192.0,0.026276901364326477
208.0,0.02461012825369835
224.0,0.023522090166807175
240.0,0.022727955132722855
256.0,0.0222103800624609
288.0,0.020418573170900345
320.0,0.01789938285946846
352.0,0.015707459300756454
384.0,0.013292455114424229
416.0,0.010685844346880913
448.0,0.008027227595448494
480.0,0.0038148441817611456
512.0,0.000621090701315552
576.0,-0.0006983345956541598
640.0,-0.0008077885140664876
704.0,-0.0012250820873305202
768.0,-0.004244707990437746
832.0,-0.006181689910590649
896.0,-0.006876025348901749
960.0,-0.005465492606163025
1024.0,-0.002254999941214919
1152.0,-0.0011829619761556387
1280.0,-0.00409231660887599
1408.0,-0.002552039921283722
1536.0,-0.0014718399615958333
1664.0,9.694402251625434e-05
1792.0,0.004445247817784548
1920.0,0.0055586472153663635
2048.0,0.0015722602838650346
2304.0,0.00013509782729670405
2560.0,0.002955883275717497
2816.0,0.014413534663617611
3072.0,0.009666298516094685
3328.0,0.006243607960641384
3584.0,-0.004258647095412016
3840.0,-0.0038776970468461514
4096.0,-0.012349204160273075
4608.0,-0.009295962750911713
5120.0,-0.000871111114975065
5632.0,0.0038529231678694487
6144.0,-0.004484830889850855
6656.0,0.005303388927131891
7168.0,-0.017347976565361023
7680.0,0.0009029143839143217
8192.0,0.005422478076070547
9216.0,-0.015955466777086258
10240.0,-0.008910019882023335
11264.0,-0.002713310532271862
12288.0,-0.016594519838690758
13312.0,0.018135033547878265
14336.0,0.03425736725330353
end
