version,3.0
numOfCh,1
type,point
parent_name,4-cuts
ch_type,1_1
kcount,1
numberNandB,1
brightnessNandB,1
carpet pos,0
pc,0
Time (ms),CH1 Auto-Correlation
1.0,0.13993175327777863
2.0,0.13936878740787506
3.0,0.13883228600025177
4.0,0.13829907774925232
5.0,0.13777223229408264
6.0,0.13725723326206207
7.0,0.1367536187171936
8.0,0.13623599708080292
9.0,0.1357245296239853
10.0,0.13522842526435852
11.0,0.1347532719373703
12.0,0.13429467380046844
13.0,0.13385161757469177
14.0,0.133401557803154
15.0,0.13295960426330566
16.0,0.13251115381717682
18.0,0.1316424161195755
20.0,0.13081960380077362
22.0,0.13002043962478638
24.0,0.12926727533340454
26.0,0.12854738533496857
28.0,0.1278262734413147
30.0,0.12713874876499176
32.0,0.12643581628799438
36.0,0.12504906952381134
40.0,0.12369582056999207
44.0,0.12238720804452896
48.0,0.12112075835466385
52.0,0.11991273611783981
56.0,0.11876512318849564
60.0,0.11768202483654022
64.0,0.11662355810403824
72.0,0.11441276967525482
80.0,0.11211001873016357
88.0,0.10966123640537262
96.0,0.10737723112106323
104.0,0.10517153143882751
112.0,0.10315939038991928
120.0,0.10149969160556793
128.0,0.09993374347686768
144.0,0.09727370738983154
160.0,0.09525460004806519
176.0,0.09310996532440186
192.0,0.09131836146116257
208.0,0.08917848020792007
224.0,0.08756467700004578
240.0,0.08675134181976318
256.0,0.08623240143060684
288.0,0.08563889563083649
320.0,0.0858071967959404
352.0,0.08598263561725616
384.0,0.08474346995353699
416.0,0.08210257440805435
448.0,0.07964231073856354
480.0,0.07606696337461472
512.0,0.07432835549116135
576.0,0.07189688831567764
640.0,0.06867271661758423
704.0,0.06463218480348587
768.0,0.06078345328569412
832.0,0.05607963725924492
896.0,0.05157248303294182
960.0,0.050721362233161926
1024.0,0.05224514380097389
1152.0,0.050796326249837875
1280.0,0.04912228509783745
1408.0,0.04436424374580383
1536.0,0.03188231587409973
1664.0,0.023216640576720238
1792.0,0.019563129171729088
1920.0,0.009853060357272625
2048.0,0.0008961958810687065
2304.0,-0.009115496650338173
2560.0,-0.01428680494427681
2816.0,-0.02511409856379032
3072.0,-0.037272922694683075
3328.0,-0.043152205646038055
3584.0,-0.05578681454062462
3840.0,-0.05639573186635971
4096.0,-0.058417100459337234
4608.0,-0.05517157167196274
5120.0,-0.044317472726106644
5632.0,-0.023487620055675507
6144.0,0.0070006768219172955
6656.0,0.029725758358836174
7168.0,0.055068884044885635
7680.0,0.07937543839216232
8192.0,0.06679966300725937
9216.0,0.02810542657971382
10240.0,-0.030731506645679474
11264.0,-0.06881862878799438
12288.0,-0.10402975231409073
13312.0,-0.10611986368894577
14336.0,-0.07616078108549118
end
