version,3.0
numOfCh,1
type,point
parent_name,4-cuts
ch_type,1_1
kcount,1
numberNandB,1
brightnessNandB,1
carpet pos,0
pc,0
Time (ms),CH1 Auto-Correlation
1.0,0.06244077906012535
2.0,0.06200871244072914
3.0,0.061576832085847855
4.0,0.06115679070353508
5.0,0.06073944643139839
6.0,0.06032726168632507
7.0,0.059912461787462234
8.0,0.0594974122941494
9.0,0.059079110622406006
10.0,0.05865832790732384
11.0,0.058246199041604996
12.0,0.05783705413341522
13.0,0.05742751434445381
14.0,0.057022467255592346
15.0,0.05662865191698074
16.0,0.05624014511704445
18.0,0.05548178777098656
20.0,0.054748211055994034
22.0,0.05406392365694046
24.0,0.05342141538858414
26.0,0.05279349535703659
28.0,0.05216309055685997
30.0,0.051564741879701614
32.0,0.05099906772375107
36.0,0.049927420914173126
40.0,0.0488630086183548
44.0,0.047873057425022125
48.0,0.046889372169971466
52.0,0.0459585040807724
56.0,0.045050352811813354
60.0,0.04416069760918617
64.0,0.04331241548061371
72.0,0.041787661612033844
80.0,0.04038955271244049
88.0,0.03895099461078644
96.0,0.037516407668590546
104.0,0.0361003540456295
112.0,0.034676503390073776
120.0,0.03329164534807205
128.0,0.032029274851083755
144.0,0.029706168919801712
160.0,0.027784503996372223
176.0,0.026294419541954994
192.0,0.02472524531185627
208.0,0.023042898625135422
224.0,0.021536439657211304
240.0,0.020508944988250732
256.0,0.01984982006251812
288.0,0.018025962635874748
320.0,0.016061920672655106
352.0,0.014280012808740139
384.0,0.011374806985259056
416.0,0.009357480332255363
448.0,0.00772509491071105
480.0,0.006460786797106266
512.0,0.005276910960674286
576.0,0.001945364405401051
640.0,-0.0002868603332899511
704.0,-0.0012438822304829955
768.0,-0.0027661363128572702
832.0,-0.0032346434891223907
896.0,-0.0035613432992249727
960.0,-0.0043262578547000885
1024.0,-0.0052327183075249195
1152.0,-0.00581672927364707
1280.0,-0.0057269372045993805
1408.0,-0.002424098551273346
1536.0,0.005064940545707941
1664.0,0.004385005682706833
1792.0,-0.0008621177403256297
1920.0,-0.006199523340910673
2048.0,-0.010068215429782867
2304.0,-0.015770474448800087
2560.0,-0.009049754589796066
2816.0,-0.004181581549346447
3072.0,0.007170917000621557
3328.0,0.009516807273030281
3584.0,0.0035585907753556967
3840.0,-0.004728564992547035
4096.0,-0.004467848688364029
4608.0,-0.003275234019383788
5120.0,-0.0021981392055749893
5632.0,-0.003649022663012147
6144.0,-0.003901232499629259
6656.0,-0.00010113495955010876
7168.0,0.0021857109386473894
7680.0,-0.0035310806706547737
8192.0,-0.0016240117838606238
9216.0,0.0010008891113102436
10240.0,0.0063541606068611145
11264.0,-0.011071407236158848
12288.0,-0.0031569800339639187
13312.0,0.005778562743216753
14336.0,-0.0022994070313870907
end
