version,3.0
numOfCh,1
type,point
parent_name,4-cuts
ch_type,1_1
kcount,1
numberNandB,1
brightnessNandB,1
carpet pos,0
pc,0
Time (ms),CH1 Auto-Correlation
1.0,0.02451515756547451
2.0,0.024289336055517197
3.0,0.024072714149951935
4.0,0.02385573275387287
5.0,0.02364242635667324
6.0,0.023424874991178513
7.0,0.02321700192987919
8.0,0.02300841361284256
9.0,0.02280234917998314
10.0,0.022603029385209084
11.0,0.022397644817829132
12.0,0.022192368283867836
13.0,0.0219905823469162
14.0,0.021794183179736137
15.0,0.021596496924757957
16.0,0.02140600048005581
18.0,0.02103797346353531
20.0,0.020687386393547058
22.0,0.0203481987118721
24.0,0.020024089142680168
26.0,0.019701464101672173
28.0,0.019382119178771973
30.0,0.019064418971538544
32.0,0.018744269385933876
36.0,0.018132906407117844
40.0,0.017565833404660225
44.0,0.017061417922377586
48.0,0.01658257469534874
52.0,0.016112150624394417
56.0,0.0156309325248003
60.0,0.015153213404119015
64.0,0.01466936245560646
72.0,0.013771080411970615
80.0,0.013015425764024258
88.0,0.012350841425359249
96.0,0.011794041842222214
104.0,0.011303022503852844
112.0,0.010842540301382542
120.0,0.010303418152034283
128.0,0.009705103002488613
144.0,0.008475711569190025
160.0,0.007209603674709797
176.0,0.006305226124823093
192.0,0.005805175751447678
208.0,0.005307121202349663
224.0,0.004641950596123934
240.0,0.004094358999282122
256.0,0.003570399945601821
288.0,0.001966830575838685
320.0,0.001081792521290481
352.0,0.0008280948968604207
384.0,0.0012810956686735153
416.0,0.002124795690178871
448.0,0.00287388707511127
480.0,0.0034377039410173893
512.0,0.0036771849263459444
576.0,0.0036408461164683104
640.0,0.0025757215917110443
704.0,0.0014879648806527257
768.0,0.00112858135253191
832.0,0.0005146689945831895
896.0,0.0005903944838792086
960.0,0.0018816302763298154
1024.0,0.003428420051932335
1152.0,0.0023218789137899876
1280.0,0.0008362324442714453
1408.0,0.0012139150639995933
1536.0,0.0011097666574642062
1664.0,0.0013857593294233084
1792.0,0.0016650735633447766
1920.0,4.145070488448255e-05
2048.0,6.92393587087281e-05
2304.0,0.00021383591229096055
2560.0,-0.003244214691221714
2816.0,-0.0017067320877686143
3072.0,-0.001633213716559112
3328.0,-0.001956044463440776
3584.0,-0.002783925738185644
3840.0,0.001882439712062478
4096.0,-8.04168957984075e-05
4608.0,-0.003216225653886795
5120.0,-0.0010850884718820453
5632.0,-0.0011927906889468431
6144.0,-0.0018034636741504073
6656.0,-0.0007280157878994942
7168.0,-0.0007228582981042564
7680.0,0.0012998011661693454
8192.0,0.001159518607892096
9216.0,-0.0005075039225630462
10240.0,-0.002915533958002925
11264.0,-0.0008202846511267126
12288.0,-0.0002173579268855974
13312.0,0.003911270294338465
14336.0,0.004725825972855091
end
