version,3.0
numOfCh,1
type,point
parent_name,4-cuts
ch_type,1_1
kcount,1
numberNandB,1
brightnessNandB,1
carpet pos,0
pc,0
Time (ms),CH1 Auto-Correlation
1.0,0.0813489705324173
2.0,0.08082673698663712
3.0,0.08030956983566284
4.0,0.07978542149066925
5.0,0.0792577937245369
6.0,0.07873321324586868
7.0,0.07821303606033325
8.0,0.07770198583602905
9.0,0.07720645517110825
10.0,0.07672916352748871
11.0,0.07626308500766754
12.0,0.07579601556062698
13.0,0.07533513754606247
14.0,0.07487792521715164
15.0,0.07443505525588989
16.0,0.07398158311843872
18.0,0.07307572662830353
20.0,0.07220283150672913
22.0,0.0713689774274826
24.0,0.07053636759519577
26.0,0.06969556212425232
28.0,0.06885500252246857
30.0,0.06804164499044418
32.0,0.06724708527326584
36.0,0.06566745042800903
40.0,0.06418347358703613
44.0,0.06282761693000793
48.0,0.0615600049495697
52.0,0.06045057624578476
56.0,0.059451863169670105
60.0,0.058516133576631546
64.0,0.057543735951185226
72.0,0.05581795796751976
80.0,0.05423780158162117
88.0,0.052683185786008835
96.0,0.05120471119880676
104.0,0.049703724682331085
112.0,0.04817633330821991
120.0,0.046819914132356644
128.0,0.04560793191194534
144.0,0.0431101955473423
160.0,0.040637001395225525
176.0,0.03868337720632553
192.0,0.03688080236315727
208.0,0.035087473690509796
224.0,0.03321875259280205
240.0,0.03149927407503128
256.0,0.02976030483841896
288.0,0.02693953551352024
320.0,0.024167148396372795
352.0,0.021479561924934387
384.0,0.019318286329507828
416.0,0.018054310232400894
448.0,0.015785275027155876
480.0,0.012941227294504642
512.0,0.01051003485918045
576.0,0.004631773103028536
640.0,-0.0007800442399457097
704.0,-0.003874024376273155
768.0,-0.0050006452947855
832.0,-0.007015591487288475
896.0,-0.01042818371206522
960.0,-0.012309865094721317
1024.0,-0.013208824209868908
1152.0,-0.012039396911859512
1280.0,-0.009499877691268921
1408.0,-0.011970007792115211
1536.0,-0.009212683886289597
1664.0,-0.0015080057783052325
1792.0,0.00379497604444623
1920.0,0.006855485960841179
2048.0,0.006642751395702362
2304.0,0.0037838774733245373
2560.0,0.01402231864631176
2816.0,0.0171221736818552
3072.0,0.009513184428215027
3328.0,-0.00669462513178587
3584.0,-0.01875908486545086
3840.0,-0.021720176562666893
4096.0,-0.01794086955487728
4608.0,0.008899015374481678
5120.0,0.015300802886486053
5632.0,0.0038456991314888
6144.0,-0.017708351835608482
6656.0,-0.020867442712187767
7168.0,0.0011234550038352609
7680.0,0.02155180647969246
8192.0,-0.003137893509119749
9216.0,-0.017688870429992676
10240.0,0.016002995893359184
11264.0,-0.027757586911320686
12288.0,0.0032260988373309374
13312.0,0.005396334920078516
14336.0,-0.012798854149878025
end
