version,3.0
numOfCh,1
type,point
parent_name,4-cuts
ch_type,1_1
kcount,1
numberNandB,1
brightnessNandB,1
carpet pos,0
pc,0
Time (ms),CH1 Auto-Correlation
1.0,0.027608146890997887
2.0,0.027396705001592636
3.0,0.027180705219507217
4.0,0.0269662756472826
5.0,0.026752913370728493
6.0,0.02654661424458027
7.0,0.026336781680583954
8.0,0.026129692792892456
9.0,0.025925181806087494
10.0,0.025725584477186203
11.0,0.025526877492666245
12.0,0.025331875309348106
13.0,0.025143111124634743
14.0,0.0249610785394907
15.0,0.024780143052339554
16.0,0.0245977733284235
18.0,0.02423926629126072
20.0,0.023894617334008217
22.0,0.0235638115555048
24.0,0.023249708116054535
26.0,0.022948961704969406
28.0,0.0226563923060894
30.0,0.02236665040254593
32.0,0.022084804251790047
36.0,0.021526426076889038
40.0,0.020993586629629135
44.0,0.02047652192413807
48.0,0.019959187135100365
52.0,0.019489925354719162
56.0,0.01905718818306923
60.0,0.018683498725295067
64.0,0.018320484086871147
72.0,0.017632151022553444
80.0,0.016936859115958214
88.0,0.016262991353869438
96.0,0.01563640870153904
104.0,0.014978773891925812
112.0,0.01433738972991705
120.0,0.01376547385007143
128.0,0.013330592773854733
144.0,0.01236556563526392
160.0,0.011206812225282192
176.0,0.010154355317354202
192.0,0.009177078492939472
208.0,0.008368545211851597
224.0,0.007613553199917078
240.0,0.006994477938860655
256.0,0.006616226863116026
288.0,0.005757417995482683
320.0,0.004593757912516594
352.0,0.003445083973929286
384.0,0.0025265116710215807
416.0,0.0015278490027412772
448.0,0.0004136516945436597
480.0,5.357836198527366e-05
512.0,-5.2548137318808585e-05
576.0,-0.000125324513646774
640.0,-0.0008460470126010478
704.0,-0.000889147340785712
768.0,-0.0010177221847698092
832.0,-0.0005629908991977572
896.0,-0.00037484357017092407
960.0,-0.0009625395177863538
1024.0,-0.0014009050792083144
1152.0,-0.0015230609569698572
1280.0,-0.0025012651458382607
1408.0,-0.0026507347356528044
1536.0,-0.00298498198390007
1664.0,-0.0026685011107474566
1792.0,-0.0015455679967999458
1920.0,-0.001361470902338624
2048.0,-0.0019326512701809406
2304.0,-0.0022458534222096205
2560.0,-0.0024461133871227503
2816.0,-0.0003056033165194094
3072.0,-0.0005216017016209662
3328.0,0.002702771220356226
3584.0,0.002083699218928814
3840.0,-0.002197330119088292
4096.0,-0.003297064220532775
4608.0,0.00023381819482892752
5120.0,0.0026178359985351562
5632.0,-0.0012030648067593575
6144.0,-0.002190812723711133
6656.0,-0.0012618410401046276
7168.0,-5.131368016009219e-05
7680.0,0.0008453371119685471
8192.0,-0.0007237684330902994
9216.0,-0.0011613938258960843
10240.0,0.00300407106988132
11264.0,-0.0068428064696490765
12288.0,0.0036678307224065065
13312.0,0.008673799224197865
14336.0,-0.0057113682851195335
end
