version,3.0
numOfCh,1
type,point
parent_name,4-cuts
ch_type,1_1
kcount,1
numberNandB,1
brightnessNandB,1
carpet pos,0
pc,0
Time (ms),CH1 Auto-Correlation
1.0,0.0814952552318573
2.0,0.08106126636266708
3.0,0.08063147962093353
4.0,0.08020416647195816
5.0,0.07978316396474838
6.0,0.07936964184045792
7.0,0.07896916568279266
8.0,0.07857409119606018
9.0,0.07818637043237686
10.0,0.07779650390148163
11.0,0.07740846276283264
12.0,0.07703200727701187
13.0,0.07665727287530899
14.0,0.0763002336025238
15.0,0.07592152059078217
16.0,0.07554630935192108
18.0,0.07480068504810333
20.0,0.07405868917703629
22.0,0.07330793142318726
24.0,0.0725790485739708
26.0,0.0718591958284378
28.0,0.07115871459245682
30.0,0.0704563781619072
32.0,0.06977111101150513
36.0,0.06842301040887833
40.0,0.06710797548294067
44.0,0.0658564642071724
48.0,0.06473461538553238
52.0,0.06367700546979904
56.0,0.06260649114847183
60.0,0.06152837723493576
64.0,0.060466550290584564
72.0,0.05835462734103203
80.0,0.056294187903404236
88.0,0.054223883897066116
96.0,0.05229966342449188
104.0,0.05066141113638878
112.0,0.049215566366910934
120.0,0.04780395328998566
128.0,0.046469029039144516
144.0,0.04353876784443855
160.0,0.04089334234595299
176.0,0.03864848241209984
192.0,0.036549922078847885
208.0,0.03460455685853958
224.0,0.03268922120332718
240.0,0.030485974624753
256.0,0.028037797659635544
288.0,0.02323339879512787
320.0,0.020765356719493866
352.0,0.018563566729426384
384.0,0.016906900331377983
416.0,0.015497250482439995
448.0,0.015882857143878937
480.0,0.016937509179115295
512.0,0.016256675124168396
576.0,0.013108308427035809
640.0,0.011736701242625713
704.0,0.013147995807230473
768.0,0.014110142365098
832.0,0.01604606769979
896.0,0.01778636872768402
960.0,0.017225176095962524
1024.0,0.015468589961528778
1152.0,0.00836831983178854
1280.0,-0.00029783480567857623
1408.0,-0.0035246924962848425
1536.0,-0.005239396821707487
1664.0,-0.0019334520911797881
1792.0,0.004578463267534971
1920.0,0.00704538868740201
2048.0,-0.001522027887403965
2304.0,-0.011550304479897022
2560.0,-0.011099978350102901
2816.0,-0.005693912971764803
3072.0,-0.016042135655879974
3328.0,-0.021095452830195427
3584.0,-0.011839425191283226
3840.0,-0.006146201863884926
4096.0,-0.015899933874607086
4608.0,-0.008925490081310272
5120.0,-0.008556368760764599
5632.0,-0.002902467967942357
6144.0,-0.010290282778441906
6656.0,-0.00011359935160726309
7168.0,0.00455770967528224
7680.0,0.00537506490945816
8192.0,0.013280531391501427
9216.0,0.016993748024106026
10240.0,0.008593305945396423
11264.0,-0.0024724279064685106
12288.0,-0.016494929790496826
13312.0,-0.05028292164206505
14336.0,0.0025063471402972937
end
