version,3.0
numOfCh,1
type,point
parent_name,4-cuts
ch_type,1_1
kcount,1
numberNandB,1
brightnessNandB,1
carpet pos,0
pc,0
Time (ms),CH1 Auto-Correlation
1.0,0.07655129581689835
2.0,0.07613047957420349
3.0,0.07571964710950851
4.0,0.07531441003084183
5.0,0.07491078227758408
6.0,0.0745137631893158
7.0,0.07413166761398315
8.0,0.07375010848045349
9.0,0.07337436825037003
10.0,0.07300782948732376
11.0,0.07264583557844162
12.0,0.07229496538639069
13.0,0.07193935662508011
14.0,0.07158233970403671
15.0,0.0712318941950798
16.0,0.07088888436555862
18.0,0.07021433860063553
20.0,0.06956491619348526
22.0,0.06894102692604065
24.0,0.06834271550178528
26.0,0.0677565410733223
28.0,0.06719790399074554
30.0,0.06663469970226288
32.0,0.06605108827352524
36.0,0.0648869052529335
40.0,0.06372099369764328
44.0,0.06258723139762878
48.0,0.06147773936390877
52.0,0.0603543296456337
56.0,0.05925696715712547
60.0,0.058263856917619705
64.0,0.057363566011190414
72.0,0.055764827877283096
80.0,0.05437856540083885
88.0,0.05314421281218529
96.0,0.051888078451156616
104.0,0.050697870552539825
112.0,0.04954676330089569
120.0,0.04843771085143089
128.0,0.047389477491378784
144.0,0.04538176208734512
160.0,0.043612997978925705
176.0,0.04177200421690941
192.0,0.0403522327542305
208.0,0.03901755437254906
224.0,0.03817151486873627
240.0,0.03735114634037018
256.0,0.036556463688611984
288.0,0.035493817180395126
320.0,0.033891595900058746
352.0,0.03210645914077759
384.0,0.029850149527192116
416.0,0.02725471369922161
448.0,0.025201935321092606
480.0,0.022908028215169907
512.0,0.01984509825706482
576.0,0.017821386456489563
640.0,0.018175415694713593
704.0,0.018329212442040443
768.0,0.017760563641786575
832.0,0.01769161969423294
896.0,0.017846090719103813
960.0,0.018833227455615997
1024.0,0.019609253853559494
1152.0,0.01436532661318779
1280.0,0.014844662509858608
1408.0,0.016736360266804695
1536.0,0.014204046688973904
1664.0,0.01288346853107214
1792.0,0.008527078665792942
1920.0,0.00886131264269352
2048.0,0.008329438976943493
2304.0,0.006893898360431194
2560.0,0.00208388757891953
2816.0,0.00012548219820018858
3072.0,0.003643481293693185
3328.0,0.008472861722111702
3584.0,0.013212318532168865
3840.0,0.012985378503799438
4096.0,0.003988596610724926
4608.0,0.0008728494867682457
5120.0,0.0015308583388105035
5632.0,-0.0027436651289463043
6144.0,-0.01480253878980875
6656.0,-0.014255374670028687
7168.0,-0.01938430219888687
7680.0,-0.028401805087924004
8192.0,-0.023234626278281212
9216.0,-0.023961728438735008
10240.0,-0.002316622994840145
11264.0,-0.015821432694792747
12288.0,-0.0125332772731781
13312.0,-0.03307214379310608
14336.0,0.008004004135727882
end
