version,3.0
numOfCh,1
type,point
parent_name,4-cuts
ch_type,1_1
kcount,1
numberNandB,1
brightnessNandB,1
carpet pos,0
pc,0
Time (ms),CH1 Auto-Correlation
1.0,0.08311803638935089
2.0,0.08243104815483093
3.0,0.08177213370800018
4.0,0.08114200830459595
5.0,0.08052878826856613
6.0,0.07993641495704651
7.0,0.07935191690921783
8.0,0.07877225428819656
9.0,0.07819847017526627
10.0,0.0776168555021286
11.0,0.07705576717853546
12.0,0.07650596648454666
13.0,0.07594738900661469
14.0,0.07540642470121384
15.0,0.07488185167312622
16.0,0.07436985522508621
18.0,0.07338246703147888
20.0,0.07241777330636978
22.0,0.07150734215974808
24.0,0.07063581049442291
26.0,0.06978432834148407
28.0,0.06894965469837189
30.0,0.06812480092048645
32.0,0.06731307506561279
36.0,0.06573154777288437
40.0,0.06420660763978958
44.0,0.06269648671150208
48.0,0.06124018132686615
52.0,0.05974109470844269
56.0,0.05822841823101044
60.0,0.056811437010765076
64.0,0.055392924696207047
72.0,0.052763648331165314
80.0,0.05065262317657471
88.0,0.0486534982919693
96.0,0.04690557345747948
104.0,0.04514124616980553
112.0,0.04308949410915375
120.0,0.04106193780899048
128.0,0.03932296484708786
144.0,0.036155737936496735
160.0,0.03310195356607437
176.0,0.029487941414117813
192.0,0.025906017050147057
208.0,0.022742290049791336
224.0,0.01950335130095482
240.0,0.01682273857295513
256.0,0.0146164670586586
288.0,0.011302982456982136
320.0,0.009066417813301086
352.0,0.008192786946892738
384.0,0.005864654667675495
416.0,0.0024758384097367525
448.0,-0.00022765361063648015
480.0,-0.002118518343195319
512.0,-0.0045697386376559734
576.0,-0.007367127109318972
640.0,-0.006892084609717131
704.0,-0.0064004939049482346
768.0,-0.004979576915502548
832.0,-0.0020104101859033108
896.0,0.00020678645523730665
960.0,0.0041536008939146996
1024.0,0.004569857846945524
1152.0,-0.0018107861978933215
1280.0,-0.013310720212757587
1408.0,-0.023050645366311073
1536.0,-0.02267303876578808
1664.0,-0.018588531762361526
1792.0,-0.011082022450864315
1920.0,-0.0030481189023703337
2048.0,0.003728055628016591
2304.0,0.006050120573490858
2560.0,-0.004298431798815727
2816.0,0.005477199796587229
3072.0,0.007014803122729063
3328.0,-0.00509478896856308
3584.0,-0.005566433537751436
3840.0,-0.0016401757020503283
4096.0,-0.004859892185777426
4608.0,-0.004641307517886162
5120.0,0.004844035487622023
5632.0,0.002657956210896373
6144.0,0.006942469161003828
6656.0,0.006950611714273691
7168.0,0.00038915598997846246
7680.0,-0.02014744095504284
8192.0,-0.01122045423835516
9216.0,0.00637663621455431
10240.0,-0.004620807245373726
11264.0,0.012821258045732975
12288.0,0.009638688527047634
13312.0,-0.019057905301451683
14336.0,-0.003808671608567238
end
