version,3.0
numOfCh,1
type,point
parent_name,4-cuts
ch_type,1_1
kcount,1
numberNandB,1
brightnessNandB,1
carpet pos,0
pc,0
Time (ms),CH1 Auto-Correlation
1.0,0.054536353796720505
2.0,0.05412238463759422
3.0,0.053708359599113464
4.0,0.05329558625817299
5.0,0.05287875235080719
6.0,0.052481308579444885
7.0,0.05209462717175484
8.0,0.051710184663534164
9.0,0.0513169951736927
10.0,0.0509265772998333
11.0,0.05055401474237442
12.0,0.05018142983317375
13.0,0.04981759935617447
14.0,0.04945346340537071
15.0,0.04910092055797577
16.0,0.048748571425676346
18.0,0.04807406663894653
20.0,0.04739822819828987
22.0,0.04672015458345413
24.0,0.04604010283946991
26.0,0.04534542188048363
28.0,0.04464363306760788
30.0,0.04394987225532532
32.0,0.043287843465805054
36.0,0.04208290949463844
40.0,0.04092026874423027
44.0,0.039792031049728394
48.0,0.038682971149683
52.0,0.03758963942527771
56.0,0.03654574975371361
60.0,0.035497866570949554
64.0,0.03448209911584854
72.0,0.032531287521123886
80.0,0.03087066300213337
88.0,0.029490163549780846
96.0,0.02823885716497898
104.0,0.02699589915573597
112.0,0.025824692100286484
120.0,0.024748090654611588
128.0,0.023735888302326202
144.0,0.021863222122192383
160.0,0.020020416006445885
176.0,0.01864134520292282
192.0,0.017568789422512054
208.0,0.016428997740149498
224.0,0.015362855046987534
240.0,0.014721245504915714
256.0,0.01455818209797144
288.0,0.014695352874696255
320.0,0.01417327206581831
352.0,0.012780203483998775
384.0,0.010394345037639141
416.0,0.006957995239645243
448.0,0.00414226995781064
480.0,0.003428445430472493
512.0,0.0032088030129671097
576.0,0.0020092506892979145
640.0,0.003615338820964098
704.0,0.0037623727694153786
768.0,0.001433313125744462
832.0,0.0007528642890974879
896.0,0.0008116586250253022
960.0,0.002083285478875041
1024.0,-0.0004239794216118753
1152.0,-0.0037609615828841925
1280.0,-0.0025765446480363607
1408.0,-0.005976464133709669
1536.0,-0.00593770993873477
1664.0,-0.0031032273545861244
1792.0,-0.003439800115302205
1920.0,-0.001500168815255165
2048.0,0.002521430840715766
2304.0,0.000981809920631349
2560.0,0.0005792867741547525
2816.0,0.0021954106632620096
3072.0,-0.004417389165610075
3328.0,-0.009075886569917202
3584.0,-0.008823242038488388
3840.0,-0.003670700127258897
4096.0,0.0016126943519338965
4608.0,-0.00019267696188762784
5120.0,0.004677345044910908
5632.0,-0.004518311005085707
6144.0,-0.002286400878801942
6656.0,0.00202566129155457
7168.0,0.005660683382302523
7680.0,-0.0003968424571212381
8192.0,-0.007185343187302351
9216.0,0.010935179889202118
10240.0,-0.006103451829403639
11264.0,-0.006336698774248362
12288.0,-0.004397249780595303
13312.0,-0.009148405864834785
14336.0,-0.0053846281953155994
end
