version,3.0
numOfCh,1
type,point
parent_name,4-cuts
ch_type,1_1
kcount,1
numberNandB,1
brightnessNandB,1
carpet pos,0
pc,0
Time (ms),CH1 Auto-Correlation
1.0,0.0681670531630516
2.0,0.06775777786970139
3.0,0.0673556923866272
4.0,0.0669543519616127
5.0,0.06654822826385498
6.0,0.06614720076322556
7.0,0.06574245542287827
8.0,0.06533642113208771
9.0,0.06495845317840576
10.0,0.06458387523889542
11.0,0.06420907378196716
12.0,0.06384003907442093
13.0,0.06347450613975525
14.0,0.063108891248703
15.0,0.06275531649589539
16.0,0.062397535890340805
18.0,0.0616779662668705
20.0,0.06095811352133751
22.0,0.06023016571998596
24.0,0.05951545387506485
26.0,0.05882055684924126
28.0,0.058149032294750214
30.0,0.0575016625225544
32.0,0.05685960128903389
36.0,0.055605970323085785
40.0,0.05437375605106354
44.0,0.053163882344961166
48.0,0.052018944174051285
52.0,0.05094350501894951
56.0,0.04991333559155464
60.0,0.048917945474386215
64.0,0.04793902486562729
72.0,0.046137675642967224
80.0,0.04436318203806877
88.0,0.04277891665697098
96.0,0.04124180227518082
104.0,0.039766278117895126
112.0,0.038627877831459045
120.0,0.03759162873029709
128.0,0.036677729338407516
144.0,0.035347480326890945
160.0,0.03412538021802902
176.0,0.03284414857625961
192.0,0.031489573419094086
208.0,0.029906654730439186
224.0,0.028356831520795822
240.0,0.026567498221993446
256.0,0.024651356041431427
288.0,0.021844351664185524
320.0,0.021378641948103905
352.0,0.021430816501379013
384.0,0.02144017070531845
416.0,0.021447956562042236
448.0,0.021448159590363503
480.0,0.021096188575029373
512.0,0.020637650042772293
576.0,0.017603402957320213
640.0,0.014627665281295776
704.0,0.01145153772085905
768.0,0.006718187592923641
832.0,0.0029204986058175564
896.0,0.0014850081643089652
960.0,-0.0003810737107414752
1024.0,-0.0014552987413480878
1152.0,-0.0037040167953819036
1280.0,-0.008789397776126862
1408.0,-0.013003552332520485
1536.0,-0.01131373643875122
1664.0,-0.010203360579907894
1792.0,-0.01180881168693304
1920.0,-0.012906776741147041
2048.0,-0.011898677796125412
2304.0,-0.01608058251440525
2560.0,-0.020531319081783295
2816.0,-0.02117309346795082
3072.0,-0.015824373811483383
3328.0,-0.007440968882292509
3584.0,0.0034316556993871927
3840.0,0.014299699105322361
4096.0,0.016866400837898254
4608.0,0.01621691696345806
5120.0,0.01567559875547886
5632.0,0.009200633503496647
6144.0,-0.006517086178064346
6656.0,-0.020235281437635422
7168.0,-0.018189359456300735
7680.0,-0.010645617730915546
8192.0,-0.006747730076313019
9216.0,0.02124684862792492
10240.0,0.0046646688133478165
11264.0,-0.018479637801647186
12288.0,-0.026272716000676155
13312.0,0.011047055013477802
14336.0,0.016007263213396072
end
