version,3.0
numOfCh,1
type,point
parent_name,4-cuts
ch_type,1_1
kcount,1
numberNandB,1
brightnessNandB,1
carpet pos,0
pc,0
Time (ms),CH1 Auto-Correlation
1.0,0.028914742171764374
2.0,0.028682945296168327
3.0,0.02844984456896782
4.0,0.0282219760119915
5.0,0.028004830703139305
6.0,0.0277901291847229
7.0,0.027582045644521713
8.0,0.027375176548957825
9.0,0.027172300964593887
10.0,0.02696758136153221
11.0,0.02677459456026554
12.0,0.02658478356897831
13.0,0.02639416977763176
14.0,0.02619677409529686
15.0,0.02600092440843582
16.0,0.025808632373809814
18.0,0.025434846058487892
20.0,0.02506544254720211
22.0,0.024709707126021385
24.0,0.02435677871108055
26.0,0.02400829829275608
28.0,0.02365860715508461
30.0,0.02330464869737625
32.0,0.02295544184744358
36.0,0.022315897047519684
40.0,0.021720396354794502
44.0,0.02113770693540573
48.0,0.020612284541130066
52.0,0.020150285214185715
56.0,0.01972610503435135
60.0,0.01930312253534794
64.0,0.01888101175427437
72.0,0.018158046528697014
80.0,0.017574220895767212
88.0,0.01700674742460251
96.0,0.016492247581481934
104.0,0.01605030708014965
112.0,0.01564917340874672
120.0,0.015245585702359676
128.0,0.014911715872585773
144.0,0.014447412453591824
160.0,0.013909615576267242
176.0,0.013397216796875
192.0,0.012774190865457058
208.0,0.012233065441250801
224.0,0.011767299845814705
240.0,0.011401803232729435
256.0,0.01117764227092266
288.0,0.010382409207522869
320.0,0.00942781288176775
352.0,0.008184502832591534
384.0,0.006784610915929079
416.0,0.005801764782518148
448.0,0.004990002140402794
480.0,0.004326407331973314
512.0,0.003590266453102231
576.0,0.0028480649925768375
640.0,0.0020453103352338076
704.0,0.0014006893616169691
768.0,0.0013277243124321103
832.0,0.00207358505576849
896.0,0.0027441929560154676
960.0,0.0020913362968713045
1024.0,0.001869281753897667
1152.0,0.003263601567596197
1280.0,0.0038434097077697515
1408.0,0.0036899088881909847
1536.0,0.0031551476567983627
1664.0,0.0026075500063598156
1792.0,0.002322245156392455
1920.0,0.0017906783614307642
2048.0,0.0017562102293595672
2304.0,0.0009905234910547733
2560.0,0.0025553926825523376
2816.0,0.0027892524376511574
3072.0,0.00020734022837132215
3328.0,-0.0016922487411648035
3584.0,-0.004135901108384132
3840.0,-0.0028193325269967318
4096.0,0.0018648050026968122
4608.0,0.0011732382699847221
5120.0,-0.00027257503825239837
5632.0,-0.002872701268643141
6144.0,-0.0036626479122787714
6656.0,0.00041076692286878824
7168.0,0.0013388600200414658
7680.0,-0.004470409359782934
8192.0,-0.00592787703499198
9216.0,-0.0019061601487919688
10240.0,-0.002439090982079506
11264.0,-0.0021027722395956516
12288.0,-0.004162739031016827
13312.0,0.0001780512393452227
14336.0,-0.004537974018603563
end
