version,3.0
numOfCh,1
type,point
parent_name,4-cuts
ch_type,1_1
kcount,1
numberNandB,1
brightnessNandB,1
carpet pos,0
pc,0
Time (ms),CH1 Auto-Correlation
1.0,0.12235096096992493
2.0,0.12172264605760574
3.0,0.12109839916229248
4.0,0.12048327177762985
5.0,0.11986449360847473
6.0,0.11925037950277328
7.0,0.11864987760782242
8.0,0.1180693507194519
9.0,0.11750632524490356
10.0,0.11698231101036072
11.0,0.11643759906291962
12.0,0.11588682979345322
13.0,0.11534760147333145
14.0,0.11480199545621872
15.0,0.11426172405481339
16.0,0.11372547596693039
18.0,0.11264826357364655
20.0,0.11157400906085968
22.0,0.11052193492650986
24.0,0.1094951406121254
26.0,0.1084909737110138
28.0,0.10748317837715149
30.0,0.1064506471157074
32.0,0.10542561858892441
36.0,0.10339677333831787
40.0,0.10148393362760544
44.0,0.09964214265346527
48.0,0.09788162261247635
52.0,0.09614947438240051
56.0,0.09438402950763702
60.0,0.09274283796548843
64.0,0.0912606418132782
72.0,0.08847507834434509
80.0,0.08603774756193161
88.0,0.08385417610406876
96.0,0.08192112296819687
104.0,0.08027054369449615
112.0,0.0786571055650711
120.0,0.07667288929224014
128.0,0.07476771622896194
144.0,0.07172487676143646
160.0,0.06890156865119934
176.0,0.06613805145025253
192.0,0.0632929727435112
208.0,0.060275595635175705
224.0,0.05673560872673988
240.0,0.05307452753186226
256.0,0.05034318193793297
288.0,0.046393223106861115
320.0,0.04369032382965088
352.0,0.04227717965841293
384.0,0.04181792214512825
416.0,0.040661994367837906
448.0,0.038590144366025925
480.0,0.0366550013422966
512.0,0.03294416144490242
576.0,0.022945083677768707
640.0,0.017178939655423164
704.0,0.013436137698590755
768.0,0.009977658279240131
832.0,0.006954798474907875
896.0,0.006264324765652418
960.0,0.003935544285923243
1024.0,-0.002051759045571089
1152.0,-0.004443607293069363
1280.0,-0.004659281112253666
1408.0,-0.003032952081412077
1536.0,0.0035771983675658703
1664.0,0.006837021093815565
1792.0,0.00448817340657115
1920.0,0.012664777226746082
2048.0,0.02175069972872734
2304.0,0.016659744083881378
2560.0,0.0159757100045681
2816.0,-0.004437779076397419
3072.0,-0.01284528337419033
3328.0,-0.022291256114840508
3584.0,-0.02476469799876213
3840.0,-0.010969964787364006
4096.0,-0.0022307306062430143
4608.0,-0.0062812333926558495
5120.0,-0.024994930252432823
5632.0,-0.030335484072566032
6144.0,-0.0027017497923225164
6656.0,0.027342241257429123
7168.0,0.0009843958541750908
7680.0,-0.012504876591265202
8192.0,-0.029887354001402855
9216.0,0.0001122589674196206
10240.0,-0.010387522168457508
11264.0,-0.01413043960928917
12288.0,-0.018171722069382668
13312.0,0.024163343012332916
14336.0,-0.01162373274564743
end
