version,3.0
numOfCh,1
type,point
parent_name,4-cuts
ch_type,1_1
kcount,1
numberNandB,1
brightnessNandB,1
carpet pos,0
pc,0
Time (ms),CH1 Auto-Correlation
1.0,0.06729761511087418
2.0,0.06688331812620163
3.0,0.06648305803537369
4.0,0.06609093397855759
5.0,0.06569164991378784
6.0,0.0653025209903717
7.0,0.06491927802562714
8.0,0.06453891098499298
9.0,0.06417126208543777
10.0,0.06381232291460037
11.0,0.06345618516206741
12.0,0.06311116367578506
13.0,0.06276462972164154
14.0,0.06240605562925339
15.0,0.06204190105199814
16.0,0.06168333813548088
18.0,0.0609833262860775
20.0,0.06028515845537186
22.0,0.05961596593260765
24.0,0.05897766351699829
26.0,0.058357421308755875
28.0,0.057730887085199356
30.0,0.05713122338056564
32.0,0.05655953288078308
36.0,0.0554191917181015
40.0,0.05435886234045029
44.0,0.053361885249614716
48.0,0.052413713186979294
52.0,0.051487069576978683
56.0,0.05060106888413429
60.0,0.049700938165187836
64.0,0.04884693771600723
72.0,0.04735168069601059
80.0,0.045970164239406586
88.0,0.044682376086711884
96.0,0.04339019954204559
104.0,0.042121097445487976
112.0,0.04080810770392418
120.0,0.0394434854388237
128.0,0.03803969919681549
144.0,0.03490652143955231
160.0,0.032185107469558716
176.0,0.029776761308312416
192.0,0.027396438643336296
208.0,0.025358565151691437
224.0,0.02364310808479786
240.0,0.02223878540098667
256.0,0.021253619343042374
288.0,0.020424511283636093
320.0,0.01961091160774231
352.0,0.018194785341620445
384.0,0.016805056482553482
416.0,0.015899870544672012
448.0,0.015066146850585938
480.0,0.014713622629642487
512.0,0.014162436127662659
576.0,0.01116672158241272
640.0,0.009534006007015705
704.0,0.009173487313091755
768.0,0.009024753235280514
832.0,0.008227940648794174
896.0,0.007367709651589394
960.0,0.007900871336460114
1024.0,0.00915802363306284
1152.0,0.00733104208484292
1280.0,0.004665659740567207
1408.0,0.0013974073808640242
1536.0,-0.0018585569923743606
1664.0,-0.0037902912590652704
1792.0,-0.0031613665632903576
1920.0,-0.0019451718544587493
2048.0,-0.001532324473373592
2304.0,0.004791550803929567
2560.0,-0.004722009412944317
2816.0,-0.006906901020556688
3072.0,-0.010439795441925526
3328.0,-0.006731969770044088
3584.0,-0.011834169737994671
3840.0,-0.016353944316506386
4096.0,-0.01328357309103012
4608.0,0.0005162297748029232
5120.0,-0.005599378142505884
5632.0,-0.0034895914141088724
6144.0,0.0021588210947811604
6656.0,0.00856619793921709
7168.0,0.01582404226064682
7680.0,0.0015731523744761944
8192.0,-0.0062862420454621315
9216.0,-0.01252648513764143
10240.0,-0.013022083789110184
11264.0,-0.01186714693903923
12288.0,0.003574005328118801
13312.0,0.008247113786637783
14336.0,0.027519088238477707
end
