version,3.0
numOfCh,1
type,point
parent_name,4-cuts
ch_type,1_1
kcount,1
numberNandB,1
brightnessNandB,1
carpet pos,0
pc,0
Time (ms),CH1 Auto-Correlation
1.0,0.028843771666288376
2.0,0.028645750135183334
3.0,0.02844850718975067
4.0,0.028247173875570297
5.0,0.028053689748048782
6.0,0.027861274778842926
7.0,0.027668390423059464
8.0,0.027478715404868126
9.0,0.02729305811226368
10.0,0.02711351588368416
11.0,0.02693076618015766
12.0,0.026745503768324852
13.0,0.026560770347714424
14.0,0.02637835033237934
15.0,0.026200847700238228
16.0,0.026023684069514275
18.0,0.02568330056965351
20.0,0.025344368070364
22.0,0.025004416704177856
24.0,0.02467355877161026
26.0,0.02435535378754139
28.0,0.02404431439936161
30.0,0.023738892748951912
32.0,0.02344675175845623
36.0,0.022860519587993622
40.0,0.022293008863925934
44.0,0.0217544287443161
48.0,0.021228065714240074
52.0,0.020695487037301064
56.0,0.020166020840406418
60.0,0.01966283842921257
64.0,0.01917632296681404
72.0,0.018224269151687622
80.0,0.01734645664691925
88.0,0.01652328297495842
96.0,0.01571376994252205
104.0,0.014974153600633144
112.0,0.01428320910781622
120.0,0.013658883050084114
128.0,0.013060816563665867
144.0,0.01202570740133524
160.0,0.011071646586060524
176.0,0.010337109677493572
192.0,0.009496708400547504
208.0,0.0086306007578969
224.0,0.007973743602633476
240.0,0.007417293265461922
256.0,0.006926981266587973
288.0,0.006335653364658356
320.0,0.00576625345274806
352.0,0.005049140192568302
384.0,0.004055252764374018
416.0,0.002869201358407736
448.0,0.0017706714570522308
480.0,0.0009657645132392645
512.0,0.0004577099753078073
576.0,0.00044888327829539776
640.0,-0.0003245946136303246
704.0,-0.0009805586887523532
768.0,-0.0021483907476067543
832.0,-0.002419261960312724
896.0,-0.0018635450396686792
960.0,-0.0018445431487634778
1024.0,-0.0022803563624620438
1152.0,-0.0037789989728480577
1280.0,-0.00453121867030859
1408.0,-0.004151477012783289
1536.0,-0.0021892015356570482
1664.0,-0.0012952396646142006
1792.0,-0.0011230282252654433
1920.0,-0.001992804231122136
2048.0,-0.002574976533651352
2304.0,-0.0019279774278402328
2560.0,0.0013667214661836624
2816.0,0.001885376637801528
3072.0,0.0014596522087231278
3328.0,-0.0006082699401304126
3584.0,-0.00043654663022607565
3840.0,-0.00025838633882813156
4096.0,-0.0008963057771325111
4608.0,-0.0026925106067210436
5120.0,-0.0027361593674868345
5632.0,-0.001500312821008265
6144.0,0.003272593254223466
6656.0,0.00032507345895282924
7168.0,-0.005126419942826033
7680.0,-0.0066983504220843315
8192.0,0.0018852188950404525
9216.0,0.004078824073076248
10240.0,0.0023422311060130596
11264.0,-0.0016832351684570312
12288.0,0.0017397740157321095
13312.0,-0.0030661849305033684
14336.0,-0.003961025271564722
end
