version,3.0
numOfCh,1
type,point
parent_name,4-cuts
ch_type,1_1
kcount,1
numberNandB,1
brightnessNandB,1
carpet pos,0
pc,0
Time (ms),CH1 Auto-Correlation
1.0,0.03117920458316803
2.0,0.03099675104022026
3.0,0.0308164544403553
4.0,0.030640970915555954
5.0,0.03046737052500248
6.0,0.0302986241877079
7.0,0.030132681131362915
8.0,0.029969841241836548
9.0,0.029806379228830338
10.0,0.029649289324879646
11.0,0.029493242502212524
12.0,0.02934034913778305
13.0,0.029191918671131134
14.0,0.02904416248202324
15.0,0.028901787474751472
16.0,0.028762947767972946
18.0,0.028487717732787132
20.0,0.0282283965498209
22.0,0.027971208095550537
24.0,0.027719158679246902
26.0,0.027466604486107826
28.0,0.02720031701028347
30.0,0.026938719674944878
32.0,0.026690520346164703
36.0,0.02619171142578125
40.0,0.025699051097035408
44.0,0.02524629421532154
48.0,0.024808041751384735
52.0,0.024379320442676544
56.0,0.02394573949277401
60.0,0.02351284585893154
64.0,0.023096082732081413
72.0,0.02233160473406315
80.0,0.021635830402374268
88.0,0.021005744114518166
96.0,0.020422769710421562
104.0,0.01994418166577816
112.0,0.01952259987592697
120.0,0.019106976687908173
128.0,0.01870235987007618
144.0,0.017964737489819527
160.0,0.01739550195634365
176.0,0.016854433342814445
192.0,0.016254374757409096
208.0,0.015591319650411606
224.0,0.014806147664785385
240.0,0.013962900266051292
256.0,0.013112545013427734
288.0,0.011470784433186054
320.0,0.010162925347685814
352.0,0.008900527842342854
384.0,0.008168681524693966
416.0,0.007980880327522755
448.0,0.007291564252227545
480.0,0.006324131041765213
512.0,0.005834328476339579
576.0,0.005643110256642103
640.0,0.0057133398950099945
704.0,0.00652200635522604
768.0,0.007316181901842356
832.0,0.007337757386267185
896.0,0.006480002775788307
960.0,0.0052060154266655445
1024.0,0.0037089085672050714
1152.0,0.001851297914981842
1280.0,-7.799910963512957e-05
1408.0,-0.0003343377320561558
1536.0,0.000626056338660419
1664.0,0.0008778395713306963
1792.0,0.0022286237217485905
1920.0,0.002617074176669121
2048.0,0.0019035922596231103
2304.0,0.0006565572693943977
2560.0,0.002499663969501853
2816.0,0.0018403559224680066
3072.0,-1.923250238178298e-05
3328.0,0.0015967690851539373
3584.0,0.0012521097669377923
3840.0,-0.0010682246647775173
4096.0,-0.0035729457158595324
4608.0,-0.005154047627002001
5120.0,-0.0040152426809072495
5632.0,-0.0027618848253041506
6144.0,-0.001369657227769494
6656.0,0.0034354061353951693
7168.0,0.005024291574954987
7680.0,0.003320729359984398
8192.0,-0.0062097543850541115
9216.0,-0.0035623733419924974
10240.0,-0.007109879516065121
11264.0,-0.007586964871734381
12288.0,-0.006213672459125519
13312.0,0.0005278936587274075
14336.0,0.00024859781842678785
end
