version,3.0
numOfCh,1
type,point
parent_name,c1204_0dot2-0dot01
ch_type,1_1
kcount,1
numberNandB,1
brightnessNandB,1
carpet pos,0
pc,0
Time (ms),CH1 Auto-Correlation
1.0,0.02757234312593937
2.0,0.027021439746022224
3.0,0.026497866958379745
4.0,0.02599271945655346
5.0,0.025498712435364723
6.0,0.025010008364915848
7.0,0.024531492963433266
8.0,0.024074679240584373
9.0,0.023627975955605507
10.0,0.023198379203677177
11.0,0.022772328928112984
12.0,0.022375725209712982
13.0,0.022001903504133224
14.0,0.021637681871652603
15.0,0.02127465419471264
16.0,0.020916741341352463
18.0,0.020230045542120934
20.0,0.019584601745009422
22.0,0.01899123750627041
24.0,0.018482286483049393
26.0,0.017975948750972748
28.0,0.01746761053800583
30.0,0.01697935350239277
32.0,0.016520768404006958
36.0,0.015671569854021072
40.0,0.014920426532626152
44.0,0.014230622909963131
48.0,0.013610119931399822
52.0,0.013022853061556816
56.0,0.012451431713998318
60.0,0.011935202404856682
64.0,0.011521615087985992
72.0,0.010869658552110195
80.0,0.010300517082214355
88.0,0.009759645909070969
96.0,0.009133548475801945
104.0,0.008373276330530643
112.0,0.007652070838958025
120.0,0.007242599036544561
128.0,0.007011815905570984
144.0,0.006375134456902742
160.0,0.005801231600344181
176.0,0.005688654724508524
192.0,0.005509829614311457
208.0,0.005607923027127981
224.0,0.005627748090773821
240.0,0.005451445933431387
256.0,0.005560171324759722
288.0,0.005819521378725767
320.0,0.005062666721642017
352.0,0.004355414304882288
384.0,0.003740498097613454
416.0,0.003944281954318285
448.0,0.004015554673969746
480.0,0.0038334063719958067
512.0,0.003386158961802721
576.0,0.002558548701927066
640.0,0.001749454764649272
704.0,9.478880383539945e-05
768.0,0.0010293287923559546
832.0,0.001335558365099132
896.0,1.194303649754147e-06
960.0,-0.0007316726259887218
1024.0,-0.0023233473766595125
1152.0,-0.0026298323646187782
1280.0,-0.004466587677598
1408.0,-0.004956723656505346
1536.0,-0.002841232344508171
1664.0,-0.0027920864522457123
1792.0,-0.002279859036207199
1920.0,-0.002818687353283167
2048.0,-0.00029042671667411923
2304.0,0.00045903315185569227
2560.0,0.0016119069186970592
2816.0,0.0006537131848745048
3072.0,0.0020708339288830757
3328.0,0.0009023291640914977
3584.0,0.0008286082884296775
3840.0,0.0003419576969463378
4096.0,0.001229702029377222
4608.0,-0.0018450444331392646
5120.0,-0.002440206240862608
5632.0,7.297786214621738e-05
6144.0,-0.001765417167916894
6656.0,-0.0013560580555349588
7168.0,-0.0018981321481987834
7680.0,-0.0036887112073600292
8192.0,0.0005943013238720596
end
