version,3.0
numOfCh,1
type,point
parent_name,c1204_0dot2-0dot01
ch_type,1_1
kcount,1
numberNandB,1
brightnessNandB,1
carpet pos,0
pc,0
Time (ms),CH1 Auto-Correlation
1.0,0.030041418969631195
2.0,0.029469851404428482
3.0,0.02891192026436329
4.0,0.028375035151839256
5.0,0.027863744646310806
6.0,0.02737927995622158
7.0,0.026901114732027054
8.0,0.02645578235387802
9.0,0.026027832180261612
10.0,0.025615442544221878
11.0,0.02522994577884674
12.0,0.02486342564225197
13.0,0.024516170844435692
14.0,0.02418500930070877
15.0,0.023873649537563324
16.0,0.023558128625154495
18.0,0.022945014759898186
20.0,0.022386832162737846
22.0,0.021883102133870125
24.0,0.02139492705464363
26.0,0.02090640179812908
28.0,0.02041924186050892
30.0,0.019932519644498825
32.0,0.019448701292276382
36.0,0.01855725608766079
40.0,0.017754189670085907
44.0,0.01698600873351097
48.0,0.016288384795188904
52.0,0.01565723493695259
56.0,0.015087667852640152
60.0,0.014526315033435822
64.0,0.013936770148575306
72.0,0.012866717763245106
80.0,0.011954044923186302
88.0,0.011188111267983913
96.0,0.010464868508279324
104.0,0.009723377414047718
112.0,0.009004073217511177
120.0,0.008332268334925175
128.0,0.007512283977121115
144.0,0.0060913581401109695
160.0,0.005014087073504925
176.0,0.004079847130924463
192.0,0.003309374675154686
208.0,0.0028155071195214987
224.0,0.002523118397220969
240.0,0.0022346191108226776
256.0,0.0019594370387494564
288.0,0.0022666582372039557
320.0,0.002222831128165126
352.0,0.0020933470223098993
384.0,0.0016739524435251951
416.0,0.0021655659656971693
448.0,0.0025697106029838324
480.0,0.002339322352781892
512.0,0.0024707342963665724
576.0,0.002021036110818386
640.0,0.002399094868451357
704.0,0.002513610292226076
768.0,0.002802983159199357
832.0,0.003246163949370384
896.0,0.0038460756186395884
960.0,0.004020991735160351
1024.0,0.0033779237419366837
1152.0,0.0033161770552396774
1280.0,0.0022236432414501905
1408.0,0.0036760722286999226
1536.0,0.0009791598422452807
1664.0,-0.0025315145030617714
1792.0,-0.0003895893751177937
1920.0,0.00033760719816200435
2048.0,0.0006990648107603192
2304.0,-0.001116572180762887
2560.0,-0.0021839288529008627
2816.0,-0.002625242108479142
3072.0,-0.002243742346763611
3328.0,-0.0019420224707573652
3584.0,-0.005074056796729565
3840.0,-0.0029228967614471912
4096.0,-0.0029448934365063906
4608.0,-0.0029157071840018034
5120.0,-0.0022251696791499853
5632.0,-0.0019330318318679929
6144.0,-0.00020033745386172086
6656.0,-0.00031047355150803924
7168.0,0.0015058276476338506
7680.0,0.0027593006379902363
8192.0,0.0018980352906510234
end
