version,3.0
numOfCh,1
type,point
parent_name,c1204_0dot2-0dot01
ch_type,1_1
kcount,1
numberNandB,1
brightnessNandB,1
carpet pos,0
pc,0
Time (ms),CH1 Auto-Correlation
1.0,0.034148700535297394
2.0,0.03352714702486992
3.0,0.03291935473680496
4.0,0.032343219965696335
5.0,0.031792741268873215
6.0,0.031238295137882233
7.0,0.03071398288011551
8.0,0.03019222430884838
9.0,0.029673032462596893
10.0,0.02915186434984207
11.0,0.028629565611481667
12.0,0.02811245247721672
13.0,0.027601318433880806
14.0,0.027113573625683784
15.0,0.02666110172867775
16.0,0.0262320376932621
18.0,0.025435080751776695
20.0,0.024694588035345078
22.0,0.02397509664297104
24.0,0.023284029215574265
26.0,0.022640589624643326
28.0,0.022008229047060013
30.0,0.021412931382656097
32.0,0.020836416631937027
36.0,0.019780229777097702
40.0,0.01877833530306816
44.0,0.017885074019432068
48.0,0.017078226432204247
52.0,0.016297142952680588
56.0,0.015455947257578373
60.0,0.014607532881200314
64.0,0.013886596076190472
72.0,0.012721400707960129
80.0,0.01156949158757925
88.0,0.010502034798264503
96.0,0.009466452524065971
104.0,0.00841392669826746
112.0,0.007578651420772076
120.0,0.007064958568662405
128.0,0.0068886904045939445
144.0,0.007044028490781784
160.0,0.006970100570470095
176.0,0.006307585630565882
192.0,0.005948775447905064
208.0,0.005747607909142971
224.0,0.0057236310094594955
240.0,0.005421006586402655
256.0,0.004639231134206057
288.0,0.004696175456047058
320.0,0.0044718957506120205
352.0,0.004914861172437668
384.0,0.004820671398192644
416.0,0.0033396543003618717
448.0,0.002763926051557064
480.0,0.0022468282841145992
512.0,0.0023899392690509558
576.0,0.0023111277259886265
640.0,0.0024524820037186146
704.0,0.002843540394678712
768.0,0.0018018396804109216
832.0,0.0010948220733553171
896.0,-0.00031799785210750997
960.0,-0.004223802126944065
1024.0,-0.005649765022099018
1152.0,-0.0015389685286208987
1280.0,-0.000763803836889565
1408.0,-0.0007882573409006
1536.0,-0.0023414588067680597
1664.0,-0.003540902864187956
1792.0,-0.0037566395476460457
1920.0,-0.004385198000818491
2048.0,-0.0016119773499667645
2304.0,-1.1340513083268888e-05
2560.0,-0.0027701726648956537
2816.0,-0.0028311340138316154
3072.0,0.0019635281059890985
3328.0,0.0028883516788482666
3584.0,0.007929693907499313
3840.0,0.004643075168132782
4096.0,0.0015772976912558079
4608.0,0.0003023324243258685
5120.0,-0.0019085198873654008
5632.0,-0.007567812688648701
6144.0,-0.008673172444105148
6656.0,-0.0008998496923595667
7168.0,0.006478540133684874
7680.0,0.003047114936634898
8192.0,-0.002855862258002162
end
