version,3.0
numOfCh,1
type,point
parent_name,c1204_0dot2-0dot01
ch_type,1_1
kcount,1
numberNandB,1
brightnessNandB,1
carpet pos,0
pc,0
Time (ms),CH1 Auto-Correlation
1.0,0.03106558322906494
2.0,0.030470483005046844
3.0,0.029890310019254684
4.0,0.029324885457754135
5.0,0.02877134084701538
6.0,0.028241991996765137
7.0,0.0277225561439991
8.0,0.02723166160285473
9.0,0.026754241436719894
10.0,0.026275862008333206
11.0,0.02579451911151409
12.0,0.025309937074780464
13.0,0.024848952889442444
14.0,0.024416014552116394
15.0,0.02397545799612999
16.0,0.023553360253572464
18.0,0.02274959534406662
20.0,0.02200489304959774
22.0,0.0213237926363945
24.0,0.020664965733885765
26.0,0.019999589771032333
28.0,0.019342513754963875
30.0,0.018703902140259743
32.0,0.018121764063835144
36.0,0.01701701432466507
40.0,0.01601317524909973
44.0,0.015125194564461708
48.0,0.014343343675136566
52.0,0.013627661392092705
56.0,0.012958957813680172
60.0,0.012381128966808319
64.0,0.011836107820272446
72.0,0.010903057642281055
80.0,0.00993768498301506
88.0,0.009117711335420609
96.0,0.008456932380795479
104.0,0.007905343547463417
112.0,0.007406107150018215
120.0,0.0069938842207193375
128.0,0.0064396667294204235
144.0,0.005645499564707279
160.0,0.005360844545066357
176.0,0.005583977792412043
192.0,0.006172184366732836
208.0,0.0062330043874681
224.0,0.006067503709346056
240.0,0.005651213228702545
256.0,0.005160719156265259
288.0,0.003410118632018566
320.0,0.002517733257263899
352.0,0.0022379655856639147
384.0,0.001550961402244866
416.0,0.0004627196758519858
448.0,8.025499118957669e-05
480.0,0.0003317364025861025
512.0,0.0005388222052715719
576.0,0.00025992500013671815
640.0,-0.00010476406168891117
704.0,0.0012081032618880272
768.0,0.0015654303133487701
832.0,0.0008289288962259889
896.0,0.0004458152689039707
960.0,0.0005754948360845447
1024.0,0.0008857569773681462
1152.0,0.0016111187869682908
1280.0,0.0019757107365876436
1408.0,0.0012413781369104981
1536.0,0.0009081137832254171
1664.0,9.762669651536271e-05
1792.0,0.0006235289620235562
1920.0,0.0005185967893339694
2048.0,0.0014168770285323262
2304.0,0.00040062301559373736
2560.0,-0.0006978336605243385
2816.0,-0.0010494462912902236
3072.0,-0.00040661447565071285
3328.0,-0.00026928240549750626
3584.0,-0.002873217687010765
3840.0,-0.0034869795199483633
4096.0,-0.001167959882877767
4608.0,-0.001861207652837038
5120.0,0.0003083403571508825
5632.0,-0.0005731062847189605
6144.0,0.0011931086191907525
6656.0,-0.0003413623489905149
7168.0,0.0014994710218161345
7680.0,-0.0013605825370177627
8192.0,-0.0037546218372881413
end
