version,3.0
numOfCh,1
type,point
parent_name,c1204_0dot2-0dot01
ch_type,1_1
kcount,1
numberNandB,1
brightnessNandB,1
carpet pos,0
pc,0
Time (ms),CH1 Auto-Correlation
1.0,0.024786874651908875
2.0,0.024196205660700798
3.0,0.0236327163875103
4.0,0.02309236116707325
5.0,0.022583091631531715
6.0,0.02209559641778469
7.0,0.021627936512231827
8.0,0.02118401601910591
9.0,0.02075406163930893
10.0,0.02034621499478817
11.0,0.01994042471051216
12.0,0.019525598734617233
13.0,0.01911540888249874
14.0,0.018710466101765633
15.0,0.018300864845514297
16.0,0.01791316643357277
18.0,0.017148243263363838
20.0,0.016427740454673767
22.0,0.015751248225569725
24.0,0.015141138806939125
26.0,0.014601379632949829
28.0,0.01409111451357603
30.0,0.013600988313555717
32.0,0.01317679975181818
36.0,0.012330174446105957
40.0,0.011458133347332478
44.0,0.010652769356966019
48.0,0.009938337840139866
52.0,0.00918381754308939
56.0,0.008432071655988693
60.0,0.007743480149656534
64.0,0.006959591526538134
72.0,0.005378625355660915
80.0,0.003938542678952217
88.0,0.0024733166210353374
96.0,0.0010902901412919164
104.0,-0.000353148061549291
112.0,-0.0015722595853731036
120.0,-0.0026333266869187355
128.0,-0.0037162350490689278
144.0,-0.005411983001977205
160.0,-0.006253533996641636
176.0,-0.006488904822617769
192.0,-0.005674407351762056
208.0,-0.004383901134133339
224.0,-0.0031071214471012354
240.0,-0.0016152334865182638
256.0,-0.0005736455204896629
288.0,0.001146956579759717
320.0,0.00235685589723289
352.0,0.0028140186332166195
384.0,0.0021985075436532497
416.0,0.0007681309944018722
448.0,0.000708049803506583
480.0,0.0010708062909543514
512.0,0.0007336115231737494
576.0,0.0008295673178508878
640.0,-0.0011599634308367968
704.0,-0.0023585159797221422
768.0,-0.0003411833895370364
832.0,0.001200737664476037
896.0,-0.00029534136410802603
960.0,-0.0016740878345444798
1024.0,-0.00028449067031033337
1152.0,-0.00045733884326182306
1280.0,-0.002687363652512431
1408.0,0.0004621868138201535
1536.0,0.0008407350978814065
1664.0,-8.192777750082314e-05
1792.0,0.0014387083938345313
1920.0,0.0014855372719466686
2048.0,-0.0011668333318084478
2304.0,0.0009470651275478303
2560.0,-0.0008488006424158812
2816.0,-0.0028279502876102924
3072.0,0.0016851610271260142
3328.0,0.00027713816962204874
3584.0,-0.0010669564362615347
3840.0,9.672137093730271e-05
4096.0,-0.00029042252572253346
4608.0,0.0007333601242862642
5120.0,5.542435610550456e-05
5632.0,-0.0008906595758162439
6144.0,0.0008645150810480118
6656.0,0.0005767978727817535
7168.0,-0.0011836341582238674
7680.0,-0.0005505735753104091
8192.0,-0.0004070565337315202
end
