version,3.0
numOfCh,1
type,point
parent_name,c1204_0dot2-0dot01
ch_type,1_1
kcount,1
numberNandB,1
brightnessNandB,1
carpet pos,0
pc,0
Time (ms),CH1 Auto-Correlation
1.0,0.041673555970191956
2.0,0.04103216156363487
3.0,0.04040610417723656
4.0,0.03979841619729996
5.0,0.03921663016080856
6.0,0.03866672143340111
7.0,0.03813407942652702
8.0,0.03762584552168846
9.0,0.03714334964752197
10.0,0.03667604178190231
11.0,0.036218203604221344
12.0,0.035756275057792664
13.0,0.0353015772998333
14.0,0.034870922565460205
15.0,0.0344516858458519
16.0,0.03403051197528839
18.0,0.03323866054415703
20.0,0.03250788152217865
22.0,0.03178057074546814
24.0,0.031095977872610092
26.0,0.030427120625972748
28.0,0.029767680913209915
30.0,0.02907746657729149
32.0,0.02840002253651619
36.0,0.027061648666858673
40.0,0.02592024765908718
44.0,0.02494899183511734
48.0,0.024145368486642838
52.0,0.02335810661315918
56.0,0.022635625675320625
60.0,0.02191523090004921
64.0,0.02118382416665554
72.0,0.01967369206249714
80.0,0.01842537522315979
88.0,0.017522575333714485
96.0,0.016864625737071037
104.0,0.01626686379313469
112.0,0.015788467600941658
120.0,0.015313643030822277
128.0,0.015101130120456219
144.0,0.01491781510412693
160.0,0.014693486504256725
176.0,0.014308900572359562
192.0,0.01381999347358942
208.0,0.013698143884539604
224.0,0.013271374627947807
240.0,0.012836221605539322
256.0,0.012118943966925144
288.0,0.010799645446240902
320.0,0.01052974071353674
352.0,0.0100303515791893
384.0,0.009348507970571518
416.0,0.008199609816074371
448.0,0.006869936361908913
480.0,0.006904321722686291
512.0,0.006700464058667421
576.0,0.008567915298044682
640.0,0.008218925446271896
704.0,0.004234539810568094
768.0,0.0036276180762797594
832.0,0.0034987865947186947
896.0,0.002907038666307926
960.0,0.004104367457330227
1024.0,0.0016815979033708572
1152.0,0.00042656323057599366
1280.0,-0.0003734094789251685
1408.0,-0.0003108972159679979
1536.0,0.00029975356301292777
1664.0,-0.0004005001683253795
1792.0,-0.002429238986223936
1920.0,8.459595846943557e-05
2048.0,-0.0005448193987831473
2304.0,-0.0032558341044932604
2560.0,-0.004731395747512579
2816.0,-0.004814266227185726
3072.0,-0.0042227185331285
3328.0,-0.00613790238276124
3584.0,-0.007737430278211832
3840.0,-0.0053541692905128
4096.0,-0.006744596175849438
4608.0,-0.0014352267608046532
5120.0,0.0038897169288247824
5632.0,0.0032322825863957405
6144.0,0.004716080147773027
6656.0,0.006566739175468683
7168.0,0.004389354959130287
7680.0,-0.00030056555988267064
8192.0,-0.0007441520574502647
end
