version,3.0
numOfCh,1
type,point
parent_name,c1204_0dot2-0dot01
ch_type,1_1
kcount,1
numberNandB,1
brightnessNandB,1
carpet pos,0
pc,0
Time (ms),CH1 Auto-Correlation
1.0,0.23931528627872467
2.0,0.23862117528915405
3.0,0.2379874587059021
4.0,0.23737940192222595
5.0,0.23675763607025146
6.0,0.23617160320281982
7.0,0.2355516254901886
8.0,0.23494894802570343
9.0,0.23434582352638245
10.0,0.23377296328544617
11.0,0.2332356870174408
12.0,0.23269464075565338
13.0,0.23217810690402985
14.0,0.23173238337039948
15.0,0.23134490847587585
16.0,0.23092962801456451
18.0,0.2301453799009323
20.0,0.22930729389190674
22.0,0.2284868210554123
24.0,0.2277335673570633
26.0,0.2270175665616989
28.0,0.22633640468120575
30.0,0.2256918102502823
32.0,0.22514718770980835
36.0,0.22395843267440796
40.0,0.22281306982040405
44.0,0.22165875136852264
48.0,0.22059473395347595
52.0,0.2195006161928177
56.0,0.21835342049598694
60.0,0.21725109219551086
64.0,0.2162674367427826
72.0,0.21399004757404327
80.0,0.21175217628479004
88.0,0.20898272097110748
96.0,0.20600824058055878
104.0,0.20356373488903046
112.0,0.20137491822242737
120.0,0.19929678738117218
128.0,0.19729280471801758
144.0,0.1941276490688324
160.0,0.1907024085521698
176.0,0.18770445883274078
192.0,0.18545174598693848
208.0,0.18327611684799194
224.0,0.1816762536764145
240.0,0.18035896122455597
256.0,0.17916803061962128
288.0,0.1748383790254593
320.0,0.17044489085674286
352.0,0.1649598479270935
384.0,0.15780594944953918
416.0,0.148737370967865
448.0,0.13842090964317322
480.0,0.12847691774368286
512.0,0.11847149580717087
576.0,0.10519551485776901
640.0,0.09494202584028244
704.0,0.08076416701078415
768.0,0.0625418871641159
832.0,0.045128144323825836
896.0,0.03075360134243965
960.0,0.019224708899855614
1024.0,0.012649253942072392
1152.0,0.0036010462790727615
1280.0,-0.0009762148256413639
1408.0,-0.0019512991420924664
1536.0,-0.0029107152950018644
1664.0,-0.0026368941180408
1792.0,0.0009771410841494799
1920.0,0.0016015106812119484
2048.0,0.0009932025568559766
2304.0,-0.0024619835894554853
2560.0,-0.003811528207734227
2816.0,-0.006232114043086767
3072.0,-0.006419413723051548
3328.0,-0.005470947828143835
3584.0,-0.017493419349193573
3840.0,-0.02607007883489132
4096.0,-0.03278585895895958
4608.0,-0.0021134335547685623
5120.0,-0.012323472648859024
5632.0,-0.018769077956676483
6144.0,-0.016828984022140503
6656.0,-0.02309555560350418
7168.0,-0.03448251634836197
7680.0,-0.03843832015991211
8192.0,-0.02632548101246357
end
