version,3.0
numOfCh,1
type,point
parent_name,c1204_0dot2-0dot01
ch_type,1_1
kcount,1
numberNandB,1
brightnessNandB,1
carpet pos,0
pc,0
Time (ms),CH1 Auto-Correlation
1.0,0.043894410133361816
2.0,0.043274182826280594
3.0,0.04266490787267685
4.0,0.04206669330596924
5.0,0.041471999138593674
6.0,0.040890228003263474
7.0,0.04032602161169052
8.0,0.039750836789608
9.0,0.039210982620716095
10.0,0.038693636655807495
11.0,0.038153212517499924
12.0,0.03761138394474983
13.0,0.03705986961722374
14.0,0.03653620928525925
15.0,0.03602253645658493
16.0,0.03553146868944168
18.0,0.03460221365094185
20.0,0.033745717257261276
22.0,0.033005598932504654
24.0,0.032304488122463226
26.0,0.03160420432686806
28.0,0.030911799520254135
30.0,0.030251121148467064
32.0,0.029620595276355743
36.0,0.028300851583480835
40.0,0.026983587071299553
44.0,0.025811882689595222
48.0,0.02474706433713436
52.0,0.023778563365340233
56.0,0.023012975230813026
60.0,0.02244323305785656
64.0,0.021884692832827568
72.0,0.020657625049352646
80.0,0.019888510927557945
88.0,0.01921682059764862
96.0,0.018753908574581146
104.0,0.018329599872231483
112.0,0.017736727371811867
120.0,0.01684054359793663
128.0,0.016057291999459267
144.0,0.015362526290118694
160.0,0.014955556951463223
176.0,0.014637184329330921
192.0,0.014727487228810787
208.0,0.013391497544944286
224.0,0.011643779464066029
240.0,0.009587225504219532
256.0,0.008045793510973454
288.0,0.006500707473605871
320.0,0.005136217921972275
352.0,0.003694009268656373
384.0,0.0038533771876245737
416.0,0.003135988488793373
448.0,0.0017037285724654794
480.0,0.0006741678225807846
512.0,-0.0008864635601639748
576.0,-0.0016757025150582194
640.0,-0.0033569354563951492
704.0,-0.004769078455865383
768.0,-0.004602887202054262
832.0,-0.004763675853610039
896.0,-0.0035697303246706724
960.0,-0.0029359248001128435
1024.0,-0.0034175484906882048
1152.0,0.0015678995987400413
1280.0,0.004945699125528336
1408.0,0.007433854974806309
1536.0,0.006012667436152697
1664.0,0.0035057682543992996
1792.0,-0.0012796754017472267
1920.0,-0.0025143816601485014
2048.0,-0.005994701292365789
2304.0,-0.0032623859588056803
2560.0,0.0005144656752236187
2816.0,0.004676983691751957
3072.0,0.0031963472720235586
3328.0,-0.00462640356272459
3584.0,-0.011613571085035801
3840.0,-0.012699779123067856
4096.0,-0.007878624834120274
end
