version,3.0
numOfCh,1
type,point
parent_name,c1204_0dot2-0dot01
ch_type,1_1
kcount,1
numberNandB,1
brightnessNandB,1
carpet pos,0
pc,0
Time (ms),CH1 Auto-Correlation
1.0,0.031964778900146484
2.0,0.031383220106363297
3.0,0.030819488689303398
4.0,0.030275965109467506
5.0,0.029758146032691002
6.0,0.029244273900985718
7.0,0.028755120933055878
8.0,0.028269939124584198
9.0,0.027795355767011642
10.0,0.027325430884957314
11.0,0.026874562725424767
12.0,0.02642744407057762
13.0,0.025989195331931114
14.0,0.025548899546265602
15.0,0.025113064795732498
16.0,0.024676179513335228
18.0,0.023876626044511795
20.0,0.023165801540017128
22.0,0.022502845153212547
24.0,0.021860970184206963
26.0,0.02126564271748066
28.0,0.02066975273191929
30.0,0.02008063904941082
32.0,0.01954653300344944
36.0,0.018568966537714005
40.0,0.017642229795455933
44.0,0.016769416630268097
48.0,0.015974320471286774
52.0,0.015312801115214825
56.0,0.014744066633284092
60.0,0.014262733981013298
64.0,0.01387297734618187
72.0,0.0132919205352664
80.0,0.012563510797917843
88.0,0.011732000857591629
96.0,0.011132103390991688
104.0,0.010624722577631474
112.0,0.010102111846208572
120.0,0.009677723050117493
128.0,0.009329131804406643
144.0,0.008434402756392956
160.0,0.008041978813707829
176.0,0.00790499709546566
192.0,0.007968888618052006
208.0,0.007508778944611549
224.0,0.006671675480902195
240.0,0.005995043553411961
256.0,0.0059175146743655205
288.0,0.006097435485571623
320.0,0.005678636487573385
352.0,0.005101418122649193
384.0,0.005339562427252531
416.0,0.005232648923993111
448.0,0.005053948611021042
480.0,0.00495936069637537
512.0,0.00393804581835866
576.0,0.001678380649536848
640.0,-0.0016733555821701884
704.0,-0.0011767251417040825
768.0,-0.003712128382176161
832.0,-0.006388588808476925
896.0,-0.007457376923412085
960.0,-0.007960837334394455
1024.0,-0.0071739256381988525
1152.0,-0.006681068334728479
1280.0,-0.00507709477096796
1408.0,-0.006059401668608189
1536.0,-0.0024118293076753616
1664.0,0.004418984986841679
1792.0,0.009003711864352226
1920.0,0.005800342187285423
2048.0,0.006078522652387619
2304.0,0.006152003537863493
2560.0,-0.00028655026108026505
2816.0,-0.005517490673810244
3072.0,-0.0061972676776349545
3328.0,-0.003306684782728553
3584.0,0.002267342060804367
3840.0,0.004838586784899235
4096.0,0.008137663826346397
4608.0,-0.0015808003954589367
5120.0,-0.004665350541472435
5632.0,0.0013832149561494589
6144.0,0.002078317105770111
6656.0,-0.0038309399969875813
7168.0,-0.003556637791916728
7680.0,0.0019488174002617598
8192.0,0.003147707786411047
end
