version,3.0
numOfCh,1
type,point
parent_name,c1204_0dot2-0dot01
ch_type,1_1
kcount,1
numberNandB,1
brightnessNandB,1
carpet pos,0
pc,0
Time (ms),CH1 Auto-Correlation
1.0,0.03800365701317787
2.0,0.037378907203674316
3.0,0.03676313906908035
4.0,0.036171890795230865
5.0,0.03559795767068863
6.0,0.035044532269239426
7.0,0.03450814262032509
8.0,0.033997103571891785
9.0,0.033503785729408264
10.0,0.033007752150297165
11.0,0.03254726529121399
12.0,0.032084379345178604
13.0,0.031653858721256256
14.0,0.03124595433473587
15.0,0.03085990995168686
16.0,0.03048151545226574
18.0,0.02971840277314186
20.0,0.02899117022752762
22.0,0.02826232649385929
24.0,0.027624597772955894
26.0,0.02702486328780651
28.0,0.026467015966773033
30.0,0.025931600481271744
32.0,0.025459179654717445
36.0,0.02463698573410511
40.0,0.023901263251900673
44.0,0.023292193189263344
48.0,0.02269192412495613
52.0,0.022108744829893112
56.0,0.021525481715798378
60.0,0.02082967199385166
64.0,0.020184790715575218
72.0,0.01926703192293644
80.0,0.018604300916194916
88.0,0.01795656979084015
96.0,0.017408225685358047
104.0,0.01684342324733734
112.0,0.01609879359602928
120.0,0.01530936174094677
128.0,0.014397087506949902
144.0,0.012904145754873753
160.0,0.012196950614452362
176.0,0.011374523863196373
192.0,0.010467585176229477
208.0,0.009879780933260918
224.0,0.009445484727621078
240.0,0.009242439642548561
256.0,0.008555988781154156
288.0,0.0077889785170555115
320.0,0.007449575234204531
352.0,0.0077074854634702206
384.0,0.007076469715684652
416.0,0.006307476200163364
448.0,0.0055372826755046844
480.0,0.005659142509102821
512.0,0.005552210845053196
576.0,0.0056609841994941235
640.0,0.004916723817586899
704.0,0.0035091040190309286
768.0,0.001184420776553452
832.0,-0.002107109408825636
896.0,-0.004976105876266956
960.0,-0.005513428244739771
1024.0,-0.0036196548026055098
1152.0,-0.002370558213442564
1280.0,-0.0022761644795536995
1408.0,-0.004404545295983553
1536.0,-0.0046097892336547375
1664.0,-0.00321661913767457
1792.0,-0.0013835708377882838
1920.0,0.0010474268347024918
2048.0,-0.00011273146083112806
2304.0,0.0032143169082701206
2560.0,0.006066066212952137
2816.0,0.006520171649754047
3072.0,0.006082036532461643
3328.0,0.0009524420602247119
3584.0,-0.0019157124916091561
3840.0,-0.003627197118476033
4096.0,-0.006703698541969061
4608.0,-0.008303802460432053
5120.0,-0.0030341416131705046
5632.0,0.0015272180316969752
6144.0,-0.004996712785214186
6656.0,-0.005736247170716524
7168.0,-0.007273529656231403
7680.0,-0.0074142892844974995
8192.0,0.002718088449910283
end
