version,3.0
numOfCh,1
type,point
parent_name,c1204_0dot2-0dot01
ch_type,1_1
kcount,1
numberNandB,1
brightnessNandB,1
carpet pos,0
pc,0
Time (ms),CH1 Auto-Correlation
1.0,0.0344264879822731
2.0,0.03385220095515251
3.0,0.0332968607544899
4.0,0.03275773301720619
5.0,0.032250240445137024
6.0,0.03176005184650421
7.0,0.031302932649850845
8.0,0.030867546796798706
9.0,0.030448202043771744
10.0,0.030050121247768402
11.0,0.029660167172551155
12.0,0.029285257682204247
13.0,0.028923969715833664
14.0,0.028573591262102127
15.0,0.028238892555236816
16.0,0.02791627123951912
18.0,0.027258316054940224
20.0,0.02662658877670765
22.0,0.026040196418762207
24.0,0.025485891848802567
26.0,0.024969158694148064
28.0,0.024500075727701187
30.0,0.024096453562378883
32.0,0.02369985170662403
36.0,0.022960752248764038
40.0,0.022317245602607727
44.0,0.021735120564699173
48.0,0.021110840141773224
52.0,0.020473364740610123
56.0,0.01994851790368557
60.0,0.019462626427412033
64.0,0.019007472321391106
72.0,0.018115900456905365
80.0,0.017230050638318062
88.0,0.01625840738415718
96.0,0.015402757562696934
104.0,0.014607188291847706
112.0,0.01382925920188427
120.0,0.01300505455583334
128.0,0.012201312929391861
144.0,0.011323262006044388
160.0,0.010684137232601643
176.0,0.01022293046116829
192.0,0.0098539087921381
208.0,0.009338791482150555
224.0,0.008518936112523079
240.0,0.00811586994677782
256.0,0.007950005121529102
288.0,0.007534663658589125
320.0,0.005980120040476322
352.0,0.004443167243152857
384.0,0.004137043375521898
416.0,0.003831688081845641
448.0,0.0035195054952055216
480.0,0.003705830778926611
512.0,0.0041585080325603485
576.0,0.004880658816546202
640.0,0.0053777131251990795
704.0,0.0048887054435908794
768.0,0.005043962504714727
832.0,0.006547085475176573
896.0,0.006834310479462147
960.0,0.004847461823374033
1024.0,0.004322582855820656
1152.0,0.002299530664458871
1280.0,0.00016129443247336894
1408.0,0.00043333115172572434
1536.0,0.0032225775066763163
1664.0,0.004684471990913153
1792.0,0.005592220462858677
1920.0,0.004572678357362747
2048.0,0.002985419938340783
2304.0,0.0029791523702442646
2560.0,0.003482993459329009
2816.0,0.005562430247664452
3072.0,0.003377938410267234
3328.0,0.0010094515746459365
3584.0,0.0005513277719728649
3840.0,0.0022716328967362642
4096.0,-0.001389773329719901
4608.0,-0.000606543617323041
5120.0,-0.0049189068377017975
5632.0,0.0006536166765727103
6144.0,-0.0001373745471937582
6656.0,-0.004200067836791277
7168.0,-0.0024150293320417404
7680.0,-0.002437599701806903
8192.0,-0.002837738022208214
end
