version,3.0
numOfCh,1
type,point
parent_name,c1204_0dot2-0dot01
ch_type,1_1
kcount,1
numberNandB,1
brightnessNandB,1
carpet pos,0
pc,0
Time (ms),CH1 Auto-Correlation
1.0,0.03988061845302582
2.0,0.03934735804796219
3.0,0.038844093680381775
4.0,0.03834112733602524
5.0,0.037852633744478226
6.0,0.03736874461174011
7.0,0.03690534830093384
8.0,0.03645164892077446
9.0,0.03601476922631264
10.0,0.03558078408241272
11.0,0.03516000881791115
12.0,0.034741491079330444
13.0,0.03433940187096596
14.0,0.033968791365623474
15.0,0.033620063215494156
16.0,0.03327295929193497
18.0,0.03263996168971062
20.0,0.03204662725329399
22.0,0.03148208186030388
24.0,0.03094184771180153
26.0,0.030418802052736282
28.0,0.029923226684331894
30.0,0.029444891959428787
32.0,0.02898852899670601
36.0,0.028181936591863632
40.0,0.027469148859381676
44.0,0.026778491213917732
48.0,0.026156408712267876
52.0,0.02560565434396267
56.0,0.025075571611523628
60.0,0.02452893555164337
64.0,0.024000423029065132
72.0,0.022877072915434837
80.0,0.021668903529644012
88.0,0.020719178020954132
96.0,0.020150287076830864
104.0,0.019740575924515724
112.0,0.019343649968504906
120.0,0.018900640308856964
128.0,0.018722185865044594
144.0,0.01852751336991787
160.0,0.01822362281382084
176.0,0.017907937988638878
192.0,0.017842616885900497
208.0,0.017359141260385513
224.0,0.016710033640265465
240.0,0.01584407314658165
256.0,0.01453398633748293
288.0,0.011977690272033215
320.0,0.010517110116779804
352.0,0.009939667768776417
384.0,0.009035097435116768
416.0,0.00852883979678154
448.0,0.008281704038381577
480.0,0.007433743681758642
512.0,0.006531075574457645
576.0,0.006299621891230345
640.0,0.006097076926380396
704.0,0.004318222403526306
768.0,0.003418507520109415
832.0,0.0037629888392984867
896.0,0.003278058022260666
960.0,0.0017450214363634586
1024.0,0.001993300626054406
1152.0,0.0018369551980867982
1280.0,0.0026977548841387033
1408.0,0.0008159975404851139
1536.0,-0.0014234865084290504
1664.0,-0.003595701651647687
1792.0,-0.0031348401680588722
1920.0,-0.0032949773594737053
2048.0,-0.004148752428591251
2304.0,-0.00664277421310544
2560.0,-0.007163580507040024
2816.0,-0.006265327800065279
3072.0,-0.001900857430882752
3328.0,0.002861995017156005
3584.0,0.0016782309394329786
3840.0,0.003937773872166872
4096.0,0.005136858206242323
4608.0,0.0049107735976576805
5120.0,-0.0007292067166417837
5632.0,-0.0022983700037002563
6144.0,-0.0069650826044380665
6656.0,-0.0031511131674051285
7168.0,-0.008345227688550949
7680.0,-0.00246307416819036
8192.0,-0.009173470549285412
end
