version,3.0
numOfCh,1
type,point
parent_name,c1204_0dot2-0dot01
ch_type,1_1
kcount,1
numberNandB,1
brightnessNandB,1
carpet pos,0
pc,0
Time (ms),CH1 Auto-Correlation
1.0,0.03491009399294853
2.0,0.03431351110339165
3.0,0.03373849764466286
4.0,0.03317208215594292
5.0,0.03261825442314148
6.0,0.032078322023153305
7.0,0.03154578059911728
8.0,0.031025804579257965
9.0,0.030520843341946602
10.0,0.030030814930796623
11.0,0.029544826596975327
12.0,0.029073908925056458
13.0,0.028613613918423653
14.0,0.028180481866002083
15.0,0.027772098779678345
16.0,0.027378631755709648
18.0,0.02666531130671501
20.0,0.025982791557908058
22.0,0.025309884920716286
24.0,0.024630289524793625
26.0,0.023983707651495934
28.0,0.023411927744746208
30.0,0.022875018417835236
32.0,0.0223336610943079
36.0,0.021348189562559128
40.0,0.02037546969950199
44.0,0.019431862980127335
48.0,0.018580304458737373
52.0,0.017776310443878174
56.0,0.01700751855969429
60.0,0.016310883685946465
64.0,0.01566307060420513
72.0,0.014669263735413551
80.0,0.014068503864109516
88.0,0.013404704630374908
96.0,0.012743004597723484
104.0,0.01199791394174099
112.0,0.011093731969594955
120.0,0.010149062611162663
128.0,0.009306738153100014
144.0,0.00804516114294529
160.0,0.007058864925056696
176.0,0.006620532367378473
192.0,0.006072144955396652
208.0,0.0060278018936514854
224.0,0.006148983724415302
240.0,0.006079799495637417
256.0,0.005673499777913094
288.0,0.0042458949610590935
320.0,0.002319404622539878
352.0,0.0016014368738979101
384.0,0.0021527917124330997
416.0,0.001597248250618577
448.0,0.0008512715576216578
480.0,0.0001511053560534492
512.0,-0.0007049125269986689
576.0,-0.0025772240478545427
640.0,-0.0018084034090861678
704.0,-0.0007145647541619837
768.0,-0.0015245253453031182
832.0,-0.0018530553206801414
896.0,-0.0012068147771060467
960.0,0.000507940596435219
1024.0,0.002157472772523761
1152.0,0.002676215022802353
1280.0,0.00017041114915627986
1408.0,-0.0010874946601688862
1536.0,-0.0024830293841660023
1664.0,-0.005122513510286808
1792.0,-0.0035009048879146576
1920.0,-0.0022232402116060257
2048.0,0.0008742549107410014
2304.0,0.0011463684495538473
2560.0,-0.0021517148707062006
2816.0,-0.0035000906791538
3072.0,0.0004689023189712316
3328.0,0.0014317495515570045
3584.0,0.001270623761229217
3840.0,0.001989267999306321
4096.0,0.0015026454348117113
4608.0,-0.002447477774694562
5120.0,-0.001167445327155292
5632.0,-0.0023771794512867928
6144.0,-0.002520014299079776
6656.0,0.0034323083236813545
7168.0,-0.00046608500997535884
7680.0,0.001531346351839602
8192.0,-0.00270138680934906
9216.0,-0.0030885753221809864
10240.0,0.00028183095855638385
11264.0,0.002784176729619503
12288.0,-0.0006289228331297636
13312.0,-0.00525007676333189
14336.0,0.005025017540901899
end
