version,3.0
numOfCh,1
type,point
parent_name,c1204_0dot2-0dot01
ch_type,1_1
kcount,1
numberNandB,1
brightnessNandB,1
carpet pos,0
pc,0
Time (ms),CH1 Auto-Correlation
1.0,0.03782748803496361
2.0,0.037202637642621994
3.0,0.03659037500619888
4.0,0.03598575294017792
5.0,0.0353950634598732
6.0,0.034819867461919785
7.0,0.034248944371938705
8.0,0.033685050904750824
9.0,0.033143043518066406
10.0,0.03262234479188919
11.0,0.032092202454805374
12.0,0.031588293612003326
13.0,0.031097443774342537
14.0,0.030639348551630974
15.0,0.030218010768294334
16.0,0.02980448305606842
18.0,0.029035432264208794
20.0,0.02831316739320755
22.0,0.027617456391453743
24.0,0.026969866827130318
26.0,0.026371566578745842
28.0,0.025843754410743713
30.0,0.02535640262067318
32.0,0.0248834528028965
36.0,0.023953670635819435
40.0,0.023160628974437714
44.0,0.022444551810622215
48.0,0.021696671843528748
52.0,0.02094312012195587
56.0,0.020215030759572983
60.0,0.019385704770684242
64.0,0.01856115646660328
72.0,0.017256302759051323
80.0,0.01633404940366745
88.0,0.015488144010305405
96.0,0.01480583380907774
104.0,0.014280504547059536
112.0,0.013487734831869602
120.0,0.012536033056676388
128.0,0.011800217442214489
144.0,0.010156676173210144
160.0,0.00824284739792347
176.0,0.006972712930291891
192.0,0.006483625620603561
208.0,0.005717520602047443
224.0,0.005347895435988903
240.0,0.005709780380129814
256.0,0.005982446018606424
288.0,0.006529384758323431
320.0,0.006063195876777172
352.0,0.005016672890633345
384.0,0.004036094527691603
416.0,0.0025833966210484505
448.0,0.0007280907011590898
480.0,-0.00019810139201581478
512.0,0.0007444083457812667
576.0,0.00231642322614789
640.0,0.004436338320374489
704.0,0.004901800770312548
768.0,0.0012017394183203578
832.0,-3.987012678408064e-05
896.0,-0.001739105791784823
960.0,-0.002419260796159506
1024.0,-0.0035264636389911175
1152.0,-0.00818309560418129
1280.0,-0.0031056255102157593
1408.0,-0.004545921925455332
1536.0,-0.007468209136277437
1664.0,-0.0012538655428215861
1792.0,-0.00025844413903541863
1920.0,-0.000681141740642488
2048.0,0.0012329132296144962
2304.0,0.0009880862198770046
2560.0,-0.0022841081954538822
2816.0,-0.0010576497297734022
3072.0,-0.0021532925311475992
3328.0,-0.0035675102844834328
3584.0,-0.0006025588372722268
3840.0,0.00258015189319849
4096.0,-0.001181877451017499
4608.0,-0.0004346416098996997
5120.0,-0.004900686908513308
5632.0,-0.0027970937080681324
6144.0,0.0023496155627071857
6656.0,0.007441878318786621
7168.0,-0.00805268157273531
7680.0,0.0022238760720938444
8192.0,0.005423019640147686
end
