version,3.0
numOfCh,1
type,point
parent_name,c1204_0dot2-0dot01
ch_type,1_1
kcount,1
numberNandB,1
brightnessNandB,1
carpet pos,0
pc,0
Time (ms),CH1 Auto-Correlation
1.0,0.025488782674074173
2.0,0.024939903989434242
3.0,0.024416843429207802
4.0,0.02390528842806816
5.0,0.023430537432432175
6.0,0.022979142144322395
7.0,0.02254231460392475
8.0,0.0221156794577837
9.0,0.0216996893286705
10.0,0.0212897676974535
11.0,0.020893331617116928
12.0,0.020517734810709953
13.0,0.020158730447292328
14.0,0.019812561571598053
15.0,0.01948213204741478
16.0,0.019124099984765053
18.0,0.018421174958348274
20.0,0.017761627212166786
22.0,0.01715826243162155
24.0,0.016638122498989105
26.0,0.016171401366591454
28.0,0.01574833132326603
30.0,0.015320764854550362
32.0,0.01487805973738432
36.0,0.014129151590168476
40.0,0.01343502290546894
44.0,0.012822134420275688
48.0,0.012275921180844307
52.0,0.0116797536611557
56.0,0.011062280274927616
60.0,0.010575269348919392
64.0,0.010200046934187412
72.0,0.009439053013920784
80.0,0.00854303315281868
88.0,0.007665055338293314
96.0,0.006720646750181913
104.0,0.005655702203512192
112.0,0.004737486597150564
120.0,0.004049087408930063
128.0,0.0036307740956544876
144.0,0.003223628271371126
160.0,0.0029056486673653126
176.0,0.0025333056692034006
192.0,0.0023823112715035677
208.0,0.002365396823734045
224.0,0.002388240536674857
240.0,0.00216086907312274
256.0,0.0021219628397375345
288.0,0.0023332221899181604
320.0,0.0026109504979103804
352.0,0.0027414262294769287
384.0,0.0028806449845433235
416.0,0.0028399734292179346
448.0,0.0020618748385459185
480.0,0.0017586320172995329
512.0,0.0017166915349662304
576.0,0.0015986206708475947
640.0,0.0013756889384239912
704.0,0.00029921860550530255
768.0,-0.0010440424084663391
832.0,-0.002490720245987177
896.0,-0.0024602655321359634
960.0,-0.0017982141580432653
1024.0,-0.002652699127793312
1152.0,-0.002292969264090061
1280.0,-0.0018283339450135827
1408.0,-0.004129427019506693
1536.0,-0.005303520243614912
1664.0,-0.0043186042457818985
1792.0,-0.001980567816644907
1920.0,0.0002003936970140785
2048.0,-0.0017566995229572058
2304.0,-0.00027461853460408747
2560.0,-0.000631743751000613
2816.0,-0.00022226957662496716
3072.0,0.002063961233943701
3328.0,0.0028478496242314577
3584.0,0.002141970209777355
3840.0,0.001963977236300707
4096.0,0.0004102259408682585
4608.0,-0.0007930239080451429
5120.0,-0.001745986519381404
5632.0,-0.0011945073492825031
6144.0,0.0012478154385462403
6656.0,0.0012001297436654568
7168.0,0.003399135312065482
7680.0,0.0004505723190959543
8192.0,-0.0031848319340497255
end
