version,3.0
numOfCh,1
type,point
parent_name,c1204_0dot2-0dot01
ch_type,1_1
kcount,1
numberNandB,1
brightnessNandB,1
carpet pos,0
pc,0
Time (ms),CH1 Auto-Correlation
1.0,0.04287760332226753
2.0,0.04227771237492561
3.0,0.04170146957039833
4.0,0.041157759726047516
5.0,0.040649544447660446
6.0,0.0401480458676815
7.0,0.03967588394880295
8.0,0.03921852633357048
9.0,0.038753606379032135
10.0,0.03830540552735329
11.0,0.037861417979002
12.0,0.037416763603687286
13.0,0.03697478398680687
14.0,0.036529067903757095
15.0,0.03611594811081886
16.0,0.03570932894945145
18.0,0.03493853658437729
20.0,0.034174710512161255
22.0,0.03344086930155754
24.0,0.032768432050943375
26.0,0.03214355185627937
28.0,0.031576789915561676
30.0,0.031008059158921242
32.0,0.030460471287369728
36.0,0.02951982244849205
40.0,0.028614243492484093
44.0,0.02777114324271679
48.0,0.02702220529317856
52.0,0.0263168066740036
56.0,0.0256954375654459
60.0,0.02509964257478714
64.0,0.024549510329961777
72.0,0.023601412773132324
80.0,0.022797277197241783
88.0,0.022161366418004036
96.0,0.021638432517647743
104.0,0.021125871688127518
112.0,0.02061787061393261
120.0,0.02006022445857525
128.0,0.019335053861141205
144.0,0.01763087697327137
160.0,0.01636509969830513
176.0,0.01560352835804224
192.0,0.015202409587800503
208.0,0.014672846533358097
224.0,0.013921317644417286
240.0,0.013478964567184448
256.0,0.01295908261090517
288.0,0.01167264673858881
320.0,0.010388774797320366
352.0,0.008727673441171646
384.0,0.007656970992684364
416.0,0.006641064770519733
448.0,0.005700796376913786
480.0,0.0048112282529473305
512.0,0.0037018111906945705
576.0,0.0011478927917778492
640.0,-0.0025366563349962234
704.0,-0.004026874899864197
768.0,-0.004796974360942841
832.0,-0.005236435681581497
896.0,-0.006324159912765026
960.0,-0.007441124878823757
1024.0,-0.008885747753083706
1152.0,-0.009641577489674091
1280.0,-0.009514205157756805
1408.0,-0.006694871932268143
1536.0,-0.0063488781452178955
1664.0,-0.007190162781625986
1792.0,-0.006526533048599958
1920.0,-0.00510356156155467
2048.0,-0.0019550733268260956
2304.0,0.0064644236117601395
2560.0,0.008029243908822536
2816.0,0.006864246446639299
3072.0,0.004724214784801006
3328.0,-0.0014341955538839102
3584.0,-0.004462818615138531
3840.0,-0.005526543129235506
4096.0,-0.009446525014936924
4608.0,-0.0017768946709111333
5120.0,0.004655207972973585
5632.0,0.006042816676199436
6144.0,-0.0054846215061843395
6656.0,-0.007851511240005493
7168.0,0.0028367305640131235
7680.0,0.0011948739411309361
8192.0,0.0017583008157089353
end
