version,3.0
numOfCh,1
type,point
parent_name,c1204_0dot2-0dot01
ch_type,1_1
kcount,1
numberNandB,1
brightnessNandB,1
carpet pos,0
pc,0
Time (ms),CH1 Auto-Correlation
1.0,0.03211819380521774
2.0,0.03157136216759682
3.0,0.031078044325113297
4.0,0.03060316853225231
5.0,0.0301357414573431
6.0,0.029687590897083282
7.0,0.02924349531531334
8.0,0.028820771723985672
9.0,0.02841264195740223
10.0,0.028021272271871567
11.0,0.027653150260448456
12.0,0.027293141931295395
13.0,0.026947472244501114
14.0,0.02660820446908474
15.0,0.026271773502230644
16.0,0.025961454957723618
18.0,0.025336340069770813
20.0,0.024684373289346695
22.0,0.02403150498867035
24.0,0.023409688845276833
26.0,0.022822579368948936
28.0,0.02227979525923729
30.0,0.021786930039525032
32.0,0.02135394886136055
36.0,0.020505070686340332
40.0,0.019776172935962677
44.0,0.019193284213542938
48.0,0.01871699094772339
52.0,0.01824253611266613
56.0,0.017903169617056847
60.0,0.017719222232699394
64.0,0.017527490854263306
72.0,0.01685618981719017
80.0,0.015998095273971558
88.0,0.015173695050179958
96.0,0.014473740011453629
104.0,0.014117344282567501
112.0,0.013642330653965473
120.0,0.01306924782693386
128.0,0.012560688890516758
144.0,0.011187857016921043
160.0,0.010023968294262886
176.0,0.0092933913692832
192.0,0.00891705323010683
208.0,0.007910065352916718
224.0,0.007084331475198269
240.0,0.006588032469153404
256.0,0.006100296974182129
288.0,0.004829650744795799
320.0,0.005381044466048479
352.0,0.00658873887732625
384.0,0.006382639519870281
416.0,0.0067381225526332855
448.0,0.007293322589248419
480.0,0.006963853724300861
512.0,0.006137466058135033
576.0,0.002906538313254714
640.0,0.0026569089386612177
704.0,0.0026171214412897825
768.0,0.004514551721513271
832.0,0.005786369554698467
896.0,0.0066781300120055676
960.0,0.006070213858038187
1024.0,0.004720250144600868
1152.0,0.001332832151092589
1280.0,0.0005607514176517725
1408.0,0.0029962274711579084
1536.0,0.0025041827466338873
1664.0,0.0010027415119111538
1792.0,0.00016451771080028266
1920.0,-0.004290237091481686
2048.0,-0.007997062057256699
2304.0,-0.005953844171017408
2560.0,-0.0039964583702385426
2816.0,-0.0064126672223210335
3072.0,-0.010120434686541557
3328.0,-0.008848241530358791
3584.0,-0.008579833433032036
3840.0,-0.008154395967721939
4096.0,-0.003094318090006709
end
