version,3.0
numOfCh,1
type,point
parent_name,c1204_0dot2-0dot01
ch_type,1_1
kcount,1
numberNandB,1
brightnessNandB,1
carpet pos,0
pc,0
Time (ms),CH1 Auto-Correlation
1.0,0.061741214245557785
2.0,0.06004364416003227
3.0,0.058406200259923935
4.0,0.056801989674568176
5.0,0.05518574267625809
6.0,0.05366470664739609
7.0,0.05208522453904152
8.0,0.05054618418216705
9.0,0.049033332616090775
10.0,0.04756883904337883
11.0,0.046141739934682846
12.0,0.04469763860106468
13.0,0.04329954832792282
14.0,0.041905466467142105
15.0,0.04049115255475044
16.0,0.039046332240104675
18.0,0.03509465232491493
20.0,0.03249777853488922
22.0,0.029936615377664566
24.0,0.029366757720708847
26.0,0.028797993436455727
28.0,0.02824483998119831
30.0,0.027775557711720467
32.0,0.02736816182732582
36.0,0.0264191385358572
40.0,0.025467053055763245
44.0,0.024521151557564735
48.0,0.023640993982553482
52.0,0.022824706509709358
56.0,0.02191072143614292
60.0,0.021194854751229286
64.0,0.020352378487586975
72.0,0.018607009202241898
80.0,0.016884751617908478
88.0,0.015734374523162842
96.0,0.0149789247661829
104.0,0.01467999629676342
112.0,0.013969136402010918
120.0,0.013013992458581924
128.0,0.012228311039507389
144.0,0.010964135639369488
160.0,0.010495808906853199
176.0,0.009895515628159046
192.0,0.008149676024913788
208.0,0.007542610168457031
224.0,0.006669546477496624
240.0,0.006154918577522039
256.0,0.00639882730320096
288.0,0.006887420546263456
320.0,0.006945112254470587
352.0,0.007272445131093264
384.0,0.006660756655037403
416.0,0.006714442279189825
448.0,0.006182843819260597
480.0,0.006375414784997702
512.0,0.0044892956502735615
576.0,0.002836046274751425
640.0,-0.0005347315454855561
704.0,0.001032794127240777
768.0,0.002867046045139432
832.0,0.006595378275960684
896.0,0.007242381572723389
960.0,0.007270419038832188
1024.0,0.007976706139743328
1152.0,0.004872751887887716
1280.0,0.004779584240168333
1408.0,0.003462773747742176
1536.0,0.0010814397828653455
1664.0,0.000945760402828455
1792.0,-0.00014744924555998296
1920.0,0.003203379223123193
2048.0,0.003882761811837554
2304.0,0.0012178699253126979
2560.0,0.0020568417385220528
2816.0,-0.00040762254502624273
3072.0,0.0013105346588417888
3328.0,0.004526656121015549
3584.0,0.003853569272905588
3840.0,0.0018264921382069588
4096.0,-0.0021099320147186518
4608.0,0.00028213419136591256
5120.0,-0.004459632560610771
5632.0,-0.003055161563679576
6144.0,0.000994981499388814
6656.0,0.0015452491352334619
7168.0,-0.0031237532384693623
7680.0,-0.007953084073960781
8192.0,-0.0072935656644403934
end
