version,3.0
numOfCh,1
type,point
parent_name,c1204_0dot2-0dot01
ch_type,1_1
kcount,1
numberNandB,1
brightnessNandB,1
carpet pos,0
pc,0
Time (ms),CH1 Auto-Correlation
1.0,0.027931753545999527
2.0,0.027360625565052032
3.0,0.02680804580450058
4.0,0.026269802823662758
5.0,0.025753000751137733
6.0,0.02523752674460411
7.0,0.024745089933276176
8.0,0.024253709241747856
9.0,0.023765340447425842
10.0,0.023292098194360733
11.0,0.022847400978207588
12.0,0.02240581624209881
13.0,0.021975183859467506
14.0,0.021564843133091927
15.0,0.02117736078798771
16.0,0.020812708884477615
18.0,0.02010449953377247
20.0,0.01944262906908989
22.0,0.01884571462869644
24.0,0.018246164545416832
26.0,0.017652548849582672
28.0,0.017074698582291603
30.0,0.016522429883480072
32.0,0.015994861721992493
36.0,0.014981337822973728
40.0,0.01399314310401678
44.0,0.012939456850290298
48.0,0.011854848824441433
52.0,0.010872213169932365
56.0,0.010097503662109375
60.0,0.009402739815413952
64.0,0.008817615918815136
72.0,0.007491441443562508
80.0,0.006338234059512615
88.0,0.005631767213344574
96.0,0.005142372567206621
104.0,0.0048388149589300156
112.0,0.004444846883416176
120.0,0.004100697115063667
128.0,0.003908059559762478
144.0,0.0035083091352134943
160.0,0.0027949362993240356
176.0,0.0023239627480506897
192.0,0.001953734550625086
208.0,0.0011290896218270063
224.0,0.0006096833967603743
240.0,0.0010239325929433107
256.0,0.0012104071211069822
288.0,0.0008105993620119989
320.0,0.00033622997580096126
352.0,-0.00030673027504235506
384.0,-0.0009819399565458298
416.0,-0.00024377020599786192
448.0,7.835838914616033e-05
480.0,-7.55576475057751e-05
512.0,-0.0007769576041027904
576.0,0.0005524777225218713
640.0,4.15743124904111e-05
704.0,-0.0009424912859685719
768.0,-0.00027032909565605223
832.0,0.001869477448053658
896.0,0.0009828103939071298
960.0,0.0004001159977633506
1024.0,0.0009604075457900763
1152.0,-0.00012100103049306199
1280.0,0.0013591841561719775
1408.0,0.0022808716166764498
1536.0,0.0005595294060185552
1664.0,0.0033138860017061234
1792.0,0.006069444119930267
1920.0,0.0028962232172489166
2048.0,-0.001040531089529395
2304.0,0.0014305675867944956
2560.0,-0.00031466642394661903
2816.0,-8.432190224993974e-05
3072.0,-0.0027209362015128136
3328.0,-0.0022136326879262924
3584.0,0.0009612128487788141
3840.0,-0.00010845424549188465
4096.0,4.8234232963295653e-05
4608.0,-0.0035858689807355404
5120.0,-0.0019276355160400271
5632.0,7.673409709241241e-05
6144.0,-0.0029731648974120617
6656.0,-0.0017340461490675807
7168.0,-0.0020468616858124733
7680.0,-0.00022948053083382547
8192.0,-0.0003093674313277006
end
