version,3.0
numOfCh,1
type,point
parent_name,c1204_0dot2-0dot01
ch_type,1_1
kcount,1
numberNandB,1
brightnessNandB,1
carpet pos,0
pc,0
Time (ms),CH1 Auto-Correlation
1.0,0.03265625238418579
2.0,0.03209477663040161
3.0,0.03155255690217018
4.0,0.03102065622806549
5.0,0.030519455671310425
6.0,0.030038876459002495
7.0,0.029576653614640236
8.0,0.029123252257704735
9.0,0.028687071055173874
10.0,0.02826918102800846
11.0,0.02787155844271183
12.0,0.027481408789753914
13.0,0.02709808200597763
14.0,0.026716943830251694
15.0,0.026345880702137947
16.0,0.025995878502726555
18.0,0.025314949452877045
20.0,0.024723466485738754
22.0,0.02416759543120861
24.0,0.023617949336767197
26.0,0.02308778092265129
28.0,0.022523246705532074
30.0,0.021979281678795815
32.0,0.021456532180309296
36.0,0.020506033673882484
40.0,0.019643260166049004
44.0,0.018888350576162338
48.0,0.01807577721774578
52.0,0.017243048176169395
56.0,0.016483640298247337
60.0,0.015808330848813057
64.0,0.015158059075474739
72.0,0.013865913264453411
80.0,0.01261337660253048
88.0,0.011635484173893929
96.0,0.010760328732430935
104.0,0.009962629526853561
112.0,0.009271649643778801
120.0,0.008738434873521328
128.0,0.008274026215076447
144.0,0.007183145731687546
160.0,0.0065856799483299255
176.0,0.006306634284555912
192.0,0.0060977330431342125
208.0,0.005740921013057232
224.0,0.005309291183948517
240.0,0.0052013099193573
256.0,0.004935025237500668
288.0,0.004163859877735376
320.0,0.003482988802716136
352.0,0.0027464970480650663
384.0,0.0022829188965260983
416.0,0.0017949470784515142
448.0,0.0018214843003079295
480.0,0.0023449608124792576
512.0,0.002841897075995803
576.0,0.0037993434816598892
640.0,0.003400026587769389
704.0,0.0015822520945221186
768.0,0.0005894360365346074
832.0,-0.0005275541916489601
896.0,-0.001915198052302003
960.0,-0.002527466043829918
1024.0,-0.0018051686929538846
1152.0,-0.0006522877956740558
1280.0,0.00020443645189516246
1408.0,-0.0009603017824701965
1536.0,-0.002505609532818198
1664.0,-0.0031291304621845484
1792.0,-0.0025197553914040327
1920.0,-0.0014663540059700608
2048.0,-0.0009907303610816598
2304.0,-0.0025220781099051237
2560.0,-0.004547635558992624
2816.0,-0.0014993377262726426
3072.0,-0.002895072568207979
3328.0,-0.0010071449214592576
3584.0,-0.002098511904478073
3840.0,-0.00012037188571412116
4096.0,0.001820707111619413
4608.0,0.0035116560757160187
5120.0,0.003531581489369273
5632.0,0.0032010916620492935
6144.0,-0.0005125161842443049
6656.0,-0.003327559679746628
7168.0,-0.0053710429929196835
7680.0,-0.0016711533535271883
8192.0,-0.000705053040292114
9216.0,0.003222021507099271
10240.0,0.0024850701447576284
11264.0,-0.004001243971288204
12288.0,-0.003997332416474819
13312.0,0.0010582460090517998
14336.0,0.0010112657910212874
end
