version,3.0
numOfCh,1
type,point
parent_name,80-cuts
ch_type,1_1
kcount,1
numberNandB,1
brightnessNandB,1
carpet pos,0
pc,0
Time (ms),CH1 Auto-Correlation
1.0,0.016736110672354698
2.0,0.013752911239862442
3.0,0.011712818406522274
4.0,0.010261718183755875
5.0,0.009037800133228302
6.0,0.008025281131267548
7.0,0.0071441661566495895
8.0,0.0064888824708759785
9.0,0.005942812189459801
10.0,0.0054450444877147675
11.0,0.004896062891930342
12.0,0.004467394202947617
13.0,0.004121138248592615
14.0,0.003820935031399131
15.0,0.003565191989764571
16.0,0.003294486552476883
18.0,0.002892040414735675
20.0,0.0027195559814572334
22.0,0.0025795018300414085
24.0,0.002395069459453225
26.0,0.002109169727191329
28.0,0.0019496830645948648
30.0,0.001780560240149498
32.0,0.0015043379971757531
36.0,0.0008877410436980426
40.0,0.0007372694090008736
44.0,0.0006136493757367134
48.0,0.0005084818694740534
52.0,0.00038114641210995615
56.0,0.00026758029707707465
60.0,0.000186813049367629
64.0,0.0003080907044932246
72.0,0.00016888136451598257
80.0,0.00018290459411218762
88.0,0.0003121217305306345
96.0,0.00018353470659349114
104.0,0.0006373276701197028
112.0,0.0009049454820342362
120.0,0.0008200726006180048
128.0,0.0007824364001862705
144.0,0.0006231844890862703
160.0,0.0004124277620576322
176.0,0.0002939772966783494
192.0,0.00019876651640515774
208.0,0.00041587476152926683
224.0,0.0006391257629729807
240.0,0.0004360880993772298
256.0,0.0001252451620530337
288.0,-0.0005985968164168298
320.0,-0.0005720056360587478
352.0,-0.00020319788018241525
384.0,-0.0002912963682319969
416.0,-0.00019008980598300695
448.0,-0.00011440493108239025
480.0,-0.0003195765311829746
512.0,-0.00010107625712407753
576.0,5.304929436533712e-05
640.0,-9.649153798818588e-05
704.0,-0.00035594034125097096
768.0,-0.0007688222685828805
832.0,-0.00033082356094382703
896.0,-0.00019117615011055022
960.0,0.00010075139289256185
1024.0,0.000394980248529464
1152.0,2.0909661543555558e-05
1280.0,-7.161496614571661e-05
1408.0,-5.554410017793998e-05
1536.0,0.00011767959949793294
1664.0,0.00030373039771802723
1792.0,-0.00020256008428987116
1920.0,-0.0003321047406643629
2048.0,-0.00010326858318876475
2304.0,1.379990681016352e-05
2560.0,0.00038123942795209587
2816.0,0.0003852842201013118
3072.0,-0.00022704724688082933
3328.0,-0.0003656368935480714
3584.0,-0.0001218025863636285
3840.0,3.117763117188588e-05
4096.0,-0.00014647257921751589
4608.0,-0.0003367557073943317
5120.0,0.00016669918841216713
5632.0,0.00014559717965312302
6144.0,-6.654269236605614e-05
6656.0,0.00010570167796686292
7168.0,-7.438173634000123e-05
7680.0,0.00010661640408216044
8192.0,0.0003520023310557008
9216.0,7.304702194232959e-06
10240.0,-0.0001197164092445746
11264.0,-0.00016034852887969464
12288.0,-5.8632682339521125e-05
13312.0,2.0551586203509942e-05
14336.0,3.499197555356659e-05
end
