version,3.0
numOfCh,1
type,point
parent_name,80-cuts
ch_type,1_1
kcount,1
numberNandB,1
brightnessNandB,1
carpet pos,0
pc,0
Time (ms),CH1 Auto-Correlation
1.0,0.015932820737361908
2.0,0.012936222366988659
3.0,0.010845642536878586
4.0,0.009331850335001945
5.0,0.00811628345400095
6.0,0.007191560696810484
7.0,0.006531767081469297
8.0,0.005998468492180109
9.0,0.00547936512157321
10.0,0.005012682173401117
11.0,0.004534291569143534
12.0,0.004131723660975695
13.0,0.0037884553894400597
14.0,0.0035781743936240673
15.0,0.0033238276373595
16.0,0.0030488779302686453
18.0,0.002564766677096486
20.0,0.002263582544401288
22.0,0.0020394555758684874
24.0,0.0019984988030046225
26.0,0.0021137562580406666
28.0,0.0019918375182896852
30.0,0.0019156939815729856
32.0,0.0018226063111796975
36.0,0.001593140885233879
40.0,0.001435965416021645
44.0,0.0012425034074112773
48.0,0.0009514339035376906
52.0,0.0008263880154117942
56.0,0.000753566506318748
60.0,0.0005672339466400445
64.0,0.0005921624251641333
72.0,0.0005271498812362552
80.0,0.00014197085693012923
88.0,-0.0001403445639880374
96.0,0.00012291590974200517
104.0,0.00033273969893343747
112.0,0.0006092807743698359
120.0,0.000468989834189415
128.0,0.00023103534476831555
144.0,-0.00011302118946332484
160.0,-0.00014045662828721106
176.0,7.522992382291704e-05
192.0,0.000116795337817166
208.0,-6.470258813351393e-05
224.0,-0.0003245846601203084
240.0,-0.000344208994647488
256.0,-0.0004956148331984878
288.0,-0.0004560928209684789
320.0,5.983600658510113e-06
352.0,0.0002480126859154552
384.0,2.64090922428295e-05
416.0,-0.00032669733627699316
448.0,-0.000715100031811744
480.0,-0.0004663159779738635
512.0,-0.00024424924049526453
576.0,-0.00018217436445411295
640.0,-0.0003838856646325439
704.0,-0.0003789540787693113
768.0,-0.00012886637705378234
832.0,-1.1936454029637389e-05
896.0,1.884473931568209e-06
960.0,0.0001531807502033189
1024.0,0.0005326855462044477
1152.0,0.0003223737294320017
1280.0,-5.5376465752488e-05
1408.0,-0.0005830478621646762
1536.0,-0.00019432339468039572
1664.0,-0.00010695622768253088
1792.0,0.0002084664738504216
1920.0,0.0005195458070375025
2048.0,0.0002999532734975219
2304.0,-6.174419104354456e-05
2560.0,-0.00042106371256522834
2816.0,-9.349329775432125e-05
3072.0,5.0332615501247346e-05
3328.0,-0.00011886469292221591
3584.0,6.496356945717707e-05
3840.0,0.00011523588182171807
4096.0,0.00011062244448112324
4608.0,-0.00024674259475432336
5120.0,-9.425457392353565e-05
5632.0,0.00010112362360814586
6144.0,3.2041767553891987e-05
6656.0,-9.859509009402245e-05
7168.0,-0.00016846625658217818
7680.0,0.00047342738253064454
8192.0,-0.00019608269212767482
9216.0,-3.3881067793117836e-05
10240.0,0.00014521353296004236
11264.0,9.703075920697302e-05
12288.0,-0.00019445584621280432
13312.0,-0.0001612507039681077
14336.0,9.479554137215018e-06
end
