version,3.0
numOfCh,1
type,point
parent_name,80-cuts
ch_type,1_1
kcount,1
numberNandB,1
brightnessNandB,1
carpet pos,0
pc,0
Time (ms),CH1 Auto-Correlation
1.0,0.01571282558143139
2.0,0.012873443774878979
3.0,0.010756107047200203
4.0,0.009240238927304745
5.0,0.008012933656573296
6.0,0.006981756538152695
7.0,0.0062102084048092365
8.0,0.0054239449091255665
9.0,0.004881872329860926
10.0,0.004416551906615496
11.0,0.004164454992860556
12.0,0.0039443750865757465
13.0,0.0037227829452604055
14.0,0.003560587763786316
15.0,0.0032959089148789644
16.0,0.0030912915244698524
18.0,0.0027870875783264637
20.0,0.0025155041366815567
22.0,0.0021128321532160044
24.0,0.0017593295779079199
26.0,0.001678226049989462
28.0,0.0015690253349021077
30.0,0.0015194801380857825
32.0,0.0014095809310674667
36.0,0.0012174034491181374
40.0,0.0009981452021747828
44.0,0.0009092572727240622
48.0,0.0010155746713280678
52.0,0.0010752378730103374
56.0,0.0011499064275994897
60.0,0.001262680278159678
64.0,0.001113019767217338
72.0,0.0006694860057905316
80.0,0.0006558473105542362
88.0,0.0004395877767819911
96.0,0.0003340404073242098
104.0,0.0002198346919612959
112.0,0.00021147880761418492
120.0,0.00022367964265868068
128.0,7.037443720037118e-05
144.0,0.00023610446078237146
160.0,-0.00013742281589657068
176.0,-0.00013977223716210574
192.0,6.491030217148364e-05
208.0,0.000162969678058289
224.0,3.1834271794650704e-05
240.0,-2.796191802190151e-05
256.0,-0.00041523680556565523
288.0,-0.0008288764511235058
320.0,-0.000513642851728946
352.0,-0.00044634181540459394
384.0,0.0001650599588174373
416.0,6.103565829107538e-05
448.0,5.931513078394346e-05
480.0,-9.238230995833874e-05
512.0,-6.40964790363796e-05
576.0,-0.00010736811236711219
640.0,0.00027876405511051416
704.0,0.00022807221102993935
768.0,0.00042941380525007844
832.0,-1.0673076076272991e-06
896.0,4.6489651140291244e-05
960.0,0.0004998933291062713
1024.0,0.00010126339475391433
1152.0,0.00015206862008199096
1280.0,-0.0005092764040455222
1408.0,-0.00044476171024143696
1536.0,9.864140884019434e-05
1664.0,-0.00036143240868113935
1792.0,-0.00012412649812176824
1920.0,-0.00025807961355894804
2048.0,-0.0001632447965675965
2304.0,-0.00017857685452327132
2560.0,8.168905333150178e-05
2816.0,-0.0003342150303069502
3072.0,0.00018895159882958978
3328.0,0.0001236231910297647
3584.0,0.0002199756563641131
3840.0,-1.3881586710340343e-05
4096.0,0.0001522065867902711
4608.0,-6.851478974567726e-05
5120.0,-0.00015531620010733604
5632.0,-0.00016796587442513555
6144.0,-0.00023973535280674696
6656.0,0.0001599109818926081
7168.0,-0.00011699632159434259
7680.0,0.0002325855748495087
8192.0,-5.4449930757982656e-05
9216.0,-0.00016439416503999382
10240.0,0.0001303960452787578
11264.0,0.00011913348862435669
12288.0,5.699619578081183e-05
13312.0,-0.00019394968694541603
14336.0,6.588902760995552e-05
end
