version,3.0
numOfCh,1
type,point
parent_name,80-cuts
ch_type,1_1
kcount,1
numberNandB,1
brightnessNandB,1
carpet pos,0
pc,0
Time (ms),CH1 Auto-Correlation
1.0,0.01656065694987774
2.0,0.013484868220984936
3.0,0.011447537690401077
4.0,0.009812280535697937
5.0,0.008538471534848213
6.0,0.007659344933927059
7.0,0.0069707902148365974
8.0,0.006335488520562649
9.0,0.005715582519769669
10.0,0.005246696062386036
11.0,0.004781545139849186
12.0,0.004490322433412075
13.0,0.00428370526060462
14.0,0.004091961309313774
15.0,0.003984143957495689
16.0,0.003839831566438079
18.0,0.0032336798030883074
20.0,0.002996537135913968
22.0,0.002809300320222974
24.0,0.002812954131513834
26.0,0.002838895423337817
28.0,0.0025923498906195164
30.0,0.002279376145452261
32.0,0.002131694694980979
36.0,0.0017725975485518575
40.0,0.0014500798424705863
44.0,0.0013069553533568978
48.0,0.0011549035552889109
52.0,0.0010402114130556583
56.0,0.0007931201253086329
60.0,0.0009572110138833523
64.0,0.0009115503053180873
72.0,0.0005453390185721219
80.0,0.000239371249335818
88.0,0.00011995232489425689
96.0,-3.936613575206138e-05
104.0,-8.347972470801324e-05
112.0,-5.795669130748138e-05
120.0,0.00016744335880503058
128.0,3.9286660467041656e-05
144.0,-0.00025268891477026045
160.0,-0.0003434100071899593
176.0,-0.0002609610673971474
192.0,-0.0005559221026487648
208.0,-0.0006471688393503428
224.0,-0.000489210884552449
240.0,9.609859262127429e-05
256.0,0.0001317753631155938
288.0,0.00018518022261559963
320.0,0.000449401733931154
352.0,0.00020221767772454768
384.0,-0.0002069812035188079
416.0,-0.0004759223957080394
448.0,-0.00040588268893770874
480.0,-4.431096385815181e-05
512.0,-0.0003608857514336705
576.0,0.00020797525939997286
640.0,0.0007843713974580169
704.0,0.0001940966467373073
768.0,0.0003449094365350902
832.0,-0.00021631110575981438
896.0,0.00010684921289794147
960.0,0.00019696007075253874
1024.0,-0.00013795461563859135
1152.0,-3.237327473470941e-05
1280.0,0.0002122804435202852
1408.0,-0.00017625097825657576
1536.0,-5.8319656091043726e-05
1664.0,-0.0007105888216756284
1792.0,-2.925383705587592e-05
1920.0,9.297103679273278e-05
2048.0,-4.2346189729869366e-05
2304.0,-0.00031426167697645724
2560.0,-0.00037904403870925307
2816.0,8.163491293089464e-05
3072.0,0.0002576915139798075
3328.0,-6.42608865746297e-05
3584.0,9.801006672205403e-05
3840.0,0.00025080464547500014
4096.0,-0.0002416109637124464
4608.0,4.952440212946385e-05
5120.0,-4.686362444772385e-05
5632.0,-1.8062713934341446e-05
6144.0,3.7401216104626656e-05
6656.0,0.00012198304466437548
7168.0,0.00019937411707360297
7680.0,4.113730392418802e-05
8192.0,-0.00020748439419548959
9216.0,-6.83299294905737e-05
10240.0,0.00017417919298168272
11264.0,2.739083174674306e-05
12288.0,-0.00023827354016248137
13312.0,-0.00022688612807542086
14336.0,-0.00021926652698311955
end
