version,3.0
numOfCh,1
type,point
parent_name,80-cuts
ch_type,1_1
kcount,1
numberNandB,1
brightnessNandB,1
carpet pos,0
pc,0
Time (ms),CH1 Auto-Correlation
1.0,0.015507576987147331
2.0,0.012659814208745956
3.0,0.01065838523209095
4.0,0.009254531003534794
5.0,0.00818052887916565
6.0,0.007279132027179003
7.0,0.006473633460700512
8.0,0.005815788172185421
9.0,0.005285756662487984
10.0,0.004849540535360575
11.0,0.004589061718434095
12.0,0.004296496510505676
13.0,0.003977501764893532
14.0,0.0037447691429406404
15.0,0.0034094699658453465
16.0,0.0030758974608033895
18.0,0.0026871003210544586
20.0,0.002356417942792177
22.0,0.0019573962781578302
24.0,0.0019678494427353144
26.0,0.0020054986234754324
28.0,0.0018416615203022957
30.0,0.0017139747506007552
32.0,0.0014565159799531102
36.0,0.0010591181926429272
40.0,0.0010296404361724854
44.0,0.0009720090311020613
48.0,0.0006397615652531385
52.0,0.00039300453499890864
56.0,0.00028050402761437
60.0,0.00011114939115941525
64.0,0.00012027400225633755
72.0,0.000177631969563663
80.0,0.00013270333874970675
88.0,0.0001181075640488416
96.0,0.0002892298507504165
104.0,0.0006619929918088019
112.0,0.0004878979816567153
120.0,0.0006631918950006366
128.0,0.0005947772297076881
144.0,0.0007130878511816263
160.0,0.0004565072595141828
176.0,-0.0001530784065835178
192.0,0.0002675173745956272
208.0,-0.00015753792831674218
224.0,-0.00048540745046921074
240.0,-0.0001367426011711359
256.0,3.0760425033804495e-06
288.0,-0.00045921606943011284
320.0,-0.0007004125509411097
352.0,-0.0008575955289416015
384.0,-0.000583543733227998
416.0,-0.00039711565477773547
448.0,-0.0006376765086315572
480.0,-0.00032902893144637346
512.0,-0.0003713085316121578
576.0,-0.00044378452003002167
640.0,-0.0005649708909913898
704.0,-3.9584188925800845e-05
768.0,4.334792902227491e-05
832.0,7.33855486032553e-05
896.0,0.00031271472107619047
960.0,0.0003036205598618835
1024.0,0.0007389705860987306
1152.0,-5.192683238419704e-05
1280.0,0.000386323023121804
1408.0,-7.804212145856582e-06
1536.0,7.893081055954099e-05
1664.0,-2.581309445304214e-06
1792.0,-0.0002139355638064444
1920.0,4.4833581341663375e-05
2048.0,3.5693806239578407e-06
2304.0,-2.5674091375549324e-05
2560.0,1.754720142344013e-05
2816.0,0.00016772061644587666
3072.0,-5.173996396479197e-05
3328.0,-0.0002513753715902567
3584.0,0.00030316991615109146
3840.0,-0.00012185530795250088
4096.0,-0.000121254452096764
4608.0,0.00018137178267352283
5120.0,-0.00022899365285411477
5632.0,7.600387471029535e-05
6144.0,-5.9464557125465944e-05
6656.0,-6.126558582764119e-05
7168.0,3.56668206222821e-05
7680.0,-0.00015140254981815815
8192.0,-1.6269883417407982e-05
9216.0,-3.2972900498862145e-06
10240.0,-3.2620398997096345e-05
11264.0,-3.089944220846519e-05
12288.0,1.6447590951429447e-06
13312.0,6.221642252057791e-05
14336.0,0.00011107166938018054
end
