version,3.0
numOfCh,1
type,point
parent_name,80-cuts
ch_type,1_1
kcount,1
numberNandB,1
brightnessNandB,1
carpet pos,0
pc,0
Time (ms),CH1 Auto-Correlation
1.0,0.01567041128873825
2.0,0.01284530758857727
3.0,0.010713247582316399
4.0,0.009174240753054619
5.0,0.00804645661264658
6.0,0.007112359162420034
7.0,0.006396932993084192
8.0,0.005835422780364752
9.0,0.00529054831713438
10.0,0.0049964673817157745
11.0,0.004592555575072765
12.0,0.004331524949520826
13.0,0.004185195546597242
14.0,0.003959891851991415
15.0,0.003655478125438094
16.0,0.003457894315943122
18.0,0.0031500800978392363
20.0,0.0028546599205583334
22.0,0.002476426772773266
24.0,0.0020775555167347193
26.0,0.0017473057378083467
28.0,0.0014207878848537803
30.0,0.0013660017866641283
32.0,0.0014029695885255933
36.0,0.0013894910225644708
40.0,0.0011377200717106462
44.0,0.0009947182843461633
48.0,0.0010454689618200064
52.0,0.001146953902207315
56.0,0.0009554360876791179
60.0,0.0005290723638609052
64.0,0.00023575671366415918
72.0,3.334721986902878e-05
80.0,-0.00048579199938103557
88.0,-0.0002167315105907619
96.0,-0.00023815373424440622
104.0,8.953358337748796e-05
112.0,9.780778054846451e-05
120.0,-0.00014701695181429386
128.0,-3.026985098131263e-07
144.0,-8.36319086374715e-05
160.0,0.00040051148971542716
176.0,-7.225833542179316e-05
192.0,1.3999723705637734e-05
208.0,-3.082868715864606e-05
224.0,3.998421561846044e-06
240.0,0.00014321708295028657
256.0,-0.00010764510807348415
288.0,-0.00020557398966047913
320.0,-0.00013747936463914812
352.0,-1.1328568689350504e-05
384.0,0.00021676396136172116
416.0,0.00040914813871495426
448.0,0.00021456445392686874
480.0,-0.000190924052731134
512.0,-0.00020581578428391367
576.0,0.00013290383503772318
640.0,0.00010366795322624967
704.0,-0.00017059111269190907
768.0,2.0680996385635808e-05
832.0,0.00029517756775021553
896.0,0.00022990877914708108
960.0,-7.101867231540382e-05
1024.0,0.00019300411804579198
1152.0,-0.00023531336046289653
1280.0,0.00020253818365745246
1408.0,-0.0004180730029474944
1536.0,1.4052997357794084e-05
1664.0,-0.00025097772595472634
1792.0,-0.00040673461626283824
1920.0,4.1233863157685846e-05
2048.0,-0.00018981700122822076
2304.0,7.897781324572861e-05
2560.0,-0.00023110721667762846
2816.0,0.00012611057900357991
3072.0,3.4052365663228557e-05
3328.0,-0.00016399235755670816
3584.0,5.28989803569857e-05
3840.0,-0.0002538163389544934
4096.0,-4.878506297245622e-05
4608.0,1.038090977090178e-05
5120.0,5.630583473248407e-05
5632.0,6.26924229436554e-05
6144.0,-0.0002544817980378866
6656.0,-8.718667959328741e-05
7168.0,1.2313295883359388e-05
7680.0,3.4425400372128934e-05
8192.0,1.9691708075697534e-05
9216.0,6.22190855210647e-05
10240.0,0.0001941189111676067
11264.0,-0.0001504475949332118
12288.0,-0.0002848298172466457
13312.0,0.00018104170158039778
14336.0,0.00010000401380239055
end
