version,3.0
numOfCh,1
type,point
parent_name,80-cuts
ch_type,1_1
kcount,1
numberNandB,1
brightnessNandB,1
carpet pos,0
pc,0
Time (ms),CH1 Auto-Correlation
1.0,0.01591171883046627
2.0,0.012819241732358932
3.0,0.010619193315505981
4.0,0.009098277427256107
5.0,0.007926284335553646
6.0,0.007067316211760044
7.0,0.006305177230387926
8.0,0.005608636420220137
9.0,0.0050466363318264484
10.0,0.004586576949805021
11.0,0.004210444167256355
12.0,0.003823735984042287
13.0,0.0034722837153822184
14.0,0.0032357946038246155
15.0,0.003099978668615222
16.0,0.003083744551986456
18.0,0.002741773147135973
20.0,0.002399094868451357
22.0,0.002196364337578416
24.0,0.0020593455992639065
26.0,0.0018969570519402623
28.0,0.0017735147848725319
30.0,0.0016971456352621317
32.0,0.0015415807720273733
36.0,0.0012741695391014218
40.0,0.0009017178672365844
44.0,0.0006907726638019085
48.0,0.00042114200186915696
52.0,0.00023155556118581444
56.0,0.0001940230722539127
60.0,0.0002100490382872522
64.0,0.0001181088518933393
72.0,-3.391539939912036e-05
80.0,-7.669811748201028e-05
88.0,-0.000617931829765439
96.0,-0.0005588165950030088
104.0,-0.00027207875973545015
112.0,-6.557515735039487e-05
120.0,7.187254959717393e-05
128.0,9.78813404799439e-05
144.0,0.00024069403298199177
160.0,0.0005823561223223805
176.0,5.577688625635346e-06
192.0,-0.00025077289319597185
208.0,-0.00013562686217483133
224.0,2.8239473977009766e-05
240.0,0.0005147805786691606
256.0,0.0003127127420157194
288.0,0.00019419603631831706
320.0,5.522050196304917e-05
352.0,0.00015344041457865387
384.0,0.0004454230656847358
416.0,0.00039290482527576387
448.0,-0.00027283659437671304
480.0,-2.2984489987720735e-05
512.0,-0.00034780718851834536
576.0,-2.9618073313031346e-05
640.0,1.743543725751806e-05
704.0,0.00014178700803313404
768.0,-0.00029059950611554086
832.0,-4.792137406184338e-05
896.0,-6.119444879004732e-05
960.0,0.00027584630879573524
1024.0,-0.00012026255717501044
1152.0,-3.4168828278779984e-05
1280.0,5.905952548346249e-06
1408.0,-0.0004447565006557852
1536.0,0.00013986692647449672
1664.0,-9.612586291041225e-05
1792.0,-0.00013588480942416936
1920.0,0.0002731713466346264
2048.0,0.00015291717136278749
2304.0,0.00012549325765576214
2560.0,8.854733835050865e-09
2816.0,3.982671387348091e-06
3072.0,-7.784520130371675e-05
3328.0,-5.6207885791081935e-05
3584.0,-0.00010459972691023722
3840.0,-9.317570220446214e-05
4096.0,-2.9384369554463774e-05
4608.0,6.730077438987792e-05
5120.0,-1.95586726476904e-05
5632.0,-0.00028038746677339077
6144.0,6.024398317094892e-05
6656.0,3.835842289845459e-05
7168.0,-2.3969585527083836e-05
7680.0,-0.00013332140224520117
8192.0,0.00017317986930720508
9216.0,-0.00011888505832757801
10240.0,-3.906713754986413e-05
11264.0,0.00033081191941164434
12288.0,-0.0004004834045190364
13312.0,0.00035070424200966954
14336.0,-0.0003180309431627393
end
