version,3.0
numOfCh,1
type,point
parent_name,80-cuts
ch_type,1_1
kcount,1
numberNandB,1
brightnessNandB,1
carpet pos,0
pc,0
Time (ms),CH1 Auto-Correlation
1.0,0.027564242482185364
2.0,0.022652534767985344
3.0,0.019012225791811943
4.0,0.016347762197256088
5.0,0.014087390154600143
6.0,0.01221475563943386
7.0,0.01074615865945816
8.0,0.009535406716167927
9.0,0.008483430370688438
10.0,0.0075286030769348145
11.0,0.006781978998333216
12.0,0.006205265875905752
13.0,0.005911977030336857
14.0,0.005757268983870745
15.0,0.005502752494066954
16.0,0.005097940564155579
18.0,0.004453571047633886
20.0,0.004171731881797314
22.0,0.00379054993391037
24.0,0.0037151931319385767
26.0,0.00349136209115386
28.0,0.00329066370613873
30.0,0.0031996455509215593
32.0,0.003044039011001587
36.0,0.002320295898243785
40.0,0.0019039999460801482
44.0,0.0013923903461545706
48.0,0.0010156178614124656
52.0,0.0008541663992218673
56.0,0.0009619354386813939
60.0,0.0009431976359337568
64.0,0.000512884056661278
72.0,0.0008337924955412745
80.0,0.00131513481028378
88.0,0.001632658764719963
96.0,0.0014590733917430043
104.0,0.000682984187733382
112.0,0.00022182670363690704
120.0,9.7973010269925e-05
128.0,0.00036773367901332676
144.0,0.00037171022268012166
160.0,0.0001548617146909237
176.0,0.0004961973172612488
192.0,-8.64218054630328e-06
208.0,-0.0003934417909476906
224.0,-0.00016942276852205396
240.0,0.0003876504488289356
256.0,-0.0003113898856099695
288.0,4.520579386735335e-05
320.0,-0.0006268540164455771
352.0,-0.0004635074292309582
384.0,-0.0006485925405286252
416.0,-0.0009229652932845056
448.0,-0.001033313455991447
480.0,-0.0006177487084642053
512.0,-0.00026960138347931206
576.0,-0.00034071196569129825
640.0,-7.594542694278061e-05
704.0,-0.0008233392727561295
768.0,-0.0002700418699532747
832.0,9.78823663899675e-05
896.0,0.0003447784692980349
960.0,-0.00036398705560714006
1024.0,-0.0003055147244594991
1152.0,0.0006405616877600551
1280.0,3.407641634112224e-05
1408.0,-0.00023637876438442618
1536.0,-0.00016198241792153567
1664.0,0.0001569926243973896
1792.0,-0.00013016593584325165
1920.0,-7.54990687710233e-05
2048.0,-0.00021634310542140156
2304.0,0.0004589053278323263
2560.0,-2.5366616682731546e-06
2816.0,-0.00010093348100781441
3072.0,-8.911010081646964e-05
3328.0,-1.562907073093811e-06
3584.0,0.0003031135711353272
3840.0,-0.00044266891200095415
4096.0,4.835776053369045e-05
4608.0,-9.729198791319504e-05
5120.0,-0.00036747631384059787
5632.0,1.7569767578606843e-06
6144.0,-0.00019498495385050774
6656.0,1.0917699910351075e-05
7168.0,0.00023384523228742182
7680.0,-0.000256271829130128
8192.0,3.665762415039353e-05
9216.0,0.0001107740099541843
10240.0,-0.0002479319227859378
11264.0,0.0003863983729388565
12288.0,-0.00028143273084424436
13312.0,0.00012323794362600893
14336.0,4.36195514339488e-05
end
