version,3.0
numOfCh,1
type,point
parent_name,80-cuts
ch_type,1_1
kcount,1
numberNandB,1
brightnessNandB,1
carpet pos,0
pc,0
Time (ms),CH1 Auto-Correlation
1.0,0.02751501277089119
2.0,0.02238849364221096
3.0,0.018740901723504066
4.0,0.016165994107723236
5.0,0.014344531111419201
6.0,0.012672428041696548
7.0,0.011171840131282806
8.0,0.00985301099717617
9.0,0.008634092286229134
10.0,0.007602433208376169
11.0,0.00678320974111557
12.0,0.006387169938534498
13.0,0.006165808532387018
14.0,0.00602355832234025
15.0,0.005862133577466011
16.0,0.0055012172088027
18.0,0.00496633118018508
20.0,0.004208934493362904
22.0,0.0037092650309205055
24.0,0.003496238961815834
26.0,0.0033419982064515352
28.0,0.003033982589840889
30.0,0.0025316791143268347
32.0,0.002218378009274602
36.0,0.001400583889335394
40.0,0.0007159553933888674
44.0,0.0010026880772784352
48.0,0.0014515031361952424
52.0,0.001389024662785232
56.0,0.001216608565300703
60.0,0.0012528864899650216
64.0,0.001466524787247181
72.0,0.0004558567889034748
80.0,-0.0003311251348350197
88.0,-0.0013702820288017392
96.0,-0.0010747752385213971
104.0,-0.00036064485902898014
112.0,0.00027510939980857074
120.0,0.0006131941918283701
128.0,0.00017059264064300805
144.0,-0.00044108196743763983
160.0,-0.0009741214453242719
176.0,-0.0006539033493027091
192.0,-0.0007936264737509191
208.0,-0.0007931573200039566
224.0,-0.0008359189378097653
240.0,-0.0002883483830373734
256.0,-0.001696089282631874
288.0,-0.0010919448686763644
320.0,-0.0003395434468984604
352.0,0.0001262464065803215
384.0,0.0008750814595259726
416.0,-0.00021424739679787308
448.0,-0.00017423370445612818
480.0,-0.0003533392446115613
512.0,0.0004030651762150228
576.0,0.0005921254050917923
640.0,0.00036244781222194433
704.0,-0.0001367861550534144
768.0,-0.000705388723872602
832.0,-0.0009263810934498906
896.0,-0.0007193642086349428
960.0,0.0008019158849492669
1024.0,0.0007501725340262055
1152.0,-0.000218840257730335
1280.0,0.0004610973410308361
1408.0,-0.0010082018561661243
1536.0,-0.00016310662613250315
1664.0,0.0009319937671534717
1792.0,-6.684321851935238e-05
1920.0,-0.00012986388173885643
2048.0,0.0002871979377232492
2304.0,1.886378049675841e-05
2560.0,-0.000235970743233338
2816.0,-0.00013257448154035956
3072.0,-0.00018268752319272608
3328.0,0.0003050655941478908
3584.0,-0.00030926777981221676
3840.0,5.385711119743064e-05
4096.0,-0.00011857906065415591
4608.0,-0.00011524710862431675
5120.0,-0.00025508273392915726
5632.0,0.00017404471873305738
6144.0,-1.5613088180543855e-05
6656.0,4.44197667093249e-06
7168.0,8.567613986087963e-05
7680.0,0.00024444106384180486
8192.0,-0.00016601003881078213
9216.0,-1.1710167200362775e-05
10240.0,8.364697714569047e-05
11264.0,-2.5924779833985667e-07
12288.0,1.8397931853542104e-05
13312.0,9.706584387458861e-05
14336.0,-0.000385442835977301
end
