version,3.0
numOfCh,1
type,point
parent_name,80-cuts
ch_type,1_1
kcount,1
numberNandB,1
brightnessNandB,1
carpet pos,0
pc,0
Time (ms),CH1 Auto-Correlation
1.0,0.027604661881923676
2.0,0.022561676800251007
3.0,0.019110310822725296
4.0,0.016656316816806793
5.0,0.01475171372294426
6.0,0.013335660099983215
7.0,0.012059963308274746
8.0,0.010840313509106636
9.0,0.009909587912261486
10.0,0.009260389022529125
11.0,0.008591757155954838
12.0,0.00794539600610733
13.0,0.007473052013665438
14.0,0.007045928854495287
15.0,0.006680204998701811
16.0,0.006093689240515232
18.0,0.005301591940224171
20.0,0.004597278777509928
22.0,0.003941351547837257
24.0,0.0034516192972660065
26.0,0.002963226055726409
28.0,0.002626282861456275
30.0,0.0022603219840675592
32.0,0.0019898118916898966
36.0,0.001557551440782845
40.0,0.0016290692146867514
44.0,0.0016319967107847333
48.0,0.0016231180634349585
52.0,0.0015969580272212625
56.0,0.0015103778569027781
60.0,0.0017912103794515133
64.0,0.0014467937871813774
72.0,0.001135416328907013
80.0,0.000766982208006084
88.0,0.00029331829864531755
96.0,0.00041650605271570385
104.0,0.00043421139707788825
112.0,0.0004720368015114218
120.0,0.0003175548044964671
128.0,0.0002769998973235488
144.0,0.0007887966930866241
160.0,0.00035758051672019064
176.0,-0.00011683707271004096
192.0,-0.0003533442213665694
208.0,-0.000191035884199664
224.0,-4.5583008613903075e-05
240.0,-0.0004191685584373772
256.0,-0.00017284121713601053
288.0,8.02349895820953e-05
320.0,-0.0008711224654689431
352.0,-0.0005392495659179986
384.0,3.885391379299108e-06
416.0,0.00021595480211544782
448.0,-0.00011223627370782197
480.0,0.0001517344790045172
512.0,-0.0008008351433090866
576.0,-0.0006501555326394737
640.0,0.0005366667755879462
704.0,-0.00021977146388962865
768.0,0.00027846419834531844
832.0,-0.0002981290454044938
896.0,0.0004190368636045605
960.0,-0.00010463559010531753
1024.0,0.0011128293117508292
1152.0,0.0005314733716659248
1280.0,0.0016211704351007938
1408.0,-0.00023619490093551576
1536.0,-0.0004130473535042256
1664.0,0.00050301942974329
1792.0,-0.0001977713400265202
1920.0,0.0001347958022961393
2048.0,-0.0011147467885166407
2304.0,0.00042968246270902455
2560.0,0.00044768862426280975
2816.0,-5.634998524328694e-05
3072.0,-0.00016380377928726375
3328.0,-0.0001805468345992267
3584.0,0.0002763624652288854
3840.0,-0.00048221496399492025
4096.0,-0.00022347863705363125
4608.0,-2.140131800842937e-05
5120.0,-0.000302690954413265
5632.0,0.0001812332047848031
6144.0,-0.0001253045629709959
6656.0,1.166007587016793e-05
7168.0,0.0003983122296631336
7680.0,-2.4226008463301696e-05
8192.0,0.00038050711737014353
9216.0,-0.00022044277284294367
10240.0,-0.0003151740529574454
11264.0,-0.0004344363114796579
12288.0,-0.000583623128477484
13312.0,-0.0009815858211368322
14336.0,-0.0003027959610335529
end
