version,3.0
numOfCh,1
type,point
parent_name,80-cuts
ch_type,1_1
kcount,1
numberNandB,1
brightnessNandB,1
carpet pos,0
pc,0
Time (ms),CH1 Auto-Correlation
1.0,0.015420946292579174
2.0,0.012531891465187073
3.0,0.010500296950340271
4.0,0.008948923088610172
5.0,0.007772504352033138
6.0,0.0068934038281440735
7.0,0.006186438258737326
8.0,0.005763980560004711
9.0,0.005308410618454218
10.0,0.004998841788619757
11.0,0.004701133817434311
12.0,0.004364652559161186
13.0,0.004005598369985819
14.0,0.003632939886301756
15.0,0.00344004831276834
16.0,0.003270357381552458
18.0,0.00280172866769135
20.0,0.0024848580360412598
22.0,0.00228381110355258
24.0,0.002187510719522834
26.0,0.0020960504189133644
28.0,0.0020201841834932566
30.0,0.0020655952394008636
32.0,0.0021677794866263866
36.0,0.0019466447411105037
40.0,0.0017515906365588307
44.0,0.0013037951430305839
48.0,0.0009804036235436797
52.0,0.0009543566848151386
56.0,0.0009741454268805683
60.0,0.0009697008645161986
64.0,0.0008523689466528594
72.0,0.0009711540187709033
80.0,0.00074103131191805
88.0,0.0006369576440192759
96.0,0.0004357353027444333
104.0,2.740679519774858e-05
112.0,-2.6835859898710623e-06
120.0,0.000140640651807189
128.0,0.00010952682350762188
144.0,-0.00022130344586912543
160.0,-9.704030526336282e-05
176.0,0.00016444856009911746
192.0,-0.00012108185910619795
208.0,6.245963049877901e-06
224.0,-8.182570309145376e-05
240.0,0.00021686825493816286
256.0,-0.00021155732974875718
288.0,0.00027183303609490395
320.0,9.988877718569711e-05
352.0,-9.088080696528777e-05
384.0,-0.00037036582943983376
416.0,0.00024150848912540823
448.0,0.0002224683266831562
480.0,-0.00011252304830122739
512.0,-0.0003187921829521656
576.0,-0.00039103583549149334
640.0,-7.669423939660192e-05
704.0,0.00015177899331320077
768.0,0.0005310822743922472
832.0,4.8805017286213115e-05
896.0,9.984357166104019e-05
960.0,9.786596638150513e-05
1024.0,0.00017543419380672276
1152.0,0.00019650191825348884
1280.0,6.070277959224768e-05
1408.0,0.0001936428452609107
1536.0,-2.368277364439564e-06
1664.0,-0.0002742232463788241
1792.0,-0.0004876023449469358
1920.0,-2.108647095155902e-06
2048.0,-0.00018190449918620288
2304.0,7.326784725592006e-07
2560.0,-4.3479019950609654e-05
2816.0,-0.00033759468351490796
3072.0,-9.100722672883421e-05
3328.0,0.00010903977818088606
3584.0,0.0001116703060688451
3840.0,-0.00028765678871423006
4096.0,-9.195351594826207e-05
4608.0,-0.00022825461928732693
5120.0,-0.00011181193258380517
5632.0,5.4249171625997405e-06
6144.0,-0.00012385222362354398
6656.0,-9.331509500043467e-05
7168.0,-0.00018489378271624446
7680.0,-6.366067100316286e-05
8192.0,9.103814954869449e-05
9216.0,0.00025426282081753016
10240.0,0.0002272897254442796
11264.0,5.597991912509315e-05
12288.0,-8.449581946479157e-05
13312.0,-0.00020910696184728295
14336.0,-0.0001929543650476262
end
