version,3.0
numOfCh,1
type,point
parent_name,80-cuts
ch_type,1_1
kcount,1
numberNandB,1
brightnessNandB,1
carpet pos,0
pc,0
Time (ms),CH1 Auto-Correlation
1.0,0.0146199781447649
2.0,0.011699140071868896
3.0,0.00966347474604845
4.0,0.008166545070707798
5.0,0.007144671864807606
6.0,0.006401741877198219
7.0,0.005639067385345697
8.0,0.0050795781426131725
9.0,0.004631278570741415
10.0,0.004303258843719959
11.0,0.004111175425350666
12.0,0.003860039869323373
13.0,0.003598887473344803
14.0,0.0034299392718821764
15.0,0.003332910593599081
16.0,0.0032838857732713223
18.0,0.003014486748725176
20.0,0.002693271730095148
22.0,0.0026613131631165743
24.0,0.002493950305506587
26.0,0.002150793094187975
28.0,0.0018432666547596455
30.0,0.0015965524362400174
32.0,0.001421464839950204
36.0,0.0011627086205407977
40.0,0.0010485778329893947
44.0,0.0009562399936839938
48.0,0.0008538110996596515
52.0,0.0007448298274539411
56.0,0.0006723626866005361
60.0,0.0006644217064604163
64.0,0.000580647261813283
72.0,0.0006254795007407665
80.0,4.8688707465771586e-05
88.0,-0.00023691730166319758
96.0,-0.00034376676194369793
104.0,-0.000312023184960708
112.0,-0.00041515592602081597
120.0,-0.0006791388732381165
128.0,-0.0006259814836084843
144.0,-0.0003643163072410971
160.0,-0.00041514119948260486
176.0,-0.00013497337931767106
192.0,0.000108118518255651
208.0,-9.750600293045864e-05
224.0,1.6252690329565667e-05
240.0,0.00013830950774718076
256.0,-0.00029725025524385273
288.0,-5.6127879361156374e-05
320.0,-0.0002505552547518164
352.0,0.00017231637320946902
384.0,0.000492286344524473
416.0,0.00031624012626707554
448.0,0.000130156782688573
480.0,0.00013231398770585656
512.0,8.618958236183971e-05
576.0,-0.00022314165835268795
640.0,-3.071629544137977e-05
704.0,-0.0003351024352014065
768.0,-0.00018116773571819067
832.0,-0.0001782167819328606
896.0,-1.9801648249995196e-06
960.0,0.00031659676460549235
1024.0,0.00048197185969911516
1152.0,-2.0753264834638685e-05
1280.0,0.00012587181117851287
1408.0,0.00025094658485613763
1536.0,-0.0005167822819203138
1664.0,-0.00034902544575743377
1792.0,0.00022340404393617064
1920.0,-0.00015706426347605884
2048.0,-0.00014385989925358444
2304.0,0.00020020746160298586
2560.0,-8.028912270674482e-05
2816.0,4.297591658541933e-05
3072.0,-7.61518967919983e-05
3328.0,-0.0001606681034900248
3584.0,5.824262916576117e-05
3840.0,-5.170845179236494e-05
4096.0,6.236360059119761e-05
4608.0,-0.00014189541980158538
5120.0,4.495960092754103e-05
5632.0,9.376167872687802e-05
6144.0,0.0001652299688430503
6656.0,0.00012779192184098065
7168.0,-0.00010885898518608883
7680.0,-2.291999862791272e-06
8192.0,-0.00010965602996293455
9216.0,-0.0001262336882064119
10240.0,-0.0001877469476312399
11264.0,-5.023573248763569e-05
12288.0,4.62568323200685e-06
13312.0,0.00018943590112030506
14336.0,-3.953693521907553e-05
end
