version,3.0
numOfCh,1
type,point
parent_name,80-cuts
ch_type,1_1
kcount,1
numberNandB,1
brightnessNandB,1
carpet pos,0
pc,0
Time (ms),CH1 Auto-Correlation
1.0,0.016770055517554283
2.0,0.013984265737235546
3.0,0.01207449659705162
4.0,0.01060954388231039
5.0,0.00951459351927042
6.0,0.00863989070057869
7.0,0.007947945967316628
8.0,0.007447707001119852
9.0,0.006949393544346094
10.0,0.006508649792522192
11.0,0.006037452723830938
12.0,0.005637531168758869
13.0,0.005367787089198828
14.0,0.005201717838644981
15.0,0.005000857170671225
16.0,0.004815455060452223
18.0,0.004254802595824003
20.0,0.004028042312711477
22.0,0.0037366063334047794
24.0,0.0034375586546957493
26.0,0.0032037082128226757
28.0,0.002957863500341773
30.0,0.002748186234384775
32.0,0.0026064091362059116
36.0,0.0024235988967120647
40.0,0.0022236667573451996
44.0,0.0021205793600529432
48.0,0.002053272444754839
52.0,0.001713084289804101
56.0,0.001287454622797668
60.0,0.0010627565206959844
64.0,0.0009650039137341082
72.0,0.0007959753856994212
80.0,0.0009492122335359454
88.0,0.0009931045351549983
96.0,0.0008145110914483666
104.0,0.0006663367385044694
112.0,0.000712804845534265
120.0,0.000330205075442791
128.0,0.00044270517537370324
144.0,0.0008381035295315087
160.0,0.000861984386574477
176.0,0.0006276480271480978
192.0,0.0005934202927164733
208.0,0.00040472293039783835
224.0,0.0006619213381782174
240.0,0.00025805397308431566
256.0,-0.00019390795205254108
288.0,-0.00043901626486331224
320.0,-0.0008721085614524782
352.0,-0.0010486998362466693
384.0,-0.00044867119868285954
416.0,-0.00011397714115446433
448.0,-8.896117651602253e-05
480.0,-0.0002224267227575183
512.0,-0.00048008517478592694
576.0,-0.00014110974734649062
640.0,-0.000722990371286869
704.0,-0.0007832319824956357
768.0,-0.0006528539233841002
832.0,-0.0010034668957814574
896.0,-0.0003785843146033585
960.0,-0.0002893181808758527
1024.0,-0.00012338205124251544
1152.0,0.0004212392377667129
1280.0,1.8392649508314207e-05
1408.0,-7.31326435925439e-05
1536.0,-0.00016753778618294746
1664.0,0.0003773484786506742
1792.0,0.0001915685716085136
1920.0,0.0002530246274545789
2048.0,5.302530189510435e-05
2304.0,-0.0002334375458303839
2560.0,-0.0004308414936531335
2816.0,-8.454218186670914e-05
3072.0,-3.854899841826409e-05
3328.0,0.00020993142970837653
3584.0,8.855476335156709e-05
3840.0,0.00010729051427915692
4096.0,-0.00020000446238555014
4608.0,-0.00013033254072070122
5120.0,0.0003931722021661699
5632.0,-7.776372513035312e-05
6144.0,0.00023093090567272156
6656.0,-0.0006307876901701093
7168.0,0.00023962730483617634
7680.0,-0.00014996054233051836
8192.0,-0.00013838728773407638
9216.0,0.00010314490646123886
10240.0,5.043362398282625e-05
11264.0,-9.133278217632324e-05
12288.0,-0.00010934023885056376
13312.0,-0.00014377941261045635
14336.0,0.00030559758306480944
end
