version,3.0
numOfCh,1
type,point
parent_name,80-cuts
ch_type,1_1
kcount,1
numberNandB,1
brightnessNandB,1
carpet pos,0
pc,0
Time (ms),CH1 Auto-Correlation
1.0,0.025370057672262192
2.0,0.020548535510897636
3.0,0.017251932993531227
4.0,0.01485087163746357
5.0,0.012849866412580013
6.0,0.011376801878213882
7.0,0.01024633552879095
8.0,0.009148724377155304
9.0,0.00843002274632454
10.0,0.007616626098752022
11.0,0.006926202680915594
12.0,0.006432725582271814
13.0,0.0060341572389006615
14.0,0.005652713589370251
15.0,0.005403063725680113
16.0,0.005423677619546652
18.0,0.004893031902611256
20.0,0.004330497235059738
22.0,0.003993375226855278
24.0,0.0037257422227412462
26.0,0.0034213396720588207
28.0,0.0031852973625063896
30.0,0.002747924532741308
32.0,0.002613077173009515
36.0,0.002323510590940714
40.0,0.00170043739490211
44.0,0.0011087356833741069
48.0,0.0008886983268894255
52.0,0.0010468867840245366
56.0,0.0012694046599790454
60.0,0.0013334136456251144
64.0,0.00104247173294425
72.0,0.0002155853871954605
80.0,0.0004199791292194277
88.0,0.0009340544347651303
96.0,0.0013613954652100801
104.0,0.0011433407198637724
112.0,0.0010627905139699578
120.0,0.000780282134655863
128.0,0.00036293608718551695
144.0,-0.0004148148000240326
160.0,-0.0002470070612616837
176.0,-0.0004839189350605011
192.0,-8.279468602268025e-05
208.0,-0.0004439624026417732
224.0,-0.0006793637294322252
240.0,0.00018471101066097617
256.0,8.513774810126051e-05
288.0,0.0003150692500639707
320.0,-0.0009016884141601622
352.0,-0.0003326663572806865
384.0,-0.0004967786371707916
416.0,-0.0004442646459210664
448.0,0.00044889311539009213
480.0,0.0003578823816496879
512.0,0.0001477352052461356
576.0,0.00019532997976057231
640.0,-0.0002934549702331424
704.0,-0.00027010883786715567
768.0,0.0005912845954298973
832.0,-4.6876539272489026e-05
896.0,0.00014435370394494385
960.0,-6.373944415827282e-06
1024.0,0.00023168051848188043
1152.0,-0.00045735351159237325
1280.0,-0.0006988511886447668
1408.0,-0.0003567225066944957
1536.0,-0.00011676010763039812
1664.0,0.00028545266832225025
1792.0,-0.00020650906662922353
1920.0,0.0005857167998328805
2048.0,0.0004032418073620647
2304.0,0.0002183329634135589
2560.0,0.00011823239765362814
2816.0,-2.738163311732933e-05
3072.0,-0.0005203806213103235
3328.0,-0.0004925879184156656
3584.0,-0.0005786598194390535
3840.0,-0.0007133318576961756
4096.0,-1.8361577531322837e-05
4608.0,0.00040105797233991325
5120.0,-7.700004971411545e-06
5632.0,-0.0002525231975596398
6144.0,0.00011466658907011151
6656.0,0.00026365407393313944
7168.0,0.000505835167132318
7680.0,3.442618981353007e-05
8192.0,-0.0002301034255651757
9216.0,-0.00023246649652719498
10240.0,-0.00013492940342985094
11264.0,-0.00033878532121889293
12288.0,0.00014675583224743605
13312.0,-3.3948679629247636e-05
14336.0,0.000339626771165058
end
