version,3.0
numOfCh,1
type,point
parent_name,80-cuts
ch_type,1_1
kcount,1
numberNandB,1
brightnessNandB,1
carpet pos,0
pc,0
Time (ms),CH1 Auto-Correlation
1.0,0.016334187239408493
2.0,0.013310943730175495
3.0,0.011143925599753857
4.0,0.009438356384634972
5.0,0.008155787363648415
6.0,0.007148217409849167
7.0,0.006315923761576414
8.0,0.00565935205668211
9.0,0.005125954747200012
10.0,0.004673703573644161
11.0,0.0042970627546310425
12.0,0.004028128460049629
13.0,0.0037044661585241556
14.0,0.0035026969853788614
15.0,0.0032537083607167006
16.0,0.0031094292644411325
18.0,0.0029365038499236107
20.0,0.0025715192314237356
22.0,0.0022548004053533077
24.0,0.0021169427782297134
26.0,0.0018562525510787964
28.0,0.0017280718311667442
30.0,0.0016493393341079354
32.0,0.0016130583826452494
36.0,0.001490115886554122
40.0,0.0013924523955211043
44.0,0.0013167174765840173
48.0,0.0014370381832122803
52.0,0.001300753909163177
56.0,0.0012015857500955462
60.0,0.001059505739249289
64.0,0.0008875943021848798
72.0,0.0007934983004815876
80.0,0.0007203276618383825
88.0,0.0006986986263655126
96.0,0.00016818707808852196
104.0,-0.0003406307369004935
112.0,-0.00031843187753111124
120.0,3.860585638904013e-05
128.0,0.00011107971658930182
144.0,-8.36691033327952e-05
160.0,-0.00012423894077073783
176.0,0.00010683694563340396
192.0,0.00011330532288411632
208.0,0.00015490874648094177
224.0,0.00010589376324787736
240.0,0.0001488144916947931
256.0,0.00015687690756749362
288.0,-0.00040344984154216945
320.0,-0.0006836298271082342
352.0,-0.00042762007797136903
384.0,0.00036525868927128613
416.0,2.2114731109468266e-05
448.0,-0.0003785922017414123
480.0,3.6211924452800304e-05
512.0,0.0002134577662218362
576.0,-6.927560752956197e-05
640.0,-0.00016733561642467976
704.0,-0.000766077428124845
768.0,-0.0003381353453733027
832.0,-0.00024809184833429754
896.0,-0.00041508671711198986
960.0,-0.0006061955355107784
1024.0,-0.00022850578534416854
1152.0,8.904121386876795e-07
1280.0,0.0005191434756852686
1408.0,7.92145510786213e-06
1536.0,0.00012789868924301118
1664.0,0.0001489673595642671
1792.0,5.429916564025916e-05
1920.0,-6.975988071644679e-05
2048.0,-0.0003889715881086886
2304.0,2.459847746649757e-05
2560.0,5.855605922988616e-05
2816.0,-0.00016485125524923205
3072.0,-0.00019267585594207048
3328.0,-0.00022359062859322876
3584.0,-0.0002395049959886819
3840.0,0.0003498592705000192
4096.0,0.0004740560834761709
4608.0,-0.00012824093573726714
5120.0,-0.00025534143787808716
5632.0,0.00013753048551734537
6144.0,0.00016854889690876007
6656.0,-0.0005364686367101967
7168.0,0.00026344339130446315
7680.0,0.00020078087982255965
8192.0,-0.00017564908193890005
9216.0,4.482290387386456e-05
10240.0,-0.0001374520652461797
11264.0,9.64258360909298e-05
12288.0,-0.0003577680035959929
13312.0,0.00021925479813944548
14336.0,0.0002719325420912355
end
