version,3.0
numOfCh,1
type,point
parent_name,80-cuts
ch_type,1_1
kcount,1
numberNandB,1
brightnessNandB,1
carpet pos,0
pc,0
Time (ms),CH1 Auto-Correlation
1.0,0.01597975194454193
2.0,0.013132909312844276
3.0,0.011082455515861511
4.0,0.009522630833089352
5.0,0.008346565999090672
6.0,0.0074251568876206875
7.0,0.006635424215346575
8.0,0.005975586362183094
9.0,0.005431817844510078
10.0,0.00503210723400116
11.0,0.004691528622061014
12.0,0.0044674077071249485
13.0,0.004288516007363796
14.0,0.004202473443001509
15.0,0.004092060495167971
16.0,0.0038873145822435617
18.0,0.003659032518044114
20.0,0.003394507570192218
22.0,0.0029349317774176598
24.0,0.0026451318990439177
26.0,0.002375819021835923
28.0,0.0022922614589333534
30.0,0.002124873688444495
32.0,0.0020096381194889545
36.0,0.0017019235529005527
40.0,0.001588141662068665
44.0,0.0015411492204293609
48.0,0.0013878585305064917
52.0,0.0011375182075425982
56.0,0.0009837239049375057
60.0,0.001069659716449678
64.0,0.0010162841062992811
72.0,0.0007557754288427532
80.0,0.0005472326301969588
88.0,0.00026784048532135785
96.0,0.0003716993669513613
104.0,1.2521380085672718e-05
112.0,1.8213204384665005e-05
120.0,7.264625310199335e-05
128.0,-0.00036311548319645226
144.0,-6.991541158640757e-05
160.0,-0.0002762622316367924
176.0,-0.00022375259140972048
192.0,-0.00044616087689064443
208.0,-0.00010444039071444422
224.0,0.00017417811613995582
240.0,0.0003657265624497086
256.0,0.0003112095291726291
288.0,0.000522731221280992
320.0,0.0003583212965168059
352.0,0.00015034311218187213
384.0,-3.208854468539357e-05
416.0,4.186820660834201e-05
448.0,-0.0006712732720188797
480.0,-3.410696081118658e-05
512.0,0.00012954279372934252
576.0,-1.9878420971508604e-06
640.0,-0.0004970810259692371
704.0,-0.0006221315125003457
768.0,-0.0003978978784289211
832.0,-1.2564712051243987e-05
896.0,1.0161043064726982e-05
960.0,-0.000372223585145548
1024.0,-0.0002586759510450065
1152.0,2.4703689632588066e-05
1280.0,-0.00017024364206008613
1408.0,7.725196337560192e-05
1536.0,-0.00014368369011208415
1664.0,-0.00016193039482459426
1792.0,0.000524240720551461
1920.0,0.0002399864752078429
2048.0,-2.8539633945001697e-07
2304.0,-0.0001248395419679582
2560.0,-0.00048364652320742607
2816.0,-5.077964306110516e-05
3072.0,-4.8553960368735716e-05
3328.0,0.00020090703037567437
3584.0,5.585713006439619e-05
3840.0,-0.00015595866716466844
4096.0,-0.0001274679380003363
4608.0,0.000119324991828762
5120.0,0.0002061302657239139
5632.0,7.875310257077217e-05
6144.0,-0.0002547799376770854
6656.0,5.178975470698788e-07
7168.0,-5.952835635980591e-05
7680.0,-4.1973820771090686e-05
8192.0,-1.1233326404180843e-05
9216.0,7.876108429627493e-05
10240.0,0.00024828113964758813
11264.0,-0.00015596309094689786
12288.0,-0.00017943175043910742
13312.0,-0.0002305233501829207
14336.0,0.000136491289595142
end
