version,3.0
numOfCh,1
type,point
parent_name,80-cuts
ch_type,1_1
kcount,1
numberNandB,1
brightnessNandB,1
carpet pos,0
pc,0
Time (ms),CH1 Auto-Correlation
1.0,0.015892289578914642
2.0,0.0128905288875103
3.0,0.0107041010633111
4.0,0.009093062952160835
5.0,0.00788416899740696
6.0,0.006910504773259163
7.0,0.006142560392618179
8.0,0.005522801075130701
9.0,0.005093947518616915
10.0,0.004782902076840401
11.0,0.004465987905859947
12.0,0.004120870027691126
13.0,0.0038620182313024998
14.0,0.003614454995840788
15.0,0.0033974137622863054
16.0,0.0032704577315598726
18.0,0.0029534748755395412
20.0,0.0027261802460998297
22.0,0.002523849019780755
24.0,0.002360681537538767
26.0,0.002239461988210678
28.0,0.002107014646753669
30.0,0.001972598023712635
32.0,0.0018366811564192176
36.0,0.001319369301199913
40.0,0.0009525976493023336
44.0,0.0006733605987392366
48.0,0.00024111774109769613
52.0,9.779940592125058e-05
56.0,-8.439469820586964e-05
60.0,-0.00030160421738401055
64.0,-0.00047937483759596944
72.0,-0.0008341977372765541
80.0,-0.000589225091971457
88.0,-0.0003741710970643908
96.0,-0.00029643424204550683
104.0,-2.1274248865665868e-05
112.0,0.0001708982017589733
120.0,-7.320782606257126e-05
128.0,-7.910571002867073e-05
144.0,0.0001057270637829788
160.0,4.0039078157860786e-05
176.0,6.0011261666659266e-05
192.0,7.677357643842697e-05
208.0,0.00010930698044830933
224.0,-0.0002537714899517596
240.0,-0.0006352111231535673
256.0,-0.00021274418395478278
288.0,-6.977882731007412e-05
320.0,0.00011080553667852655
352.0,5.804222837468842e-06
384.0,0.0001226130552822724
416.0,0.00024169635435100645
448.0,0.00018796013318933547
480.0,-0.0006185946986079216
512.0,-0.0006680517108179629
576.0,-0.00026022823294624686
640.0,-0.0002254839928355068
704.0,-0.0003018584684468806
768.0,-6.690553709631786e-05
832.0,0.00014535948866978288
896.0,-0.00011170387006131932
960.0,0.00012036450061714277
1024.0,0.00018619561160448939
1152.0,0.0002783690579235554
1280.0,0.0003086788346990943
1408.0,0.00013646077422890812
1536.0,-0.00029950658790767193
1664.0,-0.00026536875520832837
1792.0,-0.00011732335406122729
1920.0,-0.00013522135850507766
2048.0,0.00026170897763222456
2304.0,4.6771754568908364e-05
2560.0,-0.00025216760695911944
2816.0,-0.00029584969161078334
3072.0,-3.808402470895089e-05
3328.0,2.1966759959468618e-05
3584.0,0.000240675886743702
3840.0,-0.0005127002950757742
4096.0,-3.7173591408645734e-05
4608.0,9.591970592737198e-05
5120.0,-6.117927568993764e-06
5632.0,6.096551442169584e-05
6144.0,0.00013042482896707952
6656.0,-0.00020117804524488747
7168.0,0.0001186208610306494
7680.0,-0.00023588545445818454
8192.0,0.00019177945796400309
9216.0,5.859784323547501e-06
10240.0,1.877768045233097e-05
11264.0,8.937645179685205e-05
12288.0,-5.824563777423464e-05
13312.0,3.033786742889788e-05
14336.0,-4.3912019464187324e-05
end
