version,3.0
numOfCh,1
type,point
parent_name,80-cuts
ch_type,1_1
kcount,1
numberNandB,1
brightnessNandB,1
carpet pos,0
pc,0
Time (ms),CH1 Auto-Correlation
1.0,0.014471422880887985
2.0,0.01155795156955719
3.0,0.009496218524873257
4.0,0.008040471002459526
5.0,0.006876613013446331
6.0,0.005873479880392551
7.0,0.005135088227689266
8.0,0.004492688458412886
9.0,0.0040072486735880375
10.0,0.003595163580030203
11.0,0.003217762103304267
12.0,0.0028715163934975863
13.0,0.002637352328747511
14.0,0.0024800070095807314
15.0,0.0021925056353211403
16.0,0.0019843897316604853
18.0,0.0018021728610619903
20.0,0.0016869651153683662
22.0,0.0015265478286892176
24.0,0.0012156351003795862
26.0,0.0010135176125913858
28.0,0.0007755077094770968
30.0,0.000711994303856045
32.0,0.0007532849558629096
36.0,0.0006757027585990727
40.0,0.0006655134493485093
44.0,0.0005336804315447807
48.0,0.0006305857095867395
52.0,0.0005066252779215574
56.0,0.00047118921065703034
60.0,0.0006435257964767516
64.0,0.0006942206528037786
72.0,0.0006485487101599574
80.0,0.0005415331106632948
88.0,0.000636965618468821
96.0,0.0004561981186270714
104.0,4.750511288875714e-05
112.0,-6.575530278496444e-05
120.0,-0.0004644154687412083
128.0,-0.0002634949632920325
144.0,5.459676685859449e-05
160.0,7.447574716934469e-06
176.0,-0.00012540974421426654
192.0,-0.00024995749117806554
208.0,-0.0004446525126695633
224.0,-0.0006341504049487412
240.0,-0.0005469308816827834
256.0,-0.00019654069910757244
288.0,-0.00015615095617249608
320.0,-0.00011323629587423056
352.0,-0.0002331067225895822
384.0,9.326599683845416e-05
416.0,0.0002548638731241226
448.0,0.0004929740098305047
480.0,0.00021885617752559483
512.0,0.0003087997029069811
576.0,0.00029706061468459666
640.0,0.00013139244401827455
704.0,-0.0002319143823115155
768.0,-0.00010605278657749295
832.0,0.00035792638664133847
896.0,-4.747595085063949e-05
960.0,-0.0001402929046889767
1024.0,9.31792746996507e-05
1152.0,9.985482756746933e-05
1280.0,0.0001125709677580744
1408.0,0.00020267031504772604
1536.0,-1.7847052731667645e-05
1664.0,-0.00014521877164952457
1792.0,-0.00012523902114480734
1920.0,0.00012225373939145356
2048.0,7.588530570501462e-05
2304.0,-8.730195986572653e-06
2560.0,-0.00027138987206853926
2816.0,-2.8184101665829076e-06
3072.0,-6.321864202618599e-05
3328.0,-0.0001044620294123888
3584.0,-0.0002250733523396775
3840.0,-3.8114707422209904e-05
4096.0,-0.00019655849609989673
4608.0,-5.717892781831324e-05
5120.0,-0.00011063439160352573
5632.0,4.663793879444711e-05
6144.0,0.0001714759855531156
6656.0,0.00014332859427668154
7168.0,0.00023653209791518748
7680.0,-2.386457890679594e-05
8192.0,-0.00010819939052453265
9216.0,-0.00010286435281159356
10240.0,-0.0001330438390141353
11264.0,-0.0001361519389320165
12288.0,0.00013056441093795002
13312.0,3.963579729315825e-05
14336.0,0.0002174518449464813
end
