version,3.0
numOfCh,1
type,point
parent_name,80-cuts
ch_type,1_1
kcount,1
numberNandB,1
brightnessNandB,1
carpet pos,0
pc,0
Time (ms),CH1 Auto-Correlation
1.0,0.01646599732339382
2.0,0.01340175699442625
3.0,0.011247502639889717
4.0,0.009582675993442535
5.0,0.008286342956125736
6.0,0.007289389614015818
7.0,0.006464597303420305
8.0,0.005702067632228136
9.0,0.005100447218865156
10.0,0.004556210245937109
11.0,0.0041810027323663235
12.0,0.0038686238694936037
13.0,0.0036610241513699293
14.0,0.0035517422948032618
15.0,0.0034340538550168276
16.0,0.003455552039667964
18.0,0.0031856419518589973
20.0,0.0029060421511530876
22.0,0.0027315213810652494
24.0,0.0025879230815917253
26.0,0.002375348238274455
28.0,0.0021359140519052744
30.0,0.0020260759629309177
32.0,0.0019575150217860937
36.0,0.0014780010096728802
40.0,0.0014192309463396668
44.0,0.0013323340099304914
48.0,0.0010198765667155385
52.0,0.0008132997900247574
56.0,0.0005960824782960117
60.0,0.0003902698226738721
64.0,2.8731707061524503e-05
72.0,-0.00026794805307872593
80.0,-0.00031204972765408456
88.0,-0.00028067288803867996
96.0,-0.0001998019142774865
104.0,-1.3574620425060857e-05
112.0,-0.00015534056001342833
120.0,-9.362625132780522e-05
128.0,9.049590153153986e-05
144.0,5.120324931340292e-05
160.0,0.00018431839998811483
176.0,0.0002782666706480086
192.0,0.0006216104375198483
208.0,0.0004724505706690252
224.0,0.0004579103842843324
240.0,0.00035856181057170033
256.0,0.00014686310896649957
288.0,0.00016400686581619084
320.0,-3.1610023143002763e-05
352.0,-0.0003698989748954773
384.0,-0.0004471669963095337
416.0,-0.0004919712082482874
448.0,-0.0008683441556058824
480.0,-0.0006666173576377332
512.0,-5.19824207003694e-05
576.0,-0.00028185753035359085
640.0,-0.0001910790306283161
704.0,-0.000393454625736922
768.0,-0.00011909513705177233
832.0,0.0002508986508473754
896.0,5.733925263484707e-06
960.0,-0.0003402442089281976
1024.0,-0.0001413326244801283
1152.0,0.00016603311814833432
1280.0,-0.0001461982901673764
1408.0,-0.00020181419677101076
1536.0,8.135518874041736e-05
1664.0,6.238515925360844e-05
1792.0,-9.820768900681287e-05
1920.0,-0.0001359466987196356
2048.0,-2.8060030672349967e-05
2304.0,-7.52409832784906e-05
2560.0,-0.00017790024867281318
2816.0,-0.00017292708798777312
3072.0,0.00042288913391530514
3328.0,0.0002470808394718915
3584.0,-0.00024976098211482167
3840.0,4.8693073040340096e-05
4096.0,-1.0165652383875567e-05
4608.0,0.00015336596698034555
5120.0,3.7412686651805416e-05
5632.0,-0.00031764255254529417
6144.0,8.4291459643282e-05
6656.0,0.0001752388634486124
7168.0,-6.715401104884222e-05
7680.0,-0.00020407026750035584
8192.0,0.0003638947382569313
9216.0,-0.0001402084599249065
10240.0,6.772876804461703e-05
11264.0,5.3941530495649204e-05
12288.0,-0.0004513408930506557
13312.0,0.00043640349758788943
14336.0,4.166898725088686e-05
end
