version,3.0
numOfCh,1
type,point
parent_name,80-cuts
ch_type,1_1
kcount,1
numberNandB,1
brightnessNandB,1
carpet pos,0
pc,0
Time (ms),CH1 Auto-Correlation
1.0,0.028509551659226418
2.0,0.023627465590834618
3.0,0.02002473548054695
4.0,0.017268069088459015
5.0,0.01515248790383339
6.0,0.013509410433471203
7.0,0.012093613855540752
8.0,0.011187192983925343
9.0,0.010262134484946728
10.0,0.009616573341190815
11.0,0.009147959761321545
12.0,0.008456405252218246
13.0,0.007939568720757961
14.0,0.007514063268899918
15.0,0.007123879622668028
16.0,0.006791930180042982
18.0,0.005885045975446701
20.0,0.0051465644501149654
22.0,0.004870119038969278
24.0,0.004558485001325607
26.0,0.0041274866089224815
28.0,0.003506516804918647
30.0,0.003087039338424802
32.0,0.003004636848345399
36.0,0.002880207961425185
40.0,0.002155694179236889
44.0,0.0014625806361436844
48.0,0.0010738311102613807
52.0,0.0011453804327175021
56.0,0.000927382439840585
60.0,0.000929530942812562
64.0,0.0007410977850668132
72.0,0.0012015624670311809
80.0,0.0006949795060791075
88.0,0.00023968996538314968
96.0,0.0002848570584319532
104.0,0.0002733654691837728
112.0,-0.0002526358002796769
120.0,-6.180090713314712e-05
128.0,-0.00020618551934603602
144.0,-0.0006870817742310464
160.0,-0.0004576225474011153
176.0,-9.241821680916473e-05
192.0,-0.00031454587588086724
208.0,0.0004436594608705491
224.0,0.0005594613612629473
240.0,0.00023338201572187245
256.0,-0.00013790561934001744
288.0,-0.00010192651825491339
320.0,0.0001481731014791876
352.0,0.0001347215729765594
384.0,-0.00010026943346019834
416.0,-0.00013496639439836144
448.0,-0.0002828352735377848
480.0,0.00018630012345965952
512.0,3.522359111229889e-05
576.0,0.00021685895626433194
640.0,-0.0003488337097223848
704.0,-0.00043366895988583565
768.0,-0.00038673431845381856
832.0,0.0011086937738582492
896.0,0.00012390250049065799
960.0,-0.0005812065210193396
1024.0,-5.169883297639899e-05
1152.0,-0.0005103414878249168
1280.0,-0.0008949321345426142
1408.0,-0.0004745714832097292
1536.0,-0.0006404198356904089
1664.0,0.00026869081193581223
1792.0,-0.0006156436284072697
1920.0,0.0003472265671007335
2048.0,0.0004374717827886343
2304.0,0.00018479680875316262
2560.0,0.00018695266044232994
2816.0,0.0005547198234125972
3072.0,0.00011863550753332675
3328.0,-0.0003902548924088478
3584.0,-0.0004057728801853955
3840.0,-0.00037277195951901376
4096.0,-0.0003355737426318228
4608.0,0.00010142105020349845
5120.0,0.00031291667255572975
5632.0,0.00016314072126988322
6144.0,-0.0006053028046153486
6656.0,4.1587981058910373e-07
7168.0,0.0003258955548517406
7680.0,0.0004272203950677067
8192.0,-0.000846498878672719
9216.0,2.6823990992852487e-05
10240.0,0.00016885202785488218
11264.0,-0.0005172574892640114
12288.0,0.0003460058069322258
13312.0,-0.00012407022586558014
14336.0,-0.0001914907043101266
end
