version,3.0
numOfCh,1
type,point
parent_name,80-cuts
ch_type,1_1
kcount,1
numberNandB,1
brightnessNandB,1
carpet pos,0
pc,0
Time (ms),CH1 Auto-Correlation
1.0,0.015122007578611374
2.0,0.012070611119270325
3.0,0.009925039485096931
4.0,0.008497051894664764
5.0,0.007235574070364237
6.0,0.006254787091165781
7.0,0.005519689992070198
8.0,0.004840075969696045
9.0,0.004289198201149702
10.0,0.0037988198455423117
11.0,0.0034032261464744806
12.0,0.003118822816759348
13.0,0.0029153244104236364
14.0,0.0027800779789686203
15.0,0.00266129057854414
16.0,0.002529403893277049
18.0,0.002035980811342597
20.0,0.0017359964549541473
22.0,0.0015431318897753954
24.0,0.001424789079464972
26.0,0.0012958270963281393
28.0,0.0011985916644334793
30.0,0.001250763307325542
32.0,0.0010691324714571238
36.0,0.0009384086588397622
40.0,0.0009247889975085855
44.0,0.0008233728003688157
48.0,0.0008606890332885087
52.0,0.0009576320881024003
56.0,0.0007425142684951425
60.0,0.0005142035079188645
64.0,0.0004856539308093488
72.0,7.792947872076184e-05
80.0,-0.00011717485904227942
88.0,-0.00036154183908365667
96.0,-0.00012553902342915535
104.0,6.937336729606614e-05
112.0,-0.00012429672642610967
120.0,-0.00047211279161274433
128.0,-0.00048350519500672817
144.0,-0.0005720351473428309
160.0,7.497678598156199e-05
176.0,-0.0001172884221887216
192.0,8.325195813085884e-05
208.0,-0.00010621600813465193
224.0,-0.000270924239885062
240.0,-0.0006091718678362668
256.0,-8.432422328041866e-05
288.0,-6.498042057501152e-05
320.0,-0.00013072043657302856
352.0,8.60342915984802e-05
384.0,0.00028269123868085444
416.0,-0.00025881995679810643
448.0,-0.00024345279962290078
480.0,-7.455407467205077e-05
512.0,1.6468056855956092e-05
576.0,9.620869241189212e-05
640.0,0.0001814593415474519
704.0,-0.00020790414419025183
768.0,-0.0003646807454060763
832.0,-7.1437998485635035e-06
896.0,0.00048524868907406926
960.0,-0.00015213029109872878
1024.0,3.2707110221963376e-05
1152.0,-0.00010174520866712555
1280.0,1.5236272702168208e-05
1408.0,0.00012937423889525235
1536.0,-0.00020477431826293468
1664.0,-0.0001733212557155639
1792.0,-4.422391430125572e-05
1920.0,0.00019948530825786293
2048.0,-0.00019787343626376241
2304.0,0.00012738193618133664
2560.0,-0.0001110327139031142
2816.0,-7.791462849127129e-05
3072.0,8.36877734400332e-05
3328.0,9.850452624959871e-05
3584.0,5.979319030302577e-05
3840.0,0.0001560401578899473
4096.0,0.00024858731194399297
4608.0,-0.00012457658885978162
5120.0,-3.771941692320979e-06
5632.0,-5.032336412114091e-05
6144.0,-2.6098310627276078e-05
6656.0,2.297780883964151e-05
7168.0,9.474757098359987e-05
7680.0,-9.907509229378775e-05
8192.0,4.7534838813589886e-05
9216.0,-9.435915853828192e-05
10240.0,1.561433236929588e-05
11264.0,1.0862323733817902e-06
12288.0,-0.0001733285462250933
13312.0,-6.970320828258991e-05
14336.0,-2.0647835299314465e-06
end
