version,3.0
numOfCh,1
type,point
parent_name,80-cuts
ch_type,1_1
kcount,1
numberNandB,1
brightnessNandB,1
carpet pos,0
pc,0
Time (ms),CH1 Auto-Correlation
1.0,0.016359657049179077
2.0,0.013302898965775967
3.0,0.011170505546033382
4.0,0.009592492133378983
5.0,0.008350161835551262
6.0,0.007311330642551184
7.0,0.006495077162981033
8.0,0.005930439103394747
9.0,0.00537915388122201
10.0,0.005021513905376196
11.0,0.004724816419184208
12.0,0.004423836711794138
13.0,0.004108556546270847
14.0,0.0038290685042738914
15.0,0.0036332430317997932
16.0,0.003434081794694066
18.0,0.0031648047734051943
20.0,0.0028374851681292057
22.0,0.002515579340979457
24.0,0.0023680778685957193
26.0,0.0020639633294194937
28.0,0.001773043884895742
30.0,0.0015734498156234622
32.0,0.0015593530843034387
36.0,0.0013413996202871203
40.0,0.0012407420435920358
44.0,0.0013096650363877416
48.0,0.0012358641251921654
52.0,0.001061090617440641
56.0,0.0009586989763192832
60.0,0.0008609925280325115
64.0,0.0008003995171748102
72.0,0.0005722793866880238
80.0,0.0007716541294939816
88.0,0.0005362219526432455
96.0,0.0008016159990802407
104.0,0.0007032467983663082
112.0,0.000606175628490746
120.0,0.00025173017638735473
128.0,-4.1627496102591977e-05
144.0,-9.508393850410357e-05
160.0,-0.00014426471898332238
176.0,-6.475600821431726e-05
192.0,-2.9798671675962396e-05
208.0,-5.32726407982409e-05
224.0,-5.418033470050432e-05
240.0,7.444814400514588e-05
256.0,-0.000276758597465232
288.0,-0.0005677211447618902
320.0,-0.0002783271484076977
352.0,-0.00019544786482583731
384.0,0.0004068746929988265
416.0,0.0001443852233933285
448.0,-2.726205093495082e-05
480.0,0.00017322292842436582
512.0,0.00038296967977657914
576.0,0.0006267384742386639
640.0,0.00024118227884173393
704.0,-0.0002682579797692597
768.0,-0.0003606931131798774
832.0,-6.38731726212427e-05
896.0,-0.00015787362644914538
960.0,0.00013286764442455024
1024.0,0.0004387999651953578
1152.0,-0.0002744793309830129
1280.0,-0.00021312273747753352
1408.0,-0.00040995137533172965
1536.0,-0.0002683593484107405
1664.0,0.0002993177913594991
1792.0,-0.0003553864371497184
1920.0,6.474546535173431e-05
2048.0,-0.0002491782943252474
2304.0,-0.00017497435328550637
2560.0,-0.0004268570337444544
2816.0,4.710685243480839e-05
3072.0,-9.60102115641348e-05
3328.0,0.0001830618712119758
3584.0,0.00010438552271807566
3840.0,0.000498341687489301
4096.0,0.0001083038150682114
4608.0,0.00012893861276097596
5120.0,-5.0370657845633104e-05
5632.0,3.2408857805421576e-05
6144.0,-0.0001299462019233033
6656.0,-0.00014532268687617034
7168.0,-0.00025553462910465896
7680.0,-0.00034056228469125926
8192.0,7.226075831567869e-05
9216.0,0.0002566302428022027
10240.0,0.00026676213019527495
11264.0,-0.0006942591280676425
12288.0,0.000152405773405917
13312.0,0.0005537027027457952
14336.0,-0.0003317508671898395
end
