version,3.0
numOfCh,1
type,point
parent_name,80-cuts
ch_type,1_1
kcount,1
numberNandB,1
brightnessNandB,1
carpet pos,0
pc,0
Time (ms),CH1 Auto-Correlation
1.0,0.025479260832071304
2.0,0.02084016241133213
3.0,0.017637012526392937
4.0,0.015128194354474545
5.0,0.013266205787658691
6.0,0.011796495877206326
7.0,0.010611929930746555
8.0,0.009491689503192902
9.0,0.008594237267971039
10.0,0.007797935511916876
11.0,0.007066925056278706
12.0,0.006504077464342117
13.0,0.005939438007771969
14.0,0.005405815783888102
15.0,0.005070816725492477
16.0,0.004932171665132046
18.0,0.004703615792095661
20.0,0.004246080759912729
22.0,0.004177238792181015
24.0,0.003972833510488272
26.0,0.003588401712477207
28.0,0.003170299343764782
30.0,0.002606697380542755
32.0,0.0020244994666427374
36.0,0.0016761899460107088
40.0,0.0011435924097895622
44.0,0.0009099379531107843
48.0,0.0008431797614321113
52.0,0.00046090385876595974
56.0,0.00036778280627913773
60.0,0.0003107980883214623
64.0,0.0007625169237144291
72.0,0.001076097832992673
80.0,0.0011395951732993126
88.0,0.000652204966172576
96.0,-6.559139728778973e-05
104.0,-0.000269250274868682
112.0,-0.0005946796154603362
120.0,-0.0007250125054270029
128.0,-0.0003234878822695464
144.0,0.00039773189928382635
160.0,0.0004322278837207705
176.0,0.0006481530726887286
192.0,0.0009289211593568325
208.0,0.0006427833577618003
224.0,0.0006637905025854707
240.0,0.0015561989275738597
256.0,0.001375507446937263
288.0,0.00038863648660480976
320.0,0.0001566391729284078
352.0,0.00013585294072981924
384.0,9.400463750353083e-05
416.0,8.443389560852665e-06
448.0,0.00021265531540848315
480.0,-8.575290848966688e-05
512.0,0.0008880816167220473
576.0,-0.00016841304022818804
640.0,-0.0005147992051206529
704.0,-0.00016313961532432586
768.0,9.857938130153343e-05
832.0,-1.4819555872236378e-05
896.0,3.0717826575710205e-06
960.0,-0.0002481117844581604
1024.0,-0.0011109651532024145
1152.0,-0.0006500683375634253
1280.0,-0.0003370080376043916
1408.0,-0.00034869261435233057
1536.0,-0.00034113682340830564
1664.0,0.0002961227437481284
1792.0,-0.0002790789876598865
1920.0,-0.0002258048189105466
2048.0,-0.0001714145328151062
2304.0,-0.0003840902354568243
2560.0,6.386712630046532e-05
2816.0,-0.00018627519602887332
3072.0,0.0005101207061670721
3328.0,0.0001978743530344218
3584.0,-6.761062104487792e-05
3840.0,0.00021609126997645944
4096.0,0.0003328798629809171
4608.0,-0.0003326301521155983
5120.0,-0.0005149825010448694
5632.0,0.00020805542590096593
6144.0,0.00010324038885300979
6656.0,-0.0001697060070000589
7168.0,0.00036147882929071784
7680.0,-1.507939123257529e-05
8192.0,1.448705188522581e-05
9216.0,0.00015128195809666067
10240.0,-0.0003149094700347632
11264.0,0.00020224459876772016
12288.0,5.628632425214164e-05
13312.0,0.0002979809360112995
14336.0,-0.00010124852269655094
end
