version,3.0
numOfCh,1
type,point
parent_name,80-cuts
ch_type,1_1
kcount,1
numberNandB,1
brightnessNandB,1
carpet pos,0
pc,0
Time (ms),CH1 Auto-Correlation
1.0,0.015797730535268784
2.0,0.012853946536779404
3.0,0.010757667012512684
4.0,0.00931529700756073
5.0,0.008255857042968273
6.0,0.007570663932710886
7.0,0.00694163516163826
8.0,0.006448863539844751
9.0,0.005905289202928543
10.0,0.005403995979577303
11.0,0.00501919025555253
12.0,0.004669409245252609
13.0,0.004439717158675194
14.0,0.004156718496233225
15.0,0.00387523602694273
16.0,0.003603355959057808
18.0,0.003124340670183301
20.0,0.002818386536091566
22.0,0.0025621294043958187
24.0,0.002336895791813731
26.0,0.0020259765442460775
28.0,0.0017913178307935596
30.0,0.001658863970078528
32.0,0.0015005022287368774
36.0,0.0011774461017921567
40.0,0.0012743942206725478
44.0,0.0014785515377297997
48.0,0.0016339024296030402
52.0,0.0018565021455287933
56.0,0.001538241165690124
60.0,0.0010913064470514655
64.0,0.0007330688531510532
72.0,0.0007112908060662448
80.0,0.0012368130264803767
88.0,0.0013227632734924555
96.0,0.001140975160524249
104.0,0.0009138101595453918
112.0,0.00044182350393384695
120.0,0.00015399737458210438
128.0,-0.00012828721082769334
144.0,0.00020547026360873133
160.0,0.0006265731644816697
176.0,0.0006586161907762289
192.0,0.0005057732341811061
208.0,0.0008057215600274503
224.0,0.0005007084109820426
240.0,0.00022260619152802974
256.0,0.00027383374981582165
288.0,0.0003461002488620579
320.0,-0.00018005198216997087
352.0,-4.3934622226515785e-05
384.0,0.0001757031714078039
416.0,-0.0005310055566951632
448.0,-4.3806390749523416e-05
480.0,-0.00044596666703000665
512.0,-0.0004193179775029421
576.0,-0.00019818155851680785
640.0,-0.00020946311997249722
704.0,-0.0008423112449236214
768.0,-0.0005552044603973627
832.0,-0.0003362152783665806
896.0,-0.00021456020476762205
960.0,-0.0006103949272073805
1024.0,-4.8788606363814324e-05
1152.0,-3.769214163185097e-05
1280.0,-0.00022630371677223593
1408.0,0.00016589109145570546
1536.0,0.0003523155755829066
1664.0,0.0002997021656483412
1792.0,0.0006529113161377609
1920.0,0.00017640298756305128
2048.0,-7.363608165178448e-05
2304.0,-0.0003880414296872914
2560.0,-0.0005493973731063306
2816.0,-0.00014869416190776974
3072.0,-0.0002727069368120283
3328.0,0.0001234724622918293
3584.0,0.0004137786745559424
3840.0,0.00041348504601046443
4096.0,-4.859538603341207e-05
4608.0,-0.00021980985184200108
5120.0,0.00035601368290372193
5632.0,0.00018050431390292943
6144.0,-0.0004481954383663833
6656.0,0.00027833878993988037
7168.0,-9.958799637388438e-05
7680.0,-0.00010141600068891421
8192.0,-0.0002781633229460567
9216.0,8.744595834286883e-05
10240.0,4.6558048779843375e-05
11264.0,-0.0001483671076130122
12288.0,0.00019973648886661977
13312.0,-0.00012420880375429988
14336.0,-5.299119220580906e-05
end
