version,3.0
numOfCh,1
type,point
parent_name,80-cuts
ch_type,1_1
kcount,1
numberNandB,1
brightnessNandB,1
carpet pos,0
pc,0
Time (ms),CH1 Auto-Correlation
1.0,0.017337024211883545
2.0,0.014210475608706474
3.0,0.012002081610262394
4.0,0.010425637476146221
5.0,0.009189433418214321
6.0,0.00820730347186327
7.0,0.007431364618241787
8.0,0.006715406198054552
9.0,0.00611745985224843
10.0,0.005627090111374855
11.0,0.0051054684445261955
12.0,0.004632940050214529
13.0,0.004326145630329847
14.0,0.004017900675535202
15.0,0.0036846089642494917
16.0,0.0033790068700909615
18.0,0.0028254883363842964
20.0,0.0022690624464303255
22.0,0.0017737997695803642
24.0,0.0015538425650447607
26.0,0.0015958525473251939
28.0,0.0015583906788378954
30.0,0.0013683914439752698
32.0,0.001293625682592392
36.0,0.0013879112666472793
40.0,0.0015321967657655478
44.0,0.0015453208470717072
48.0,0.001522041391581297
52.0,0.0013278197729960084
56.0,0.0014316418673843145
60.0,0.001257444266229868
64.0,0.001046780264005065
72.0,0.0008943502907641232
80.0,0.0007972154999151826
88.0,0.0007249303162097931
96.0,0.0005521017592400312
104.0,0.00045894618961028755
112.0,0.00029221989098004997
120.0,-4.849520337302238e-05
128.0,-0.0004496330802794546
144.0,-0.0004677696852013469
160.0,-0.000241011381149292
176.0,-0.0005866438732482493
192.0,4.8681678890716285e-05
208.0,0.0003595978196244687
224.0,0.00038706493796780705
240.0,0.0008518880931660533
256.0,0.00036231635021977127
288.0,0.0006745801074430346
320.0,0.0004777363210450858
352.0,5.5135926231741905e-05
384.0,-5.186989437788725e-05
416.0,-0.0002369350113440305
448.0,-0.00022871307737659663
480.0,9.278973266191315e-06
512.0,-6.611634307773784e-05
576.0,0.00012732989853248
640.0,6.97346476954408e-05
704.0,-1.2145813343522605e-05
768.0,-0.00040556243038736284
832.0,-0.0008500500698573887
896.0,-0.00031973549630492926
960.0,-0.00046450283844023943
1024.0,-0.00033182866172865033
1152.0,-3.1167015549726784e-05
1280.0,-0.00037365706521086395
1408.0,0.0004925602697767317
1536.0,0.00017609316273592412
1664.0,0.0008385297260247171
1792.0,0.0005979791167192161
1920.0,0.00020172251970507205
2048.0,0.0005840243538841605
2304.0,-0.0002470357867423445
2560.0,-0.0008904957794584334
2816.0,-0.0005481615080498159
3072.0,5.239508027443662e-05
3328.0,0.0003894162946380675
3584.0,0.00024078082060441375
3840.0,0.0005478440434671938
4096.0,-0.0005667398800142109
4608.0,-0.00011567206092877313
5120.0,0.0005578793352469802
5632.0,-2.9478636861313134e-05
6144.0,-0.00038889877032488585
6656.0,0.0005219193990342319
7168.0,4.132405956625007e-05
7680.0,-0.0005593863897956908
8192.0,9.433123341295868e-05
9216.0,-0.0002246009826194495
10240.0,0.0001833698624977842
11264.0,-3.318283779663034e-05
12288.0,-4.730475848191418e-05
13312.0,-0.00031060390756465495
14336.0,-0.0003504333726596087
end
