version,3.0
numOfCh,1
type,point
parent_name,80-cuts
ch_type,1_1
kcount,1
numberNandB,1
brightnessNandB,1
carpet pos,0
pc,0
Time (ms),CH1 Auto-Correlation
1.0,0.02798483707010746
2.0,0.023138239979743958
3.0,0.019744019955396652
4.0,0.017168426886200905
5.0,0.015079529024660587
6.0,0.013393960893154144
7.0,0.01200277078896761
8.0,0.01093574520200491
9.0,0.010034698061645031
10.0,0.009149107150733471
11.0,0.008403158746659756
12.0,0.00785320345312357
13.0,0.007380494382232428
14.0,0.006969265174120665
15.0,0.006761541124433279
16.0,0.006613681558519602
18.0,0.005765189416706562
20.0,0.0052491649985313416
22.0,0.004931504838168621
24.0,0.004703297279775143
26.0,0.0044435239396989346
28.0,0.0037796024698764086
30.0,0.0034346706233918667
32.0,0.0033566663041710854
36.0,0.0025974661111831665
40.0,0.002498842542991042
44.0,0.002284374088048935
48.0,0.001937659690156579
52.0,0.0016004909994080663
56.0,0.0012413609074428678
60.0,0.001023332355543971
64.0,0.0010722008300945163
72.0,0.0008371785515919328
80.0,0.0011274630669504404
88.0,0.0011028377339243889
96.0,0.000914549280423671
104.0,0.0004839378234464675
112.0,0.0007963619427755475
120.0,0.0003124636132270098
128.0,-0.0001965915143955499
144.0,0.0004085663240402937
160.0,0.00013937041512690485
176.0,0.0002780175709631294
192.0,9.553380368743092e-05
208.0,-0.0002358655328862369
224.0,-0.0008917688392102718
240.0,-0.0013796563725918531
256.0,-0.0010673722717911005
288.0,-0.0002820705121848732
320.0,-0.00032686948543414474
352.0,-0.00029126237495802343
384.0,-1.0804661542351823e-05
416.0,5.1688304665731266e-05
448.0,0.0001085096228052862
480.0,0.00041929862345568836
512.0,0.0006741948891431093
576.0,0.0007683879230171442
640.0,-0.00010454319999553263
704.0,-4.9786747695179656e-05
768.0,-0.00028054608264937997
832.0,-0.00030186318326741457
896.0,-0.00029029653524048626
960.0,0.0004300299333408475
1024.0,0.00010777889110613614
1152.0,0.0006409315392374992
1280.0,-0.00066600670106709
1408.0,-0.0009605216328054667
1536.0,5.642180985887535e-05
1664.0,0.0004771596286445856
1792.0,0.0009252920863218606
1920.0,-2.9150713089620695e-05
2048.0,-0.00014583126176148653
2304.0,0.0008468288579024374
2560.0,-0.0004661735729314387
2816.0,0.0005287142703309655
3072.0,-0.00010379567538620904
3328.0,-0.000466264522401616
3584.0,0.00010615753126330674
3840.0,-0.001217754790559411
4096.0,-0.00031812480301596224
4608.0,0.00015660325880162418
5120.0,-0.0004345770284999162
5632.0,-6.0222664615139365e-06
6144.0,-0.000701851793564856
6656.0,-0.00011564595479285344
7168.0,-0.00010297004337189719
7680.0,0.0005152583471499383
8192.0,-5.1992599765071645e-05
9216.0,0.00018218831974081695
10240.0,0.00032555125653743744
11264.0,4.94307023473084e-05
12288.0,-0.00026993147912435234
13312.0,-6.490860687335953e-05
14336.0,5.535074888030067e-05
end
