version,3.0
numOfCh,1
type,point
parent_name,80-cuts
ch_type,1_1
kcount,1
numberNandB,1
brightnessNandB,1
carpet pos,0
pc,0
Time (ms),CH1 Auto-Correlation
1.0,0.016305312514305115
2.0,0.013311940245330334
3.0,0.01115246582776308
4.0,0.00950795691460371
5.0,0.00830880831927061
6.0,0.007308082655072212
7.0,0.006588795222342014
8.0,0.005999600514769554
9.0,0.005477482918649912
10.0,0.0050454228185117245
11.0,0.004529942758381367
12.0,0.004202465992420912
13.0,0.003953770734369755
14.0,0.0036041997373104095
15.0,0.0033644449431449175
16.0,0.003171521471813321
18.0,0.002710089785978198
20.0,0.0025276909582316875
22.0,0.0023574107326567173
24.0,0.0020495541393756866
26.0,0.0018474116222932935
28.0,0.0017821391811594367
30.0,0.001649612793698907
32.0,0.0015627573011443019
36.0,0.0015998624730855227
40.0,0.0013685672311112285
44.0,0.0012904509203508496
48.0,0.0010918102925643325
52.0,0.0005412350874394178
56.0,1.058076031767996e-05
60.0,-0.00013701962598133832
64.0,-0.0003779490361921489
72.0,6.423129525501281e-05
80.0,0.0001950722507899627
88.0,-3.400325294933282e-05
96.0,-0.0003848416090477258
104.0,-0.00043654852197505534
112.0,-0.00016636702639516443
120.0,-2.9753788112429902e-05
128.0,-5.709009928978048e-05
144.0,-0.00018794565403368324
160.0,-0.0002194373228121549
176.0,-0.000278512918157503
192.0,-0.0002687903179321438
208.0,-0.000520221539773047
224.0,0.00018919313151855022
240.0,0.0006192726432345808
256.0,0.0007432784186676145
288.0,-0.00024429327459074557
320.0,4.609160532709211e-05
352.0,0.0004324729379732162
384.0,0.0002326640096725896
416.0,0.00023496041831094772
448.0,0.00021364472922869027
480.0,0.00032938725780695677
512.0,0.0003163548244629055
576.0,-2.0281040633562952e-05
640.0,-0.0004398748278617859
704.0,-0.00014988170005381107
768.0,-7.239769911393523e-05
832.0,-5.061880801804364e-05
896.0,0.00021110630768816918
960.0,5.5582171626156196e-05
1024.0,-0.0005305676604621112
1152.0,-0.00013475003652274609
1280.0,-7.900965101725888e-06
1408.0,0.00022693230130244046
1536.0,0.00029040753724984825
1664.0,-2.450196916470304e-05
1792.0,3.2036052289186046e-05
1920.0,0.0001245825842488557
2048.0,9.959745511878282e-05
2304.0,5.73550169065129e-05
2560.0,6.25770990154706e-05
2816.0,-1.5802839698153548e-05
3072.0,-3.739315070561133e-05
3328.0,0.0002645544009283185
3584.0,4.353207259555347e-05
3840.0,-0.0001986381394090131
4096.0,0.00026251919916830957
4608.0,-0.00012615467130672187
5120.0,-7.751287921564654e-05
5632.0,2.4465527530992404e-05
6144.0,-0.00019166777201462537
6656.0,-0.00012256756599526852
7168.0,-0.00014478282537311316
7680.0,-8.735143637750298e-05
8192.0,-0.00020039254741277546
9216.0,-0.00010912396828643978
10240.0,-0.0001409017131663859
11264.0,-1.561413228046149e-05
12288.0,0.00014751871640328318
13312.0,0.00012670444266404957
14336.0,0.00011607120541157201
end
