version,3.0
numOfCh,1
type,point
parent_name,80-cuts
ch_type,1_1
kcount,1
numberNandB,1
brightnessNandB,1
carpet pos,0
pc,0
Time (ms),CH1 Auto-Correlation
1.0,0.027566956356167793
2.0,0.02245022915303707
3.0,0.018754083663225174
4.0,0.01606317237019539
5.0,0.013948529027402401
6.0,0.012304339557886124
7.0,0.010884847491979599
8.0,0.009812707081437111
9.0,0.008946115151047707
10.0,0.008114511147141457
11.0,0.007293165661394596
12.0,0.006666741333901882
13.0,0.0059471591375768185
14.0,0.005443686153739691
15.0,0.004969707224518061
16.0,0.004782224074006081
18.0,0.00443966593593359
20.0,0.0038914603646844625
22.0,0.0037290649488568306
24.0,0.0034516779705882072
26.0,0.003341992385685444
28.0,0.0034422886092215776
30.0,0.0033194224815815687
32.0,0.0031240941025316715
36.0,0.0029539463575929403
40.0,0.002541195834055543
44.0,0.0021822114940732718
48.0,0.002317137084901333
52.0,0.0023644035682082176
56.0,0.002493912586942315
60.0,0.002776384586468339
64.0,0.002814745530486107
72.0,0.0025805598124861717
80.0,0.0014344038208946586
88.0,0.0012905760668218136
96.0,0.0011688211234286427
104.0,0.0011932732304558158
112.0,0.0006136746960692108
120.0,0.0004112468159291893
128.0,0.0008671797113493085
144.0,0.0004281048313714564
160.0,0.0008518154500052333
176.0,0.0002563771267887205
192.0,0.0002133300295099616
208.0,-0.0004223823198117316
224.0,-9.429401688976213e-05
240.0,0.0003335176734253764
256.0,6.274783663684502e-05
288.0,-0.000550433702301234
320.0,0.0001325162302237004
352.0,0.00039300142088904977
384.0,-0.0001298409333685413
416.0,-0.00011293070565443486
448.0,0.00015044500469230115
480.0,1.9516553948051296e-05
512.0,-0.00034163970849476755
576.0,-0.00025375979021191597
640.0,-0.0001303879398619756
704.0,-6.597217725357041e-05
768.0,0.0006390102207660675
832.0,-0.0002910303883254528
896.0,-0.0007048516999930143
960.0,-4.760767478728667e-05
1024.0,-0.0006405172753147781
1152.0,7.60636612540111e-05
1280.0,-0.00016300352581311017
1408.0,0.0003293102199677378
1536.0,-0.0009919055737555027
1664.0,-5.6127628340618685e-05
1792.0,-0.0012524710036814213
1920.0,-0.00011313776485621929
2048.0,7.484180969186127e-05
2304.0,3.860018478007987e-05
2560.0,-0.0003381783317308873
2816.0,-7.561868551420048e-05
3072.0,0.0006983675993978977
3328.0,-5.286863961373456e-05
3584.0,-0.0005326758837327361
3840.0,0.00012250975123606622
4096.0,-0.0002694407303351909
4608.0,-0.0004896970349363983
5120.0,0.0003180379862897098
5632.0,0.00010280454444000497
6144.0,0.0003194193704985082
6656.0,-0.00020775923621840775
7168.0,-0.0004398103628773242
7680.0,-0.000445488840341568
8192.0,0.0001633856154512614
9216.0,4.228213947499171e-05
10240.0,7.343119796132669e-05
11264.0,0.0005155876278877258
12288.0,-0.00020670944650191814
13312.0,-0.0009867447661235929
14336.0,0.0006194739253260195
end
