version,3.0
numOfCh,1
type,point
parent_name,80-cuts
ch_type,1_1
kcount,1
numberNandB,1
brightnessNandB,1
carpet pos,0
pc,0
Time (ms),CH1 Auto-Correlation
1.0,0.01652783714234829
2.0,0.013630431145429611
3.0,0.011461845599114895
4.0,0.00980591680854559
5.0,0.008583871647715569
6.0,0.007578670512884855
7.0,0.006957469508051872
8.0,0.006417543161660433
9.0,0.005960338283330202
10.0,0.005516326054930687
11.0,0.004955362994223833
12.0,0.004529272206127644
13.0,0.004188396967947483
14.0,0.0038675747346132994
15.0,0.003649710910394788
16.0,0.003456090809777379
18.0,0.003112252103164792
20.0,0.0028400381561368704
22.0,0.0026718159206211567
24.0,0.0025149870198220015
26.0,0.0024570112582296133
28.0,0.0021379159297794104
30.0,0.0019049295224249363
32.0,0.0017639114521443844
36.0,0.0014363894006237388
40.0,0.0013473288854584098
44.0,0.0009713194449432194
48.0,0.0007752420497126877
52.0,0.0006818526890128851
56.0,0.00035557826049625874
60.0,0.0002347964618820697
64.0,0.0002980438293889165
72.0,0.00027765854611061513
80.0,0.00030115791014395654
88.0,9.65877843555063e-05
96.0,0.00029718931182287633
104.0,0.0005906177684664726
112.0,0.0008354058372788131
120.0,0.0008949941257014871
128.0,0.0004315764526836574
144.0,0.00013105780817568302
160.0,-0.00013120242510922253
176.0,-0.0006338477833196521
192.0,-0.0003882936725858599
208.0,-0.0001777199940988794
224.0,-9.641012729844078e-05
240.0,-0.0004053063748870045
256.0,-0.00033277232432737947
288.0,-0.00040435604751110077
320.0,-0.0002464266144670546
352.0,-0.000291515258140862
384.0,5.381732535170158e-06
416.0,0.0005996896652504802
448.0,0.0004239235131535679
480.0,2.136214607162401e-05
512.0,0.0001548306900076568
576.0,1.9169217921444215e-05
640.0,0.0003013481036759913
704.0,0.00030843078275211155
768.0,0.00013227212184574455
832.0,0.00025320021086372435
896.0,8.467532461509109e-05
960.0,-0.0002445447607897222
1024.0,2.6366198653704487e-05
1152.0,0.00032152424682863057
1280.0,0.00040935768629424274
1408.0,-2.804789983201772e-05
1536.0,0.00030670544947497547
1664.0,0.0003202493826393038
1792.0,-0.0003476854762993753
1920.0,3.944953641621396e-05
2048.0,0.00015082358731888235
2304.0,0.0003751295153051615
2560.0,-9.852723451331258e-05
2816.0,9.660375508246943e-05
3072.0,-0.00013120098446961492
3328.0,-0.0004413998394738883
3584.0,0.00022739681298844516
3840.0,0.00016121900989674032
4096.0,-0.00023981330741662532
4608.0,1.6418127415818162e-05
5120.0,-4.9806276365416124e-05
5632.0,-0.00014169512724038213
6144.0,0.0002383382379775867
6656.0,6.58625504001975e-05
7168.0,0.00015081700985319912
7680.0,-8.853356848703697e-05
8192.0,7.840005127945915e-05
9216.0,-0.0002011576434597373
10240.0,-8.989660273073241e-05
11264.0,-0.00045936796232126653
12288.0,-0.00023545822477899492
13312.0,-0.00040951994014903903
14336.0,-0.0001934590400196612
end
