version,3.0
numOfCh,1
type,point
parent_name,80-cuts
ch_type,1_1
kcount,1
numberNandB,1
brightnessNandB,1
carpet pos,0
pc,0
Time (ms),CH1 Auto-Correlation
1.0,0.016811974346637726
2.0,0.01382408943027258
3.0,0.011543952859938145
4.0,0.009937897324562073
5.0,0.008651413023471832
6.0,0.007642608135938644
7.0,0.00685103191062808
8.0,0.006159369833767414
9.0,0.005713635124266148
10.0,0.005301959812641144
11.0,0.004958938807249069
12.0,0.004638999234884977
13.0,0.004305767361074686
14.0,0.004005579277873039
15.0,0.003643995150923729
16.0,0.0034307194873690605
18.0,0.0032442337833344936
20.0,0.003123493166640401
22.0,0.002940540201961994
24.0,0.0027333248872309923
26.0,0.002598530612885952
28.0,0.002311662072315812
30.0,0.0022499235346913338
32.0,0.0021174009889364243
36.0,0.001469647279009223
40.0,0.0012962706387043
44.0,0.0010804779594764113
48.0,0.001091219368390739
52.0,0.001411894103512168
56.0,0.0012376306112855673
60.0,0.0006152890855446458
64.0,0.0003578223113436252
72.0,0.00027974200202152133
80.0,0.000500234542414546
88.0,0.0008302940404973924
96.0,0.0004361761675681919
104.0,-0.0001949862635228783
112.0,0.00014532142085954547
120.0,0.0003585967351682484
128.0,0.00038982773548923433
144.0,0.0004174969217274338
160.0,0.0005468049203045666
176.0,0.00033972927485592663
192.0,3.510925671434961e-05
208.0,-0.00028751202626153827
224.0,6.688064604531974e-05
240.0,-8.319847984239459e-05
256.0,-0.0002610735537018627
288.0,7.708263183303643e-06
320.0,0.00044979408266954124
352.0,0.0004237228131387383
384.0,6.654203025391325e-05
416.0,-0.0002024547866312787
448.0,-9.831535135162994e-05
480.0,-0.00011006394925061613
512.0,-0.00033053162042051554
576.0,3.7789159250678495e-05
640.0,-0.0003231433511245996
704.0,1.8592908190839808e-06
768.0,-3.618949995143339e-05
832.0,1.809773857530672e-05
896.0,0.00044597036321647465
960.0,8.237786096287891e-05
1024.0,0.0001678341650404036
1152.0,3.9084454328985885e-05
1280.0,0.0003856852708850056
1408.0,-7.795378769515082e-05
1536.0,-0.0003524599887896329
1664.0,0.00047576954239048064
1792.0,-0.0002716077724471688
1920.0,0.0004420821205712855
2048.0,-0.00014927862503100187
2304.0,-0.0004245438030920923
2560.0,0.00017887662397697568
2816.0,-2.826444324455224e-05
3072.0,-2.347952795389574e-05
3328.0,-0.00043525532237254083
3584.0,-0.0002004671114264056
3840.0,5.29809549334459e-05
4096.0,-8.857536886353046e-05
4608.0,-0.00018023622396867722
5120.0,-4.9318598030367866e-05
5632.0,0.00015825111768208444
6144.0,5.96155077801086e-05
6656.0,0.0001720753643894568
7168.0,9.114863496506587e-05
7680.0,-8.780228381510824e-05
8192.0,0.0002227059012511745
9216.0,-0.00012220683856867254
10240.0,0.00022439236636273563
11264.0,-0.0001118953587138094
12288.0,-7.280598947545514e-05
13312.0,-0.0006181256612762809
14336.0,1.371892631141236e-05
end
