version,3.0
numOfCh,1
type,point
parent_name,80-cuts
ch_type,1_1
kcount,1
numberNandB,1
brightnessNandB,1
carpet pos,0
pc,0
Time (ms),CH1 Auto-Correlation
1.0,0.028430594131350517
2.0,0.023453623056411743
3.0,0.019766151905059814
4.0,0.016929099336266518
5.0,0.01475822925567627
6.0,0.01287914626300335
7.0,0.01151880994439125
8.0,0.010428771376609802
9.0,0.00957976933568716
10.0,0.008813081309199333
11.0,0.008219168521463871
12.0,0.007535914890468121
13.0,0.007137652952224016
14.0,0.00653624814003706
15.0,0.00614026328548789
16.0,0.005826578941196203
18.0,0.00540095753967762
20.0,0.004960437770932913
22.0,0.004389641340821981
24.0,0.0038543534465134144
26.0,0.0033796215429902077
28.0,0.0032575156074017286
30.0,0.003250798210501671
32.0,0.0031826302874833345
36.0,0.0027928513009101152
40.0,0.0022885880898684263
44.0,0.0017762784846127033
48.0,0.001870316918939352
52.0,0.0018628985853865743
56.0,0.0015876765828579664
60.0,0.0016981668304651976
64.0,0.0012938216095790267
72.0,0.0014125636080279946
80.0,0.0012354088248685002
88.0,0.0012820324627682567
96.0,0.0014656117418780923
104.0,0.0011196726700291038
112.0,0.0007418469758704305
120.0,-0.00038481599767692387
128.0,0.00047474520397372544
144.0,0.0002802714006975293
160.0,1.781142032086791e-06
176.0,0.00017545538139529526
192.0,-0.00035154205397702754
208.0,-0.0005398595239967108
224.0,0.00033734316821210086
240.0,0.0001265707251150161
256.0,-0.00012308989244047552
288.0,0.0004922097432427108
320.0,6.310428489086917e-06
352.0,-2.8947943064849824e-05
384.0,4.745407932205126e-05
416.0,0.00045320126810111105
448.0,0.00038852065335959196
480.0,0.000523968948982656
512.0,0.0003987305681221187
576.0,0.0014655900886282325
640.0,0.001451128744520247
704.0,-0.00028954946901649237
768.0,0.0006630127318203449
832.0,-0.00039130309596657753
896.0,1.0028409633378033e-05
960.0,-0.0008346771355718374
1024.0,9.37706499826163e-06
1152.0,0.00022231502225622535
1280.0,-0.0005681972834281623
1408.0,-0.00014805742830503732
1536.0,-0.0004908906994387507
1664.0,9.493078687228262e-05
1792.0,0.00044153258204460144
1920.0,-0.000357616605469957
2048.0,-0.0001679673878243193
2304.0,-0.00017495505744591355
2560.0,5.7028362789424136e-05
2816.0,3.097566150245257e-05
3072.0,-0.0001713999081403017
3328.0,0.0007014626171439886
3584.0,0.0003251168236602098
3840.0,0.0001061741349985823
4096.0,0.0003234266769140959
4608.0,-0.0007642535492777824
5120.0,-0.0005601747543551028
5632.0,-0.0001748915674397722
6144.0,-0.00023030875308904797
6656.0,-8.451852045254782e-05
7168.0,0.00015855173114687204
7680.0,-0.00014072640624362975
8192.0,-0.0008335227030329406
9216.0,2.090872476401273e-05
10240.0,0.0005899175885133445
11264.0,-0.00021905491303186864
12288.0,-6.354576180456206e-05
13312.0,0.0004424182989168912
14336.0,-0.00023960570979397744
end
