version,3.0
numOfCh,1
type,point
parent_name,80-cuts
ch_type,1_1
kcount,1
numberNandB,1
brightnessNandB,1
carpet pos,0
pc,0
Time (ms),CH1 Auto-Correlation
1.0,0.018733028322458267
2.0,0.015748485922813416
3.0,0.013582318089902401
4.0,0.011855332180857658
5.0,0.010598781518638134
6.0,0.009621049277484417
7.0,0.008852296508848667
8.0,0.008158699609339237
9.0,0.007637723349034786
10.0,0.007181316148489714
11.0,0.006845932453870773
12.0,0.006506015546619892
13.0,0.006244106683880091
14.0,0.0058968402445316315
15.0,0.005502121988683939
16.0,0.005266555584967136
18.0,0.004798608832061291
20.0,0.0045348163694143295
22.0,0.004334543365985155
24.0,0.004135008901357651
26.0,0.003974985331296921
28.0,0.0035737487487494946
30.0,0.0031127429101616144
32.0,0.0026034971233457327
36.0,0.0022288491018116474
40.0,0.0021485735196620226
44.0,0.0018854531226679683
48.0,0.0016900961054489017
52.0,0.0016517562326043844
56.0,0.0013928291155025363
60.0,0.0010974424658343196
64.0,0.0010839905589818954
72.0,0.001207793946377933
80.0,0.001545469043776393
88.0,0.0017029792070388794
96.0,0.001378379063680768
104.0,0.0007058146293275058
112.0,0.0005059731192886829
120.0,3.5911019949708134e-05
128.0,-0.0002731479180511087
144.0,-3.252413443988189e-05
160.0,0.00017646954802330583
176.0,0.0002703313948586583
192.0,-9.294012124883011e-05
208.0,-0.000556786369998008
224.0,-0.00014310225378721952
240.0,-4.664991138270125e-05
256.0,2.1488704078365117e-05
288.0,-0.0006516350549645722
320.0,-0.00015612201241310686
352.0,0.0001827698724810034
384.0,0.00018452423682902008
416.0,7.215475307020824e-06
448.0,-8.110623457469046e-05
480.0,-0.0004915032186545432
512.0,-0.0008070459589362144
576.0,-0.0003030385996680707
640.0,0.00012142881314503029
704.0,0.0004847819509450346
768.0,-8.39893109514378e-05
832.0,-0.00035514673800207675
896.0,-6.133126589702442e-06
960.0,-0.00013757670240011066
1024.0,-0.0002675662108231336
1152.0,-0.000544483948033303
1280.0,-0.00031782384030520916
1408.0,8.132646325975657e-05
1536.0,7.701206050114706e-05
1664.0,3.1466366635868326e-05
1792.0,-0.0004609110183082521
1920.0,3.4314281947445124e-05
2048.0,0.00010364099580328912
2304.0,-0.0002814902109093964
2560.0,0.0004818868765141815
2816.0,6.925100478838431e-06
3072.0,-0.0003607232647482306
3328.0,-0.0005295672453939915
3584.0,9.363971184939146e-05
3840.0,-9.923099423758686e-05
4096.0,0.0008066422888077796
4608.0,0.00011663908662740141
5120.0,-3.277581708971411e-05
5632.0,-0.00024116247368510813
6144.0,5.2707153372466564e-05
6656.0,-0.0005106471362523735
7168.0,-0.00041183436405844986
7680.0,0.00045743826194666326
8192.0,-8.865157724358141e-05
9216.0,0.00017548103642184287
10240.0,2.5804818506003357e-05
11264.0,-1.7392967492924072e-05
12288.0,-0.00025132682640105486
13312.0,0.0005339377094060183
14336.0,-0.00039465801091864705
end
