version,3.0
numOfCh,1
type,point
parent_name,80-cuts
ch_type,1_1
kcount,1
numberNandB,1
brightnessNandB,1
carpet pos,0
pc,0
Time (ms),CH1 Auto-Correlation
1.0,0.016613740473985672
2.0,0.013741621747612953
3.0,0.011573681607842445
4.0,0.010036990977823734
5.0,0.00881289690732956
6.0,0.00779001647606492
7.0,0.006849552504718304
8.0,0.006120121106505394
9.0,0.005550699774175882
10.0,0.00509199732914567
11.0,0.0047379895113408566
12.0,0.004464002326130867
13.0,0.004132555797696114
14.0,0.003858404466882348
15.0,0.003457237733528018
16.0,0.003231119131669402
18.0,0.002849715296179056
20.0,0.0025800555013120174
22.0,0.0023581674322485924
24.0,0.002052322495728731
26.0,0.0017663381295278668
28.0,0.0017197587294504046
30.0,0.0016404639463871717
32.0,0.0017299428582191467
36.0,0.0014671488897874951
40.0,0.0011331893038004637
44.0,0.0009577842429280281
48.0,0.00083224440459162
52.0,0.0009302495163865387
56.0,0.0009830279741436243
60.0,0.0007826571818441153
64.0,0.000586584908887744
72.0,0.00019359090947546065
80.0,0.00021700258366763592
88.0,0.0004387031658552587
96.0,0.000620941340457648
104.0,0.000839194399304688
112.0,0.0008460092940367758
120.0,0.0008262510527856648
128.0,0.0004937574849463999
144.0,0.0006533260457217693
160.0,0.00022819954028818756
176.0,0.00011375675967428833
192.0,0.00034677007352001965
208.0,0.0004306026385165751
224.0,3.3775879273889586e-05
240.0,-0.0002087648317683488
256.0,-0.0004951327573508024
288.0,-0.000539281580131501
320.0,0.00018890647334046662
352.0,0.0003086904180236161
384.0,0.00014344730880111456
416.0,0.0004116251948289573
448.0,0.0004243363218847662
480.0,0.0002874534984584898
512.0,0.00010913502774201334
576.0,-4.0062484913505614e-05
640.0,-0.00022048568644095212
704.0,0.00014641563757322729
768.0,0.00019249352044425905
832.0,-0.00024134054547175765
896.0,-0.0001420258922735229
960.0,-0.0004341703315731138
1024.0,-0.0005780722131021321
1152.0,3.3739954233169556e-05
1280.0,0.0002914152282755822
1408.0,-2.9896366413595388e-06
1536.0,-0.0003944402269553393
1664.0,-5.0904316594824195e-05
1792.0,0.00022435051505453885
1920.0,0.0004079409409314394
2048.0,-0.00023963504645507783
2304.0,-0.00047265266766771674
2560.0,-0.00032784545328468084
2816.0,-0.00048080392298288643
3072.0,0.0002617739955894649
3328.0,0.000346357497619465
3584.0,2.590891017462127e-05
3840.0,-4.1629224142525345e-05
4096.0,-0.00047826310037635267
4608.0,-9.711403981782496e-05
5120.0,0.00011072852066718042
5632.0,-9.716786007629707e-05
6144.0,-0.00010313377424608916
6656.0,7.153546903282404e-05
7168.0,5.04782801726833e-05
7680.0,0.00038036939804442227
8192.0,0.00042021984700113535
9216.0,-0.00036701138014905155
10240.0,-0.00018072486273013055
11264.0,0.0002070970949716866
12288.0,-0.0001295550464419648
13312.0,-2.2487858586828224e-05
14336.0,0.00013074079470243305
end
