version,3.0
numOfCh,1
type,point
parent_name,80-cuts
ch_type,1_1
kcount,1
numberNandB,1
brightnessNandB,1
carpet pos,0
pc,0
Time (ms),CH1 Auto-Correlation
1.0,0.016846751794219017
2.0,0.013776380568742752
3.0,0.01156566757708788
4.0,0.01012478955090046
5.0,0.008973360061645508
6.0,0.008030254393815994
7.0,0.00724460743367672
8.0,0.006536656059324741
9.0,0.005936339031904936
10.0,0.005421875044703484
11.0,0.005037632770836353
12.0,0.004708966240286827
13.0,0.00445573078468442
14.0,0.004292353522032499
15.0,0.00405598059296608
16.0,0.003921956289559603
18.0,0.0035258608404546976
20.0,0.0029472876340150833
22.0,0.0024902706500142813
24.0,0.0020844785030931234
26.0,0.0018781012622639537
28.0,0.0017430364387109876
30.0,0.0016025882214307785
32.0,0.0013105440884828568
36.0,0.0009221943328157067
40.0,0.0008406444685533643
44.0,0.0007095805485732853
48.0,0.000600539380684495
52.0,0.00013977701019030064
56.0,-0.00020529811445157975
60.0,-0.00040693243499845266
64.0,-0.0006450742948800325
72.0,-0.00046068374649621546
80.0,-0.00027365610003471375
88.0,-0.00048579357098788023
96.0,-0.0004921981017105281
104.0,-0.0003388336335774511
112.0,-0.00048131716903299093
120.0,-0.0006276944186538458
128.0,-0.0002974061935674399
144.0,4.8238198360195383e-05
160.0,0.00015196022286545485
176.0,0.0003373393265064806
192.0,0.0003594996815081686
208.0,0.0010194088099524379
224.0,0.0006662586820311844
240.0,0.000289234914816916
256.0,0.0003388400946278125
288.0,-0.0002812065358739346
320.0,-0.00023652870731893927
352.0,0.00018662193906493485
384.0,0.00016719465202186257
416.0,0.0004832645645365119
448.0,2.7568052246351726e-05
480.0,-0.0001522713719168678
512.0,-0.0003214311436749995
576.0,-0.000684334198012948
640.0,-0.00036034046206623316
704.0,-0.00015196997264865786
768.0,-0.0003647832782007754
832.0,-0.00048041559057310224
896.0,-0.00022492356947623193
960.0,0.0001599310926394537
1024.0,-0.00039562577148899436
1152.0,-0.00014071610348764807
1280.0,0.00023668707581236959
1408.0,0.00015765336866024882
1536.0,-0.0001161555337603204
1664.0,-4.6575212763855234e-05
1792.0,-0.00040735970833338797
1920.0,-0.0002955814416054636
2048.0,-0.00013926949759479612
2304.0,3.5522621146810707e-06
2560.0,0.0002795462205540389
2816.0,0.0002972816291730851
3072.0,-0.00012779218377545476
3328.0,-0.0002245202340418473
3584.0,-0.00026125696604140103
3840.0,-7.368640217464417e-05
4096.0,0.000210163852898404
4608.0,0.00013153222971595824
5120.0,9.676395711721852e-05
5632.0,-5.207467620493844e-05
6144.0,-0.00026258788420818746
6656.0,-0.000154431676492095
7168.0,0.00029749833629466593
7680.0,7.70221377024427e-05
8192.0,-6.139817560324445e-05
9216.0,-0.0001465606619603932
10240.0,2.8293210561969317e-05
11264.0,-9.104057971853763e-05
12288.0,0.0004306745540816337
13312.0,-0.0005361608345992863
14336.0,-0.00010222609125776216
end
