version,3.0
numOfCh,1
type,point
parent_name,80-cuts
ch_type,1_1
kcount,1
numberNandB,1
brightnessNandB,1
carpet pos,0
pc,0
Time (ms),CH1 Auto-Correlation
1.0,0.017482463270425797
2.0,0.014471410773694515
3.0,0.012323644943535328
4.0,0.010772989131510258
5.0,0.009491322562098503
6.0,0.008556345477700233
7.0,0.007843944244086742
8.0,0.007249938324093819
9.0,0.006718465592712164
10.0,0.006321866996586323
11.0,0.005866564344614744
12.0,0.005381385795772076
13.0,0.004862265661358833
14.0,0.004459891468286514
15.0,0.004166293889284134
16.0,0.003982535097748041
18.0,0.0036353953182697296
20.0,0.0033469139598309994
22.0,0.0030346852727234364
24.0,0.002859974279999733
26.0,0.002737381961196661
28.0,0.002624800428748131
30.0,0.0024459101259708405
32.0,0.002205028897151351
36.0,0.0021687126718461514
40.0,0.002082329010590911
44.0,0.0018170092953369021
48.0,0.0013674766523763537
52.0,0.001119893160648644
56.0,0.0008933572098612785
60.0,0.0007033225847408175
64.0,0.0006982659688219428
72.0,0.0006320488173514605
80.0,0.0006171958521008492
88.0,0.0008680170867592096
96.0,0.000952760805375874
104.0,0.001123758964240551
112.0,0.000762749754358083
120.0,0.000725108664482832
128.0,0.0007885762024670839
144.0,0.0006049373769201338
160.0,0.00035556667717173696
176.0,2.262863563373685e-05
192.0,0.00017253476835321635
208.0,-0.00021024486341048032
224.0,-2.7500596843310632e-05
240.0,0.0002802220406010747
256.0,-0.00025136530166491866
288.0,-0.0002472300548106432
320.0,-0.0004140709061175585
352.0,-0.0006588805699720979
384.0,-0.00028961722273379564
416.0,-0.00028081302298232913
448.0,4.9113463319372386e-05
480.0,0.0001099555374821648
512.0,-8.465257269563153e-05
576.0,7.905532402219251e-05
640.0,-0.0002991454384755343
704.0,-0.0005533686489798129
768.0,-0.000268335483269766
832.0,3.097953594988212e-05
896.0,0.00017712621774990112
960.0,1.4936463230696972e-05
1024.0,7.648166501894593e-05
1152.0,-1.7503658455098048e-05
1280.0,-7.082817319314927e-05
1408.0,8.668506779940799e-05
1536.0,-0.0003235699259676039
1664.0,-0.000532248814124614
1792.0,8.273652929347008e-05
1920.0,0.00022063555661588907
2048.0,6.031250086380169e-05
2304.0,-0.00021235896565485746
2560.0,-0.00013503969239536673
2816.0,-0.00015161739429458976
3072.0,-0.00014650978846475482
3328.0,-4.575772618409246e-05
3584.0,-0.00019440740288700908
3840.0,0.00028357826522551477
4096.0,1.3859355021850206e-05
4608.0,-8.895440987544134e-05
5120.0,0.00020766093803104013
5632.0,-0.00013934388698544353
6144.0,0.00016798035358078778
6656.0,-8.924320718506351e-05
7168.0,0.0001730269577819854
7680.0,9.077127288037445e-06
8192.0,-0.00036931034992448986
9216.0,-1.817224438127596e-05
10240.0,0.00012122411862947047
11264.0,0.00017898337682709098
12288.0,-9.505503840046003e-05
13312.0,-3.0412898922804743e-05
14336.0,0.00015526314382441342
end
