version,3.0
numOfCh,1
type,point
parent_name,80-cuts
ch_type,1_1
kcount,1
numberNandB,1
brightnessNandB,1
carpet pos,0
pc,0
Time (ms),CH1 Auto-Correlation
1.0,0.027222251519560814
2.0,0.02243015728890896
3.0,0.01926605775952339
4.0,0.016763444989919662
5.0,0.014794808812439442
6.0,0.013516663573682308
7.0,0.012443853542208672
8.0,0.011297792196273804
9.0,0.010405424982309341
10.0,0.00978095829486847
11.0,0.008900176733732224
12.0,0.008062666282057762
13.0,0.007470731623470783
14.0,0.006941128522157669
15.0,0.006413587834686041
16.0,0.006026147864758968
18.0,0.005491697695106268
20.0,0.004663365893065929
22.0,0.0039624678902328014
24.0,0.003525025909766555
26.0,0.003333098953589797
28.0,0.003027892205864191
30.0,0.002627924783155322
32.0,0.002419781871140003
36.0,0.0019003937486559153
40.0,0.0013375577982515097
44.0,0.0013460793998092413
48.0,0.0015259127831086516
52.0,0.0010433417046442628
56.0,0.0011770502896979451
60.0,0.0013114287285134196
64.0,0.0011042319238185883
72.0,0.0011702412739396095
80.0,0.0009750633616931736
88.0,0.0008460248936899006
96.0,0.0011553600197657943
104.0,0.001335581298917532
112.0,0.0009815196972340345
120.0,0.00136595219373703
128.0,0.0010064305970445275
144.0,0.0007114106556400657
160.0,0.0007318892166949809
176.0,-0.00042723206570371985
192.0,-0.0008422224782407284
208.0,-0.00016547631821595132
224.0,-0.00038318790029734373
240.0,-0.0009956485591828823
256.0,0.00013925220991950482
288.0,-0.0005360153736546636
320.0,-0.00021265668328851461
352.0,-0.0007419039611704648
384.0,-0.0006778148235753179
416.0,-0.00012633831647690386
448.0,6.849442434031516e-05
480.0,-0.00021990985260345042
512.0,0.0010276625398546457
576.0,0.0012653034646064043
640.0,0.0010350905358791351
704.0,0.0005524623556993902
768.0,0.0009645480895414948
832.0,0.0002522281720302999
896.0,-0.00033277468173764646
960.0,-0.0015339988749474287
1024.0,-0.0004698973207268864
1152.0,0.0008387684356421232
1280.0,0.001032752450555563
1408.0,0.00028805321198888123
1536.0,-0.0006714466726407409
1664.0,-0.00022101376089267433
1792.0,0.00018000107957050204
1920.0,6.674635369563475e-05
2048.0,-0.0004994415212422609
2304.0,-0.0002234474814031273
2560.0,7.077643385855481e-05
2816.0,-0.0005595068796537817
3072.0,0.00047164614079520106
3328.0,-0.0008788668783381581
3584.0,0.00014176289550960064
3840.0,0.00016247897292487323
4096.0,-0.0011881747050210834
4608.0,-5.8085988712264225e-05
5120.0,-0.0004780883900821209
5632.0,-0.0003133817226625979
6144.0,-0.00014152875519357622
6656.0,-6.052138996892609e-05
7168.0,0.0001072963495971635
7680.0,1.3801121895085089e-05
8192.0,0.000541871995665133
9216.0,-6.676398334093392e-05
10240.0,-0.0003202101506758481
11264.0,0.00031221791869029403
12288.0,0.0002016308717429638
13312.0,-0.0002095500094583258
14336.0,0.00025380158331245184
end
