version,3.0
numOfCh,1
type,point
parent_name,80-cuts
ch_type,1_1
kcount,1
numberNandB,1
brightnessNandB,1
carpet pos,0
pc,0
Time (ms),CH1 Auto-Correlation
1.0,0.01614655740559101
2.0,0.013234500773251057
3.0,0.011158270761370659
4.0,0.009648758918046951
5.0,0.00831571500748396
6.0,0.00735072698444128
7.0,0.0066718123853206635
8.0,0.006166973151266575
9.0,0.005822173785418272
10.0,0.0054612006060779095
11.0,0.004990166053175926
12.0,0.0047247144393622875
13.0,0.004480492789298296
14.0,0.0042774248868227005
15.0,0.0040444135665893555
16.0,0.0038679074496030807
18.0,0.0034654291812330484
20.0,0.003036350477486849
22.0,0.002566614653915167
24.0,0.0022258504759520292
26.0,0.0019169675651937723
28.0,0.0018209735862910748
30.0,0.0017470753518864512
32.0,0.001495705684646964
36.0,0.0010722305160015821
40.0,0.001093764789402485
44.0,0.0009505246416665614
48.0,0.00092492246767506
52.0,0.0008568427292630076
56.0,0.00082308059791103
60.0,0.0005450789467431605
64.0,0.0005416058120317757
72.0,1.1149485317218932e-06
80.0,6.355242658173665e-05
88.0,-0.00015659980999771506
96.0,-0.00020207141642458737
104.0,-0.0001071705628419295
112.0,4.35957990703173e-05
120.0,0.0004600404354277998
128.0,0.00037282833363860846
144.0,0.00045423864503391087
160.0,0.0007673685904592276
176.0,0.0007030235137790442
192.0,-3.385496529517695e-05
208.0,-0.0005046836449764669
224.0,-0.0004162001423537731
240.0,-0.00044773693662136793
256.0,-0.0004667339089792222
288.0,3.6793091567233205e-05
320.0,8.848252036841586e-05
352.0,0.0005232944386079907
384.0,-0.0003023809695150703
416.0,-0.0004630915937013924
448.0,-0.0002467365702614188
480.0,-0.00018220633501186967
512.0,-0.00011685716162901372
576.0,-0.00013135657354723662
640.0,-7.256436447278247e-07
704.0,-0.0003508141962811351
768.0,6.225057586561888e-05
832.0,1.6611176761216484e-05
896.0,0.000196040200535208
960.0,0.00020308770763222128
1024.0,-0.00012060815060976893
1152.0,0.0001779312005965039
1280.0,0.00011424397234804928
1408.0,0.00015311026072595268
1536.0,-0.00020064011914655566
1664.0,0.00035504440893419087
1792.0,0.0004858464526478201
1920.0,0.00018936516426037997
2048.0,0.00014187069609761238
2304.0,-4.8905600124271587e-05
2560.0,-6.547705561388284e-05
2816.0,1.5240315406117588e-05
3072.0,2.7326275812811218e-05
3328.0,-8.972445357358083e-06
3584.0,-2.0968529952369863e-06
3840.0,-0.00013300061982590705
4096.0,-0.00014773081056773663
4608.0,-0.00020543555729091167
5120.0,1.245226826540602e-06
5632.0,-0.0001582782279001549
6144.0,-0.00029842648655176163
6656.0,-8.065696601988748e-05
7168.0,-1.5350427929661237e-05
7680.0,-0.0002173104148823768
8192.0,1.590934698469937e-05
9216.0,-7.494215969927609e-05
10240.0,4.9133130232803524e-05
11264.0,9.535601748211775e-06
12288.0,0.0001344269112451002
13312.0,6.009898424963467e-05
14336.0,0.00012995146971661597
end
