version,3.0
numOfCh,1
type,point
parent_name,80-cuts
ch_type,1_1
kcount,1
numberNandB,1
brightnessNandB,1
carpet pos,0
pc,0
Time (ms),CH1 Auto-Correlation
1.0,0.01640375889837742
2.0,0.013578708283603191
3.0,0.0114250173792243
4.0,0.009869735687971115
5.0,0.008672438561916351
6.0,0.007668604608625174
7.0,0.0070148347876966
8.0,0.006399053614586592
9.0,0.006001803558319807
10.0,0.00555921858176589
11.0,0.005246729589998722
12.0,0.005107671953737736
13.0,0.0048180827870965
14.0,0.00449755135923624
15.0,0.004373433534055948
16.0,0.004136670846492052
18.0,0.003608239581808448
20.0,0.0031156870536506176
22.0,0.002812783932313323
24.0,0.0027259967755526304
26.0,0.0026071597822010517
28.0,0.0025447227526456118
30.0,0.002522094873711467
32.0,0.0024282271042466164
36.0,0.0021665950771421194
40.0,0.0018647403921931982
44.0,0.0018061493756249547
48.0,0.0016249787295237184
52.0,0.0011762611102312803
56.0,0.0010543615790084004
60.0,0.0010021425550803542
64.0,0.000979808857664466
72.0,0.000642649712972343
80.0,0.0008368658600375056
88.0,0.0009164118091575801
96.0,0.0007366225472651422
104.0,0.0007655545487068594
112.0,0.0007320200675167143
120.0,0.0006979936151765287
128.0,0.00046514629502780735
144.0,-0.00019860744941979647
160.0,-0.0001145058122347109
176.0,-8.435612107859924e-05
192.0,-8.979309495771304e-05
208.0,0.00017087710148189217
224.0,0.00012958103616256267
240.0,-0.00010153918992727995
256.0,-0.00034073798451572657
288.0,-0.0003614130837377161
320.0,-0.0003610140411183238
352.0,-0.00017689021478872746
384.0,0.0001924537937156856
416.0,0.00022883640485815704
448.0,0.00012299914669711143
480.0,0.00026153511134907603
512.0,-0.0005175513797439635
576.0,5.234153650235385e-05
640.0,0.0003812294453382492
704.0,0.00018121111497748643
768.0,0.0004444228543434292
832.0,0.0003917174180969596
896.0,1.9887855160050094e-05
960.0,0.0003252766327932477
1024.0,0.0008075183723121881
1152.0,-0.0003662428935058415
1280.0,-0.00027445057639852166
1408.0,0.000260158529272303
1536.0,-0.0003771506017073989
1664.0,5.060262083134148e-06
1792.0,-4.552141763269901e-05
1920.0,-0.0009295782656408846
2048.0,-0.0001679569249972701
2304.0,7.294682291103527e-05
2560.0,-0.00015999109018594027
2816.0,-0.0002131584769813344
3072.0,-7.716285472270101e-05
3328.0,-1.1383522178221028e-05
3584.0,-9.770951874088496e-05
3840.0,3.855137401842512e-05
4096.0,-0.0003094956337008625
4608.0,-0.0001169223542092368
5120.0,-8.89959937921958e-06
5632.0,0.0001041385403368622
6144.0,0.00022388159413821995
6656.0,0.00011978464317508042
7168.0,-0.0001499686186434701
7680.0,-0.00015953883121255785
8192.0,-0.00015837885439395905
9216.0,0.00018988075316883624
10240.0,-0.00020342314383015037
11264.0,0.00029598857508972287
12288.0,0.0001973138569155708
13312.0,-0.000716094858944416
14336.0,0.00046945878420956433
end
