version,3.0
numOfCh,1
type,point
parent_name,80-cuts
ch_type,1_1
kcount,1
numberNandB,1
brightnessNandB,1
carpet pos,0
pc,0
Time (ms),CH1 Auto-Correlation
1.0,0.027194345369935036
2.0,0.022304609417915344
3.0,0.018866363912820816
4.0,0.01628732681274414
5.0,0.014307038858532906
6.0,0.012492978945374489
7.0,0.011228019371628761
8.0,0.010155925527215004
9.0,0.009113393723964691
10.0,0.008481207303702831
11.0,0.007898091338574886
12.0,0.007372918538749218
13.0,0.006990198511630297
14.0,0.006676907651126385
15.0,0.006036120932549238
16.0,0.005415323190391064
18.0,0.004597392398864031
20.0,0.004111511632800102
22.0,0.0034532786812633276
24.0,0.0029807828832417727
26.0,0.002799718640744686
28.0,0.002856147475540638
30.0,0.0027472025249153376
32.0,0.0028616797644644976
36.0,0.002689298475161195
40.0,0.002179038245230913
44.0,0.002046746900305152
48.0,0.0018346898723393679
52.0,0.001410930184647441
56.0,0.0016179736703634262
60.0,0.001651336089707911
64.0,0.0015471023507416248
72.0,0.0011120858835056424
80.0,0.000519631605129689
88.0,0.0003052271204069257
96.0,0.0010396633297204971
104.0,0.0009170494740828872
112.0,-0.0002910008479375392
120.0,-0.0003201606741640717
128.0,-0.0002124461898347363
144.0,-0.0005496126250363886
160.0,-0.00015251831791829318
176.0,-2.2538848497788422e-05
192.0,0.00018397904932498932
208.0,0.000128120620502159
224.0,0.0001147680522990413
240.0,1.5123496268643066e-05
256.0,0.0003517321601975709
288.0,0.0006749865715391934
320.0,0.000694607209879905
352.0,0.0007902367506176233
384.0,0.0002570006181485951
416.0,0.0008793718297965825
448.0,0.0003967893135268241
480.0,0.00026796176098287106
512.0,0.00025559234200045466
576.0,0.00017317035235464573
640.0,-6.82095778756775e-05
704.0,2.6481347958906554e-05
768.0,0.000303317210637033
832.0,-0.0003534279530867934
896.0,-5.317776231095195e-05
960.0,-0.00032315339194610715
1024.0,-0.0008310535922646523
1152.0,0.00010324051254428923
1280.0,-0.00039188939263112843
1408.0,-0.00021566168288700283
1536.0,-0.0005138562992215157
1664.0,0.00015204696683213115
1792.0,-0.0004974596668034792
1920.0,4.543888280750252e-05
2048.0,-8.68485658429563e-05
2304.0,-0.00027018151013180614
2560.0,-8.050139149418101e-05
2816.0,-0.0003197470505256206
3072.0,0.0001789303933037445
3328.0,-0.00015177862951532006
3584.0,0.00020257095457054675
3840.0,0.00028284272411838174
4096.0,0.0002370928123127669
4608.0,0.00015793762577231973
5120.0,-0.00022276559320744127
5632.0,1.6252775822067633e-05
6144.0,-5.6530443544033915e-05
6656.0,-0.0007078021299093962
7168.0,-0.00032651619403623044
7680.0,0.0001686347386566922
8192.0,-7.670417835470289e-05
9216.0,0.0003673981118481606
10240.0,-0.0007449209806509316
11264.0,0.00028586818370968103
12288.0,0.000360170059138909
13312.0,-0.0003662155650090426
14336.0,0.0005443133995868266
end
