version,3.0
numOfCh,1
type,point
parent_name,80-cuts
ch_type,1_1
kcount,1
numberNandB,1
brightnessNandB,1
carpet pos,0
pc,0
Time (ms),CH1 Auto-Correlation
1.0,0.01618359424173832
2.0,0.013104705139994621
3.0,0.010962930507957935
4.0,0.00948876328766346
5.0,0.008249946869909763
6.0,0.007216248195618391
7.0,0.006386850029230118
8.0,0.005754498299211264
9.0,0.00525039853528142
10.0,0.004748298786580563
11.0,0.004405648913234472
12.0,0.004229854326695204
13.0,0.004069464281201363
14.0,0.0038706304039806128
15.0,0.0036256941966712475
16.0,0.003445468842983246
18.0,0.0030592619441449642
20.0,0.0027356063947081566
22.0,0.0023934391792863607
24.0,0.0020949903409928083
26.0,0.0018752989126369357
28.0,0.0017690106760710478
30.0,0.0015751449391245842
32.0,0.0012908329954370856
36.0,0.0010033936705440283
40.0,0.0009427661425434053
44.0,0.0012131393887102604
48.0,0.0012531185057014227
52.0,0.001176810939796269
56.0,0.0011714440770447254
60.0,0.0009281345410272479
64.0,0.0006706661079078913
72.0,0.00042198775918222964
80.0,0.00010277684486936778
88.0,-0.00048744940431788564
96.0,-0.000710646971128881
104.0,-0.0006172884604893625
112.0,-0.00021587494120467454
120.0,6.948572263354436e-05
128.0,0.000138991090352647
144.0,-0.0004257576656527817
160.0,-0.00028641821700148284
176.0,-0.0004968761932104826
192.0,7.191646727733314e-05
208.0,0.00046882187598384917
224.0,0.0006213404121808708
240.0,0.00029068009462207556
256.0,0.00028482338530011475
288.0,0.0003586823004297912
320.0,0.00048121289000846446
352.0,0.0001954541658051312
384.0,0.00012373278150334954
416.0,-8.55935868457891e-05
448.0,-0.00048013366176746786
480.0,6.7742912506219e-05
512.0,-3.734165147761814e-05
576.0,-0.0002534187806304544
640.0,-0.0003038875584024936
704.0,-0.0003588401013985276
768.0,0.00010746477346401662
832.0,0.00020377975306473672
896.0,0.0002354762254981324
960.0,-0.0006361562991514802
1024.0,-0.0005833510076627135
1152.0,-4.665518645197153e-06
1280.0,0.00026895961491391063
1408.0,-0.00021257151092868298
1536.0,0.0004329310904722661
1664.0,0.0003402987204026431
1792.0,0.00022969796555116773
1920.0,-0.00025036136503331363
2048.0,0.0003173373406752944
2304.0,-0.00030443447758443654
2560.0,0.00013641042460221797
2816.0,6.158008909551427e-05
3072.0,-0.00011493974307086319
3328.0,0.00016488958499394357
3584.0,0.0002738859911914915
3840.0,0.00029122683918103576
4096.0,-0.00012367503950372338
4608.0,-0.00021707438281737268
5120.0,-3.113533966825344e-05
5632.0,0.00013898558972869068
6144.0,-0.0001462405634811148
6656.0,-0.000174339598743245
7168.0,2.624403714435175e-05
7680.0,-0.000107367399323266
8192.0,-0.00015406138845719397
9216.0,-0.00020229672372806817
10240.0,-0.00015573932614643127
11264.0,0.00012707326095551252
12288.0,-0.00029195184470154345
13312.0,0.0003095254360232502
14336.0,6.236238550627604e-05
end
