version,3.0
numOfCh,1
type,point
parent_name,80-cuts
ch_type,1_1
kcount,1
numberNandB,1
brightnessNandB,1
carpet pos,0
pc,0
Time (ms),CH1 Auto-Correlation
1.0,0.016309697180986404
2.0,0.013441854156553745
3.0,0.011344247497618198
4.0,0.009772551245987415
5.0,0.008624695241451263
6.0,0.007591927424073219
7.0,0.006663498934358358
8.0,0.006112304050475359
9.0,0.0054394882172346115
10.0,0.004949469584971666
11.0,0.004526704084128141
12.0,0.0041323197074234486
13.0,0.0038500442169606686
14.0,0.0035972713958472013
15.0,0.003334115259349346
16.0,0.0031411785166710615
18.0,0.0028464640490710735
20.0,0.002559414366260171
22.0,0.002490284852683544
24.0,0.002452325541526079
26.0,0.0023017688654363155
28.0,0.0020256198477
30.0,0.001755477162078023
32.0,0.0014365642564371228
36.0,0.0010473509319126606
40.0,0.0005933561478741467
44.0,0.0005122343427501619
48.0,0.0005952962674200535
52.0,0.0007054667803458869
56.0,0.0006225734250620008
60.0,0.0005290497792884707
64.0,0.0006456596893258393
72.0,0.0006024762406013906
80.0,0.0005709984106943011
88.0,0.0005164547474123538
96.0,0.0006578193278983235
104.0,0.00022689295292366296
112.0,-7.573281618533656e-05
120.0,0.00021985878993291408
128.0,0.00014346811803989112
144.0,-0.0005092185456305742
160.0,-0.0007344376645050943
176.0,-0.0005641067400574684
192.0,-0.00015245849499478936
208.0,0.0004038105544168502
224.0,0.000609521463047713
240.0,0.0004189333412796259
256.0,0.0006337020895443857
288.0,0.0008006877615116537
320.0,0.0003482415049802512
352.0,0.00016724721353966743
384.0,-1.4914247913111467e-05
416.0,-0.0003831590584013611
448.0,-0.0005801922525279224
480.0,0.00016059512563515455
512.0,-6.606087845284492e-05
576.0,-0.00031027509248815477
640.0,-0.0004893412697128952
704.0,-0.00028179839137010276
768.0,-0.00041213020449504256
832.0,0.00021677683980669826
896.0,-0.00022970499412622303
960.0,-0.0004942268133163452
1024.0,-0.00025219659437425435
1152.0,5.378412242862396e-05
1280.0,-0.0003987099917139858
1408.0,0.0002534470404498279
1536.0,4.439899930730462e-05
1664.0,0.0001332027168245986
1792.0,0.00016298909031320363
1920.0,0.00016814030823297799
2048.0,-0.00016148915165103972
2304.0,2.0306404621805996e-05
2560.0,0.00016375069390051067
2816.0,0.000380328216124326
3072.0,-0.0002987748302984983
3328.0,-9.055950795300305e-05
3584.0,-0.00019454729044809937
3840.0,-0.00039244009531103075
4096.0,0.0003073413099627942
4608.0,6.966678483877331e-05
5120.0,-6.586842937394977e-05
5632.0,-0.00011613185779424384
6144.0,-7.219285907922313e-05
6656.0,6.32083356322255e-06
7168.0,-0.00011290658585494384
7680.0,-0.0001523114915471524
8192.0,8.457693184027448e-05
9216.0,-0.0002321626670891419
10240.0,8.052155317272991e-05
11264.0,-0.00013758105342276394
12288.0,-1.8301274394616485e-05
13312.0,0.0002543267619330436
14336.0,6.403080624295399e-05
end
