version,3.0
numOfCh,1
type,point
parent_name,80-cuts
ch_type,1_1
kcount,1
numberNandB,1
brightnessNandB,1
carpet pos,0
pc,0
Time (ms),CH1 Auto-Correlation
1.0,0.01692638173699379
2.0,0.013930066488683224
3.0,0.011709761805832386
4.0,0.01002021785825491
5.0,0.008719495497643948
6.0,0.007605403196066618
7.0,0.0068231550976634026
8.0,0.006254566367715597
9.0,0.005699891597032547
10.0,0.005272392649203539
11.0,0.004857291933149099
12.0,0.004556529223918915
13.0,0.004396846517920494
14.0,0.004173672758042812
15.0,0.004019869491457939
16.0,0.003756861202418804
18.0,0.0033120468724519014
20.0,0.0030135400593280792
22.0,0.0027167650405317545
24.0,0.0025661461986601353
26.0,0.0025027126539498568
28.0,0.0023665628395974636
30.0,0.0020175501704216003
32.0,0.0016409354284405708
36.0,0.0009733534534461796
40.0,0.0007328205392695963
44.0,0.0007774878176860511
48.0,0.0005220427410677075
52.0,0.0005853337934240699
56.0,0.0007750018849037588
60.0,0.0009683054522611201
64.0,0.0008133801748044789
72.0,0.0006600854685530066
80.0,0.0002103609876940027
88.0,8.093773067230359e-05
96.0,0.00031336862593889236
104.0,0.0003089949896093458
112.0,0.0005788676207885146
120.0,0.0006606121896766126
128.0,0.0006375379161909223
144.0,0.0002355308533878997
160.0,0.00034071694244630635
176.0,4.000043190899305e-05
192.0,-3.5081757232546806e-05
208.0,7.852624548831955e-05
224.0,5.735220111091621e-05
240.0,-7.243444269988686e-05
256.0,-0.0006297676591202617
288.0,-0.0005027574370615184
320.0,-4.9461265007266775e-05
352.0,2.064519139821641e-05
384.0,0.00040837604319676757
416.0,0.0002613505639601499
448.0,0.0005756085156463087
480.0,-0.00015803720452822745
512.0,0.00013851840049028397
576.0,0.00032129662577062845
640.0,3.3936645195353776e-05
704.0,-1.5525694834650494e-05
768.0,-0.00035651325015351176
832.0,0.00024770412710495293
896.0,-0.00010213039058726281
960.0,-0.0006472161621786654
1024.0,-0.00017634834512136877
1152.0,-0.0004988484433852136
1280.0,0.0004656992678064853
1408.0,0.0003986089723184705
1536.0,-0.0004944356624037027
1664.0,-0.00020513705385383219
1792.0,0.00025109873968176544
1920.0,0.00018770049791783094
2048.0,-9.36329088290222e-05
2304.0,-0.0002616629935801029
2560.0,0.00015908651403151453
2816.0,-1.5528643416473642e-05
3072.0,0.00033645841176621616
3328.0,0.00016587006393820047
3584.0,0.00014795803872402757
3840.0,-0.00017172640946228057
4096.0,0.0001902033545775339
4608.0,-3.257077332818881e-05
5120.0,-4.38068964285776e-05
5632.0,-0.00026127786259166896
6144.0,3.369491969351657e-05
6656.0,0.00021125480998307467
7168.0,-0.0003656261833384633
7680.0,-2.0209665308357216e-05
8192.0,-2.5040024411282502e-05
9216.0,2.6756450097309425e-05
10240.0,-0.00020739604951813817
11264.0,1.7554363012095564e-06
12288.0,-0.00013613222108688205
13312.0,4.394118514028378e-05
14336.0,-0.00016671439516358078
end
