version,3.0
numOfCh,1
type,point
parent_name,80-cuts
ch_type,1_1
kcount,1
numberNandB,1
brightnessNandB,1
carpet pos,0
pc,0
Time (ms),CH1 Auto-Correlation
1.0,0.016273625195026398
2.0,0.013320154510438442
3.0,0.011173606850206852
4.0,0.009568775072693825
5.0,0.00838877260684967
6.0,0.007394285406917334
7.0,0.006560441572219133
8.0,0.005974354688078165
9.0,0.005472288466989994
10.0,0.0049938904121518135
11.0,0.004666486755013466
12.0,0.004183382261544466
13.0,0.003907928708940744
14.0,0.003551362780854106
15.0,0.0032552138436585665
16.0,0.0028366842307150364
18.0,0.0024188836105167866
20.0,0.0020217832643538713
22.0,0.0017800037749111652
24.0,0.0018236736068502069
26.0,0.001864635618403554
28.0,0.0016895303269848228
30.0,0.0016895467415452003
32.0,0.0017798107583075762
36.0,0.001593535183928907
40.0,0.0016332661034539342
44.0,0.0015312483301386237
48.0,0.0013982522068545222
52.0,0.001149376155808568
56.0,0.0013767315540462732
60.0,0.0012572517152875662
64.0,0.0011288817040622234
72.0,0.00117576215416193
80.0,0.0009682291420176625
88.0,0.0008477474329993129
96.0,0.0004379406454972923
104.0,0.0005734764854423702
112.0,0.0004439581243786961
120.0,0.0003560746554285288
128.0,0.00044328716467134655
144.0,0.0004838861641474068
160.0,0.0009038758580572903
176.0,0.00019765301840379834
192.0,0.00022334812092594802
208.0,7.515426841564476e-05
224.0,-0.00011675123096210882
240.0,6.956413562875241e-05
256.0,-0.00011486720177344978
288.0,-0.0002593250246718526
320.0,-0.00012919637083541602
352.0,0.0003000033611897379
384.0,0.00032241930603049695
416.0,0.0003463913453742862
448.0,0.000715683912858367
480.0,0.00018644779629539698
512.0,0.0008320070337504148
576.0,0.0005954719381406903
640.0,0.0005391956074163318
704.0,0.0006670620059594512
768.0,0.0005794593598693609
832.0,0.00021280712098814547
896.0,9.344235149910673e-05
960.0,0.0004113896284252405
1024.0,0.00040086181252263486
1152.0,0.00035585075966082513
1280.0,0.00014115894737187773
1408.0,-8.938262180890888e-05
1536.0,0.00034847293864004314
1664.0,-6.415736424969509e-05
1792.0,0.00019936650642193854
1920.0,-0.0002939676633104682
2048.0,-0.00015880116552580148
2304.0,1.1307820386718959e-05
2560.0,8.126676402753219e-05
2816.0,-2.688074528123252e-05
3072.0,-6.382919673342258e-05
3328.0,-0.00013155172928236425
3584.0,-0.00023871217854321003
3840.0,0.0004039653285872191
4096.0,-0.000314360047923401
4608.0,-0.00014976235979702324
5120.0,-3.3590422390261665e-05
5632.0,-0.0004387508088257164
6144.0,-0.0006537451408803463
6656.0,-0.00013979525829199702
7168.0,-0.00010165806452278048
7680.0,1.8507244021748193e-05
8192.0,-0.00016984774265438318
9216.0,-0.0005334803718142211
10240.0,-0.00036854809150099754
11264.0,0.00018588996317703277
12288.0,0.000917955650947988
13312.0,0.00026657001581043005
14336.0,0.00010492640285519883
end
