version,3.0
numOfCh,1
type,point
parent_name,80-cuts
ch_type,1_1
kcount,1
numberNandB,1
brightnessNandB,1
carpet pos,0
pc,0
Time (ms),CH1 Auto-Correlation
1.0,0.026469849050045013
2.0,0.02141798846423626
3.0,0.017989814281463623
4.0,0.015562411397695541
5.0,0.013725546188652515
6.0,0.01203708816319704
7.0,0.010475187562406063
8.0,0.009294785559177399
9.0,0.008573207072913647
10.0,0.007864411920309067
11.0,0.0070899901911616325
12.0,0.0065697794780135155
13.0,0.0061501991003751755
14.0,0.0056079840287566185
15.0,0.005167827475816011
16.0,0.0047990973107516766
18.0,0.004192792344838381
20.0,0.0039565120823681355
22.0,0.003645310178399086
24.0,0.0032515362836420536
26.0,0.0028848808724433184
28.0,0.002594060031697154
30.0,0.0025062724016606808
32.0,0.0024376173969358206
36.0,0.0023561366833746433
40.0,0.0021119422744959593
44.0,0.0017195180989801884
48.0,0.001506876084022224
52.0,0.001222452032379806
56.0,0.0012453929521143436
60.0,0.0008793721790425479
64.0,0.0008074684301391244
72.0,0.0005683917552232742
80.0,0.00029949311283417046
88.0,0.00010950792784569785
96.0,-0.0004384893109090626
104.0,6.828182085882872e-05
112.0,-0.0004057904880028218
120.0,-0.000518391898367554
128.0,-0.0005208304501138628
144.0,-0.0005331527790986001
160.0,-6.898627179907635e-05
176.0,0.00022473475837614387
192.0,0.000919250538572669
208.0,0.0005157111445441842
224.0,0.0011144591262564063
240.0,0.0005083528230898082
256.0,0.0004443334764800966
288.0,7.134912448236719e-05
320.0,0.0005350034334696829
352.0,0.0001292227243538946
384.0,0.0002877878141589463
416.0,-0.0003888860810548067
448.0,-0.0007175399223342538
480.0,-0.0012637566542252898
512.0,-0.0007876729359850287
576.0,-0.0007725266041234136
640.0,0.00023883674293756485
704.0,-0.00025891506811603904
768.0,-0.00031825716723687947
832.0,-8.888002776075155e-05
896.0,-8.539598638890311e-05
960.0,-0.0003182886284776032
1024.0,-0.00025996071053668857
1152.0,-0.0007296595140360296
1280.0,-0.00012079078442184255
1408.0,-0.00023331040574703366
1536.0,-0.0004059540224261582
1664.0,-0.0006276987842284143
1792.0,-0.0005693740677088499
1920.0,-8.33655140013434e-05
2048.0,0.0005423059919849038
2304.0,0.00046316225780174136
2560.0,8.806433470454067e-05
2816.0,0.00022095874010119587
3072.0,-0.00013611026224680245
3328.0,8.325808448716998e-05
3584.0,0.0003249203728046268
3840.0,-0.0003284203994553536
4096.0,-0.00022968201665207744
4608.0,-2.7701105864252895e-05
5120.0,6.089809176046401e-05
5632.0,-7.464327791240066e-05
6144.0,-7.678413385292515e-05
6656.0,3.311529508209787e-05
7168.0,0.00023084350686986
7680.0,-1.184783559438074e-05
8192.0,3.837858093902469e-05
9216.0,0.00020939245587214828
10240.0,-2.2139770408102777e-06
11264.0,-0.0005890995962545276
12288.0,0.0008383459644392133
13312.0,-0.000812528480309993
14336.0,0.00044742951286025345
end
