version,3.0
numOfCh,1
type,point
parent_name,80-cuts
ch_type,1_1
kcount,1
numberNandB,1
brightnessNandB,1
carpet pos,0
pc,0
Time (ms),CH1 Auto-Correlation
1.0,0.027399010956287384
2.0,0.022431228309869766
3.0,0.018872413784265518
4.0,0.016313305124640465
5.0,0.01425484474748373
6.0,0.012593686580657959
7.0,0.011307972483336926
8.0,0.010251592844724655
9.0,0.009473509155213833
10.0,0.008705992251634598
11.0,0.008097261190414429
12.0,0.0074800350703299046
13.0,0.006995207164436579
14.0,0.0065627628937363625
15.0,0.006265290081501007
16.0,0.006070047616958618
18.0,0.00568531034514308
20.0,0.00521110137924552
22.0,0.004784923046827316
24.0,0.004279072396457195
26.0,0.003447887720540166
28.0,0.003071612911298871
30.0,0.002663528546690941
32.0,0.0023926892317831516
36.0,0.0023857681080698967
40.0,0.0021583768539130688
44.0,0.002214153530076146
48.0,0.002168536651879549
52.0,0.00194090127479285
56.0,0.0021894483361393213
60.0,0.002357356483116746
64.0,0.001848426996730268
72.0,0.0012354475911706686
80.0,0.0013748053461313248
88.0,0.0011155619286000729
96.0,0.0007479913183487952
104.0,0.0005048445891588926
112.0,0.0009232610464096069
120.0,0.0005495588411577046
128.0,0.000726057798601687
144.0,0.0007996324566192925
160.0,-0.0001910985738504678
176.0,-0.00011084228026447818
192.0,-0.00014771589485462755
208.0,-9.392394713358954e-05
224.0,0.00028717247187159956
240.0,-0.0002169421932194382
256.0,-0.0007255433010868728
288.0,0.0004064181412104517
320.0,0.0008154346141964197
352.0,-0.00023607228649780154
384.0,-0.00019997092022094876
416.0,-0.00013241653505247086
448.0,2.397935531917028e-05
480.0,-0.0007984499679878354
512.0,-0.000466332450741902
576.0,0.0001107655989471823
640.0,0.0008291443809866905
704.0,0.0005768996779806912
768.0,0.0008931572083383799
832.0,0.0007998066721484065
896.0,0.00014575982640963048
960.0,-3.156526872771792e-05
1024.0,-0.0003055982233490795
1152.0,0.0003411677316762507
1280.0,5.190670708543621e-05
1408.0,6.09205017099157e-05
1536.0,0.00015673584130126983
1664.0,-0.0003516535216476768
1792.0,0.00025292200734838843
1920.0,0.0003839432029053569
2048.0,-3.733522680704482e-05
2304.0,-0.00019113016605842859
2560.0,4.264849121682346e-05
2816.0,-0.00033310928847640753
3072.0,-9.517488251731265e-06
3328.0,0.0003043973702006042
3584.0,1.144064935942879e-05
3840.0,0.0001384094648528844
4096.0,0.00018252895097248256
4608.0,0.00026998730027116835
5120.0,5.427203359431587e-05
5632.0,0.0001412321289535612
6144.0,-9.163513459498063e-05
6656.0,-0.0003392487997189164
7168.0,-0.0004457627364899963
7680.0,0.00043426023330539465
8192.0,-0.0005678986781276762
9216.0,7.385790377156809e-05
10240.0,-0.0003811674250755459
11264.0,-0.0005372741143219173
12288.0,-0.0007367373909801245
13312.0,-5.843005419592373e-05
14336.0,-0.0008343820227310061
end
