version,3.0
numOfCh,1
type,point
parent_name,80-cuts
ch_type,1_1
kcount,1
numberNandB,1
brightnessNandB,1
carpet pos,0
pc,0
Time (ms),CH1 Auto-Correlation
1.0,0.017194997519254684
2.0,0.014280689880251884
3.0,0.012180991470813751
4.0,0.010604728013277054
5.0,0.00940241664648056
6.0,0.00836842693388462
7.0,0.00757529865950346
8.0,0.0070333415642380714
9.0,0.006524290889501572
10.0,0.005984213203191757
11.0,0.005497174337506294
12.0,0.005116516724228859
13.0,0.004789351020008326
14.0,0.0044985306449234486
15.0,0.0042972443625330925
16.0,0.004021364729851484
18.0,0.0036105536855757236
20.0,0.003159083891659975
22.0,0.0027763971593230963
24.0,0.0024895386304706335
26.0,0.0023092026822268963
28.0,0.0022066531237214804
30.0,0.0019505395321175456
32.0,0.0016236763913184404
36.0,0.001400580396875739
40.0,0.001439237268641591
44.0,0.0014982267748564482
48.0,0.0012911754893139005
52.0,0.0010256841778755188
56.0,0.001205325941555202
60.0,0.0010139928199350834
64.0,0.0008334782905876637
72.0,0.0004933271557092667
80.0,0.00010013586143031716
88.0,1.1662754332064651e-05
96.0,0.00017757092427928
104.0,9.220025094691664e-05
112.0,-3.864332757075317e-05
120.0,0.0005458996747620404
128.0,0.00044607286690734327
144.0,0.0004462902434170246
160.0,0.0006398155819624662
176.0,0.0006433726521208882
192.0,0.0007357423892244697
208.0,0.0009323259582743049
224.0,0.0008032283512875438
240.0,0.0004788259684573859
256.0,0.00011370582797098905
288.0,-0.0006706879939883947
320.0,-0.000502436887472868
352.0,-0.00010250418563373387
384.0,4.1680636059027165e-05
416.0,-0.00014109074254520237
448.0,-0.00034563051303848624
480.0,0.000131417196826078
512.0,-9.512911492493004e-05
576.0,0.00010849948739632964
640.0,8.43708767206408e-06
704.0,-0.00026524189161136746
768.0,-0.0002636823628563434
832.0,-0.00025500301853753626
896.0,-0.00043289762106724083
960.0,0.00018987123621627688
1024.0,6.48411296424456e-05
1152.0,-4.1945395423681475e-07
1280.0,-0.0005886170547455549
1408.0,-0.00015937525313347578
1536.0,8.777937182458118e-05
1664.0,-7.357406138908118e-05
1792.0,-9.175261948257685e-05
1920.0,-0.00012954496196471155
2048.0,-0.0001303076569456607
2304.0,5.9950358263449743e-05
2560.0,0.0005885863211005926
2816.0,2.8306008971412666e-05
3072.0,0.000435309368185699
3328.0,3.495837518130429e-05
3584.0,-0.00013687333557754755
3840.0,-0.0002211192186223343
4096.0,-0.0005542958970181644
4608.0,0.00038006785325706005
5120.0,-3.6145225749351084e-05
5632.0,-2.6584968509268947e-05
6144.0,-0.0002161272568628192
6656.0,-3.293450936325826e-05
7168.0,0.0002007650473387912
7680.0,3.134799044346437e-05
8192.0,-0.0002348032867303118
9216.0,7.225554873002693e-05
10240.0,-9.129528189077973e-05
11264.0,-0.00012722906831186265
12288.0,0.00014856648340355605
13312.0,-0.00013870610564481467
14336.0,6.832122835476184e-06
end
