version,3.0
numOfCh,1
type,point
parent_name,80-cuts
ch_type,1_1
kcount,1
numberNandB,1
brightnessNandB,1
carpet pos,0
pc,0
Time (ms),CH1 Auto-Correlation
1.0,0.024652931839227676
2.0,0.019806263968348503
3.0,0.01657707989215851
4.0,0.014144334010779858
5.0,0.012111667543649673
6.0,0.010478565469384193
7.0,0.009246144443750381
8.0,0.00830002035945654
9.0,0.007420759182423353
10.0,0.006789350416511297
11.0,0.006285438314080238
12.0,0.005905661266297102
13.0,0.0054966164752841
14.0,0.005118048284202814
15.0,0.0048674182035028934
16.0,0.004510025028139353
18.0,0.0036371757742017508
20.0,0.0028419087175279856
22.0,0.0024062113370746374
24.0,0.002267044736072421
26.0,0.0020683598704636097
28.0,0.001916147186420858
30.0,0.001804964616894722
32.0,0.001546712825074792
36.0,0.0012807759921997786
40.0,0.0013865564251318574
44.0,0.0012152304407209158
48.0,0.0012639302294701338
52.0,0.0013150559971109033
56.0,0.001257391762919724
60.0,0.0008437228971160948
64.0,0.00034236794454045594
72.0,0.0002969285997096449
80.0,-2.2868242012918927e-05
88.0,-0.00011026755237253383
96.0,-0.0004352307296358049
104.0,-0.0002925728331319988
112.0,-0.0005752754514105618
120.0,-0.0011287969537079334
128.0,-0.0012189717963337898
144.0,-0.0014817368937656283
160.0,-0.0013360115699470043
176.0,-0.0008237911970354617
192.0,-8.468140731565654e-05
208.0,-0.00025350137730129063
224.0,0.0008691983530297875
240.0,0.0010363241890445352
256.0,0.0005147815681993961
288.0,0.00012050877558067441
320.0,-0.00041845475789159536
352.0,-0.0013214251957833767
384.0,-0.0010207132436335087
416.0,-0.0008299457258544862
448.0,9.041126759257168e-05
480.0,0.00018363130220677704
512.0,0.000947405700571835
576.0,0.0006077190628275275
640.0,-0.00010929508425761014
704.0,8.397165402129758e-06
768.0,0.000567939889151603
832.0,0.0001890484563773498
896.0,-0.0006460744771175086
960.0,-0.0009864697931334376
1024.0,-0.0006447294726967812
1152.0,-0.0001346612989436835
1280.0,0.00038378845783881843
1408.0,-0.00011377635382814333
1536.0,0.0002351567818550393
1664.0,-0.0004143736441619694
1792.0,0.00021244559320621192
1920.0,0.0002508436155039817
2048.0,-0.0004412112757563591
2304.0,-2.2043670924176695e-06
2560.0,9.085919737117365e-05
2816.0,-0.00025136000476777554
3072.0,0.00022708838514517993
3328.0,-0.00011515989172039554
3584.0,-9.745719580678269e-05
3840.0,-2.5716017262311652e-05
4096.0,9.166845848085359e-05
4608.0,0.00021372867922764271
5120.0,-8.481110853608698e-05
5632.0,0.00012081715976819396
6144.0,0.00020877733186352998
6656.0,-0.00048477135715074837
7168.0,-2.4500661311321892e-05
7680.0,0.00022758876730222255
8192.0,-0.00017738676979206502
9216.0,5.9483369113877416e-05
10240.0,9.292058530263603e-05
11264.0,-0.00020644110918510705
12288.0,-9.87425446510315e-05
13312.0,0.00021578419546131045
14336.0,-2.3269465600606054e-05
end
