version,3.0
numOfCh,1
type,point
parent_name,80-cuts
ch_type,1_1
kcount,1
numberNandB,1
brightnessNandB,1
carpet pos,0
pc,0
Time (ms),CH1 Auto-Correlation
1.0,0.02628498710691929
2.0,0.021417157724499702
3.0,0.018094906583428383
4.0,0.01555870845913887
5.0,0.013808906078338623
6.0,0.012392175383865833
7.0,0.011168182827532291
8.0,0.010098114609718323
9.0,0.00918894074857235
10.0,0.008327865973114967
11.0,0.0075902072712779045
12.0,0.006931875366717577
13.0,0.006208053790032864
14.0,0.005671405233442783
15.0,0.005004522856324911
16.0,0.004449510481208563
18.0,0.0037228716537356377
20.0,0.0031758779659867287
22.0,0.0027544160839170218
24.0,0.002619128441438079
26.0,0.0023880046792328358
28.0,0.0023021164815872908
30.0,0.002048347145318985
32.0,0.0017638375284150243
36.0,0.0013245632871985435
40.0,0.0011305214138701558
44.0,0.0006547877565026283
48.0,0.0004443801590241492
52.0,2.3296261133509688e-05
56.0,6.994828436290845e-05
60.0,-0.0001114610640797764
64.0,-0.000218267654418014
72.0,-3.609095438150689e-05
80.0,-9.103008778765798e-05
88.0,-0.00031284167198464274
96.0,4.48344144388102e-05
104.0,0.00048322949442081153
112.0,0.0006180829368531704
120.0,0.000540217210073024
128.0,0.0006626859540119767
144.0,0.0006455688853748143
160.0,0.0010466548847034574
176.0,0.00040542034548707306
192.0,3.842367368633859e-05
208.0,0.0005532182985916734
224.0,-7.33023407519795e-05
240.0,0.0004070241702720523
256.0,0.00023040753148961812
288.0,0.0002932200441136956
320.0,0.0001718028070172295
352.0,-0.0007987924036569893
384.0,2.3549024263047613e-05
416.0,-0.00016673693608026952
448.0,-0.0009340739925391972
480.0,-4.164918573223986e-05
512.0,0.00014896798529662192
576.0,-4.348092988948338e-05
640.0,-0.0003203370433766395
704.0,-0.00045567075721919537
768.0,0.0008417334174737334
832.0,-8.750245615374297e-05
896.0,0.00037669867742806673
960.0,-6.319203384919092e-05
1024.0,-3.373347135493532e-05
1152.0,-3.104218922089785e-05
1280.0,-7.276053656823933e-05
1408.0,-0.0006056692800484598
1536.0,-0.00030487930052913725
1664.0,-3.525695501593873e-05
1792.0,0.00036430894397199154
1920.0,0.00023023108951747417
2048.0,7.636435475433245e-05
2304.0,-2.4672495783306658e-05
2560.0,-0.0003277601790614426
2816.0,8.046784205362201e-05
3072.0,-7.092866871971637e-05
3328.0,-0.00014657834253739566
3584.0,-0.0005321282660588622
3840.0,3.294008638476953e-05
4096.0,-0.00013997247151564807
4608.0,-2.9948761948617175e-05
5120.0,8.414461626671255e-05
5632.0,-0.0005756635218858719
6144.0,-0.0001213788564200513
6656.0,-0.00025319005362689495
7168.0,0.0003666388802230358
7680.0,0.000445040175691247
8192.0,0.00010283249139320105
9216.0,9.529423550702631e-05
10240.0,-1.2325534953561146e-05
11264.0,-0.0002676209551282227
12288.0,0.0003234721370972693
13312.0,-0.00043372236541472375
14336.0,-0.00026534165954217315
end
