version,3.0
numOfCh,1
type,point
parent_name,80-cuts
ch_type,1_1
kcount,1
numberNandB,1
brightnessNandB,1
carpet pos,0
pc,0
Time (ms),CH1 Auto-Correlation
1.0,0.016226990148425102
2.0,0.013201943598687649
3.0,0.010945355519652367
4.0,0.009273871779441833
5.0,0.008059372194111347
6.0,0.007045746315270662
7.0,0.0062857260927557945
8.0,0.005609253887087107
9.0,0.005054523702710867
10.0,0.004580020904541016
11.0,0.004179201554507017
12.0,0.0038320482708513737
13.0,0.003523699939250946
14.0,0.003295828588306904
15.0,0.0029372849967330694
16.0,0.0027229543775320053
18.0,0.0024396718945354223
20.0,0.002139035612344742
22.0,0.0019105408573523164
24.0,0.001648187404498458
26.0,0.0015168428653851151
28.0,0.0015489698853343725
30.0,0.001457682577893138
32.0,0.0013963541714474559
36.0,0.0015034446259960532
40.0,0.0015426327008754015
44.0,0.0013387628132477403
48.0,0.0008900186512619257
52.0,0.0004914432065561414
56.0,0.00045966767356731
60.0,0.0003220552462153137
64.0,0.00015496455307584256
72.0,0.00018113109399564564
80.0,0.00010927388211712241
88.0,0.00010629051394062117
96.0,0.0002664623025339097
104.0,0.00036732482840307057
112.0,0.00015589548274874687
120.0,0.00011193431419087574
128.0,0.00045397563371807337
144.0,0.0003190205607097596
160.0,-7.529731374233961e-05
176.0,0.0003126673400402069
192.0,-4.49009494332131e-05
208.0,-5.8161767810815945e-05
224.0,0.00028658576775342226
240.0,0.00013660197146236897
256.0,-0.0005334783927537501
288.0,3.1890260288491845e-05
320.0,0.0002731282147578895
352.0,0.0002213999832747504
384.0,-0.00012485931802075356
416.0,-0.0008456693030893803
448.0,-0.0005361457588151097
480.0,-0.0005206048372201622
512.0,-0.0004068934067618102
576.0,-1.1328853588565835e-06
640.0,0.00024155726714525372
704.0,-0.00015205085219349712
768.0,0.00041655931272543967
832.0,0.00041341452742926776
896.0,0.00039678512257523835
960.0,0.0002444073325023055
1024.0,-8.424637599091511e-06
1152.0,-0.00013245925947558135
1280.0,-0.00019937678007408977
1408.0,4.23264064011164e-05
1536.0,0.00015237831394188106
1664.0,1.9712802895810455e-05
1792.0,2.2052114218240604e-05
1920.0,-0.00021325095440261066
2048.0,9.359770774608478e-05
2304.0,-2.5468338208156638e-05
2560.0,-0.00023530625912826508
2816.0,-0.00010867700621020049
3072.0,0.00014150625793263316
3328.0,-0.0003216660115867853
3584.0,-0.000107933024992235
3840.0,0.00011999581329291686
4096.0,-0.00020238026627339423
4608.0,6.851652869954705e-06
5120.0,-0.00020014026085846126
5632.0,7.467091927537695e-05
6144.0,-0.00018852473294828087
6656.0,0.00010956484766211361
7168.0,-0.00017708340601529926
7680.0,0.00012721764505840838
8192.0,-5.8524172345642e-05
9216.0,5.701958070858382e-05
10240.0,5.850972593179904e-05
11264.0,-2.2989850549492985e-05
12288.0,3.322379052406177e-05
13312.0,1.91477156477049e-05
14336.0,-1.5697058188379742e-05
end
