version,3.0
numOfCh,1
type,point
parent_name,80-cuts
ch_type,1_1
kcount,1
numberNandB,1
brightnessNandB,1
carpet pos,0
pc,0
Time (ms),CH1 Auto-Correlation
1.0,0.014777001924812794
2.0,0.011853919364511967
3.0,0.009850881062448025
4.0,0.008400903083384037
5.0,0.0073202685452997684
6.0,0.006356011610478163
7.0,0.005658451002091169
8.0,0.005069397855550051
9.0,0.004462899174541235
10.0,0.003957976587116718
11.0,0.0035790707916021347
12.0,0.00330916466191411
13.0,0.003044456709176302
14.0,0.0029223142191767693
15.0,0.002694991882890463
16.0,0.002538353903219104
18.0,0.002262563444674015
20.0,0.0020763396751135588
22.0,0.001741491723805666
24.0,0.0013230948243290186
26.0,0.0009488966315984726
28.0,0.0009842985309660435
30.0,0.0009604960796423256
32.0,0.0009210542193613946
36.0,0.0010743121383711696
40.0,0.0009980322793126106
44.0,0.001009961124509573
48.0,0.0008079870603978634
52.0,0.0007420495967380702
56.0,0.0004748506471514702
60.0,0.00027743043028749526
64.0,0.00018283698591403663
72.0,0.0001554645859869197
80.0,0.0004010096308775246
88.0,0.0007382006733678281
96.0,0.0007916879840195179
104.0,0.0007995674968697131
112.0,0.0007292691734619439
120.0,0.00025294278748333454
128.0,0.0002898738603107631
144.0,0.00023019305081106722
160.0,9.03114487300627e-05
176.0,-0.00011725637887138873
192.0,-0.000208414247026667
208.0,4.0376784454565495e-05
224.0,-0.0004163138510193676
240.0,-0.0001821024197852239
256.0,-0.00014556729001924396
288.0,0.00023163606238085777
320.0,0.0002789033460430801
352.0,-3.834364906651899e-05
384.0,-5.4197913414100185e-05
416.0,0.00020966387819498777
448.0,-0.0002779597125481814
480.0,-0.0005446428549475968
512.0,-0.00011052851914428174
576.0,-0.0006203937227837741
640.0,-0.0001850045518949628
704.0,4.079609880136559e-06
768.0,0.00013998411304783076
832.0,0.0005171086522750556
896.0,6.0729867982445285e-05
960.0,0.00035822365316562355
1024.0,2.338890226383228e-05
1152.0,-0.00012572272680699825
1280.0,-0.0003155659942422062
1408.0,-0.0004727030172944069
1536.0,-2.9884929972467944e-05
1664.0,6.54148097964935e-05
1792.0,4.9439822760177776e-05
1920.0,1.9327184418216348e-05
2048.0,0.00011332095164107159
2304.0,7.367836951743811e-05
2560.0,-0.0002459910756442696
2816.0,7.26415091776289e-05
3072.0,-0.0001943593379110098
3328.0,-0.0003524152562022209
3584.0,0.0002763989323284477
3840.0,5.4896052461117506e-05
4096.0,1.0226279300695751e-05
4608.0,-5.584414248005487e-05
5120.0,-3.183036096743308e-05
5632.0,-0.00013004825450479984
6144.0,0.00014779536286368966
6656.0,0.0002657950681168586
7168.0,6.411631329683587e-05
7680.0,-6.884022877784446e-05
8192.0,-5.114187297294848e-05
9216.0,-0.00018982012988999486
10240.0,-9.535315257380717e-06
11264.0,-5.849075751029886e-05
12288.0,-4.653059659176506e-05
13312.0,0.0001437639439245686
14336.0,6.608699186472222e-05
end
