version,3.0
numOfCh,1
type,point
parent_name,80-cuts
ch_type,1_1
kcount,1
numberNandB,1
brightnessNandB,1
carpet pos,0
pc,0
Time (ms),CH1 Auto-Correlation
1.0,0.015785349532961845
2.0,0.012928339652717113
3.0,0.010929310694336891
4.0,0.009334714151918888
5.0,0.008109644055366516
6.0,0.007200136315077543
7.0,0.006346171721816063
8.0,0.005697366315871477
9.0,0.005181899294257164
10.0,0.0047399369068443775
11.0,0.004353201948106289
12.0,0.004109279252588749
13.0,0.003885159967467189
14.0,0.0038059966173022985
15.0,0.0036041908897459507
16.0,0.003419440006837249
18.0,0.003031328087672591
20.0,0.002721130847930908
22.0,0.00252480898052454
24.0,0.0023348189424723387
26.0,0.002218868350610137
28.0,0.0018622183706611395
30.0,0.001545622362755239
32.0,0.0012969690142199397
36.0,0.0009067903738468885
40.0,0.0007034034351818264
44.0,0.0004994947812519968
48.0,0.0004564294940792024
52.0,0.0004374970158096403
56.0,0.0003475347184576094
60.0,0.00032424097298644483
64.0,0.0002934169315267354
72.0,0.0001380193280056119
80.0,0.000688670901581645
88.0,0.0008053237688727677
96.0,0.0009234691970050335
104.0,0.0006502881878986955
112.0,0.00040669203735888004
120.0,0.0005999848362989724
128.0,0.0001174914141301997
144.0,-6.720148667227477e-05
160.0,-0.00010938481136690825
176.0,-8.077712664089631e-06
192.0,0.0003351328778080642
208.0,0.00027452356880530715
224.0,1.671215613896493e-05
240.0,-6.521249451907352e-05
256.0,1.177489320980385e-05
288.0,0.0003797764074988663
320.0,0.0003077755682170391
352.0,0.0002599417348392308
384.0,-4.632126001524739e-05
416.0,-5.222190884524025e-05
448.0,-0.00024001429846975952
480.0,-0.0002808887220453471
512.0,-0.0001597514346940443
576.0,0.0002626103814691305
640.0,5.666512515745126e-05
704.0,9.947870421456173e-05
768.0,-3.565471706679091e-05
832.0,-0.0005187194910831749
896.0,-5.744759982917458e-05
960.0,-0.000502794049680233
1024.0,-0.0003536720760166645
1152.0,-0.00016605279233772308
1280.0,0.00011201894812984392
1408.0,0.00013331373338587582
1536.0,-0.00024085868790280074
1664.0,-0.0004001911438535899
1792.0,-4.384704880067147e-05
1920.0,-1.6447476809844375e-05
2048.0,-0.0001043723095790483
2304.0,0.00016999983927235007
2560.0,0.0001448602561140433
2816.0,5.023141420679167e-05
3072.0,-0.0002984394377563149
3328.0,-0.0003125815710518509
3584.0,0.00021004719019401819
3840.0,0.0001815778814489022
4096.0,-4.541083035292104e-05
4608.0,-0.00023079309903550893
5120.0,-6.222509546205401e-05
5632.0,-0.00037467852234840393
6144.0,0.0002333713200641796
6656.0,1.3012115232413635e-05
7168.0,0.00025089498376473784
7680.0,-4.0174425521399826e-05
8192.0,-0.0001177809972432442
9216.0,-0.00010181478864978999
10240.0,0.0002639781159814447
11264.0,-0.00016885471995919943
12288.0,2.511659658921417e-05
13312.0,7.399758760584518e-05
14336.0,-9.784098801901564e-05
end
