version,3.0
numOfCh,1
type,point
parent_name,80-cuts
ch_type,1_1
kcount,1
numberNandB,1
brightnessNandB,1
carpet pos,0
pc,0
Time (ms),CH1 Auto-Correlation
1.0,0.016552751883864403
2.0,0.013506959192454815
3.0,0.011290991678833961
4.0,0.009564267471432686
5.0,0.008264273405075073
6.0,0.007279675919562578
7.0,0.006453672889620066
8.0,0.005782425403594971
9.0,0.005233535543084145
10.0,0.004927347879856825
11.0,0.0044019706547260284
12.0,0.004031082149595022
13.0,0.003771717892959714
14.0,0.0034590428695082664
15.0,0.0032776242587715387
16.0,0.003042464377358556
18.0,0.002636347431689501
20.0,0.002266413066536188
22.0,0.0018218589248135686
24.0,0.001553142094053328
26.0,0.001487881992943585
28.0,0.001438527600839734
30.0,0.0011418930953368545
32.0,0.0010428476380184293
36.0,0.0010471359128132463
40.0,0.0010404301574453712
44.0,0.0008392437011934817
48.0,0.0007967027486301959
52.0,0.0006812912179157138
56.0,0.0004173727356828749
60.0,0.00031862512696534395
64.0,0.0002495559165254235
72.0,-0.00015406384773086756
80.0,-0.0001299410650972277
88.0,4.156192881055176e-05
96.0,-0.00023747044906485826
104.0,-0.00019657111261039972
112.0,0.00013390518142841756
120.0,6.6685247475106735e-06
128.0,0.0002212909603258595
144.0,3.452562668826431e-05
160.0,0.000576420861762017
176.0,-0.00010760122677311301
192.0,-0.0001635043736314401
208.0,0.00023969114408828318
224.0,3.758865568670444e-05
240.0,0.00023141126439440995
256.0,0.00033867786987684667
288.0,0.00024657874018885195
320.0,-0.00043508788803592324
352.0,-0.00025440071476623416
384.0,-0.0002474775246810168
416.0,-5.1083570724586025e-05
448.0,-4.1944640543079004e-05
480.0,-0.0001349951489828527
512.0,-0.0002335010067326948
576.0,-0.00016660553228575736
640.0,0.00011226700735278428
704.0,-6.4833488977456e-06
768.0,0.00023746531223878264
832.0,0.0003290818422101438
896.0,0.00030103587778285146
960.0,0.0003476065176073462
1024.0,8.587499178247526e-05
1152.0,0.00011343713413225487
1280.0,-0.00010146239219466224
1408.0,3.076245411648415e-05
1536.0,-5.718238026020117e-05
1664.0,0.0002460898831486702
1792.0,0.00029385386733338237
1920.0,3.091741382377222e-05
2048.0,0.00012802501441910863
2304.0,-1.963107570190914e-05
2560.0,0.00011241362517466769
2816.0,-0.00016434211283922195
3072.0,-0.00019305858586449176
3328.0,-0.0001451414282200858
3584.0,-0.00025268964236602187
3840.0,-0.00022242465638555586
4096.0,-0.00013074326852802187
4608.0,2.430370841466356e-06
5120.0,-0.0001119637890951708
5632.0,0.00011275420547463
6144.0,7.468587136827409e-05
6656.0,4.664770312956534e-05
7168.0,0.0003243953688070178
7680.0,1.7002408640109934e-05
8192.0,0.0001417501043761149
9216.0,-0.00013802542525809258
10240.0,-0.0002635983983054757
11264.0,-0.00027102750027552247
12288.0,-9.83116842689924e-05
13312.0,0.00016477426106575876
14336.0,0.00017697710427455604
end
