version,3.0
numOfCh,1
type,point
parent_name,80-cuts
ch_type,1_1
kcount,1
numberNandB,1
brightnessNandB,1
carpet pos,0
pc,0
Time (ms),CH1 Auto-Correlation
1.0,0.016547909006476402
2.0,0.013613171875476837
3.0,0.01154954731464386
4.0,0.0100492462515831
5.0,0.008893642574548721
6.0,0.008058314211666584
7.0,0.0073335743509233
8.0,0.006644466891884804
9.0,0.006014060694724321
10.0,0.0055513703264296055
11.0,0.005170575343072414
12.0,0.004847669508308172
13.0,0.004547161515802145
14.0,0.004203771241009235
15.0,0.003808289533481002
16.0,0.0035396276507526636
18.0,0.0033245340455323458
20.0,0.003100836183875799
22.0,0.0028042448684573174
24.0,0.0024808556772768497
26.0,0.0023765310179442167
28.0,0.002426126739010215
30.0,0.0023056636564433575
32.0,0.0021223623771220446
36.0,0.0017183050513267517
40.0,0.0015507788630202413
44.0,0.0013740550493821502
48.0,0.001091672107577324
52.0,0.0012081156019121408
56.0,0.0012327024014666677
60.0,0.0009141404880210757
64.0,0.0008658377919346094
72.0,0.0005549626657739282
80.0,0.00026620810967870057
88.0,-8.475620415993035e-05
96.0,-0.00021238125918898731
104.0,-0.00014163261221256107
112.0,5.8716792409541085e-05
120.0,2.345636130485218e-05
128.0,0.00011283445201115683
144.0,-5.526684253709391e-05
160.0,0.00021484715398401022
176.0,0.0004942077212035656
192.0,0.0003104300703853369
208.0,0.000374413124518469
224.0,0.00011601389269344509
240.0,-8.40552820591256e-05
256.0,-0.0002319327468285337
288.0,0.0004031990247312933
320.0,0.00038917004712857306
352.0,0.00011605701001826674
384.0,-6.968066008994356e-05
416.0,-0.0001440750202164054
448.0,-0.0006971582770347595
480.0,-0.00026718052686192095
512.0,0.00016893172869458795
576.0,-0.00015369219181593508
640.0,0.00011348015686962754
704.0,-0.00035531356115825474
768.0,0.00021998320880811661
832.0,0.0003004171885550022
896.0,7.05427100911038e-06
960.0,0.00016305616009049118
1024.0,-0.00032167581957764924
1152.0,0.00010727487097028643
1280.0,0.0002202174364356324
1408.0,-0.0004170915635768324
1536.0,-0.0001738494902383536
1664.0,-0.00034944835351780057
1792.0,-9.447853517485783e-05
1920.0,-0.000257709325524047
2048.0,0.0003368606558069587
2304.0,0.00035683944588527083
2560.0,-0.0002588632924016565
2816.0,-0.00010729125642683357
3072.0,1.1275966244284064e-05
3328.0,0.0001741417800076306
3584.0,-1.925299147842452e-05
3840.0,-0.00031003617914393544
4096.0,-0.00010220760304946452
4608.0,0.00037463486660271883
5120.0,-0.00016869894170667976
5632.0,-6.8761710281251e-06
6144.0,-0.00013228841999080032
6656.0,0.0003041342133656144
7168.0,-0.00032881932565942407
7680.0,9.169070835923776e-06
8192.0,-0.00013804565242026
9216.0,-8.451175381196663e-05
10240.0,-5.854279879713431e-05
11264.0,-0.00016334709653165191
12288.0,5.8828249166253954e-05
13312.0,-0.0003706626011990011
14336.0,-0.000275565980700776
end
