version,3.0
numOfCh,1
type,point
parent_name,80-cuts
ch_type,1_1
kcount,1
numberNandB,1
brightnessNandB,1
carpet pos,0
pc,0
Time (ms),CH1 Auto-Correlation
1.0,0.027628358453512192
2.0,0.022598903626203537
3.0,0.01910609006881714
4.0,0.016573617234826088
5.0,0.014536980539560318
6.0,0.012847794219851494
7.0,0.011380289681255817
8.0,0.010237987153232098
9.0,0.009170803241431713
10.0,0.00835371296852827
11.0,0.007688559591770172
12.0,0.007118619047105312
13.0,0.006686053238809109
14.0,0.0062400889582931995
15.0,0.005918790586292744
16.0,0.0056587145663797855
18.0,0.00495575089007616
20.0,0.0045992713421583176
22.0,0.004179613199084997
24.0,0.003757847473025322
26.0,0.0035414223093539476
28.0,0.003595051821321249
30.0,0.003442582441493869
32.0,0.003212633077055216
36.0,0.0029555154033005238
40.0,0.0029886746779084206
44.0,0.002821305301040411
48.0,0.002785386750474572
52.0,0.002777400426566601
56.0,0.0023161591961979866
60.0,0.001977398293092847
64.0,0.0018754510674625635
72.0,0.0015108833322301507
80.0,0.000619843602180481
88.0,0.00011892934708157554
96.0,0.0007409339887090027
104.0,0.0007288110791705549
112.0,0.0006592347053810954
120.0,0.0008904096321202815
128.0,0.0003015552938450128
144.0,0.0004104535037185997
160.0,-7.814838318154216e-05
176.0,-0.00017884936823975295
192.0,-0.0001747197675285861
208.0,-0.00015628529945388436
224.0,-0.000451891974080354
240.0,-0.0007140165544115007
256.0,0.00013060907076578587
288.0,-0.0005118948174640536
320.0,0.0003307993174530566
352.0,-0.00033236719900742173
384.0,0.00044774572597816586
416.0,2.6855475880438462e-05
448.0,5.4646923672407866e-05
480.0,-0.00021835840016137809
512.0,-0.0007772920071147382
576.0,-0.00073659309418872
640.0,0.00014983018627390265
704.0,0.000688344647642225
768.0,0.0003935568092856556
832.0,0.00013139851216692477
896.0,0.00024638918694108725
960.0,6.888034113217145e-05
1024.0,-0.0002769474231172353
1152.0,-1.3910202142142225e-05
1280.0,0.0004326711059547961
1408.0,0.000248592667048797
1536.0,7.519582868553698e-05
1664.0,-6.98765434208326e-05
1792.0,-0.00023897139180917293
1920.0,9.768168820301071e-05
2048.0,0.00021665498206857592
2304.0,0.0001744754408719018
2560.0,0.000884110399056226
2816.0,0.0002202686300734058
3072.0,-0.00038924289401620626
3328.0,0.00027309797587804496
3584.0,0.00010640324035193771
3840.0,-3.068995283683762e-05
4096.0,0.00030228248215280473
4608.0,0.00012860920105595142
5120.0,0.0001026328100124374
5632.0,-0.0005200247396714985
6144.0,-5.416548447101377e-05
6656.0,-2.56836210610345e-05
7168.0,-0.0001067629928002134
7680.0,-0.0006756212678737938
8192.0,0.0004221737035550177
9216.0,-0.0005778333870694041
10240.0,-0.0005456276121549308
11264.0,-0.00029722749604843557
12288.0,0.0009407825418747962
13312.0,-0.0009658056078478694
14336.0,0.0009655532194301486
end
