version,3.0
numOfCh,1
type,point
parent_name,80-cuts
ch_type,1_1
kcount,1
numberNandB,1
brightnessNandB,1
carpet pos,0
pc,0
Time (ms),CH1 Auto-Correlation
1.0,0.027622567489743233
2.0,0.022676337510347366
3.0,0.019203951582312584
4.0,0.01649574749171734
5.0,0.014676813967525959
6.0,0.01325309555977583
7.0,0.01195498276501894
8.0,0.010862870141863823
9.0,0.010049990378320217
10.0,0.009314394555985928
11.0,0.008778742514550686
12.0,0.00825582817196846
13.0,0.007595606613904238
14.0,0.0071055167354643345
15.0,0.0067843603901565075
16.0,0.006348001305013895
18.0,0.005630923435091972
20.0,0.005125692114233971
22.0,0.004899295978248119
24.0,0.004571255762130022
26.0,0.004080814775079489
28.0,0.0035097342915832996
30.0,0.002941323211416602
32.0,0.002738277893513441
36.0,0.002421899000182748
40.0,0.0022460338659584522
44.0,0.0018070138758048415
48.0,0.0014606367330998182
52.0,0.001323716714978218
56.0,0.0013381722383201122
60.0,0.0008063416462391615
64.0,0.0003782608255278319
72.0,0.00019139191135764122
80.0,9.27252767723985e-05
88.0,-0.00026293352129869163
96.0,-0.00011436882778070867
104.0,-0.00018305530829820782
112.0,-0.0009488668292760849
120.0,-0.001254680217243731
128.0,-0.001290525309741497
144.0,-0.0008831089944578707
160.0,-0.00044955703197047114
176.0,-0.0006519255694001913
192.0,0.00020119886903557926
208.0,0.000866524176672101
224.0,0.000921528204344213
240.0,0.0007133656181395054
256.0,0.0009115141001529992
288.0,4.330740557634272e-05
320.0,-0.0006918138242326677
352.0,-0.0012233755551278591
384.0,-0.00039902771823108196
416.0,-0.0002966250467579812
448.0,-0.000980920041911304
480.0,-0.0005726130330003798
512.0,-0.0004958509816788137
576.0,2.042257801804226e-05
640.0,-0.00021169855608604848
704.0,-2.198671063524671e-05
768.0,7.493542943848297e-05
832.0,0.0002114620292559266
896.0,-0.0005069428007118404
960.0,0.0006641135551035404
1024.0,0.0006086599314585328
1152.0,-0.0004737710114568472
1280.0,0.0011187628842890263
1408.0,0.0009309422457590699
1536.0,0.00018110667588189244
1664.0,-0.000220332236494869
1792.0,-0.0007665095035918057
1920.0,0.0004902712535113096
2048.0,-0.00020141068671364337
2304.0,-1.4219942386262119e-05
2560.0,9.864996536634862e-05
2816.0,0.0006581110064871609
3072.0,-0.0003253584436606616
3328.0,-0.00038087638677097857
3584.0,-0.00012986439105588943
3840.0,1.7575148376636207e-05
4096.0,0.00019415492715779692
4608.0,0.00018633082800079137
5120.0,-0.00010557410860201344
5632.0,0.0001748757786117494
6144.0,9.772468911251053e-05
6656.0,-0.000282411027001217
7168.0,2.4445533199468628e-05
7680.0,-1.8106011339114048e-05
8192.0,-0.0006876254919916391
9216.0,-0.0004340916348155588
10240.0,-0.00021169216779526323
11264.0,-0.00010451570415170863
12288.0,-6.779977411497384e-05
13312.0,-3.98037263948936e-05
14336.0,-1.1462693692010362e-05
end
