version,3.0
numOfCh,1
type,point
parent_name,80-cuts
ch_type,1_1
kcount,1
numberNandB,1
brightnessNandB,1
carpet pos,0
pc,0
Time (ms),CH1 Auto-Correlation
1.0,0.02832343429327011
2.0,0.023307805880904198
3.0,0.01996546797454357
4.0,0.01732977107167244
5.0,0.015328939072787762
6.0,0.013709090650081635
7.0,0.012235366739332676
8.0,0.011075451038777828
9.0,0.010274545289576054
10.0,0.00941410195082426
11.0,0.008437251672148705
12.0,0.007910504005849361
13.0,0.007355785928666592
14.0,0.006931797135621309
15.0,0.006535787601023912
16.0,0.005926660727709532
18.0,0.005125688388943672
20.0,0.004433478228747845
22.0,0.003956874366849661
24.0,0.0033441216219216585
26.0,0.002924801781773567
28.0,0.0023845299147069454
30.0,0.002337404526770115
32.0,0.002323706867173314
36.0,0.002314506098628044
40.0,0.0023805759847164154
44.0,0.0023197561968117952
48.0,0.0025492876302450895
52.0,0.002697434974834323
56.0,0.002469798782840371
60.0,0.0019898852333426476
64.0,0.0014056917279958725
72.0,0.0010557359782978892
80.0,0.001032079802826047
88.0,0.0009058770956471562
96.0,0.0009519330342300236
104.0,0.0004972773604094982
112.0,0.0005353782908059657
120.0,0.00020880605734419078
128.0,0.00029197754338383675
144.0,0.0007920976495370269
160.0,-6.771830157958902e-06
176.0,-0.00015731816529296339
192.0,0.0011632239911705256
208.0,0.0006985862273722887
224.0,-0.0003004208265338093
240.0,-0.000516826577950269
256.0,-0.0003785525041166693
288.0,0.00032728147925809026
320.0,-0.00025321042630821466
352.0,0.00021536651183851063
384.0,-0.0003573459107428789
416.0,-0.00024569599190726876
448.0,-0.00021336878126021475
480.0,-0.00024151215620804578
512.0,-0.00019621735555119812
576.0,9.119325841311365e-05
640.0,-0.00023892773606348783
704.0,-0.00022915138106327504
768.0,-0.00024044328893069178
832.0,0.00016693685029167682
896.0,-0.00022567091218661517
960.0,-0.0007790901581756771
1024.0,-0.00039269274566322565
1152.0,-0.00017922154802363366
1280.0,0.0003486210771370679
1408.0,0.0006560335750691593
1536.0,-0.00011124503362225369
1664.0,-6.65201514493674e-05
1792.0,0.00012232524750288576
1920.0,0.00011434860061854124
2048.0,0.0007218091050162911
2304.0,0.0005447383737191558
2560.0,-0.0003090739483013749
2816.0,-0.0005007134168408811
3072.0,-0.0007919095223769546
3328.0,-0.00035788005334325135
3584.0,-9.691345621831715e-05
3840.0,0.0003111372934654355
4096.0,0.0002954793453682214
4608.0,-0.0002954679948743433
5120.0,-5.6962315284181386e-05
5632.0,-0.00027874490479007363
6144.0,0.00015686357801314443
6656.0,0.00020909500017296523
7168.0,4.917099795420654e-05
7680.0,-0.00038715635309927166
8192.0,-0.000198500812985003
9216.0,1.3029060937697068e-05
10240.0,0.00014471556642092764
11264.0,0.00040677914512343705
12288.0,-1.690741191850975e-05
13312.0,-0.0004756710841320455
14336.0,-0.0006590569973923266
end
