version,3.0
numOfCh,1
type,point
parent_name,80-cuts
ch_type,1_1
kcount,1
numberNandB,1
brightnessNandB,1
carpet pos,0
pc,0
Time (ms),CH1 Auto-Correlation
1.0,0.01625842973589897
2.0,0.013355173170566559
3.0,0.011332892812788486
4.0,0.009788942523300648
5.0,0.00857400894165039
6.0,0.007662379648536444
7.0,0.006874317303299904
8.0,0.006152322981506586
9.0,0.00550913205370307
10.0,0.004961557220667601
11.0,0.004530117381364107
12.0,0.004109194967895746
13.0,0.0037401854060590267
14.0,0.0034984140656888485
15.0,0.0033504110760986805
16.0,0.003150494070723653
18.0,0.0029224094469100237
20.0,0.002641890197992325
22.0,0.0024153238628059626
24.0,0.0019434712594375014
26.0,0.0016242768615484238
28.0,0.0014689193340018392
30.0,0.0013787755742669106
32.0,0.0011538482503965497
36.0,0.0010967921698465943
40.0,0.0009846442844718695
44.0,0.0009259778307750821
48.0,0.0008104160078801215
52.0,0.0006591254496015608
56.0,0.0008103371364995837
60.0,0.0008664664346724749
64.0,0.0007336939452216029
72.0,0.00029320878093130887
80.0,-7.664848817512393e-05
88.0,-0.0003272171306889504
96.0,-0.00026687077479436994
104.0,-0.0005361523944884539
112.0,-0.0005996889085508883
120.0,-0.000433609850006178
128.0,-0.00030521064763888717
144.0,-0.00024800814571790397
160.0,2.0774445147253573e-05
176.0,-4.111557427677326e-05
192.0,0.00011905537394341081
208.0,-3.7557631003437564e-05
224.0,0.000209908583201468
240.0,0.00014958201791159809
256.0,0.00012937311839777976
288.0,0.0005753480945713818
320.0,-0.00016145136032719165
352.0,0.00014895877393428236
384.0,0.0001325527555309236
416.0,-0.0005339481867849827
448.0,-5.053960194345564e-06
480.0,0.00027980777667835355
512.0,0.0003399525594431907
576.0,4.2058304643433075e-06
640.0,-0.00015049477224238217
704.0,3.997339808847755e-05
768.0,0.0001125691705965437
832.0,7.63935815939476e-07
896.0,4.145684215473011e-06
960.0,5.27642660017591e-05
1024.0,-5.276846422930248e-05
1152.0,0.0001649865007493645
1280.0,6.5441436163382605e-06
1408.0,-0.00036554530379362404
1536.0,0.0003533841809257865
1664.0,-0.00010527741687837988
1792.0,-0.00034853233955800533
1920.0,-7.277014083229005e-05
2048.0,3.903427204932086e-05
2304.0,-0.00024851015768945217
2560.0,-0.0005531524075195193
2816.0,-9.902040619635954e-05
3072.0,-4.679621633840725e-05
3328.0,9.824996959650889e-05
3584.0,0.0002663324703462422
3840.0,-0.0003887627099175006
4096.0,-5.5302807595580816e-05
4608.0,0.0002139794669346884
5120.0,6.068088987376541e-05
5632.0,-2.7312653401168063e-05
6144.0,-3.0947918276069686e-05
6656.0,-0.0002119233104167506
7168.0,-0.0002057915407931432
7680.0,4.7343477490358055e-05
8192.0,8.943411557993386e-06
9216.0,9.056221460923553e-05
10240.0,4.306068876758218e-05
11264.0,-0.00011430880840634927
12288.0,4.132934918743558e-06
13312.0,2.602915992611088e-05
14336.0,4.7541332605760545e-05
end
