version,3.0
numOfCh,1
type,point
parent_name,80-cuts
ch_type,1_1
kcount,1
numberNandB,1
brightnessNandB,1
carpet pos,0
pc,0
Time (ms),CH1 Auto-Correlation
1.0,0.01552614662796259
2.0,0.012617873959243298
3.0,0.01060216873884201
4.0,0.009176144376397133
5.0,0.008077920414507389
6.0,0.007255597971379757
7.0,0.0065147834829986095
8.0,0.005971113685518503
9.0,0.005440836772322655
10.0,0.005003562197089195
11.0,0.004507927224040031
12.0,0.004182413220405579
13.0,0.003946431912481785
14.0,0.0038053812459111214
15.0,0.0036476408131420612
16.0,0.0035499909427016973
18.0,0.003136067884042859
20.0,0.0028739285189658403
22.0,0.0025542753282934427
24.0,0.0022086771205067635
26.0,0.0021716344635933638
28.0,0.001987809082493186
30.0,0.0018265295075252652
32.0,0.0015642428770661354
36.0,0.0013416254660114646
40.0,0.0009974348358809948
44.0,0.001079369685612619
48.0,0.0008477618102915585
52.0,0.0008358083432540298
56.0,0.0007705339812673628
60.0,0.0005540463025681674
64.0,9.074157424038276e-05
72.0,7.562551036244258e-05
80.0,0.0001213320138049312
88.0,7.684157753828913e-05
96.0,0.000435269350418821
104.0,0.0004955707117915154
112.0,0.0003096824511885643
120.0,0.00014918195665813982
128.0,5.269579196465202e-05
144.0,0.0001024758312269114
160.0,-0.00018610265397001058
176.0,0.00027557724388316274
192.0,-0.0004074191383551806
208.0,-0.0001501407678006217
224.0,-0.00013652896450366825
240.0,0.00014550866035278887
256.0,0.00045272315037436783
288.0,0.00022329669445753098
320.0,-0.00045283688814379275
352.0,-3.553686838131398e-05
384.0,0.00031428091460838914
416.0,-0.0001267173938686028
448.0,-3.840863428195007e-05
480.0,-0.0004649929760489613
512.0,-0.0003007751947734505
576.0,-0.0004219615366309881
640.0,0.00027851868071593344
704.0,0.00034644565312191844
768.0,-0.0005361164221540093
832.0,-0.0001690857607172802
896.0,-0.0003507467336021364
960.0,-0.0004927113186568022
1024.0,0.0002202268660767004
1152.0,0.0002172867680201307
1280.0,0.00043041500612162054
1408.0,-9.397832764079794e-05
1536.0,-0.0002577445993665606
1664.0,7.648587779840454e-05
1792.0,0.00017216471314895898
1920.0,3.6492012441158295e-05
2048.0,5.5189138947753236e-06
2304.0,-9.250239600078203e-06
2560.0,1.1821598491223995e-05
2816.0,6.575130100827664e-05
3072.0,0.00013399038289207965
3328.0,-3.511670365696773e-05
3584.0,-0.00023521989351138473
3840.0,-9.551525727147236e-05
4096.0,-0.00015677392366342247
4608.0,6.818002293584868e-05
5120.0,-0.00024120302987284958
5632.0,9.106633660849184e-05
6144.0,-0.00039254603325389326
6656.0,-7.416286825900897e-05
7168.0,9.4744456873741e-05
7680.0,5.695386789739132e-05
8192.0,-0.00012494638212956488
9216.0,6.676729390164837e-05
10240.0,0.00011957592505495995
11264.0,-2.018650593527127e-05
12288.0,8.923917630454525e-05
13312.0,0.00010095298057422042
14336.0,-0.00021437415853142738
end
