version,3.0
numOfCh,1
type,point
parent_name,80-cuts
ch_type,1_1
kcount,1
numberNandB,1
brightnessNandB,1
carpet pos,0
pc,0
Time (ms),CH1 Auto-Correlation
1.0,0.02727050893008709
2.0,0.02230524830520153
3.0,0.01883876323699951
4.0,0.016595400869846344
5.0,0.014812028035521507
6.0,0.013414466753602028
7.0,0.01218247227370739
8.0,0.011007959954440594
9.0,0.01006590947508812
10.0,0.009590564295649529
11.0,0.008965871296823025
12.0,0.00836122129112482
13.0,0.007860464975237846
14.0,0.007267596200108528
15.0,0.00684764888137579
16.0,0.0066144890151917934
18.0,0.0060006920248270035
20.0,0.005699275527149439
22.0,0.005498531740158796
24.0,0.005225334316492081
26.0,0.00486972089856863
28.0,0.0045862337574362755
30.0,0.004046473186463118
32.0,0.004019927233457565
36.0,0.003693054197356105
40.0,0.0033304712269455194
44.0,0.002856401726603508
48.0,0.0023934899363666773
52.0,0.002140860538929701
56.0,0.0020287027582526207
60.0,0.0019103718223050237
64.0,0.00164750253316015
72.0,0.001775502460077405
80.0,0.0013491511344909668
88.0,0.0009943016339093447
96.0,0.0006859369459562004
104.0,0.000495090673211962
112.0,0.0002713649009820074
120.0,0.0004333065589889884
128.0,0.0009525826899334788
144.0,0.0009130435646511614
160.0,0.0005002848920412362
176.0,0.00038019995554350317
192.0,-0.0009220380452461541
208.0,-0.000878406863193959
224.0,-0.0004443578072823584
240.0,-0.00041483109816908836
256.0,-0.0007419196772389114
288.0,-0.00041907434933818877
320.0,0.00011916879884665832
352.0,-0.0004947700654156506
384.0,-0.00035984007990919054
416.0,0.00026812401483766735
448.0,0.00044948444701731205
480.0,0.0005014378693886101
512.0,0.001045147655531764
576.0,-0.000185069497092627
640.0,-0.0004584859707392752
704.0,-0.0001860574702732265
768.0,-0.00020616466645151377
832.0,-0.0005563958548009396
896.0,-0.0005397428176365793
960.0,-0.0009814806981012225
1024.0,-0.0006661002989858389
1152.0,-0.0004330189258325845
1280.0,-0.0005432090256363153
1408.0,-0.0005287118838168681
1536.0,0.0005901808617636561
1664.0,0.0006442206795327365
1792.0,0.0003754106583073735
1920.0,0.0005839500809088349
2048.0,0.0007903611985966563
2304.0,-7.632471533725038e-05
2560.0,-5.705052535631694e-05
2816.0,-0.0012262089876458049
3072.0,-0.0007333349203690886
3328.0,-0.0005289833643473685
3584.0,0.00022415931744035333
3840.0,0.0007488218252547085
4096.0,0.00010051884601125494
4608.0,-0.00015070225344970822
5120.0,-0.00015444472956005484
5632.0,0.0005548180197365582
6144.0,0.00019549374701455235
6656.0,-0.00032621866557747126
7168.0,-5.307204264681786e-05
7680.0,0.00033010958577506244
8192.0,0.00013379397569224238
9216.0,-0.00018382987764198333
10240.0,5.856973439222202e-05
11264.0,-0.00026385358069092035
12288.0,3.6518580600386485e-05
13312.0,7.07410290488042e-05
14336.0,-0.0002161783049814403
end
