version,3.0
numOfCh,1
type,point
parent_name,80-cuts
ch_type,1_1
kcount,1
numberNandB,1
brightnessNandB,1
carpet pos,0
pc,0
Time (ms),CH1 Auto-Correlation
1.0,0.01612374745309353
2.0,0.013298237696290016
3.0,0.011336304247379303
4.0,0.009817116893827915
5.0,0.0087345065549016
6.0,0.007832113653421402
7.0,0.007120760623365641
8.0,0.006457500159740448
9.0,0.005847720429301262
10.0,0.005422878544777632
11.0,0.005079171154648066
12.0,0.004757788497954607
13.0,0.0044944509863853455
14.0,0.004383204039186239
15.0,0.0042702858336269855
16.0,0.0041620684787631035
18.0,0.003837747033685446
20.0,0.003630230203270912
22.0,0.003305277554318309
24.0,0.0031484966166317463
26.0,0.0031011749524623156
28.0,0.002993490546941757
30.0,0.0028114449232816696
32.0,0.0024819010868668556
36.0,0.0021905433386564255
40.0,0.0019171852618455887
44.0,0.0013877797173336148
48.0,0.0011592161608859897
52.0,0.0011916941730305552
56.0,0.0011234021512791514
60.0,0.001019535236991942
64.0,0.0010249620536342263
72.0,0.0008449262240901589
80.0,0.0005382610252127051
88.0,0.00041240506106987596
96.0,0.0005968731129541993
104.0,0.0007401230395771563
112.0,0.0003097984881605953
120.0,0.00021422393911052495
128.0,0.00033307968988083303
144.0,8.038457599468529e-05
160.0,-6.573295831913128e-05
176.0,-0.00023825459356885403
192.0,-9.896305709844455e-05
208.0,0.00016461557243019342
224.0,0.00031559786293655634
240.0,0.0003960711765103042
256.0,0.0005724497605115175
288.0,0.0009663080563768744
320.0,0.0006286564748734236
352.0,0.00040635777986608446
384.0,-3.7459085433511063e-05
416.0,0.0002600369043648243
448.0,0.0006280055968090892
480.0,0.0003538728633429855
512.0,-0.00020628022321034223
576.0,0.0005337684415280819
640.0,0.0002161199226975441
704.0,-1.4477287550107576e-05
768.0,0.0002857983054127544
832.0,-8.783804332779255e-06
896.0,-0.00023473624605685472
960.0,-0.0003900756419170648
1024.0,-0.0004087254055775702
1152.0,7.191727036115481e-06
1280.0,-0.00031319944537244737
1408.0,-0.0005307321553118527
1536.0,-0.00029440008802339435
1664.0,0.00013729732017964125
1792.0,6.844358722446486e-05
1920.0,0.00017947414016816765
2048.0,-7.692036160733551e-05
2304.0,0.00011234869452891871
2560.0,0.00011316622112644836
2816.0,5.536139360629022e-05
3072.0,6.513109110528603e-05
3328.0,5.134921593707986e-05
3584.0,0.00013411697000265121
3840.0,4.2873445636359975e-05
4096.0,-2.3685362975811586e-05
4608.0,9.552947449265048e-05
5120.0,6.989468965912238e-05
5632.0,0.00032336372532881796
6144.0,-0.00016145515837706625
6656.0,-0.0006981527549214661
7168.0,-0.00033809628803282976
7680.0,-6.4289865804312285e-06
8192.0,0.0006421210709959269
9216.0,-0.00010430681868456304
10240.0,-0.00043185296817682683
11264.0,-0.00018614382133819163
12288.0,-0.0003247043932788074
13312.0,0.0004312130913604051
14336.0,-0.0005093644722364843
end
