version,3.0
numOfCh,1
type,point
parent_name,80-cuts
ch_type,1_1
kcount,1
numberNandB,1
brightnessNandB,1
carpet pos,0
pc,0
Time (ms),CH1 Auto-Correlation
1.0,0.017558937892317772
2.0,0.014548021368682384
3.0,0.0123599199578166
4.0,0.010648146271705627
5.0,0.009321498684585094
6.0,0.00833294726908207
7.0,0.007580018136650324
8.0,0.00686401454731822
9.0,0.006216603796929121
10.0,0.005729994270950556
11.0,0.005267071072012186
12.0,0.004815235268324614
13.0,0.004405751824378967
14.0,0.004112532362341881
15.0,0.0037872977554798126
16.0,0.003624084871262312
18.0,0.003289024578407407
20.0,0.0030210649129003286
22.0,0.0027403412386775017
24.0,0.002516461769118905
26.0,0.002402439946308732
28.0,0.0021967533975839615
30.0,0.0020718907471746206
32.0,0.002149058971554041
36.0,0.002293078228831291
40.0,0.0019506014650687575
44.0,0.0016409953823313117
48.0,0.0012856648536399007
52.0,0.0010205196449533105
56.0,0.0007933895103633404
60.0,0.001026054727844894
64.0,0.000929548405110836
72.0,0.0008873016922734678
80.0,0.0007942899828776717
88.0,0.0007335395785048604
96.0,0.0008108211332000792
104.0,0.0005629588849842548
112.0,0.0008412813767790794
120.0,0.0007854169234633446
128.0,0.0005348878912627697
144.0,0.0002940033155027777
160.0,9.607852553017437e-05
176.0,-7.922189251985401e-05
192.0,-0.00014925887808203697
208.0,-0.00029485192499123514
224.0,-0.00030787326977588236
240.0,-0.0007937756017781794
256.0,-0.0005906606675125659
288.0,-1.987710675166454e-05
320.0,-2.9586071832454763e-05
352.0,-0.00021159168682061136
384.0,0.00021942895546089858
416.0,3.3927060485439142e-06
448.0,-0.00015460063877981156
480.0,-0.000346402230206877
512.0,-7.901903882157058e-05
576.0,0.0001889552513603121
640.0,0.00020648528879974037
704.0,0.00010161839600186795
768.0,-0.0001612560445209965
832.0,0.0007421052432619035
896.0,-0.000275967875495553
960.0,0.000439305673353374
1024.0,5.765691457781941e-05
1152.0,4.406615062180208e-06
1280.0,0.00024814929929561913
1408.0,3.843800368485972e-05
1536.0,-0.0003538549062795937
1664.0,0.00021638502948917449
1792.0,0.00035718255094252527
1920.0,0.00034461519680917263
2048.0,0.00030489551136270165
2304.0,-7.954859756864607e-05
2560.0,0.0001228523178724572
2816.0,-0.0003385200398042798
3072.0,1.2908398275612853e-05
3328.0,-0.0003091535181738436
3584.0,-3.64204533980228e-05
3840.0,-0.00045955777750350535
4096.0,-9.699969814391807e-05
4608.0,-0.00012732719187624753
5120.0,3.437272971495986e-05
5632.0,-0.0002264563663629815
6144.0,-0.0002846350544132292
6656.0,-0.00024220159684773535
7168.0,-0.00011358130723237991
7680.0,-5.432558464235626e-05
8192.0,-8.883402188075706e-05
9216.0,0.00018029016791842878
10240.0,0.00040191563311964273
11264.0,-7.469380216207355e-05
12288.0,0.00015078033902682364
13312.0,-0.0003026151389349252
14336.0,-9.727681754156947e-05
end
