version,3.0
numOfCh,1
type,point
parent_name,80-cuts
ch_type,1_1
kcount,1
numberNandB,1
brightnessNandB,1
carpet pos,0
pc,0
Time (ms),CH1 Auto-Correlation
1.0,0.027873773127794266
2.0,0.022970110177993774
3.0,0.01953226886689663
4.0,0.01700691506266594
5.0,0.014777221716940403
6.0,0.013213063590228558
7.0,0.012042206712067127
8.0,0.011092029511928558
9.0,0.010228964500129223
10.0,0.009480549022555351
11.0,0.008907796815037727
12.0,0.008478906005620956
13.0,0.00800746213644743
14.0,0.007699428591877222
15.0,0.007203244604170322
16.0,0.006903074216097593
18.0,0.006518573500216007
20.0,0.005936319008469582
22.0,0.005499757826328278
24.0,0.004909420385956764
26.0,0.004436707589775324
28.0,0.003988045267760754
30.0,0.0036145555786788464
32.0,0.003370980964973569
36.0,0.002732626162469387
40.0,0.0021170121617615223
44.0,0.0018718164646998048
48.0,0.0014612996019423008
52.0,0.0013192653423175216
56.0,0.0011980721028521657
60.0,0.0013686887687072158
64.0,0.0012426612665876746
72.0,0.0003739813400898129
80.0,0.00010452966671437025
88.0,0.000597106758505106
96.0,0.00019214853818994015
104.0,-0.0005122602451592684
112.0,-0.00012867517943959683
120.0,-0.0007090588915161788
128.0,-0.0003159300540573895
144.0,-0.00041509835864417255
160.0,-0.001234292285516858
176.0,-0.0013167238794267178
192.0,-0.0006747840088792145
208.0,-0.0004199552349746227
224.0,-0.00035316968569532037
240.0,-0.0009604579536244273
256.0,-0.0012946479255333543
288.0,-0.0009318655938841403
320.0,-0.0004410789115354419
352.0,6.667643174296245e-05
384.0,0.0003727074363268912
416.0,0.00011551492934813723
448.0,0.0002622298488859087
480.0,-0.0003803870640695095
512.0,-6.668407149845734e-05
576.0,-0.00024951971136033535
640.0,-5.1962128054583445e-05
704.0,0.0004945021355524659
768.0,-0.0009509590454399586
832.0,-0.0006099359015934169
896.0,-2.1428468244266696e-05
960.0,0.0008141259895637631
1024.0,0.0005395275657065213
1152.0,-0.0006205432000569999
1280.0,-0.001010727952234447
1408.0,9.29406814975664e-06
1536.0,0.0001246587053174153
1664.0,0.0007204812136478722
1792.0,0.0005926074227318168
1920.0,0.0006741195684298873
2048.0,-0.000211695019970648
2304.0,4.9726917495718226e-05
2560.0,-0.00022324641759041697
2816.0,-0.0001537301723146811
3072.0,-5.3734416724182665e-05
3328.0,-0.0004458943731151521
3584.0,0.0007230353658087552
3840.0,-2.4917309929151088e-05
4096.0,-6.474697329394985e-06
4608.0,-6.89401276758872e-05
5120.0,-0.0003740788670256734
5632.0,0.00021044499590061605
6144.0,-6.534271506097866e-06
6656.0,-0.00029397205798886716
7168.0,-0.0001539208897156641
7680.0,0.0004903528606519103
8192.0,-0.00035413523437455297
9216.0,0.00023441531811840832
10240.0,-1.9324776076246053e-05
11264.0,2.9280716262292117e-05
12288.0,0.00010863574425457045
13312.0,-8.18497846921673e-06
14336.0,-0.000192585212062113
end
