version,3.0
numOfCh,1
type,point
parent_name,80-cuts
ch_type,1_1
kcount,1
numberNandB,1
brightnessNandB,1
carpet pos,0
pc,0
Time (ms),CH1 Auto-Correlation
1.0,0.016709042713046074
2.0,0.013861519284546375
3.0,0.011787962168455124
4.0,0.010141815058887005
5.0,0.008920812979340553
6.0,0.007923201657831669
7.0,0.0070377495139837265
8.0,0.00630336906760931
9.0,0.005821175407618284
10.0,0.005394876468926668
11.0,0.00494026904925704
12.0,0.004661823157221079
13.0,0.00439469562843442
14.0,0.004182693548500538
15.0,0.003917706664651632
16.0,0.0036284751258790493
18.0,0.003207214642316103
20.0,0.002998888725414872
22.0,0.0026555873919278383
24.0,0.0022019287571310997
26.0,0.0018927319906651974
28.0,0.0015081620076671243
30.0,0.0012102529872208834
32.0,0.0011906241998076439
36.0,0.001259233453311026
40.0,0.0010356820421293378
44.0,0.0009751514880917966
48.0,0.0008766480023041368
52.0,0.0006380010163411498
56.0,0.0003019410651177168
60.0,0.00010105271940119565
64.0,1.048409194481792e-05
72.0,-0.0002708515676204115
80.0,-0.0004530250153038651
88.0,-0.0003447736380621791
96.0,-0.00047819234896451235
104.0,-0.00041091220919042826
112.0,-0.00033989621442742646
120.0,-0.00024617285816930234
128.0,0.00037943507777526975
144.0,0.0005106820026412606
160.0,-6.23490268480964e-06
176.0,3.32690506184008e-05
192.0,0.00019900627376046032
208.0,-0.00012912764213979244
224.0,0.0003002831363119185
240.0,-0.00020886443962808698
256.0,0.00015635619638487697
288.0,0.0001678720145719126
320.0,-0.00022070432896725833
352.0,-0.00014505130820907652
384.0,-0.000557132821995765
416.0,-0.0006207018159329891
448.0,-0.00039714149897918105
480.0,-2.2711165001965128e-05
512.0,-0.00012389036419335753
576.0,0.00025482504861429334
640.0,0.0002037573285633698
704.0,-8.950911433203146e-05
768.0,0.00029584046569652855
832.0,-0.00015797004743944854
896.0,-0.00013236493396107107
960.0,0.0001746820635162294
1024.0,0.0001836580049712211
1152.0,-4.218586036586203e-05
1280.0,-0.00031977883190847933
1408.0,-0.00045971147483214736
1536.0,5.8741420616570394e-06
1664.0,-0.00019601934764068574
1792.0,0.00027144807972945273
1920.0,-0.00010158263467019424
2048.0,-0.0002504298463463783
2304.0,-0.00011190003715455532
2560.0,-0.0003343072021380067
2816.0,0.0002461443073116243
3072.0,-0.00012761700781993568
3328.0,-6.72507012495771e-05
3584.0,0.0001323936303379014
3840.0,0.00013760128058493137
4096.0,-0.00029467043350450695
4608.0,2.2669497411698103e-05
5120.0,-6.812903302488849e-05
5632.0,-3.05528701574076e-05
6144.0,0.00010198701056651771
6656.0,-2.1863317670067772e-05
7168.0,-1.8987404473591596e-05
7680.0,-3.727532384800725e-05
8192.0,0.00011925721628358588
9216.0,1.5365366152764182e-06
10240.0,-0.00022871822875458747
11264.0,-1.0189834029006306e-05
12288.0,0.00013614993076771498
13312.0,0.00016725229215808213
14336.0,-0.0002518098335713148
end
