version,3.0
numOfCh,1
type,point
parent_name,80-cuts
ch_type,1_1
kcount,1
numberNandB,1
brightnessNandB,1
carpet pos,0
pc,0
Time (ms),CH1 Auto-Correlation
1.0,0.01578872837126255
2.0,0.012761648744344711
3.0,0.01069534569978714
4.0,0.009169383905827999
5.0,0.008048578165471554
6.0,0.00709286704659462
7.0,0.006258288864046335
8.0,0.005647100508213043
9.0,0.005143229383975267
10.0,0.004619565326720476
11.0,0.00419835327193141
12.0,0.003784262342378497
13.0,0.003467359347268939
14.0,0.0032245502807199955
15.0,0.002984133781865239
16.0,0.0027138213627040386
18.0,0.0023209142964333296
20.0,0.0020626510959118605
22.0,0.0018376335501670837
24.0,0.0016025190707296133
26.0,0.0012782166013494134
28.0,0.0010411100229248405
30.0,0.0009139730245806277
32.0,0.000903979002032429
36.0,0.0008489645551890135
40.0,0.0005191157688386738
44.0,0.0005941777490079403
48.0,0.0003653313033282757
52.0,0.0003321727563161403
56.0,0.0007073043962009251
60.0,0.0008308711694553494
64.0,0.0009081370662897825
72.0,0.0004527241108007729
80.0,-0.00011772177094826475
88.0,-0.0004086385597474873
96.0,-0.00032005709363147616
104.0,3.283448677393608e-06
112.0,0.00011857847130158916
120.0,0.0002715759619604796
128.0,0.00017767994722817093
144.0,1.0992695024469867e-05
160.0,-0.00027689096168614924
176.0,-9.602637874195352e-06
192.0,0.0002451025357004255
208.0,0.00032131478656083345
224.0,0.00039420841494575143
240.0,0.0008548150071874261
256.0,0.0006103479536250234
288.0,0.0003545958024915308
320.0,0.0003268162254244089
352.0,-0.00014944728172849864
384.0,-7.639991963515058e-05
416.0,-2.0957356809958583e-06
448.0,0.0001701073197182268
480.0,7.191685290308669e-05
512.0,0.00048617186257615685
576.0,0.00011230388190597296
640.0,-6.772681081201881e-05
704.0,7.785365596646443e-06
768.0,-0.00034694778150878847
832.0,-0.00019586255075410008
896.0,-9.285559826821554e-06
960.0,0.00015623305807821453
1024.0,-0.00026607851032167673
1152.0,-0.00034830838558264077
1280.0,-0.0001544580445624888
1408.0,-0.000149895713548176
1536.0,-8.950613846536726e-05
1664.0,-0.00028737110551446676
1792.0,-0.00018728102440945804
1920.0,4.831296973861754e-05
2048.0,0.00013708510959986597
2304.0,0.00014944153372198343
2560.0,-2.1211113562458195e-05
2816.0,-0.00034861866151914
3072.0,-0.00037860326119698584
3328.0,-0.0002769127022475004
3584.0,-0.00019893607532139868
3840.0,0.00014157136320136487
4096.0,0.0002991282963193953
4608.0,1.6832485925988294e-05
5120.0,-0.00016795750707387924
5632.0,7.42023330531083e-05
6144.0,0.0004786262579727918
6656.0,9.780024993233383e-05
7168.0,-0.0002889393363147974
7680.0,-0.0002032214542850852
8192.0,0.0001340234448434785
9216.0,-0.0002776414039544761
10240.0,0.000320070976158604
11264.0,-7.827041554264724e-05
12288.0,0.00017371299327351153
13312.0,-0.00024619148462079465
14336.0,0.00013347217463888228
end
