version,3.0
numOfCh,1
type,point
parent_name,80-cuts
ch_type,1_1
kcount,1
numberNandB,1
brightnessNandB,1
carpet pos,0
pc,0
Time (ms),CH1 Auto-Correlation
1.0,0.016323648393154144
2.0,0.013285751454532146
3.0,0.011191004887223244
4.0,0.009621302597224712
5.0,0.008431118912994862
6.0,0.00744971726089716
7.0,0.0066875433549284935
8.0,0.00610820297151804
9.0,0.005548820830881596
10.0,0.005159562919288874
11.0,0.004823722410947084
12.0,0.004478945396840572
13.0,0.004222200717777014
14.0,0.00406038761138916
15.0,0.0038474821485579014
16.0,0.00355151086114347
18.0,0.003333205357193947
20.0,0.002924575936049223
22.0,0.0025794010143727064
24.0,0.0023993817158043385
26.0,0.0023794269654899836
28.0,0.002285814145579934
30.0,0.0021278683561831713
32.0,0.0019777705892920494
36.0,0.001844904269091785
40.0,0.0012841795105487108
44.0,0.001118827611207962
48.0,0.0009824277367442846
52.0,0.0006189847481437027
56.0,0.00045767304254695773
60.0,0.0006417245022021234
64.0,0.0005064139841124415
72.0,1.3370803571888246e-05
80.0,0.00014960217231418937
88.0,8.510089537594467e-05
96.0,0.00023597794643137604
104.0,2.7293128368910402e-05
112.0,-0.00010815411224029958
120.0,-0.0004457323520909995
128.0,-0.0006719428929500282
144.0,-8.597508713137358e-05
160.0,-0.0004621243861038238
176.0,-0.00044133112533017993
192.0,-0.0005751264397986233
208.0,-0.0006816185778006911
224.0,-0.0004808214434888214
240.0,-0.00025380682200193405
256.0,1.803228042263072e-05
288.0,-0.0001705610629869625
320.0,-8.435794006800279e-05
352.0,-0.00035694308462552726
384.0,-0.00022937559697311372
416.0,0.0003245498810429126
448.0,0.0003287506988272071
480.0,-0.0004949824069626629
512.0,0.0003767846501432359
576.0,0.0005195520934648812
640.0,0.00051497807726264
704.0,-6.270999438129365e-05
768.0,-2.972965603476041e-06
832.0,2.980502540594898e-05
896.0,5.126594624016434e-05
960.0,-7.737017585895956e-05
1024.0,2.0205829059705138e-05
1152.0,-0.00030981763848103583
1280.0,-0.00015230376448016614
1408.0,4.4870870624436066e-05
1536.0,2.276982741022948e-06
1664.0,-0.00030402050470001996
1792.0,0.00012871796207036823
1920.0,0.00022674101637676358
2048.0,-2.3019674699753523e-05
2304.0,-0.00013050131383351982
2560.0,-5.2940718887839466e-05
2816.0,8.104175503831357e-05
3072.0,-0.00010545073746470734
3328.0,0.00016549786960240453
3584.0,-0.00010543197277002037
3840.0,-7.109404396032915e-05
4096.0,6.725481944158673e-05
4608.0,-5.408182551036589e-05
5120.0,-9.440970461582765e-05
5632.0,1.1738775356207043e-05
6144.0,4.246705793775618e-05
6656.0,0.0001577728398842737
7168.0,-5.562603746511741e-06
7680.0,2.627444700920023e-05
8192.0,5.655018685502e-05
9216.0,-0.00012356041406746954
10240.0,0.00021222318173386157
11264.0,-4.632150739780627e-05
12288.0,-0.0003031441883649677
13312.0,0.00010616979125188664
14336.0,-0.00033453889773227274
end
