version,3.0
numOfCh,1
type,point
parent_name,80-cuts
ch_type,1_1
kcount,1
numberNandB,1
brightnessNandB,1
carpet pos,0
pc,0
Time (ms),CH1 Auto-Correlation
1.0,0.01698472909629345
2.0,0.0139908567070961
3.0,0.011810601688921452
4.0,0.010154897347092628
5.0,0.009043644182384014
6.0,0.008192606270313263
7.0,0.007447054609656334
8.0,0.006692773662507534
9.0,0.005998525768518448
10.0,0.005492280703037977
11.0,0.005044077523052692
12.0,0.004705505911260843
13.0,0.004375853110104799
14.0,0.0039615207351744175
15.0,0.0037515463773161173
16.0,0.003484731772914529
18.0,0.0032341594342142344
20.0,0.0029377706814557314
22.0,0.0028463166672736406
24.0,0.002800295129418373
26.0,0.002750207670032978
28.0,0.002595609985291958
30.0,0.0022760729771107435
32.0,0.001873215427622199
36.0,0.001561119337566197
40.0,0.0009615112212486565
44.0,0.0006126677035354078
48.0,0.0001655926462262869
52.0,-0.00011225797061342746
56.0,-4.077364792465232e-05
60.0,7.349739234996377e-07
64.0,-1.958085886144545e-05
72.0,0.00015589951362926513
80.0,0.00014783530787099153
88.0,-9.217875776812434e-05
96.0,-0.0003107427910435945
104.0,-0.00026625889586284757
112.0,-0.00026312092086300254
120.0,-0.00027581799076870084
128.0,-0.00044951020390726626
144.0,-0.0003581589553505182
160.0,-0.0006510639213956892
176.0,-0.0001064193929778412
192.0,0.00042441266123205423
208.0,-8.890108915693418e-07
224.0,0.0002761305368039757
240.0,-0.00011535797966644168
256.0,0.0004268252232577652
288.0,0.00011130140046589077
320.0,-0.0001297207927564159
352.0,0.0004833923012483865
384.0,0.0003888619539793581
416.0,-3.322605698485859e-05
448.0,-0.00022739070118404925
480.0,-0.0003587206592783332
512.0,0.0003525032661855221
576.0,0.00015397457173094153
640.0,-0.00020253637921996415
704.0,0.00015448463091161102
768.0,0.0005868169828318059
832.0,0.0003520352183841169
896.0,-0.00014455488417297602
960.0,-0.00026211864314973354
1024.0,-0.0001882247015601024
1152.0,-0.0002664097701199353
1280.0,-7.795868441462517e-05
1408.0,0.00024502084124833345
1536.0,0.00023564552247989923
1664.0,0.00022464750509243459
1792.0,-0.0003905036428477615
1920.0,-0.00011935501242987812
2048.0,-0.0002927119203377515
2304.0,-9.824173321248963e-05
2560.0,-0.00041730908560566604
2816.0,-6.758708332199603e-05
3072.0,-2.8874466806882992e-05
3328.0,-0.00019999549840576947
3584.0,-0.00018025531608145684
3840.0,-0.00018695091421250254
4096.0,-0.00013272302749101073
4608.0,5.9372101532062516e-05
5120.0,1.4969962649047375e-05
5632.0,-7.076551992213354e-05
6144.0,-3.408474731259048e-05
6656.0,9.659766510594636e-05
7168.0,2.0450358988455264e-06
7680.0,0.00014055051724426448
8192.0,5.750976561103016e-05
9216.0,0.00013154376938473433
10240.0,-4.205957520753145e-05
11264.0,-1.1849368092953227e-05
12288.0,-0.0002855687343981117
13312.0,-6.0594484239118174e-05
14336.0,0.00012389176117721945
end
