version,3.0
numOfCh,1
type,point
parent_name,80-cuts
ch_type,1_1
kcount,1
numberNandB,1
brightnessNandB,1
carpet pos,0
pc,0
Time (ms),CH1 Auto-Correlation
1.0,0.01702801324427128
2.0,0.013941822573542595
3.0,0.011777805164456367
4.0,0.010100986808538437
5.0,0.008817623369395733
6.0,0.007897687144577503
7.0,0.0070999497547745705
8.0,0.006571258418262005
9.0,0.006217667832970619
10.0,0.00588808860629797
11.0,0.005507867317646742
12.0,0.0052010174840688705
13.0,0.004908713512122631
14.0,0.004638140555471182
15.0,0.004241200163960457
16.0,0.004075292497873306
18.0,0.0035917290952056646
20.0,0.0030856276862323284
22.0,0.0026063034310936928
24.0,0.0024016499519348145
26.0,0.002288930583745241
28.0,0.002094157272949815
30.0,0.0018885110039263964
32.0,0.0018938592402264476
36.0,0.0015853859949856997
40.0,0.0017387326806783676
44.0,0.0017042324179783463
48.0,0.0015836869133636355
52.0,0.0014327752869576216
56.0,0.0013266989262774587
60.0,0.0012011815560981631
64.0,0.001334368484094739
72.0,0.0010684254812076688
80.0,0.0008499202667735517
88.0,0.0007828585803508759
96.0,0.00072850426658988
104.0,0.00026839898782782257
112.0,-4.523958341451362e-05
120.0,-1.944418363564182e-05
128.0,-1.76336761796847e-05
144.0,-0.00011448613076936454
160.0,0.0001118402142310515
176.0,0.00011463212285889313
192.0,0.00020193244563415647
208.0,0.00017580112034920603
224.0,0.000405886530643329
240.0,0.0004180175019428134
256.0,0.0006138456519693136
288.0,0.0004581427201628685
320.0,0.0005569271161220968
352.0,-3.996232044300996e-05
384.0,7.22059803592856e-06
416.0,0.00042728203698061407
448.0,0.0005305322702042758
480.0,0.0006130611291155219
512.0,0.00010056389146484435
576.0,0.0005963154253549874
640.0,0.0005781778017990291
704.0,0.0002868805604521185
768.0,-0.0002191444073105231
832.0,-0.00016127120761666447
896.0,5.919764953432605e-05
960.0,-1.0571490065558464e-06
1024.0,-0.000190126258530654
1152.0,0.00017177755944430828
1280.0,0.0006683878600597382
1408.0,-0.000157913236762397
1536.0,-0.00019448583771008998
1664.0,-0.00012867273471783847
1792.0,0.0003252841124776751
1920.0,-4.500805152929388e-05
2048.0,-0.00014027938595972955
2304.0,-0.0001525964617030695
2560.0,3.942757030017674e-05
2816.0,-0.00016479739861097187
3072.0,0.0001498605270171538
3328.0,0.0003375826636329293
3584.0,0.000496625667437911
3840.0,0.0005097154644317925
4096.0,-0.00010113989264937118
4608.0,-0.00020414881873875856
5120.0,-4.691809226642363e-05
5632.0,-0.00010467439278727397
6144.0,-0.0003611828724388033
6656.0,-0.00011562208965187892
7168.0,-0.0003120241453871131
7680.0,-0.0003250540466979146
8192.0,-0.0002984513121191412
9216.0,-6.0984715673839673e-05
10240.0,-0.0005097757675684988
11264.0,-0.00028496532468125224
12288.0,0.00017895134806167334
13312.0,2.53714151767781e-05
14336.0,0.00018640585767570883
end
