version,3.0
numOfCh,1
type,point
parent_name,80-cuts
ch_type,1_1
kcount,1
numberNandB,1
brightnessNandB,1
carpet pos,0
pc,0
Time (ms),CH1 Auto-Correlation
1.0,0.01669776439666748
2.0,0.013712544925510883
3.0,0.011584049090743065
4.0,0.010014145635068417
5.0,0.008865201845765114
6.0,0.007840819656848907
7.0,0.007052471861243248
8.0,0.006318338215351105
9.0,0.005697783548384905
10.0,0.0052126026712358
11.0,0.004767009522765875
12.0,0.004432618618011475
13.0,0.004116760566830635
14.0,0.003819104051217437
15.0,0.003618178190663457
16.0,0.003430293407291174
18.0,0.0031236622016876936
20.0,0.002697011921554804
22.0,0.0024366334546357393
24.0,0.0021981799509376287
26.0,0.0020963784772902727
28.0,0.0020217932760715485
30.0,0.0018313307082280517
32.0,0.0016012894921004772
36.0,0.001192009192891419
40.0,0.000971633184235543
44.0,0.0008527031168341637
48.0,0.0007858881726861
52.0,0.00071395916165784
56.0,0.0005847924621775746
60.0,0.0007641076808795333
64.0,0.0005575152463279665
72.0,0.00019626131688710302
80.0,0.0005375884938985109
88.0,0.00047909008571878076
96.0,0.00031520603806711733
104.0,0.00022041038027964532
112.0,0.00021500348520930856
120.0,3.459400204519625e-06
128.0,5.1713061111513525e-05
144.0,-0.0002295778103871271
160.0,-0.0004564399132505059
176.0,9.792383934836835e-05
192.0,0.0002400008525000885
208.0,0.00022206702851690352
224.0,0.0003779522085096687
240.0,0.0003018908610101789
256.0,0.0005393601604737341
288.0,-0.0001663296134211123
320.0,-0.00019535975297912955
352.0,-5.2391587814781815e-05
384.0,-0.0002436659997329116
416.0,-0.00030799262458458543
448.0,-0.0006492872489616275
480.0,-0.0002013978228205815
512.0,-8.638137660454959e-05
576.0,4.295494363759644e-06
640.0,0.0008494517533108592
704.0,0.0002263336646137759
768.0,0.00021960756566841155
832.0,-6.222027877811342e-05
896.0,4.1790714021772146e-05
960.0,-9.949877130566165e-05
1024.0,0.00019323242304380983
1152.0,-0.00018343242118135095
1280.0,-2.352549745410215e-05
1408.0,-0.00019971796427853405
1536.0,-0.0004325586778577417
1664.0,-4.9030979425879195e-05
1792.0,6.072260293876752e-05
1920.0,7.428506796713918e-05
2048.0,0.00011827991693280637
2304.0,1.7549620679346845e-05
2560.0,0.0003087169607169926
2816.0,-8.230217645177618e-05
3072.0,0.00016626260185148567
3328.0,-8.284668001579121e-05
3584.0,-0.00015269583673216403
3840.0,-0.00017572763317730278
4096.0,-3.4015081382676726e-06
4608.0,3.2726300560170785e-05
5120.0,7.162702968344092e-05
5632.0,-8.331295975949615e-05
6144.0,6.24043750576675e-05
6656.0,-0.00016722071450203657
7168.0,-0.00019636927754618227
7680.0,-0.00027637745370157063
8192.0,0.00038544522249139845
9216.0,0.00011714538413798437
10240.0,-8.308244287036359e-05
11264.0,0.00015407321916427463
12288.0,-0.0004846099473070353
13312.0,0.00010451462730998173
14336.0,-0.0005500619299709797
end
