version,3.0
numOfCh,1
type,point
parent_name,80-cuts
ch_type,1_1
kcount,1
numberNandB,1
brightnessNandB,1
carpet pos,0
pc,0
Time (ms),CH1 Auto-Correlation
1.0,0.015567519702017307
2.0,0.012499352917075157
3.0,0.010276774875819683
4.0,0.008704092353582382
5.0,0.0075109112076461315
6.0,0.006513793487101793
7.0,0.005797184072434902
8.0,0.005285391118377447
9.0,0.0048592654056847095
10.0,0.004510467406362295
11.0,0.004181348718702793
12.0,0.0038865080568939447
13.0,0.0035145713482052088
14.0,0.0031147815752774477
15.0,0.0027461466379463673
16.0,0.002345488639548421
18.0,0.0018420080887153745
20.0,0.0016839094460010529
22.0,0.0015887424815446138
24.0,0.0015443683369085193
26.0,0.001395316096022725
28.0,0.0013227025046944618
30.0,0.0011804570676758885
32.0,0.0009444414172321558
36.0,0.0008405313128605485
40.0,0.0007973678293637931
44.0,0.0004098332137800753
48.0,0.00015001492283772677
52.0,5.8199631894240156e-05
56.0,7.922010991023853e-05
60.0,0.00022623468248639256
64.0,0.00019522750517353415
72.0,-2.315884739800822e-05
80.0,-0.0001294163812417537
88.0,-4.194372013444081e-05
96.0,8.701770275365561e-05
104.0,0.0003717471263371408
112.0,0.0002505785378161818
120.0,-0.00022343733871821314
128.0,-0.00040844379691407084
144.0,-0.0004173647612333298
160.0,-0.00043613259913399816
176.0,-0.00015978548617567867
192.0,0.00010046313400380313
208.0,-0.00010557478526607156
224.0,-9.19446611078456e-05
240.0,-0.0004859063192270696
256.0,-0.0003021526208613068
288.0,3.059113441850059e-05
320.0,-0.0002726638922467828
352.0,-0.0005593111272901297
384.0,-1.0248149919789284e-05
416.0,1.124716527556302e-05
448.0,4.4571843318408355e-05
480.0,-0.00019484097720123827
512.0,9.646518446970731e-05
576.0,0.00015135595458559692
640.0,-0.00017917087825480849
704.0,0.0004016375751234591
768.0,0.0001649976329645142
832.0,-0.00014582002768293023
896.0,-8.608462667325512e-05
960.0,-3.3661872294032946e-05
1024.0,3.2085925340652466e-05
1152.0,-0.00018570687097962946
1280.0,-0.0001562630059197545
1408.0,-2.5549297788529657e-05
1536.0,-4.484633245738223e-05
1664.0,-6.522847979795188e-05
1792.0,9.974581189453602e-06
1920.0,-0.000494662148412317
2048.0,-9.099123417399824e-06
2304.0,-0.0002006723079830408
2560.0,-9.074452827917412e-05
2816.0,-4.8993078962666914e-05
3072.0,-4.4101991079514846e-05
3328.0,0.00010227482562186196
3584.0,0.00025057769380509853
3840.0,-0.00016857290756888688
4096.0,0.00012206743122078478
4608.0,3.868629937642254e-05
5120.0,-8.475025424559135e-06
5632.0,-8.551208156859502e-05
6144.0,-3.531286711222492e-05
6656.0,6.28530397079885e-05
7168.0,-9.487604984315112e-05
7680.0,0.00014069095777813345
8192.0,-9.533832053421065e-05
9216.0,8.320061897393316e-05
10240.0,-5.234191121417098e-05
11264.0,5.275583316688426e-05
12288.0,-9.067897917702794e-05
13312.0,3.309547537355684e-05
14336.0,6.009869684930891e-05
end
