version,3.0
numOfCh,1
type,point
parent_name,34a6d_0dot6-0dot01
ch_type,1_1
kcount,1
numberNandB,1
brightnessNandB,1
carpet pos,0
pc,0
Time (ms),CH1 Auto-Correlation
1.0,0.02471727505326271
2.0,0.023584650829434395
3.0,0.02253740094602108
4.0,0.0215710811316967
5.0,0.02068798989057541
6.0,0.019871138036251068
7.0,0.01910015568137169
8.0,0.018332738429307938
9.0,0.01763821393251419
10.0,0.017039338126778603
11.0,0.016466112807393074
12.0,0.015922335907816887
13.0,0.015412909910082817
14.0,0.014898004941642284
15.0,0.014432049356400967
16.0,0.013999411836266518
18.0,0.013198391534388065
20.0,0.012467501685023308
22.0,0.011846852488815784
24.0,0.011321802623569965
26.0,0.010875764302909374
28.0,0.010503685101866722
30.0,0.01019704807549715
32.0,0.009938697330653667
36.0,0.009469959884881973
40.0,0.009022964164614677
44.0,0.008606129325926304
48.0,0.008125243708491325
52.0,0.007656120229512453
56.0,0.007251755800098181
60.0,0.00696778018027544
64.0,0.0068380748853087425
72.0,0.006905011832714081
80.0,0.006781731732189655
88.0,0.006596455816179514
96.0,0.006221671123057604
104.0,0.005895725451409817
112.0,0.005527003668248653
120.0,0.004856047220528126
128.0,0.004502639174461365
144.0,0.0036670661065727472
160.0,0.0030890374910086393
176.0,0.00288586039096117
192.0,0.0032967536244541407
208.0,0.002830376150086522
224.0,0.002020494546741247
240.0,0.0019806406926363707
256.0,0.0016735481331124902
288.0,0.0020013106986880302
320.0,0.0010967213893309236
352.0,0.00022422267647925764
384.0,-6.817398389102891e-05
416.0,-0.0002667455410119146
448.0,-0.0005670740501955152
480.0,-0.0007818475714884698
512.0,2.3091977709555067e-05
576.0,-0.001521301455795765
640.0,-0.0019490252016112208
704.0,-0.001584719866514206
768.0,-0.0014078060630708933
832.0,-0.0007989747682586312
896.0,0.0001956363848876208
960.0,0.00024516903795301914
1024.0,0.0017140856944024563
1152.0,0.0025221577379852533
1280.0,0.002578192390501499
1408.0,0.0010816662106662989
1536.0,0.00041282735764980316
1664.0,-0.00039642356568947434
1792.0,-0.0012457474367693067
1920.0,-0.0009552635601721704
2048.0,-0.00038806776865385473
2304.0,-0.00010721108264988288
2560.0,8.45632966957055e-05
2816.0,-0.00011894770432263613
3072.0,-0.0007020595949143171
3328.0,-0.001131243072450161
3584.0,-0.0007432762649841607
3840.0,-0.00010045792441815138
4096.0,0.0007042658398859203
4608.0,-0.00018067228666041046
5120.0,-0.0009667286649346352
5632.0,-0.0013426452642306685
6144.0,-0.0015728858998045325
6656.0,-0.0019412237452343106
7168.0,0.00025893794372677803
7680.0,-0.001216589123941958
8192.0,-2.9233957320684567e-05
end
