version,3.0
numOfCh,1
type,point
parent_name,34a6d_0dot6-0dot01
ch_type,1_1
kcount,1
numberNandB,1
brightnessNandB,1
carpet pos,0
pc,0
Time (ms),CH1 Auto-Correlation
1.0,0.03004269488155842
2.0,0.02898653782904148
3.0,0.028028124943375587
4.0,0.027158677577972412
5.0,0.02638814225792885
6.0,0.02568717859685421
7.0,0.02502189390361309
8.0,0.02442159876227379
9.0,0.023836148902773857
10.0,0.02328539825975895
11.0,0.022771023213863373
12.0,0.022253980860114098
13.0,0.021719224750995636
14.0,0.021239319816231728
15.0,0.020803561434149742
16.0,0.0203983336687088
18.0,0.01965462788939476
20.0,0.018978774547576904
22.0,0.018341032788157463
24.0,0.017722150310873985
26.0,0.017215212807059288
28.0,0.01679285429418087
30.0,0.016452891752123833
32.0,0.016231268644332886
36.0,0.015935879200696945
40.0,0.015719089657068253
44.0,0.015355335548520088
48.0,0.015032364055514336
52.0,0.014683988876640797
56.0,0.014349417760968208
60.0,0.013819320127367973
64.0,0.013222187757492065
72.0,0.012254935689270496
80.0,0.011632580310106277
88.0,0.01114435400813818
96.0,0.010662133805453777
104.0,0.00989525206387043
112.0,0.009235107339918613
120.0,0.008664334192872047
128.0,0.008051245473325253
144.0,0.007592377718538046
160.0,0.007861483842134476
176.0,0.007794554345309734
192.0,0.007548462599515915
208.0,0.007549626752734184
224.0,0.007218098267912865
240.0,0.0068016317673027515
256.0,0.006487349048256874
288.0,0.005956461187452078
320.0,0.005589187145233154
352.0,0.005131063982844353
384.0,0.0046476642601192
416.0,0.0031741161365062
448.0,0.002323693362995982
480.0,0.0019868940580636263
512.0,0.0012522670440375805
576.0,0.0009336717193946242
640.0,0.0005515769589692354
704.0,-0.0001251389185199514
768.0,-0.0003525132779031992
832.0,0.00015751014871057123
896.0,0.00011869724403368309
960.0,0.00040742242708802223
1024.0,0.0009016407420858741
1152.0,0.0007533978205174208
1280.0,0.002434748224914074
1408.0,0.0031370134092867374
1536.0,0.001051219878718257
1664.0,-0.00021403291611932218
1792.0,-0.0008496955269947648
1920.0,-0.001174568897113204
2048.0,-0.0013047595275565982
2304.0,-5.6495166063541546e-05
2560.0,0.0021826454903930426
2816.0,0.0019229085883125663
3072.0,-0.0001229599874932319
3328.0,0.00020200437575113028
3584.0,0.00043866323539987206
3840.0,-0.00111652840860188
4096.0,-0.001791030983440578
4608.0,-0.0017902717227116227
5120.0,-0.004319285973906517
5632.0,-0.005523006431758404
6144.0,-0.0015590563416481018
6656.0,-0.0021841416601091623
7168.0,0.002205914817750454
7680.0,-0.00468648225069046
8192.0,-0.0026157437823712826
end
