version,3.0
numOfCh,1
type,point
parent_name,34a6d_0dot6-0dot01
ch_type,1_1
kcount,1
numberNandB,1
brightnessNandB,1
carpet pos,0
pc,0
Time (ms),CH1 Auto-Correlation
1.0,0.028283480554819107
2.0,0.027183255180716515
3.0,0.026180915534496307
4.0,0.025246234610676765
5.0,0.024386774748563766
6.0,0.023645460605621338
7.0,0.022962190210819244
8.0,0.022364772856235504
9.0,0.021817654371261597
10.0,0.021285878494381905
11.0,0.020799746736884117
12.0,0.020314032211899757
13.0,0.019846880808472633
14.0,0.019392481073737144
15.0,0.018986821174621582
16.0,0.018600910902023315
18.0,0.017844779416918755
20.0,0.017210708931088448
22.0,0.01659269630908966
24.0,0.016048956662416458
26.0,0.015563703142106533
28.0,0.015159190632402897
30.0,0.014792690984904766
32.0,0.014453946612775326
36.0,0.013662174344062805
40.0,0.012983890250325203
44.0,0.012411074712872505
48.0,0.011837044730782509
52.0,0.011347880586981773
56.0,0.010937761515378952
60.0,0.010448809713125229
64.0,0.010188781656324863
72.0,0.009711671620607376
80.0,0.009275519289076328
88.0,0.008932378143072128
96.0,0.008708423003554344
104.0,0.008242527954280376
112.0,0.007542965468019247
120.0,0.006924191489815712
128.0,0.0064703538082540035
144.0,0.005756225902587175
160.0,0.005579997785389423
176.0,0.005146027076989412
192.0,0.00460526067763567
208.0,0.004050092305988073
224.0,0.003323831595480442
240.0,0.0029151388444006443
256.0,0.002858156803995371
288.0,0.002990985056385398
320.0,0.0029902979731559753
352.0,0.002156732836738229
384.0,0.0016873606946319342
416.0,0.001194777898490429
448.0,0.0005951980128884315
480.0,0.00045066489838063717
512.0,0.000410320091759786
576.0,-0.00032114001805894077
640.0,-0.0006431980873458087
704.0,-0.0006515198620036244
768.0,-0.001298296614550054
832.0,-0.0009051354718394578
896.0,-0.0010308936471119523
960.0,0.0005355286411941051
1024.0,-0.0003618368646129966
1152.0,-0.0010035954182967544
1280.0,0.0003368973557371646
1408.0,0.002244829898700118
1536.0,0.0037121307104825974
1664.0,0.00407814234495163
1792.0,0.002958378754556179
1920.0,0.002858442487195134
2048.0,0.002745741279795766
2304.0,-0.002481781179085374
2560.0,-0.00278147729113698
2816.0,-0.001875098911114037
3072.0,-1.8117658328264952e-05
3328.0,0.0008790762512944639
3584.0,0.0017309929244220257
3840.0,-0.0007120693917386234
4096.0,-0.0017939491663128138
4608.0,-0.0017097312957048416
5120.0,-0.0008350620046257973
5632.0,0.001058496069163084
6144.0,-0.00034198950743302703
6656.0,-0.0004190229228697717
7168.0,0.0013162289978936315
7680.0,0.000743489246815443
8192.0,0.00015626862295903265
end
