version,3.0
numOfCh,1
type,point
parent_name,34a6d_0dot6-0dot01
ch_type,1_1
kcount,1
numberNandB,1
brightnessNandB,1
carpet pos,0
pc,0
Time (ms),CH1 Auto-Correlation
1.0,0.026686212047934532
2.0,0.025596655905246735
3.0,0.024650629609823227
4.0,0.023763084784150124
5.0,0.022917889058589935
6.0,0.022139273583889008
7.0,0.021441783756017685
8.0,0.02079327218234539
9.0,0.020224660634994507
10.0,0.01967286877334118
11.0,0.019157392904162407
12.0,0.01864614337682724
13.0,0.01816781796514988
14.0,0.01770845614373684
15.0,0.017271732911467552
16.0,0.016847554594278336
18.0,0.016109269112348557
20.0,0.015451858751475811
22.0,0.014845234341919422
24.0,0.014278179034590721
26.0,0.013717801310122013
28.0,0.01322392001748085
30.0,0.01280887983739376
32.0,0.012545640580356121
36.0,0.012179374694824219
40.0,0.011733679100871086
44.0,0.011150248348712921
48.0,0.010602157562971115
52.0,0.010088670067489147
56.0,0.009549295529723167
60.0,0.009104558266699314
64.0,0.008912994526326656
72.0,0.008464785292744637
80.0,0.008128311485052109
88.0,0.007802082225680351
96.0,0.007355405017733574
104.0,0.007209501229226589
112.0,0.007050275336951017
120.0,0.00684356177225709
128.0,0.006490838248282671
144.0,0.005478950683027506
160.0,0.005546805914491415
176.0,0.005882495082914829
192.0,0.0053682574070990086
208.0,0.005249754525721073
224.0,0.005704653915017843
240.0,0.0057442146353423595
256.0,0.005566262174397707
288.0,0.0044838129542768
320.0,0.003916636575013399
352.0,0.0032146386802196503
384.0,0.001661294954828918
416.0,0.0005315823364071548
448.0,-4.1545812564436346e-05
480.0,-8.020510722417384e-05
512.0,0.00037217288627289236
576.0,-0.000137674345751293
640.0,-0.0010163262486457825
704.0,-0.0010045665549114347
768.0,-0.00015738802903797477
832.0,-0.000773018051404506
896.0,-0.0012606305535882711
960.0,-0.00025475205620750785
1024.0,-0.0006902974564582109
1152.0,-0.0019559385254979134
1280.0,-0.00164175929967314
1408.0,-0.001536626718007028
1536.0,-0.0009366297163069248
1664.0,-0.0003267552237957716
1792.0,0.0011295839212834835
1920.0,0.0015419976552948356
2048.0,0.0014022287214174867
2304.0,0.00032395118614658713
2560.0,6.422895967261866e-05
2816.0,-0.002016246784478426
3072.0,-0.0034914964344352484
3328.0,-0.0016613902989774942
3584.0,-0.0012616110034286976
3840.0,0.001364896190352738
4096.0,0.0017279719468206167
4608.0,0.002300138585269451
5120.0,-0.0014084030408412218
5632.0,-0.001835516421124339
6144.0,-0.0017589364433661103
6656.0,7.8308665251825e-05
7168.0,-0.0004485505633056164
7680.0,-0.0001601503900019452
8192.0,0.0014340435154736042
end
