version,3.0
numOfCh,1
type,point
parent_name,34a6d_0dot6-0dot01
ch_type,1_1
kcount,1
numberNandB,1
brightnessNandB,1
carpet pos,0
pc,0
Time (ms),CH1 Auto-Correlation
1.0,0.024287868291139603
2.0,0.023214614018797874
3.0,0.022253647446632385
4.0,0.02136060781776905
5.0,0.020565887913107872
6.0,0.019864263013005257
7.0,0.019195402041077614
8.0,0.018605295568704605
9.0,0.018042173236608505
10.0,0.01754356548190117
11.0,0.017056547105312347
12.0,0.016624806448817253
13.0,0.016181783750653267
14.0,0.015759874135255814
15.0,0.015363194979727268
16.0,0.014968030154705048
18.0,0.01420421153306961
20.0,0.013496197760105133
22.0,0.012801172211766243
24.0,0.012144600972533226
26.0,0.011567605659365654
28.0,0.011049234308302402
30.0,0.010550199076533318
32.0,0.010121866129338741
36.0,0.009253934025764465
40.0,0.008474416099488735
44.0,0.0077870674431324005
48.0,0.007198786363005638
52.0,0.006631537340581417
56.0,0.006017816253006458
60.0,0.005323731806129217
64.0,0.004766593687236309
72.0,0.004114278592169285
80.0,0.0036142058670520782
88.0,0.0032371310517191887
96.0,0.0029333573766052723
104.0,0.0027708394918590784
112.0,0.0022764161694794893
120.0,0.001943664625287056
128.0,0.001836949260905385
144.0,0.0014562506694346666
160.0,0.0010980485239997506
176.0,0.001439912710338831
192.0,0.0015860286075621843
208.0,0.0014965329319238663
224.0,0.0014304324286058545
240.0,0.001484088134020567
256.0,0.0013508638367056847
288.0,0.0005657049478031695
320.0,0.0004459343326743692
352.0,-3.815958552877419e-05
384.0,0.00010693612421164289
416.0,0.00048346977564506233
448.0,0.0009633830050006509
480.0,0.00147250946611166
512.0,0.0011232265969738364
576.0,-0.0010042983340099454
640.0,-0.0007511813309974968
704.0,-0.0001889872655738145
768.0,-0.0005035415524616838
832.0,-0.0012539082672446966
896.0,-6.051436503184959e-05
960.0,0.001957264030352235
1024.0,0.0019052871502935886
1152.0,0.003063129959627986
1280.0,0.002459133043885231
1408.0,0.001782038132660091
1536.0,0.0014928344171494246
1664.0,0.0012630302226170897
1792.0,-0.0005532262730412185
1920.0,-0.0007583630504086614
2048.0,-0.00044225913006812334
2304.0,0.00015794998034834862
2560.0,0.0019558053463697433
2816.0,-0.0006366026354953647
3072.0,-0.0018156326841562986
3328.0,-0.0005193836404941976
3584.0,0.001799866440705955
3840.0,0.0011612119851633906
4096.0,-0.001096290652640164
4608.0,0.000259059394011274
5120.0,0.0005098000401630998
5632.0,-0.002901821630075574
6144.0,3.512600960675627e-05
6656.0,-0.003629416925832629
7168.0,-0.0007156072533689439
7680.0,-0.0026353788562119007
8192.0,-0.001931163016706705
end
