version,3.0
numOfCh,1
type,point
parent_name,34a6d_0dot6-0dot01
ch_type,1_1
kcount,1
numberNandB,1
brightnessNandB,1
carpet pos,0
pc,0
Time (ms),CH1 Auto-Correlation
1.0,0.024218827486038208
2.0,0.023042423650622368
3.0,0.022013841196894646
4.0,0.021078379824757576
5.0,0.02022094652056694
6.0,0.01944555714726448
7.0,0.018723538145422935
8.0,0.018053041771054268
9.0,0.01745028980076313
10.0,0.01689000241458416
11.0,0.01635889895260334
12.0,0.015856659039855003
13.0,0.015384431928396225
14.0,0.014901784248650074
15.0,0.014468204230070114
16.0,0.01404122170060873
18.0,0.01327532809227705
20.0,0.012594438157975674
22.0,0.01197879109531641
24.0,0.011388367973268032
26.0,0.010846941731870174
28.0,0.010396207682788372
30.0,0.010014618746936321
32.0,0.009667440317571163
36.0,0.008978729136288166
40.0,0.00834826659411192
44.0,0.007728624623268843
48.0,0.007126597687602043
52.0,0.006536298431456089
56.0,0.005997102241963148
60.0,0.005573240574449301
64.0,0.005171909462660551
72.0,0.004682446829974651
80.0,0.004427717067301273
88.0,0.003990110941231251
96.0,0.0036287156399339437
104.0,0.003342750947922468
112.0,0.002963257720693946
120.0,0.0028780540451407433
128.0,0.0027718273922801018
144.0,0.002121769357472658
160.0,0.0016439895844087005
176.0,0.0018792987102642655
192.0,0.002046581357717514
208.0,0.002266713185235858
224.0,0.0026953276246786118
240.0,0.002649753587320447
256.0,0.002364113461226225
288.0,0.0022811749950051308
320.0,0.0023556353989988565
352.0,0.0024923617020249367
384.0,0.0022830558009445667
416.0,0.0023687758948653936
448.0,0.00221377145498991
480.0,0.0017715257126837969
512.0,0.0007783781620673835
576.0,0.00022179922962095588
640.0,-0.0005372432642616332
704.0,-0.0003099157474935055
768.0,-0.0007207938469946384
832.0,0.0009984216885641217
896.0,0.0009051944361999631
960.0,-0.00016668190073687583
1024.0,-0.0006665205000899732
1152.0,-0.0011394246248528361
1280.0,-0.0017825148534029722
1408.0,-0.0019598358776420355
1536.0,-0.0015132984844967723
1664.0,-0.0020564370788633823
1792.0,-0.0018552991095930338
1920.0,-0.0012084376066923141
2048.0,0.0005991216748952866
2304.0,-0.00014844820543657988
2560.0,0.00028577266493812203
2816.0,0.000764931901358068
3072.0,0.0008216987480409443
3328.0,0.0008213644032366574
3584.0,0.0004941056831739843
3840.0,0.0004757686401717365
4096.0,0.0015849713236093521
4608.0,-3.816431853920221e-05
5120.0,-0.0009662864031270146
5632.0,-0.001817110343836248
6144.0,-7.209556497400627e-05
6656.0,0.001169636845588684
7168.0,0.0016335329273715615
7680.0,0.0008641675813123584
8192.0,-0.000875540601555258
end
