version,3.0
numOfCh,1
type,point
parent_name,34a6d_0dot6-0dot01
ch_type,1_1
kcount,1
numberNandB,1
brightnessNandB,1
carpet pos,0
pc,0
Time (ms),CH1 Auto-Correlation
1.0,0.05260039493441582
2.0,0.05059484764933586
3.0,0.0486295223236084
4.0,0.046803876757621765
5.0,0.04512273892760277
6.0,0.04349862039089203
7.0,0.041946638375520706
8.0,0.040331076830625534
9.0,0.03968475013971329
10.0,0.03897681087255478
11.0,0.03833826258778572
12.0,0.03775079920887947
13.0,0.0371728278696537
14.0,0.036647628992795944
15.0,0.036112651228904724
16.0,0.03566603362560272
18.0,0.0348777137696743
20.0,0.03412523493170738
22.0,0.033270034939050674
24.0,0.032456088811159134
26.0,0.031708724796772
28.0,0.031014351174235344
30.0,0.030363699421286583
32.0,0.02979011833667755
36.0,0.028548499569296837
40.0,0.027685264125466347
44.0,0.026747725903987885
48.0,0.025647373870015144
52.0,0.024791525676846504
56.0,0.024088585749268532
60.0,0.02308846451342106
64.0,0.02233024500310421
72.0,0.021172763779759407
80.0,0.019347328692674637
88.0,0.01877622865140438
96.0,0.018274972215294838
104.0,0.0175373125821352
112.0,0.01689443551003933
120.0,0.016655350103974342
128.0,0.016575830057263374
144.0,0.01684528961777687
160.0,0.016734924167394638
176.0,0.015283278189599514
192.0,0.014994412660598755
208.0,0.015896907076239586
224.0,0.01598292589187622
240.0,0.015270881354808807
256.0,0.01392414141446352
288.0,0.01166472863405943
320.0,0.010869374498724937
352.0,0.009359072893857956
384.0,0.00946831051260233
416.0,0.01069171167910099
448.0,0.012598128989338875
480.0,0.013851836323738098
512.0,0.014553498476743698
576.0,0.016362322494387627
640.0,0.016046499833464622
704.0,0.012688575312495232
768.0,0.008606879971921444
832.0,0.007970444858074188
896.0,0.005704211536794901
960.0,0.005311248358339071
1024.0,0.005679483525454998
1152.0,0.007188837043941021
1280.0,0.004040158819407225
1408.0,0.0025348670314997435
1536.0,0.002432426670566201
1664.0,0.0023173014633357525
1792.0,0.0028774412348866463
1920.0,0.0007966905832290649
2048.0,0.0002552285441197455
2304.0,0.001475461758673191
2560.0,0.0013695936650037766
2816.0,-0.0004924586392007768
3072.0,-0.002040629042312503
3328.0,-0.0023537329398095608
3584.0,-0.0024863211438059807
3840.0,-0.003250021953135729
4096.0,-0.002447981620207429
4608.0,-0.003032442880794406
5120.0,-0.004386101849377155
5632.0,-0.006144859828054905
6144.0,-0.003498851554468274
6656.0,-0.005138888955116272
7168.0,-0.009358730167150497
7680.0,0.001737380982376635
8192.0,0.0006527167861349881
end
