version,3.0
numOfCh,1
type,point
parent_name,34a6d_0dot6-0dot01
ch_type,1_1
kcount,1
numberNandB,1
brightnessNandB,1
carpet pos,0
pc,0
Time (ms),CH1 Auto-Correlation
1.0,0.07040959596633911
2.0,0.06906694173812866
3.0,0.06795576214790344
4.0,0.0668991357088089
5.0,0.0659136027097702
6.0,0.06495141237974167
7.0,0.06404531747102737
8.0,0.06326805800199509
9.0,0.06253424286842346
10.0,0.061883337795734406
11.0,0.06124822422862053
12.0,0.060671355575323105
13.0,0.06010875478386879
14.0,0.05959710478782654
15.0,0.05911814421415329
16.0,0.05863000079989433
18.0,0.05755148082971573
20.0,0.05652845650911331
22.0,0.05556070804595947
24.0,0.05459047853946686
26.0,0.05369101092219353
28.0,0.0530116893351078
30.0,0.05229981988668442
32.0,0.05156920105218887
36.0,0.04984663426876068
40.0,0.04783765971660614
44.0,0.04585738480091095
48.0,0.044038765132427216
52.0,0.042605362832546234
56.0,0.04150717332959175
60.0,0.04025958105921745
64.0,0.03888557106256485
72.0,0.036855608224868774
80.0,0.035443998873233795
88.0,0.03437547758221626
96.0,0.033295463770627975
104.0,0.032337039709091187
112.0,0.03134983032941818
120.0,0.030713286250829697
128.0,0.03024137392640114
144.0,0.029165592044591904
160.0,0.0273286122828722
176.0,0.025338003411889076
192.0,0.023447325453162193
208.0,0.02196868695318699
224.0,0.021231403574347496
240.0,0.020919471979141235
256.0,0.02097313292324543
288.0,0.020560115575790405
320.0,0.020097438246011734
352.0,0.019158799201250076
384.0,0.018940193578600883
416.0,0.020265700295567513
448.0,0.021440882235765457
480.0,0.020669138059020042
512.0,0.01737663522362709
576.0,0.012209376320242882
640.0,0.009734108112752438
704.0,0.009300528094172478
768.0,0.011584158055484295
832.0,0.009333879686892033
896.0,0.007491584401577711
960.0,0.00804486870765686
1024.0,0.009158617816865444
1152.0,0.01827915571630001
1280.0,0.014665964990854263
1408.0,0.013276392593979836
1536.0,0.01680576428771019
1664.0,0.011110424995422363
1792.0,0.006774925626814365
1920.0,0.001038919435814023
2048.0,-0.0060030436143279076
2304.0,-0.004002818837761879
2560.0,-0.008105500601232052
2816.0,-0.002134965965524316
3072.0,-0.016528673470020294
3328.0,-0.02054615691304207
3584.0,-0.02589348703622818
3840.0,-0.017470404505729675
4096.0,-0.013522286899387836
4608.0,-0.023809295147657394
5120.0,-0.020412173122167587
5632.0,-0.006434084847569466
6144.0,-0.009077724069356918
6656.0,0.004171604290604591
7168.0,0.010658740997314453
7680.0,0.012424078769981861
8192.0,0.020652946084737778
end
