version,3.0
numOfCh,1
type,point
parent_name,34a6d_0dot6-0dot01
ch_type,1_1
kcount,1
numberNandB,1
brightnessNandB,1
carpet pos,0
pc,0
Time (ms),CH1 Auto-Correlation
1.0,0.06166909635066986
2.0,0.06067029386758804
3.0,0.0597529299557209
4.0,0.05884354189038277
5.0,0.05797942355275154
6.0,0.05716605857014656
7.0,0.05639199540019035
8.0,0.055628832429647446
9.0,0.05489646643400192
10.0,0.05419677495956421
11.0,0.05350560322403908
12.0,0.052834801375865936
13.0,0.05218089744448662
14.0,0.05158281326293945
15.0,0.05102112889289856
16.0,0.050456851720809937
18.0,0.049347322434186935
20.0,0.04835886508226395
22.0,0.047459278255701065
24.0,0.04673457145690918
26.0,0.046063099056482315
28.0,0.0454428568482399
30.0,0.04486275464296341
32.0,0.04428677633404732
36.0,0.04313722625374794
40.0,0.04205218330025673
44.0,0.04115015268325806
48.0,0.0403669998049736
52.0,0.039660222828388214
56.0,0.03921150416135788
60.0,0.03882140293717384
64.0,0.03843427821993828
72.0,0.03721768781542778
80.0,0.035817597061395645
88.0,0.03441762924194336
96.0,0.03332991153001785
104.0,0.03227979689836502
112.0,0.03148147463798523
120.0,0.030499819666147232
128.0,0.029239092022180557
144.0,0.027003346011042595
160.0,0.02504853717982769
176.0,0.023478325456380844
192.0,0.021894143894314766
208.0,0.01946595311164856
224.0,0.018254129216074944
240.0,0.017881255596876144
256.0,0.01730455458164215
288.0,0.013256512582302094
320.0,0.01284866314381361
352.0,0.012575131841003895
384.0,0.011566679924726486
416.0,0.01007426343858242
448.0,0.007620830554515123
480.0,0.004423723090440035
512.0,0.0017471624305471778
576.0,-5.9638492530211806e-05
640.0,-0.0041614132933318615
704.0,-0.007588624954223633
768.0,-0.007063546217978001
832.0,-0.006434607785195112
896.0,-0.006842215079814196
960.0,-0.008760396391153336
1024.0,-0.0071432022377848625
1152.0,-0.010200434364378452
1280.0,-0.01297876425087452
1408.0,-0.01300215907394886
1536.0,-0.013896810822188854
1664.0,-0.015251651406288147
1792.0,-0.01327026728540659
1920.0,-0.005792723037302494
2048.0,0.0006153509602881968
2304.0,0.001697830855846405
2560.0,-0.0027073267847299576
2816.0,-0.0003926420758944005
3072.0,0.016199534758925438
3328.0,0.020176056772470474
3584.0,0.006817553658038378
3840.0,-0.0034830353688448668
4096.0,-0.011406074278056622
4608.0,-0.015897586941719055
5120.0,-0.002416835632175207
5632.0,0.01456221379339695
6144.0,0.01181052066385746
6656.0,0.005709808319807053
7168.0,-0.009836526587605476
7680.0,-0.0067582265473902225
8192.0,-0.005173948593437672
end
