version,3.0
numOfCh,1
type,point
parent_name,34a6d_0dot6-0dot01
ch_type,1_1
kcount,1
numberNandB,1
brightnessNandB,1
carpet pos,0
pc,0
Time (ms),CH1 Auto-Correlation
1.0,0.02346510998904705
2.0,0.02233346924185753
3.0,0.021316662430763245
4.0,0.02036001719534397
5.0,0.019471658393740654
6.0,0.018674876540899277
7.0,0.017929989844560623
8.0,0.017229564487934113
9.0,0.01656796783208847
10.0,0.0159433726221323
11.0,0.01536024734377861
12.0,0.014766653068363667
13.0,0.014190222136676311
14.0,0.013682548888027668
15.0,0.013205163180828094
16.0,0.012737024575471878
18.0,0.011901109479367733
20.0,0.01109770406037569
22.0,0.010411398485302925
24.0,0.00978253036737442
26.0,0.009180786088109016
28.0,0.008654084987938404
30.0,0.008207016624510288
32.0,0.007802579551935196
36.0,0.007188932970166206
40.0,0.0068678902462124825
44.0,0.006581722293049097
48.0,0.006255469750612974
52.0,0.0058323293924331665
56.0,0.005373520776629448
60.0,0.005042999982833862
64.0,0.004898853600025177
72.0,0.004487089347094297
80.0,0.004025001544505358
88.0,0.0037720410618931055
96.0,0.0034698457457125187
104.0,0.0030855245422571898
112.0,0.0025657268706709146
120.0,0.0021570208482444286
128.0,0.0015705187106505036
144.0,0.0015681044897064567
160.0,0.0015165144577622414
176.0,0.0017473321640864015
192.0,0.0018300809897482395
208.0,0.001255811657756567
224.0,0.0006472042296081781
240.0,0.0007410991238430142
256.0,0.0009433833765797317
288.0,0.0020960504189133644
320.0,0.0012671749573200941
352.0,0.001235330943018198
384.0,0.0017902761464938521
416.0,0.0005728592514060438
448.0,0.00011221288878004998
480.0,-0.0004381004546303302
512.0,-0.001131120603531599
576.0,-0.0006832167273387313
640.0,-0.0015519172884523869
704.0,-0.0012112142285332084
768.0,-0.0009021954610943794
832.0,-0.0013595030177384615
896.0,-0.0016440966865047812
960.0,-0.0006876655388623476
1024.0,-0.0004964802647009492
1152.0,-3.5167082387488335e-05
1280.0,0.0009914423571899533
1408.0,-0.00011051339242840186
1536.0,-9.825616143643856e-05
1664.0,-0.0010570961749181151
1792.0,-0.0008897454245015979
1920.0,-8.377744961762801e-05
2048.0,-0.00010581190144876018
2304.0,0.00024190667318180203
2560.0,0.0012562039773911238
2816.0,0.0002157577982870862
3072.0,-0.0008100123959593475
3328.0,-0.0008837926434352994
3584.0,-0.0010131164453923702
3840.0,-0.00023972346389200538
4096.0,0.0016761755105108023
4608.0,-0.0006536950822919607
5120.0,-0.0007827265071682632
5632.0,0.000292283104499802
6144.0,-0.00038322890759445727
6656.0,-0.0008801064686849713
7168.0,2.496566594345495e-05
7680.0,-0.0002238523302366957
8192.0,0.00041495574987493455
end
