version,3.0
numOfCh,1
type,point
parent_name,34a6d_0dot6-0dot01
ch_type,1_1
kcount,1
numberNandB,1
brightnessNandB,1
carpet pos,0
pc,0
Time (ms),CH1 Auto-Correlation
1.0,0.045346539467573166
2.0,0.04427573084831238
3.0,0.04329865053296089
4.0,0.04238615557551384
5.0,0.04154796153306961
6.0,0.04074503853917122
7.0,0.039993662387132645
8.0,0.039283387362957
9.0,0.03865713253617287
10.0,0.03807549551129341
11.0,0.037553269416093826
12.0,0.03702308237552643
13.0,0.036531541496515274
14.0,0.03607376292347908
15.0,0.0355965755879879
16.0,0.035116393119096756
18.0,0.03427492454648018
20.0,0.03349682688713074
22.0,0.032730020582675934
24.0,0.03206058219075203
26.0,0.03151401877403259
28.0,0.030989279970526695
30.0,0.030454732477664948
32.0,0.030018623918294907
36.0,0.02918073534965515
40.0,0.02838359773159027
44.0,0.02760901488363743
48.0,0.026815567165613174
52.0,0.02602323144674301
56.0,0.02540948987007141
60.0,0.02480749785900116
64.0,0.02422645501792431
72.0,0.02326970547437668
80.0,0.02256930246949196
88.0,0.02199964039027691
96.0,0.021564049646258354
104.0,0.02121451310813427
112.0,0.020636724308133125
120.0,0.01985546387732029
128.0,0.0191184189170599
144.0,0.017709976062178612
160.0,0.017322510480880737
176.0,0.016484323889017105
192.0,0.015855073928833008
208.0,0.015226220712065697
224.0,0.014930796809494495
240.0,0.014182452112436295
256.0,0.0136864073574543
288.0,0.01184206735342741
320.0,0.0110238716006279
352.0,0.010389511473476887
384.0,0.009386622346937656
416.0,0.00802192185074091
448.0,0.007188861723989248
480.0,0.006005808711051941
512.0,0.005550188012421131
576.0,0.006742898374795914
640.0,0.005223612301051617
704.0,0.0035058774519711733
768.0,0.002234012121334672
832.0,0.0016469196416437626
896.0,0.0006986007210798562
960.0,0.001570896478369832
1024.0,0.0013107103295624256
1152.0,-0.000649170542601496
1280.0,0.001871685148216784
1408.0,0.0045784045942127705
1536.0,0.005303442478179932
1664.0,0.0019251222256571054
1792.0,0.0021528953220695257
1920.0,0.005512186326086521
2048.0,0.00519172940403223
2304.0,0.0008852573810145259
2560.0,0.002799524227157235
2816.0,0.002483153948560357
3072.0,-0.0013671376509591937
3328.0,-0.0028217709623277187
3584.0,-0.005808401852846146
3840.0,-0.005912074353545904
4096.0,-0.003245430300012231
4608.0,-0.006025244016200304
5120.0,-0.004788008984178305
5632.0,-0.0040311384946107864
6144.0,-0.00047677624388597906
6656.0,-0.00542524503543973
7168.0,-0.008625989779829979
7680.0,-0.006821127608418465
8192.0,-0.004949626512825489
end
