version,3.0
numOfCh,1
type,point
parent_name,34a6d_0dot6-0dot01
ch_type,1_1
kcount,1
numberNandB,1
brightnessNandB,1
carpet pos,0
pc,0
Time (ms),CH1 Auto-Correlation
1.0,0.09297699481248856
2.0,0.09182749688625336
3.0,0.09077843278646469
4.0,0.08979696780443192
5.0,0.08886033296585083
6.0,0.08797217905521393
7.0,0.08710566908121109
8.0,0.08629708737134933
9.0,0.08551045507192612
10.0,0.08478301763534546
11.0,0.08411620557308197
12.0,0.08347310870885849
13.0,0.0828709825873375
14.0,0.08229464292526245
15.0,0.08170420676469803
16.0,0.08116384595632553
18.0,0.08005275577306747
20.0,0.07894031703472137
22.0,0.07790187001228333
24.0,0.07683728635311127
26.0,0.07581288367509842
28.0,0.07482617348432541
30.0,0.07398214936256409
32.0,0.07315528392791748
36.0,0.07142571359872818
40.0,0.06964047998189926
44.0,0.06815068423748016
48.0,0.06674984842538834
52.0,0.0654112696647644
56.0,0.06409164518117905
60.0,0.06281685084104538
64.0,0.06191626191139221
72.0,0.060394883155822754
80.0,0.05855122581124306
88.0,0.05692756921052933
96.0,0.05568070337176323
104.0,0.05447456240653992
112.0,0.05333719402551651
120.0,0.052062470465898514
128.0,0.05133747309446335
144.0,0.04943028837442398
160.0,0.04785636067390442
176.0,0.04653284326195717
192.0,0.045367639511823654
208.0,0.04347380995750427
224.0,0.041831426322460175
240.0,0.04055656120181084
256.0,0.04019475355744362
288.0,0.0419185645878315
320.0,0.04470515996217728
352.0,0.04566235840320587
384.0,0.04672951251268387
416.0,0.04604017734527588
448.0,0.04401078447699547
480.0,0.04296791926026344
512.0,0.04225385934114456
576.0,0.039421726018190384
640.0,0.0389617495238781
704.0,0.037205085158348083
768.0,0.03494095057249069
832.0,0.029935786500573158
896.0,0.027356117963790894
960.0,0.026981905102729797
1024.0,0.030014056712388992
1152.0,0.025887852534651756
1280.0,0.018215086311101913
1408.0,0.01098504289984703
1536.0,0.009212547913193703
1664.0,0.004455049522221088
1792.0,-0.002612288109958172
1920.0,-0.007354745175689459
2048.0,-0.01147327572107315
2304.0,-0.020978890359401703
2560.0,-0.02877473272383213
2816.0,-0.03187328577041626
3072.0,-0.03157556429505348
3328.0,-0.031100252643227577
3584.0,-0.03080134466290474
3840.0,-0.028932709246873856
4096.0,-0.0286081675440073
4608.0,-0.0223968718200922
5120.0,-0.013122438453137875
5632.0,-0.007565104868263006
6144.0,-0.0034650680609047413
6656.0,-0.0015397882089018822
7168.0,0.007146526128053665
7680.0,0.012238053604960442
8192.0,0.019755760207772255
end
