version,3.0
numOfCh,1
type,point
parent_name,34a6d_0dot6-0dot01
ch_type,1_1
kcount,1
numberNandB,1
brightnessNandB,1
carpet pos,0
pc,0
Time (ms),CH1 Auto-Correlation
1.0,0.12570974230766296
2.0,0.12424241751432419
3.0,0.12285706400871277
4.0,0.12160184234380722
5.0,0.12039880454540253
6.0,0.11923029273748398
7.0,0.11809463798999786
8.0,0.11700277030467987
9.0,0.11592632532119751
10.0,0.11488430947065353
11.0,0.11387965828180313
12.0,0.11285842210054398
13.0,0.11185912787914276
14.0,0.11090151965618134
15.0,0.11000203341245651
16.0,0.10910721123218536
18.0,0.10700816661119461
20.0,0.10537046939134598
22.0,0.10383584350347519
24.0,0.1023993194103241
26.0,0.10119665414094925
28.0,0.10000003129243851
30.0,0.09890000522136688
32.0,0.09778854250907898
36.0,0.09504689276218414
40.0,0.09335841238498688
44.0,0.09164439141750336
48.0,0.09013443440198898
52.0,0.08887689560651779
56.0,0.08768099546432495
60.0,0.08647140115499496
64.0,0.08511849492788315
72.0,0.0821622982621193
80.0,0.07936027646064758
88.0,0.07578390091657639
96.0,0.07241827249526978
104.0,0.06939507275819778
112.0,0.06692235916852951
120.0,0.06516679376363754
128.0,0.0635659471154213
144.0,0.05866508558392525
160.0,0.05322560667991638
176.0,0.04892149567604065
192.0,0.04836959019303322
208.0,0.047874730080366135
224.0,0.0453176386654377
240.0,0.0415329784154892
256.0,0.037813566625118256
288.0,0.030089540407061577
320.0,0.019210459664463997
352.0,0.012889082543551922
384.0,0.01089608296751976
416.0,0.010687424801290035
448.0,0.008777718059718609
480.0,0.007716480642557144
512.0,0.007739385589957237
576.0,0.0037047644145786762
640.0,0.005435936618596315
704.0,0.007119645830243826
768.0,0.007736067287623882
832.0,0.00922701321542263
896.0,0.012505810707807541
960.0,0.013086950406432152
1024.0,0.01458524726331234
1152.0,0.01604495570063591
1280.0,0.011843713000416756
1408.0,0.011742153204977512
1536.0,0.011380909942090511
1664.0,0.01783323846757412
1792.0,0.025518907234072685
1920.0,0.021330585703253746
2048.0,0.016263367608189583
2304.0,0.019166499376296997
2560.0,0.003646162338554859
2816.0,-0.005099219735711813
3072.0,-0.014473403804004192
3328.0,-0.01581762731075287
3584.0,-0.009511816315352917
3840.0,0.0010911697754636407
4096.0,-0.0008445784915238619
4608.0,-0.0029315240681171417
5120.0,-0.020681753754615784
5632.0,-0.024386249482631683
6144.0,-0.007831829600036144
6656.0,-0.0225820429623127
7168.0,-0.03094291500747204
7680.0,-0.03173317015171051
8192.0,-0.015925871208310127
end
