version,3.0
numOfCh,1
type,point
parent_name,34a6d_0dot6-0dot01
ch_type,1_1
kcount,1
numberNandB,1
brightnessNandB,1
carpet pos,0
pc,0
Time (ms),CH1 Auto-Correlation
1.0,0.022346369922161102
2.0,0.02126736007630825
3.0,0.02028423175215721
4.0,0.019382651895284653
5.0,0.018563684076070786
6.0,0.017811834812164307
7.0,0.017083030194044113
8.0,0.016401438042521477
9.0,0.015765786170959473
10.0,0.015172273851931095
11.0,0.014639515429735184
12.0,0.014141588471829891
13.0,0.01366950199007988
14.0,0.013240781612694263
15.0,0.01280125044286251
16.0,0.01238398626446724
18.0,0.011611846275627613
20.0,0.010937625542283058
22.0,0.010300515219569206
24.0,0.009682772681117058
26.0,0.009086906909942627
28.0,0.008472335524857044
30.0,0.007956746965646744
32.0,0.007487181574106216
36.0,0.006666160188615322
40.0,0.006062536966055632
44.0,0.005558563396334648
48.0,0.005122789181768894
52.0,0.00484274560585618
56.0,0.004445221275091171
60.0,0.004100077785551548
64.0,0.003769262693822384
72.0,0.0033094058744609356
80.0,0.002963531296700239
88.0,0.0024488279595971107
96.0,0.0021536003332585096
104.0,0.001708094496279955
112.0,0.0012199018383398652
120.0,0.0006130704423412681
128.0,0.0002129150670953095
144.0,0.00025708985049277544
160.0,0.000352072820533067
176.0,0.00019089427951257676
192.0,-0.0003228106943424791
208.0,-0.0004862026544287801
224.0,-0.0004525539989117533
240.0,-0.00022914598230272532
256.0,4.121213351027109e-06
288.0,0.00016263635188806802
320.0,5.1323830120963976e-05
352.0,-0.0005480473628267646
384.0,-0.000650127709377557
416.0,-4.656396413338371e-06
448.0,7.510761497542262e-05
480.0,0.0008734831935726106
512.0,0.0010755914263427258
576.0,0.00027292556478641927
640.0,-0.0005328353145159781
704.0,0.0005138764390721917
768.0,0.0008802222437225282
832.0,-9.041142220667098e-06
896.0,-0.000640610174741596
960.0,-0.000701693759765476
1024.0,-0.0002474430075380951
1152.0,-0.0007179828826338053
1280.0,-5.0712751544779167e-05
1408.0,-0.0003432158846408129
1536.0,-0.0011321799829602242
1664.0,-0.00010088210547110066
1792.0,-0.00032116196234710515
1920.0,-0.0007295399555005133
2048.0,0.0012498036958277225
2304.0,0.0002543222508393228
2560.0,0.0001905130920931697
2816.0,0.00018386472947895527
3072.0,-0.0012991600669920444
3328.0,0.00033773979521356523
3584.0,0.0001738882128847763
3840.0,-0.0003076083667110652
4096.0,-0.0002162586897611618
4608.0,0.0003303770499769598
5120.0,-0.00036546780029311776
5632.0,0.0002670809917617589
6144.0,0.0003079576708842069
6656.0,-0.0007990477606654167
7168.0,-0.0007133109611459076
7680.0,5.61668275622651e-05
8192.0,0.0012017565313726664
end
