version,3.0
numOfCh,1
type,point
parent_name,34a6d_0dot6-0dot01
ch_type,1_1
kcount,1
numberNandB,1
brightnessNandB,1
carpet pos,0
pc,0
Time (ms),CH1 Auto-Correlation
1.0,0.066073477268219
2.0,0.06504333019256592
3.0,0.0640750601887703
4.0,0.06318122893571854
5.0,0.06232665479183197
6.0,0.061532001942396164
7.0,0.06081259623169899
8.0,0.06013583391904831
9.0,0.059520985931158066
10.0,0.05892040953040123
11.0,0.058364033699035645
12.0,0.057826269418001175
13.0,0.0572957843542099
14.0,0.05679337680339813
15.0,0.056328218430280685
16.0,0.05588381364941597
18.0,0.055059418082237244
20.0,0.05424286052584648
22.0,0.053467102348804474
24.0,0.05264885723590851
26.0,0.05189341679215431
28.0,0.05117928981781006
30.0,0.05052104592323303
32.0,0.049936555325984955
36.0,0.04876282066106796
40.0,0.04769608750939369
44.0,0.04670845344662666
48.0,0.04588726907968521
52.0,0.044972628355026245
56.0,0.04384575039148331
60.0,0.04283323511481285
64.0,0.041999224573373795
72.0,0.04056093096733093
80.0,0.03959456831216812
88.0,0.03872465714812279
96.0,0.03742808848619461
104.0,0.03596305102109909
112.0,0.03458873927593231
120.0,0.03340993449091911
128.0,0.03213068097829819
144.0,0.029289618134498596
160.0,0.02739790454506874
176.0,0.02609962783753872
192.0,0.024709520861506462
208.0,0.023733776062726974
224.0,0.022351065650582314
240.0,0.021366750821471214
256.0,0.020984923467040062
288.0,0.02046124078333378
320.0,0.018425459042191505
352.0,0.017274461686611176
384.0,0.013507233932614326
416.0,0.01078298781067133
448.0,0.007401785347610712
480.0,0.003974854946136475
512.0,0.0017919180681928992
576.0,0.001839850447140634
640.0,0.001034111948683858
704.0,7.365276815107791e-06
768.0,-0.0014217800926417112
832.0,-0.0016946418909355998
896.0,-3.1487281376030296e-05
960.0,5.306814273353666e-05
1024.0,-0.0006979204481467605
1152.0,-0.0026966105215251446
1280.0,-0.0026955059729516506
1408.0,-0.001097031868994236
1536.0,-0.004134874325245619
1664.0,-0.007324425503611565
1792.0,-0.008030363358557224
1920.0,-0.010399090126156807
2048.0,-0.009319704957306385
2304.0,-0.0067259566858410835
2560.0,-0.001863623852841556
2816.0,-0.004371110815554857
3072.0,-0.012882757000625134
3328.0,-0.008877634070813656
3584.0,0.002990340581163764
3840.0,0.010003959760069847
4096.0,0.01116199977695942
4608.0,-0.005466500762850046
5120.0,-0.01084513496607542
5632.0,-0.006350834853947163
6144.0,-0.008022925816476345
6656.0,0.012155300937592983
7168.0,0.0049034906551241875
7680.0,0.032589688897132874
8192.0,0.027706144377589226
end
