version,3.0
numOfCh,1
type,point
parent_name,34a6d_0dot6-0dot01
ch_type,1_1
kcount,1
numberNandB,1
brightnessNandB,1
carpet pos,0
pc,0
Time (ms),CH1 Auto-Correlation
1.0,0.0365898534655571
2.0,0.03549598529934883
3.0,0.03451349958777428
4.0,0.03361036628484726
5.0,0.03276071697473526
6.0,0.031952403485774994
7.0,0.03119882196187973
8.0,0.030507517978549004
9.0,0.02985844947397709
10.0,0.02926279976963997
11.0,0.028714479878544807
12.0,0.028195876628160477
13.0,0.02770375832915306
14.0,0.027233008295297623
15.0,0.026788413524627686
16.0,0.02635316364467144
18.0,0.02554088830947876
20.0,0.024814393371343613
22.0,0.024143842980265617
24.0,0.02356257475912571
26.0,0.02304120920598507
28.0,0.022512508556246758
30.0,0.022014684975147247
32.0,0.02157048135995865
36.0,0.02086210437119007
40.0,0.02026572823524475
44.0,0.019726714119315147
48.0,0.01917179673910141
52.0,0.01864132657647133
56.0,0.01820993609726429
60.0,0.017819955945014954
64.0,0.01745966449379921
72.0,0.016686733812093735
80.0,0.016283860430121422
88.0,0.015896260738372803
96.0,0.01568848080933094
104.0,0.015516003593802452
112.0,0.015607589855790138
120.0,0.015800083056092262
128.0,0.015578243881464005
144.0,0.014408988878130913
160.0,0.013089667074382305
176.0,0.012541688978672028
192.0,0.01161840371787548
208.0,0.011470681987702847
224.0,0.011296873912215233
240.0,0.010412345640361309
256.0,0.009065507911145687
288.0,0.007680854760110378
320.0,0.008482935838401318
352.0,0.008747085928916931
384.0,0.007855293340981007
416.0,0.007359806448221207
448.0,0.007401627022773027
480.0,0.007189772091805935
512.0,0.006164525635540485
576.0,0.006056583020836115
640.0,0.006706578191369772
704.0,0.007835077121853828
768.0,0.006048082374036312
832.0,0.004600046668201685
896.0,0.0033778275828808546
960.0,0.003150261240079999
1024.0,0.002894148463383317
1152.0,0.00393002899363637
1280.0,0.0013410472311079502
1408.0,-0.001982583664357662
1536.0,-0.0014013766776770353
1664.0,-0.000598552287556231
1792.0,0.0009435582906007767
1920.0,0.0021728966385126114
2048.0,0.0006140721961855888
2304.0,0.0006240086513571441
2560.0,-0.0018715818878263235
2816.0,-0.00152336445171386
3072.0,7.548798021161929e-05
3328.0,-0.0009185112430714071
3584.0,-7.80156915425323e-05
3840.0,0.0013471737038344145
4096.0,0.0032225167378783226
4608.0,-0.004528653342276812
5120.0,-0.003183051710948348
5632.0,-0.006141856778413057
6144.0,-0.005796739831566811
6656.0,-0.00953152310103178
7168.0,-0.00506447721272707
7680.0,-0.0026464322581887245
8192.0,0.0011811942094936967
end
