version,3.0
numOfCh,1
type,point
parent_name,34a6d_0dot6-0dot01
ch_type,1_1
kcount,1
numberNandB,1
brightnessNandB,1
carpet pos,0
pc,0
Time (ms),CH1 Auto-Correlation
1.0,0.04457208514213562
2.0,0.04344407469034195
3.0,0.04240167513489723
4.0,0.04143616184592247
5.0,0.04050663486123085
6.0,0.03962406888604164
7.0,0.03877081349492073
8.0,0.0379757359623909
9.0,0.03725931793451309
10.0,0.0365394689142704
11.0,0.035871222615242004
12.0,0.03522776439785957
13.0,0.0345960408449173
14.0,0.03399243950843811
15.0,0.03341996297240257
16.0,0.03287402540445328
18.0,0.031867772340774536
20.0,0.03092317469418049
22.0,0.0300391037017107
24.0,0.029180679470300674
26.0,0.028396712616086006
28.0,0.02773965895175934
30.0,0.027238480746746063
32.0,0.026770416647195816
36.0,0.026007184758782387
40.0,0.02545335330069065
44.0,0.02494760788977146
48.0,0.024437105283141136
52.0,0.023788638412952423
56.0,0.023231983184814453
60.0,0.022947346791625023
64.0,0.022784192115068436
72.0,0.02231525257229805
80.0,0.021659260615706444
88.0,0.02106069028377533
96.0,0.020557450130581856
104.0,0.020144138485193253
112.0,0.01959407515823841
120.0,0.01861739531159401
128.0,0.01774085871875286
144.0,0.017446326091885567
160.0,0.017539365217089653
176.0,0.016643792390823364
192.0,0.015627387911081314
208.0,0.014666254632174969
224.0,0.013914140872657299
240.0,0.013284499756991863
256.0,0.012526320293545723
288.0,0.010443923063576221
320.0,0.008148955181241035
352.0,0.006898568011820316
384.0,0.005997939966619015
416.0,0.006423924118280411
448.0,0.005959267262369394
480.0,0.005752169992774725
512.0,0.004760759882628918
576.0,0.003181123174726963
640.0,0.002319110557436943
704.0,0.0007318465504795313
768.0,-0.001304900273680687
832.0,-0.0017473975894972682
896.0,-0.00260619237087667
960.0,-0.003653762862086296
1024.0,-0.0026996887754648924
1152.0,-0.0026880051009356976
1280.0,-0.003303065663203597
1408.0,-0.0033823857083916664
1536.0,-0.0040427520871162415
1664.0,-0.0018941169837489724
1792.0,0.0016698173712939024
1920.0,0.0015258357161656022
2048.0,-0.0018061784794554114
2304.0,-0.0023967919405549765
2560.0,-0.003246183739975095
2816.0,-0.003281068056821823
3072.0,-0.003258846001699567
3328.0,-0.002624284941703081
3584.0,-0.002121553523465991
3840.0,-0.002872171113267541
4096.0,-0.0022718829568475485
4608.0,-0.0009490173542872071
5120.0,0.000206013151910156
5632.0,0.009243475273251534
6144.0,0.007184506859630346
6656.0,-0.002291412791237235
7168.0,-0.004289754666388035
7680.0,0.002442341297864914
8192.0,0.0008731167763471603
end
