version,3.0
numOfCh,1
type,point
parent_name,34a6d_0dot6-0dot01
ch_type,1_1
kcount,1
numberNandB,1
brightnessNandB,1
carpet pos,0
pc,0
Time (ms),CH1 Auto-Correlation
1.0,0.04758714139461517
2.0,0.04637105390429497
3.0,0.04526706784963608
4.0,0.04424060136079788
5.0,0.0432809479534626
6.0,0.04237391799688339
7.0,0.04155942425131798
8.0,0.040787145495414734
9.0,0.04002384468913078
10.0,0.039308253675699234
11.0,0.03863136097788811
12.0,0.037995435297489166
13.0,0.037405360490083694
14.0,0.03681548684835434
15.0,0.03629568964242935
16.0,0.03578849136829376
18.0,0.03487728163599968
20.0,0.03394746407866478
22.0,0.03310294821858406
24.0,0.032433878630399704
26.0,0.03168313950300217
28.0,0.030925434082746506
30.0,0.030157221481204033
32.0,0.029443319886922836
36.0,0.028183072805404663
40.0,0.02695971168577671
44.0,0.02578461356461048
48.0,0.024670898914337158
52.0,0.023705003783106804
56.0,0.022703291848301888
60.0,0.02153291366994381
64.0,0.020383493974804878
72.0,0.01882404275238514
80.0,0.017939016222953796
88.0,0.017123017460107803
96.0,0.01602618210017681
104.0,0.014850432053208351
112.0,0.01392211951315403
120.0,0.013197469525039196
128.0,0.012214352376759052
144.0,0.011095602996647358
160.0,0.00933108665049076
176.0,0.008408253081142902
192.0,0.008131678216159344
208.0,0.00852575246244669
224.0,0.008766322396695614
240.0,0.008773773908615112
256.0,0.00823686271905899
288.0,0.006713689770549536
320.0,0.007909124717116356
352.0,0.008376220241189003
384.0,0.007251869887113571
416.0,0.006139571312814951
448.0,0.007001196965575218
480.0,0.00718584144487977
512.0,0.007494758348912001
576.0,0.008431222289800644
640.0,0.007355439476668835
704.0,0.005079630296677351
768.0,0.0023644124157726765
832.0,0.0009594903676770627
896.0,0.0005621342570520937
960.0,-0.0020233234390616417
1024.0,0.0004465784877538681
1152.0,0.004941428080201149
1280.0,0.00047754126717336476
1408.0,0.002550864592194557
1536.0,0.0012692166492342949
1664.0,0.0030172422993928194
1792.0,0.0020019435323774815
1920.0,0.002611443866044283
2048.0,0.0018478845013305545
2304.0,0.0007784122717566788
2560.0,-0.0029750254470854998
2816.0,-0.005615298170596361
3072.0,-0.006220719311386347
3328.0,-0.006389684975147247
3584.0,-0.006648797541856766
3840.0,-0.00512961158528924
4096.0,-0.003477391554042697
4608.0,-0.0016237215604633093
5120.0,-0.006413571536540985
5632.0,-0.0042847986333072186
6144.0,-0.0007098191999830306
6656.0,0.0005874995840713382
7168.0,-0.003521417733281851
7680.0,0.002688466804102063
8192.0,0.0009996804874390364
end
