version,3.0
numOfCh,1
type,point
parent_name,34a6d_0dot6-0dot01
ch_type,1_1
kcount,1
numberNandB,1
brightnessNandB,1
carpet pos,0
pc,0
Time (ms),CH1 Auto-Correlation
1.0,0.024508094415068626
2.0,0.023350181058049202
3.0,0.022284382954239845
4.0,0.021327190101146698
5.0,0.020463993772864342
6.0,0.019642457365989685
7.0,0.01889907568693161
8.0,0.01819716766476631
9.0,0.017518337815999985
10.0,0.01691172644495964
11.0,0.01633508689701557
12.0,0.015817658975720406
13.0,0.01535436138510704
14.0,0.014920146204531193
15.0,0.014470885507762432
16.0,0.014026306569576263
18.0,0.013208020478487015
20.0,0.01250858511775732
22.0,0.011922121979296207
24.0,0.011395901441574097
26.0,0.010907728224992752
28.0,0.010485264472663403
30.0,0.010085663758218288
32.0,0.009778659790754318
36.0,0.00921629462391138
40.0,0.008687230758368969
44.0,0.00824996642768383
48.0,0.007953627966344357
52.0,0.007668778300285339
56.0,0.007547487039119005
60.0,0.007340280804783106
64.0,0.007086342200636864
72.0,0.006553015671670437
80.0,0.005794520955532789
88.0,0.005072969477623701
96.0,0.004740961827337742
104.0,0.004498068243265152
112.0,0.004104285035282373
120.0,0.0037496478762477636
128.0,0.0037150338757783175
144.0,0.0035578925162553787
160.0,0.0040185232646763325
176.0,0.0043674432672560215
192.0,0.004009690601378679
208.0,0.003204842796549201
224.0,0.003021115902811289
240.0,0.0030402005650103092
256.0,0.003130728378891945
288.0,0.0027165384963154793
320.0,0.0026221235748380423
352.0,0.003100818954408169
384.0,0.0029151563066989183
416.0,0.00262374896556139
448.0,0.002536643762141466
480.0,0.001873560482636094
512.0,0.0011203507892787457
576.0,0.0015334711642935872
640.0,0.0021976486314088106
704.0,0.0015238734195008874
768.0,0.0018312499159947038
832.0,0.0013853284763172269
896.0,0.0011376322945579886
960.0,0.0021422842983156443
1024.0,0.0029595796950161457
1152.0,0.0009661571821197867
1280.0,0.0004164836718700826
1408.0,-0.00019065677770413458
1536.0,-0.002776362933218479
1664.0,-0.0012805243022739887
1792.0,-0.0010683025466278195
1920.0,0.00027634689467959106
2048.0,0.00022947420075070113
2304.0,0.000848076306283474
2560.0,-0.0006419767742045224
2816.0,0.0006322389817796648
3072.0,0.0014366479590535164
3328.0,0.0012729914160445333
3584.0,-0.00010141012899111956
3840.0,-0.001347299199551344
4096.0,-3.177141843480058e-05
4608.0,-0.0014678017469123006
5120.0,-0.0006612399592995644
5632.0,-0.0011970150517299771
6144.0,-0.0016153408214449883
6656.0,-0.0027422423008829355
7168.0,-0.002539344597607851
7680.0,-0.0021207842510193586
8192.0,-0.001981385052204132
end
