version,3.0
numOfCh,1
type,point
parent_name,34a6d_0dot6-0dot01
ch_type,1_1
kcount,1
numberNandB,1
brightnessNandB,1
carpet pos,0
pc,0
Time (ms),CH1 Auto-Correlation
1.0,0.022937165573239326
2.0,0.021803904324769974
3.0,0.020796755328774452
4.0,0.019900517538189888
5.0,0.019076813012361526
6.0,0.01831754855811596
7.0,0.01764534041285515
8.0,0.017019521445035934
9.0,0.01642831414937973
10.0,0.01586908847093582
11.0,0.015332426875829697
12.0,0.014823533594608307
13.0,0.014366907067596912
14.0,0.013894516974687576
15.0,0.013434240594506264
16.0,0.01302596926689148
18.0,0.012208194471895695
20.0,0.01144348829984665
22.0,0.010725806467235088
24.0,0.010068269446492195
26.0,0.009534991346299648
28.0,0.009061030112206936
30.0,0.00863146036863327
32.0,0.008251316845417023
36.0,0.007505109999328852
40.0,0.0068428972736001015
44.0,0.0062253763899207115
48.0,0.005641504190862179
52.0,0.00507274130359292
56.0,0.0046737901866436005
60.0,0.004304877948015928
64.0,0.004109435249119997
72.0,0.0039130812510848045
80.0,0.0036136351991444826
88.0,0.0035889167338609695
96.0,0.003213777905330062
104.0,0.002815223066136241
112.0,0.0024430446792393923
120.0,0.0019918212201446295
128.0,0.001498360768891871
144.0,0.0004290520155336708
160.0,6.0532336647156626e-05
176.0,0.0003562927304301411
192.0,0.0005598228890448809
208.0,0.0010842813644558191
224.0,0.001677091233432293
240.0,0.0011964264558628201
256.0,0.0006666279514320195
288.0,0.0006857533589936793
320.0,0.0005991187645122409
352.0,0.0005910239415243268
384.0,0.0012610680423676968
416.0,0.0016702056163921952
448.0,0.0013819652376696467
480.0,0.0012826875317841768
512.0,0.0008237174479290843
576.0,0.0006861957372166216
640.0,-0.00042596718412823975
704.0,-0.0007829582900740206
768.0,-0.0016441803891211748
832.0,0.00017452298197895288
896.0,0.0006135549047030509
960.0,0.00015119412273634225
1024.0,-3.7329577025957406e-05
1152.0,0.00021612302225548774
1280.0,-0.0003582739154808223
1408.0,0.000161169286002405
1536.0,0.00028561853105202317
1664.0,-0.000288107868982479
1792.0,0.00015871885989326984
1920.0,-0.0001789006491890177
2048.0,-0.00048166350461542606
2304.0,-0.00032754638232290745
2560.0,-6.587852112716064e-05
2816.0,0.00037508687819354236
3072.0,-0.00041927886195480824
3328.0,-7.603759877383709e-05
3584.0,-0.00035776454024016857
3840.0,0.0008682702318765223
4096.0,0.0008563847513869405
4608.0,-0.0005684112547896802
5120.0,-0.0001354200066998601
5632.0,0.0002825784613378346
6144.0,-0.0010326305637136102
6656.0,-0.0019370188238099217
7168.0,-0.0009198558400385082
7680.0,-5.658981899614446e-05
8192.0,0.0001365713687846437
end
