version,3.0
numOfCh,1
type,point
parent_name,34a6d_0dot6-0dot01
ch_type,1_1
kcount,1
numberNandB,1
brightnessNandB,1
carpet pos,0
pc,0
Time (ms),CH1 Auto-Correlation
1.0,0.030871687456965446
2.0,0.029812317341566086
3.0,0.02885797806084156
4.0,0.027962341904640198
5.0,0.027121448889374733
6.0,0.026319527998566628
7.0,0.025584816932678223
8.0,0.024910202249884605
9.0,0.024308467283844948
10.0,0.023784823715686798
11.0,0.023328766226768494
12.0,0.022874098271131516
13.0,0.02243857830762863
14.0,0.022013923153281212
15.0,0.021629225462675095
16.0,0.02127142995595932
18.0,0.020563580095767975
20.0,0.01989550143480301
22.0,0.01930742897093296
24.0,0.01875346526503563
26.0,0.01823757216334343
28.0,0.017730843275785446
30.0,0.017264587804675102
32.0,0.016836004331707954
36.0,0.016064206138253212
40.0,0.01549096405506134
44.0,0.01504247821867466
48.0,0.01451038010418415
52.0,0.013969087041914463
56.0,0.013413996435701847
60.0,0.012906834483146667
64.0,0.012388165108859539
72.0,0.011663246899843216
80.0,0.011109168641269207
88.0,0.010611055418848991
96.0,0.01023067906498909
104.0,0.009905865415930748
112.0,0.009246248751878738
120.0,0.00845362525433302
128.0,0.008308672346174717
144.0,0.0074638365767896175
160.0,0.006930148229002953
176.0,0.006510934792459011
192.0,0.006450100336223841
208.0,0.005842841230332851
224.0,0.005091489292681217
240.0,0.0045713502913713455
256.0,0.00437162397429347
288.0,0.003966979216784239
320.0,0.0031130225397646427
352.0,0.002611913252621889
384.0,0.0016254932852461934
416.0,0.0014543848810717463
448.0,0.00035771168768405914
480.0,0.00022939371410757303
512.0,0.001327003352344036
576.0,0.003832086455076933
640.0,0.004598925821483135
704.0,0.0054026502184569836
768.0,0.005269347224384546
832.0,0.003867137711495161
896.0,0.00402803672477603
960.0,0.004118043463677168
1024.0,0.002906532259657979
1152.0,-0.00013768371718470007
1280.0,0.0017874616896733642
1408.0,0.0036635366268455982
1536.0,0.003184666857123375
1664.0,0.0015052749076858163
1792.0,0.0007155070197768509
1920.0,0.001233263872563839
2048.0,0.00153059558942914
2304.0,-0.002010796219110489
2560.0,-0.0010147326393052936
2816.0,0.0024190095718950033
3072.0,2.0736506485263817e-05
3328.0,-9.628618863644078e-05
3584.0,0.0015136251458898187
3840.0,0.0006105590728111565
4096.0,-0.0012404733570292592
4608.0,0.001320226350799203
5120.0,0.000525263196323067
5632.0,0.0007390027749352157
6144.0,-0.001834496739320457
6656.0,-0.002380958292633295
7168.0,-0.0014185149921104312
7680.0,-0.0038999246899038553
8192.0,-0.0030108620412647724
end
