version,3.0
numOfCh,1
type,point
parent_name,34a6d_0dot6-0dot01
ch_type,1_1
kcount,1
numberNandB,1
brightnessNandB,1
carpet pos,0
pc,0
Time (ms),CH1 Auto-Correlation
1.0,0.13487696647644043
2.0,0.1337825506925583
3.0,0.13272826373577118
4.0,0.1317756026983261
5.0,0.1308097094297409
6.0,0.12992507219314575
7.0,0.12906363606452942
8.0,0.1282641589641571
9.0,0.12745006382465363
10.0,0.12670621275901794
11.0,0.12602455914020538
12.0,0.12542526423931122
13.0,0.12483392655849457
14.0,0.1242610365152359
15.0,0.12369350343942642
16.0,0.12319843471050262
18.0,0.1222233921289444
20.0,0.12129515409469604
22.0,0.12043759971857071
24.0,0.119517020881176
26.0,0.11858361959457397
28.0,0.11774230748414993
30.0,0.11695375293493271
32.0,0.11612163484096527
36.0,0.11466389149427414
40.0,0.1131814643740654
44.0,0.11157973110675812
48.0,0.11020816117525101
52.0,0.10887151211500168
56.0,0.10772684216499329
60.0,0.10685144364833832
64.0,0.10617643594741821
72.0,0.10479802638292313
80.0,0.10354657471179962
88.0,0.10242494940757751
96.0,0.10144493728876114
104.0,0.10054092854261398
112.0,0.0993955209851265
120.0,0.09872780740261078
128.0,0.09848128259181976
144.0,0.09799088537693024
160.0,0.09757642447948456
176.0,0.09638840705156326
192.0,0.09456008672714233
208.0,0.09315687417984009
224.0,0.09114843606948853
240.0,0.08812262862920761
256.0,0.08473268896341324
288.0,0.0781874880194664
320.0,0.07309421896934509
352.0,0.06951329112052917
384.0,0.0660097673535347
416.0,0.06087402254343033
448.0,0.05619678273797035
480.0,0.053129322826862335
512.0,0.04671443998813629
576.0,0.03529464825987816
640.0,0.02759961411356926
704.0,0.019034801051020622
768.0,0.010835963301360607
832.0,0.005369105376303196
896.0,0.00044213482760824263
960.0,-0.007028784602880478
1024.0,-0.009923725388944149
1152.0,-0.01688327267765999
1280.0,-0.02364225499331951
1408.0,-0.027623891830444336
1536.0,-0.029451651498675346
1664.0,-0.028313595801591873
1792.0,-0.023695722222328186
1920.0,-0.02268030494451523
2048.0,-0.018976910039782524
2304.0,-0.005107364617288113
2560.0,-0.0028696442022919655
2816.0,0.004605235066264868
3072.0,0.01061486266553402
3328.0,0.022305013611912727
3584.0,0.031941771507263184
3840.0,0.01644197478890419
4096.0,-0.001495899516157806
4608.0,-0.02105170302093029
5120.0,-0.03016950562596321
5632.0,-0.02547416463494301
6144.0,-0.038635414093732834
6656.0,-0.04800784960389137
7168.0,-0.03787101060152054
7680.0,-0.006832728628069162
8192.0,0.029080072417855263
end
