version,3.0
numOfCh,1
type,point
parent_name,34a6d_0dot6-0dot01
ch_type,1_1
kcount,1
numberNandB,1
brightnessNandB,1
carpet pos,0
pc,0
Time (ms),CH1 Auto-Correlation
1.0,0.03215327113866806
2.0,0.03098965622484684
3.0,0.029897265136241913
4.0,0.028935521841049194
5.0,0.028051050379872322
6.0,0.02724716253578663
7.0,0.02652066759765148
8.0,0.02586662583053112
9.0,0.025314778089523315
10.0,0.02474493533372879
11.0,0.024245772510766983
12.0,0.023757681250572205
13.0,0.023281630128622055
14.0,0.022844787687063217
15.0,0.022410638630390167
16.0,0.021999416872859
18.0,0.021263903006911278
20.0,0.020582718774676323
22.0,0.019907405599951744
24.0,0.019286153838038445
26.0,0.018725236877799034
28.0,0.01817276142537594
30.0,0.017650634050369263
32.0,0.017141761258244514
36.0,0.016166210174560547
40.0,0.015217273496091366
44.0,0.014341404661536217
48.0,0.013505838811397552
52.0,0.012797078117728233
56.0,0.012080260552465916
60.0,0.011429721489548683
64.0,0.010916433297097683
72.0,0.010180617682635784
80.0,0.009623038582503796
88.0,0.00944463163614273
96.0,0.00949353538453579
104.0,0.00937223806977272
112.0,0.009204554371535778
120.0,0.008845505304634571
128.0,0.008466321043670177
144.0,0.007808934431523085
160.0,0.007355811540037394
176.0,0.0071462346240878105
192.0,0.006887970492243767
208.0,0.006711351219564676
224.0,0.006303837057203054
240.0,0.005708430428057909
256.0,0.005078931339085102
288.0,0.003919510170817375
320.0,0.003066791919991374
352.0,0.00319336517713964
384.0,0.002979509299620986
416.0,0.0026539794635027647
448.0,0.002007958246394992
480.0,-0.00021049506904091686
512.0,-0.0006592486170120537
576.0,-0.0005591886583715677
640.0,0.00015749929298181087
704.0,0.00020262760517653078
768.0,0.0014965806622058153
832.0,0.0007754233665764332
896.0,0.000500948284752667
960.0,-0.0009404717711731791
1024.0,-0.0022765123285353184
1152.0,-0.0017222109017893672
1280.0,0.00020658099674619734
1408.0,0.0017408818239346147
1536.0,0.00455436622723937
1664.0,0.0031928298994898796
1792.0,0.0007735179970040917
1920.0,6.343786935758544e-06
2048.0,0.0008193948888219893
2304.0,-0.0004596809158101678
2560.0,-0.0019150646403431892
2816.0,-0.0013429195387288928
3072.0,0.0008419867954216897
3328.0,0.0006859928253106773
3584.0,-0.002360069192945957
3840.0,-0.004279234446585178
4096.0,-0.003778523299843073
4608.0,0.001652567065320909
5120.0,0.0005701549234800041
5632.0,-0.0028232878539711237
6144.0,0.0009429043857380748
6656.0,0.0005678049637936056
7168.0,-0.0021501134615391493
7680.0,-0.0018836456583812833
8192.0,-0.002789012622088194
end
