version,3.0
numOfCh,1
type,point
parent_name,19e3e_0dot2-1dot0
ch_type,1_1
kcount,1
numberNandB,1
brightnessNandB,1
carpet pos,0
pc,0
Time (ms),CH1 Auto-Correlation
1.0,0.02034819684922695
2.0,0.019888440147042274
3.0,0.01946292258799076
4.0,0.019056688994169235
5.0,0.018676307052373886
6.0,0.018304960802197456
7.0,0.01795312389731407
8.0,0.017627889290452003
9.0,0.01729963719844818
10.0,0.016979800537228584
11.0,0.01668318174779415
12.0,0.016387809067964554
13.0,0.016102245077490807
14.0,0.01582745462656021
15.0,0.015561848878860474
16.0,0.015307781286537647
18.0,0.014807647094130516
20.0,0.014311195351183414
22.0,0.013835770078003407
24.0,0.013408494181931019
26.0,0.0130018824711442
28.0,0.012626181356608868
30.0,0.012255476787686348
32.0,0.011901971884071827
36.0,0.0112295588478446
40.0,0.010619143955409527
44.0,0.010008201003074646
48.0,0.00943783763796091
52.0,0.008871646597981453
56.0,0.008361773565411568
60.0,0.007912956178188324
64.0,0.007462302688509226
72.0,0.006618042476475239
80.0,0.005841543897986412
88.0,0.005252839531749487
96.0,0.004669188987463713
104.0,0.00415055500343442
112.0,0.003670135047286749
120.0,0.003275867784395814
128.0,0.0028979133348912
144.0,0.0026280696038156748
160.0,0.0027623639907687902
176.0,0.0029403665103018284
192.0,0.0031644171103835106
208.0,0.003261849284172058
224.0,0.003390441183000803
240.0,0.0033719909843057394
256.0,0.0031684953719377518
288.0,0.0021412656642496586
320.0,0.0007322508608922362
352.0,1.9612318283179775e-05
384.0,-0.0002748131228145212
416.0,-0.0005681660259142518
448.0,-0.0005205458146519959
480.0,-0.0006167672108858824
512.0,-0.000452107226010412
576.0,0.000858126615639776
640.0,0.0013458540197461843
704.0,0.00014588990597985685
768.0,-0.0009587162057869136
832.0,0.0010422776686027646
896.0,0.0015522362664341927
960.0,0.000987508101388812
1024.0,-0.000523523660376668
1152.0,0.0005628532380796969
1280.0,-0.0006365564768202603
1408.0,-0.0019472123822197318
1536.0,-0.0011857879580929875
1664.0,-0.0008825648110359907
1792.0,0.00047006519162096083
1920.0,-0.00016824703197926283
2048.0,-0.0006059480947442353
2304.0,-0.0003027553320862353
2560.0,-0.0007228623726405203
2816.0,0.0003405319876037538
3072.0,0.0001848793326644227
3328.0,-0.002656388795003295
3584.0,-0.0012509346706792712
3840.0,1.6923855582717806e-05
4096.0,0.0022153721656650305
4608.0,0.000867808994371444
5120.0,0.0006576369050890207
5632.0,-0.0016319906571879983
6144.0,-0.0006120636826381087
6656.0,0.0005244316998869181
7168.0,0.0005656562861986458
7680.0,-0.001424129935912788
8192.0,-0.00036814165650866926
end
