version,3.0
numOfCh,1
type,point
parent_name,19e3e_0dot2-1dot0
ch_type,1_1
kcount,1
numberNandB,1
brightnessNandB,1
carpet pos,0
pc,0
Time (ms),CH1 Auto-Correlation
1.0,0.021362973377108574
2.0,0.020968075841665268
3.0,0.020583558827638626
4.0,0.020220905542373657
5.0,0.01987071894109249
6.0,0.01953485608100891
7.0,0.019207706674933434
8.0,0.018893204629421234
9.0,0.01857622154057026
10.0,0.01827591471374035
11.0,0.017977019771933556
12.0,0.017692934721708298
13.0,0.01741783320903778
14.0,0.01715719886124134
15.0,0.016905438154935837
16.0,0.016657410189509392
18.0,0.016173388808965683
20.0,0.015728779137134552
22.0,0.015321200713515282
24.0,0.014934602193534374
26.0,0.014561529271304607
28.0,0.01421397551894188
30.0,0.013868034817278385
32.0,0.01353625301271677
36.0,0.012941958382725716
40.0,0.012355474755167961
44.0,0.011816433630883694
48.0,0.011326356790959835
52.0,0.010811387561261654
56.0,0.010370476171374321
60.0,0.01003955863416195
64.0,0.009769920259714127
72.0,0.009378031827509403
80.0,0.009023133665323257
88.0,0.008729805238544941
96.0,0.008335520513355732
104.0,0.00804514903575182
112.0,0.007727205753326416
120.0,0.007351068779826164
128.0,0.006930438801646233
144.0,0.006334196776151657
160.0,0.0056546530686318874
176.0,0.005349430255591869
192.0,0.005073654465377331
208.0,0.005240648984909058
224.0,0.005490286275744438
240.0,0.005316389724612236
256.0,0.005074528977274895
288.0,0.004263036418706179
320.0,0.003771429182961583
352.0,0.0036907228641211987
384.0,0.0034998557530343533
416.0,0.002870736410841346
448.0,0.0031562387011945248
480.0,0.0034262791741639376
512.0,0.0030484285671263933
576.0,0.0028086770325899124
640.0,0.0018179850885644555
704.0,0.0003668717690743506
768.0,0.00014520845434162766
832.0,0.0005082787247374654
896.0,0.0008755901944823563
960.0,0.00034756658715195954
1024.0,-0.0007600444951094687
1152.0,-0.0011958671966567636
1280.0,-0.0018227013060823083
1408.0,-0.002029379131272435
1536.0,-0.0014311103150248528
1664.0,-0.0007717290427535772
1792.0,-0.000924913096241653
1920.0,-0.0028971885330975056
2048.0,-0.0025504424702376127
2304.0,-0.0015611550770699978
2560.0,-0.0020542561542242765
2816.0,-0.002293171128258109
3072.0,-0.0014286456862464547
3328.0,0.0008850209414958954
3584.0,0.0028969370760023594
3840.0,0.0030444818548858166
4096.0,0.0008125906460918486
4608.0,-0.001818527583964169
5120.0,-0.0032890525180846453
5632.0,-0.002159824362024665
6144.0,-0.0021063724998384714
6656.0,-0.0019514168379828334
7168.0,0.0009994792053475976
7680.0,0.004033166449517012
8192.0,0.0031332604121416807
end
