version,3.0
numOfCh,1
type,point
parent_name,19e3e_0dot2-1dot0
ch_type,1_1
kcount,1
numberNandB,1
brightnessNandB,1
carpet pos,0
pc,0
Time (ms),CH1 Auto-Correlation
1.0,0.022578781470656395
2.0,0.022132692858576775
3.0,0.021706484258174896
4.0,0.021299168467521667
5.0,0.0209049042314291
6.0,0.020528240129351616
7.0,0.020167527720332146
8.0,0.01981215365231037
9.0,0.01948271505534649
10.0,0.01916327327489853
11.0,0.018856219947338104
12.0,0.01853839121758938
13.0,0.01823309063911438
14.0,0.017947128042578697
15.0,0.01766086369752884
16.0,0.017384251579642296
18.0,0.016828015446662903
20.0,0.016315773129463196
22.0,0.01584642380475998
24.0,0.01540896762162447
26.0,0.01498088613152504
28.0,0.01454272959381342
30.0,0.01409603375941515
32.0,0.013651921413838863
36.0,0.012853081338107586
40.0,0.01223839446902275
44.0,0.011722863651812077
48.0,0.011271652765572071
52.0,0.010830232873558998
56.0,0.010380561463534832
60.0,0.009897678159177303
64.0,0.009467188268899918
72.0,0.008851634338498116
80.0,0.008241795934736729
88.0,0.007578450255095959
96.0,0.006971466355025768
104.0,0.006292763166129589
112.0,0.005554461386054754
120.0,0.004891207441687584
128.0,0.004360687453299761
144.0,0.003884526900947094
160.0,0.0038054033648222685
176.0,0.0037485843058675528
192.0,0.0038987230509519577
208.0,0.0042922161519527435
224.0,0.004377872683107853
240.0,0.00440042931586504
256.0,0.0043216850608587265
288.0,0.004379871767014265
320.0,0.00432599289342761
352.0,0.0038380988407880068
384.0,0.0032631102949380875
416.0,0.0027674289885908365
448.0,0.0029834893066436052
480.0,0.0027601653710007668
512.0,0.002569039585068822
576.0,0.0025092510040849447
640.0,0.002728675492107868
704.0,0.0025340288411825895
768.0,0.0022796601988375187
832.0,0.0008047411683946848
896.0,-0.00021604755602311343
960.0,-0.0008828627760522068
1024.0,0.0004138151998631656
1152.0,0.0003559119359124452
1280.0,0.0007767208153381944
1408.0,0.00027060540742240846
1536.0,-0.0021103613544255495
1664.0,-0.0024536075070500374
1792.0,-0.0011141733266413212
1920.0,-0.0011933580972254276
2048.0,-0.0008881690446287394
2304.0,-0.0008703602361492813
2560.0,-0.0003921678871847689
2816.0,-0.002331733237951994
3072.0,-0.002418339950963855
3328.0,-0.001401688321493566
3584.0,-0.000812840647995472
3840.0,-0.00019693969807121903
4096.0,-0.000228083212277852
4608.0,-0.0011736629530787468
5120.0,-0.0015686831902712584
5632.0,-0.0011561205610632896
6144.0,-0.0008029916789382696
6656.0,0.0006492376560345292
7168.0,0.0004441165365278721
7680.0,-0.0005345780518837273
8192.0,-0.001720256870612502
end
