version,3.0
numOfCh,1
type,point
parent_name,19e3e_0dot2-1dot0
ch_type,1_1
kcount,1
numberNandB,1
brightnessNandB,1
carpet pos,0
pc,0
Time (ms),CH1 Auto-Correlation
1.0,0.02250026911497116
2.0,0.022070785984396935
3.0,0.021664336323738098
4.0,0.021286221221089363
5.0,0.020910488441586494
6.0,0.020549189299345016
7.0,0.020203864201903343
8.0,0.01987592875957489
9.0,0.019559647887945175
10.0,0.01924564689397812
11.0,0.018934262916445732
12.0,0.018620764836668968
13.0,0.018309807404875755
14.0,0.018013153225183487
15.0,0.017743270844221115
16.0,0.01748860999941826
18.0,0.017017707228660583
20.0,0.016536345705389977
22.0,0.016080128028988838
24.0,0.015649966895580292
26.0,0.015234789811074734
28.0,0.014851182699203491
30.0,0.014522331766784191
32.0,0.014215034432709217
36.0,0.013679971918463707
40.0,0.01323186606168747
44.0,0.012835267931222916
48.0,0.012451971881091595
52.0,0.012071400880813599
56.0,0.011665700003504753
60.0,0.011289535090327263
64.0,0.011018571443855762
72.0,0.010416104458272457
80.0,0.009836927056312561
88.0,0.009278655052185059
96.0,0.008810939267277718
104.0,0.008482438512146473
112.0,0.00807186495512724
120.0,0.007637381553649902
128.0,0.007260260172188282
144.0,0.0067336768843233585
160.0,0.006477884482592344
176.0,0.006395924836397171
192.0,0.006382710766047239
208.0,0.006440758239477873
224.0,0.0065061855129897594
240.0,0.006121957208961248
256.0,0.005644851829856634
288.0,0.005805010907351971
320.0,0.0053014676086604595
352.0,0.0047771683894097805
384.0,0.004906910005956888
416.0,0.0056442380882799625
448.0,0.0063300724141299725
480.0,0.0069338916800916195
512.0,0.007286944892257452
576.0,0.006256734021008015
640.0,0.00539727509021759
704.0,0.005177819635719061
768.0,0.005051629617810249
832.0,0.0044984533451497555
896.0,0.0035357435699552298
960.0,0.0035534247290343046
1024.0,0.004365881904959679
1152.0,0.004385736305266619
1280.0,0.004931170493364334
1408.0,0.004135092720389366
1536.0,0.003864883678033948
1664.0,0.0029998423997312784
1792.0,0.0033203354105353355
1920.0,0.00138757168315351
2048.0,0.0003150721895508468
2304.0,3.2831700082169846e-05
2560.0,-0.0008197497809305787
2816.0,-0.0012680049985647202
3072.0,-0.0018923775060102344
3328.0,-0.0017124367877840996
3584.0,-0.003588123945519328
3840.0,-0.004066785331815481
4096.0,-0.004841407760977745
4608.0,-0.004557220730930567
5120.0,-0.00405817711725831
5632.0,-0.003069366794079542
6144.0,-0.0025032460689544678
6656.0,-0.000505582254845649
7168.0,0.0007706349715590477
7680.0,0.001864924095571041
8192.0,0.0042938608676195145
end
