version,3.0
numOfCh,1
type,point
parent_name,19e3e_0dot2-1dot0
ch_type,1_1
kcount,1
numberNandB,1
brightnessNandB,1
carpet pos,0
pc,0
Time (ms),CH1 Auto-Correlation
1.0,0.01886916346848011
2.0,0.018425211310386658
3.0,0.01799474097788334
4.0,0.01759582757949829
5.0,0.017207540571689606
6.0,0.01682565174996853
7.0,0.016456950455904007
8.0,0.016092075034976006
9.0,0.015740981325507164
10.0,0.015404317528009415
11.0,0.01506957970559597
12.0,0.01475599966943264
13.0,0.014448893256485462
14.0,0.014157168567180634
15.0,0.013886518776416779
16.0,0.013619530014693737
18.0,0.013122341595590115
20.0,0.012656108476221561
22.0,0.012206374667584896
24.0,0.011781190522015095
26.0,0.011364754289388657
28.0,0.010976040735840797
30.0,0.010620101355016232
32.0,0.01029374822974205
36.0,0.009689069353044033
40.0,0.00911549013108015
44.0,0.00859314575791359
48.0,0.008099597878754139
52.0,0.007716515567153692
56.0,0.007336052134633064
60.0,0.006970998831093311
64.0,0.0066925035789608955
72.0,0.006360690575093031
80.0,0.006212418433278799
88.0,0.006064171902835369
96.0,0.005861437413841486
104.0,0.005573756527155638
112.0,0.0053319442085921764
120.0,0.005144482012838125
128.0,0.0049009607173502445
144.0,0.004085283726453781
160.0,0.0033387690782546997
176.0,0.0026227314956486225
192.0,0.0022568036802113056
208.0,0.001858496223576367
224.0,0.0010456820018589497
240.0,0.0003587840183172375
256.0,-0.0002630537492223084
288.0,-0.00034501898335292935
320.0,-0.0003333533531986177
352.0,-0.0012072816025465727
384.0,-0.0012778382515534759
416.0,-0.0011896775104105473
448.0,-0.0012740966631099582
480.0,-0.001275491202250123
512.0,-0.00022984406678006053
576.0,0.0004069368587806821
640.0,0.0009108392987400293
704.0,0.00045352178858593106
768.0,-0.00034254713682457805
832.0,-0.000605089298915118
896.0,-0.0006333585479296744
960.0,0.0003057085268665105
1024.0,0.0004143850819673389
1152.0,0.00016464553482364863
1280.0,0.0007593251648359001
1408.0,0.0005069440230727196
1536.0,0.0012703153770416975
1664.0,0.0005724621587432921
1792.0,-0.001405046321451664
1920.0,-0.0017472548643127084
2048.0,0.0003657537163235247
2304.0,0.0010293989907950163
2560.0,0.0013373794499784708
2816.0,0.0009054634720087051
3072.0,0.00036329112481325865
3328.0,-0.0004806846263818443
3584.0,-0.0016276438254863024
3840.0,0.0005300137563608587
4096.0,-0.00031195138581097126
4608.0,-0.0008207145729102194
5120.0,-0.00034417459391988814
5632.0,-5.949780097580515e-05
6144.0,-0.0007442957139573991
6656.0,-0.0005885392893105745
7168.0,0.0004854021535720676
7680.0,-1.5928069842630066e-05
8192.0,0.0009323779377155006
end
