version,3.0
numOfCh,1
type,point
parent_name,19e3e_0dot2-1dot0
ch_type,1_1
kcount,1
numberNandB,1
brightnessNandB,1
carpet pos,0
pc,0
Time (ms),CH1 Auto-Correlation
1.0,0.021112482994794846
2.0,0.020665833726525307
3.0,0.020256487652659416
4.0,0.019869975745677948
5.0,0.01948094740509987
6.0,0.019099479541182518
7.0,0.01872744970023632
8.0,0.018378090113401413
9.0,0.01805081218481064
10.0,0.01772591844201088
11.0,0.017420494928956032
12.0,0.017126016318798065
13.0,0.0168596263974905
14.0,0.016602853313088417
15.0,0.016352396458387375
16.0,0.016114475205540657
18.0,0.015644021332263947
20.0,0.015187605284154415
22.0,0.01475451234728098
24.0,0.014355822466313839
26.0,0.013948047533631325
28.0,0.013546442613005638
30.0,0.013126674108207226
32.0,0.012723138555884361
36.0,0.012000780552625656
40.0,0.011362181976437569
44.0,0.010809049941599369
48.0,0.010317622683942318
52.0,0.009856400080025196
56.0,0.009436728432774544
60.0,0.009102084673941135
64.0,0.008728078566491604
72.0,0.008011482656002045
80.0,0.0075027053244411945
88.0,0.0070922779850661755
96.0,0.006671871058642864
104.0,0.006183108780533075
112.0,0.005735620390623808
120.0,0.00534980371594429
128.0,0.005063080694526434
144.0,0.004892864730209112
160.0,0.004347344860434532
176.0,0.00395343080163002
192.0,0.003941349685192108
208.0,0.0038868640549480915
224.0,0.0036589999217540026
240.0,0.003314742585644126
256.0,0.002870614407584071
288.0,0.0021918825805187225
320.0,0.0015702428063377738
352.0,0.0012308623408898711
384.0,0.00031876435969024897
416.0,-0.0011899078963324428
448.0,-0.0015347383450716734
480.0,-0.0013495681341737509
512.0,-0.0019188986625522375
576.0,-0.0033574176486581564
640.0,-0.0037942349445074797
704.0,-0.004726830404251814
768.0,-0.004305663052946329
832.0,-0.00330645265057683
896.0,-0.0024005535524338484
960.0,-0.0008898290107026696
1024.0,-5.633882756228559e-05
1152.0,0.0007081277435645461
1280.0,1.1026631909771822e-05
1408.0,5.701848567696288e-05
1536.0,0.0007729335920885205
1664.0,0.001521703670732677
1792.0,0.002192180138081312
1920.0,0.001055707922205329
2048.0,0.00041370547842234373
2304.0,-0.002426670165732503
2560.0,-0.002113288501277566
2816.0,7.651967462152243e-05
3072.0,0.0016508728731423616
3328.0,0.0013388454681262374
3584.0,-0.00015139716560952365
3840.0,-0.0006489662919193506
4096.0,-0.00022020698816049844
4608.0,0.000722844444680959
5120.0,-0.0004797892179340124
5632.0,-0.0005849681328982115
6144.0,-0.0007854905561544001
6656.0,0.003398915519937873
7168.0,-0.00256142346188426
7680.0,-0.0007829419919289649
8192.0,0.0008693831623531878
end
