version,3.0
numOfCh,1
type,point
parent_name,19e3e_0dot2-1dot0
ch_type,1_1
kcount,1
numberNandB,1
brightnessNandB,1
carpet pos,0
pc,0
Time (ms),CH1 Auto-Correlation
1.0,0.019657906144857407
2.0,0.019220134243369102
3.0,0.01882144995033741
4.0,0.018453208729624748
5.0,0.018105406314134598
6.0,0.017739655449986458
7.0,0.017386676743626595
8.0,0.01704980619251728
9.0,0.016729163005948067
10.0,0.01642535626888275
11.0,0.016129206866025925
12.0,0.01583426631987095
13.0,0.015558230690658092
14.0,0.015296357683837414
15.0,0.015037696808576584
16.0,0.014776073396205902
18.0,0.014247440733015537
20.0,0.013772796839475632
22.0,0.013315715827047825
24.0,0.012929580174386501
26.0,0.012595918960869312
28.0,0.012244896963238716
30.0,0.01187362615019083
32.0,0.011523843742907047
36.0,0.01080169528722763
40.0,0.010159016586840153
44.0,0.009604394435882568
48.0,0.009091418236494064
52.0,0.008600103668868542
56.0,0.008142028003931046
60.0,0.007711406331509352
64.0,0.007315469905734062
72.0,0.006444090977311134
80.0,0.005575342103838921
88.0,0.0048984079621732235
96.0,0.004394941963255405
104.0,0.00409503560513258
112.0,0.003856259398162365
120.0,0.0036068756598979235
128.0,0.0034859981387853622
144.0,0.0031497199088335037
160.0,0.002823110204190016
176.0,0.0024270303547382355
192.0,0.0022413625847548246
208.0,0.0021779602393507957
224.0,0.0021805469878017902
240.0,0.0020861986558884382
256.0,0.0017892759060487151
288.0,0.000553852878510952
320.0,4.365167842479423e-05
352.0,-0.00017560142441652715
384.0,-0.0002946558524854481
416.0,-0.0005372079322114587
448.0,-0.0007954901084303856
480.0,-0.0011756493477150798
512.0,-0.0011070453329011798
576.0,-0.0006892457604408264
640.0,-0.0014662103494629264
704.0,-0.0010672194184735417
768.0,-0.00046287637087516487
832.0,5.664653508574702e-05
896.0,0.00046004634350538254
960.0,0.0006674647447653115
1024.0,0.000241742905927822
1152.0,0.0010489040287211537
1280.0,-1.6578349459450692e-05
1408.0,-0.0009262599633075297
1536.0,-0.001070927595719695
1664.0,-0.0001742605963954702
1792.0,0.000744190183468163
1920.0,0.00038438456249423325
2048.0,0.0006670985021628439
2304.0,0.0021424649748951197
2560.0,-0.00037963473005220294
2816.0,-0.00037591453292407095
3072.0,-0.0018570576794445515
3328.0,-0.0003148055402562022
3584.0,0.00020087198936380446
3840.0,-0.0013424765784293413
4096.0,-0.001612028107047081
4608.0,-0.0008871887112036347
5120.0,-0.0003511763643473387
5632.0,0.0009275986230932176
6144.0,-0.0016799242002889514
6656.0,-0.00030558957951143384
7168.0,-0.000253091478953138
7680.0,9.071217209566385e-05
8192.0,0.000287590897642076
end
