version,3.0
numOfCh,1
type,point
parent_name,19e3e_0dot2-1dot0
ch_type,1_1
kcount,1
numberNandB,1
brightnessNandB,1
carpet pos,0
pc,0
Time (ms),CH1 Auto-Correlation
1.0,0.021746430546045303
2.0,0.021329134702682495
3.0,0.02093270793557167
4.0,0.02054734155535698
5.0,0.02017454244196415
6.0,0.019808197394013405
7.0,0.019456254318356514
8.0,0.019097791984677315
9.0,0.018760571256279945
10.0,0.018440507352352142
11.0,0.018136674538254738
12.0,0.017841244116425514
13.0,0.017551839351654053
14.0,0.01727663353085518
15.0,0.017001142725348473
16.0,0.016735432669520378
18.0,0.016230113804340363
20.0,0.015762601047754288
22.0,0.015331512317061424
24.0,0.01490432396531105
26.0,0.01449330523610115
28.0,0.0141121381893754
30.0,0.013768901117146015
32.0,0.013466265052556992
36.0,0.012872117571532726
40.0,0.012275497429072857
44.0,0.011729942634701729
48.0,0.011255432851612568
52.0,0.0108113968744874
56.0,0.010343126021325588
60.0,0.009898356162011623
64.0,0.009500551968812943
72.0,0.008714856579899788
80.0,0.008002147078514099
88.0,0.007397347595542669
96.0,0.00698378449305892
104.0,0.006758390460163355
112.0,0.006698419339954853
120.0,0.0065454477444291115
128.0,0.00627395324409008
144.0,0.006213153712451458
160.0,0.006259622983634472
176.0,0.0060887266881763935
192.0,0.005823321640491486
208.0,0.005440672859549522
224.0,0.005096231121569872
240.0,0.0050849514082074165
256.0,0.004973496776074171
288.0,0.004079295322299004
320.0,0.0032449986319988966
352.0,0.0031640424858778715
384.0,0.0036303899250924587
416.0,0.0032445713877677917
448.0,0.003309657098725438
480.0,0.0034858747385442257
512.0,0.00372967217117548
576.0,0.0030614440329372883
640.0,0.0029046398121863604
704.0,0.0026393940206617117
768.0,0.001987482886761427
832.0,0.0025749874766916037
896.0,0.002595515688881278
960.0,0.0034276379738003016
1024.0,0.004112905822694302
1152.0,0.0027689344715327024
1280.0,0.0016482434002682567
1408.0,0.00035208187182433903
1536.0,-0.0010916318278759718
1664.0,-0.0010823099873960018
1792.0,-0.0005014657508581877
1920.0,-0.00029368832474574447
2048.0,-0.0012425576569512486
2304.0,-0.0015876353718340397
2560.0,-0.0016321296570822597
2816.0,-8.003912080312148e-05
3072.0,0.0003163559304084629
3328.0,0.0010406672954559326
3584.0,0.001898829243145883
3840.0,0.0018639159388840199
4096.0,0.002972264075651765
4608.0,0.002881797030568123
5120.0,0.0017863379325717688
5632.0,-0.0016964715905487537
6144.0,-0.003920402377843857
6656.0,-0.005414536688476801
7168.0,-0.004333266522735357
7680.0,-0.0025635999627411366
8192.0,-0.0009771197801455855
end
