version,3.0
numOfCh,1
type,point
parent_name,19e3e_0dot2-1dot0
ch_type,1_1
kcount,1
numberNandB,1
brightnessNandB,1
carpet pos,0
pc,0
Time (ms),CH1 Auto-Correlation
1.0,0.023993775248527527
2.0,0.023550178855657578
3.0,0.02312019094824791
4.0,0.022731155157089233
5.0,0.022358227521181107
6.0,0.021994274109601974
7.0,0.02165701426565647
8.0,0.021317018195986748
9.0,0.020977521315217018
10.0,0.020645570009946823
11.0,0.020321734249591827
12.0,0.02000184915959835
13.0,0.01970336213707924
14.0,0.01941397413611412
15.0,0.019124632701277733
16.0,0.01885412074625492
18.0,0.018402809277176857
20.0,0.017974423244595528
22.0,0.0175468847155571
24.0,0.01714766025543213
26.0,0.016767051070928574
28.0,0.016380729153752327
30.0,0.01596916653215885
32.0,0.015571050345897675
36.0,0.01483408734202385
40.0,0.014128041453659534
44.0,0.013528721407055855
48.0,0.012965499423444271
52.0,0.012443906627595425
56.0,0.011927745305001736
60.0,0.011384335346519947
64.0,0.01094864308834076
72.0,0.01029173843562603
80.0,0.009660367853939533
88.0,0.009055305272340775
96.0,0.008673686534166336
104.0,0.00830999854952097
112.0,0.00800104346126318
120.0,0.007733513601124287
128.0,0.007478185463696718
144.0,0.006782902870327234
160.0,0.006253592669963837
176.0,0.005904282908886671
192.0,0.0056016286835074425
208.0,0.0055291661992669106
224.0,0.004988734610378742
240.0,0.004569778218865395
256.0,0.004110161680728197
288.0,0.003203083761036396
320.0,0.0022572281304746866
352.0,0.0013380303280428052
384.0,0.0002509354962967336
416.0,-0.0003955056890845299
448.0,-0.0005657275905832648
480.0,-0.00023417097690980881
512.0,-0.00014311884297057986
576.0,0.0003451192460488528
640.0,0.0004315216210670769
704.0,-0.0002572262892499566
768.0,-0.0012925376649945974
832.0,-0.002253666054457426
896.0,-0.0013461915077641606
960.0,-0.0012134435819461942
1024.0,-0.0012831439962610602
1152.0,-0.0018084788462147117
1280.0,-0.001852082321420312
1408.0,-0.0014890359016135335
1536.0,-0.0004324198525864631
1664.0,0.0004946401459164917
1792.0,6.612973083974794e-05
1920.0,-0.000514822721015662
2048.0,-0.003163712564855814
2304.0,-0.002430122811347246
2560.0,-0.0014852635795250535
2816.0,-0.002731782617047429
3072.0,-0.0004935143515467644
3328.0,-0.0006350018666125834
3584.0,0.00028715666849166155
3840.0,0.0005467747105285525
4096.0,0.0017389479326084256
4608.0,-0.0001530155132059008
5120.0,-0.0013049172703176737
5632.0,-0.0010098746279254556
6144.0,0.0012436194811016321
6656.0,0.00399680994451046
7168.0,0.0025792219676077366
7680.0,0.0009523775661364198
8192.0,-0.0028851954266428947
end
