version,3.0
numOfCh,1
type,point
parent_name,19e3e_0dot2-1dot0
ch_type,1_1
kcount,1
numberNandB,1
brightnessNandB,1
carpet pos,0
pc,0
Time (ms),CH1 Auto-Correlation
1.0,0.026657648384571075
2.0,0.026226146146655083
3.0,0.025813115760684013
4.0,0.02541845664381981
5.0,0.025050565600395203
6.0,0.024676864966750145
7.0,0.024340001866221428
8.0,0.024015327915549278
9.0,0.023702602833509445
10.0,0.023403702303767204
11.0,0.023121509701013565
12.0,0.022832129150629044
13.0,0.02254883572459221
14.0,0.022281816229224205
15.0,0.022034993395209312
16.0,0.021784169599413872
18.0,0.021292710676789284
20.0,0.020811263471841812
22.0,0.020333372056484222
24.0,0.019879095256328583
26.0,0.019450610503554344
28.0,0.01906491629779339
30.0,0.018691785633563995
32.0,0.018331263214349747
36.0,0.01760917156934738
40.0,0.016948997974395752
44.0,0.016264192759990692
48.0,0.015631603077054024
52.0,0.015037165023386478
56.0,0.014475752599537373
60.0,0.013928948901593685
64.0,0.013397445902228355
72.0,0.012542364187538624
80.0,0.011851197108626366
88.0,0.011252160184085369
96.0,0.010824915021657944
104.0,0.010479715652763844
112.0,0.01018968503922224
120.0,0.009962346404790878
128.0,0.00977011676877737
144.0,0.009570920839905739
160.0,0.00899942871183157
176.0,0.008241992443799973
192.0,0.007590474095195532
208.0,0.007055661641061306
224.0,0.0065929642878472805
240.0,0.006045510061085224
256.0,0.005733277648687363
288.0,0.005764114670455456
320.0,0.005710786674171686
352.0,0.0050152624025940895
384.0,0.004283856134861708
416.0,0.003687240183353424
448.0,0.0030915807001292706
480.0,0.002190236235037446
512.0,0.001341772498562932
576.0,0.0001764042826835066
640.0,-0.0012630429118871689
704.0,-0.002680059988051653
768.0,-0.0021810382604599
832.0,-0.0022343862801790237
896.0,-0.0026809514965862036
960.0,-0.002185933757573366
1024.0,-0.002385546686127782
1152.0,-0.002237088745459914
1280.0,-0.0017731597181409597
1408.0,-0.0013659234391525388
1536.0,-0.001751487608999014
1664.0,-0.0026787682436406612
1792.0,-0.002019190229475498
1920.0,-0.0021762154065072536
2048.0,-0.0015281172236427665
2304.0,-0.0007563774124719203
2560.0,0.0007789296796545386
2816.0,0.00029202562291175127
3072.0,-0.002867296105250716
3328.0,-0.00334574724547565
3584.0,-0.000995335984043777
3840.0,-0.0003711115277837962
4096.0,-0.0018507152562960982
4608.0,-0.001425255904905498
5120.0,-0.00024530119844712317
5632.0,0.000562439439818263
6144.0,0.0031321498099714518
6656.0,0.005633595399558544
7168.0,-0.002620471641421318
7680.0,-0.0004663471772801131
8192.0,0.0008616849081590772
end
