version,3.0
numOfCh,1
type,point
parent_name,19e3e_0dot2-1dot0
ch_type,1_1
kcount,1
numberNandB,1
brightnessNandB,1
carpet pos,0
pc,0
Time (ms),CH1 Auto-Correlation
1.0,0.017633793875575066
2.0,0.01722552254796028
3.0,0.016853900626301765
4.0,0.016501696780323982
5.0,0.016170818358659744
6.0,0.015855565667152405
7.0,0.01555385161191225
8.0,0.015250779688358307
9.0,0.014952302910387516
10.0,0.014666657894849777
11.0,0.0143843749538064
12.0,0.014122582972049713
13.0,0.01387111097574234
14.0,0.01362199243158102
15.0,0.013386551290750504
16.0,0.013154261745512486
18.0,0.012698165141046047
20.0,0.012277736328542233
22.0,0.011876832693815231
24.0,0.01151240337640047
26.0,0.011186066083610058
28.0,0.010888769291341305
30.0,0.010584632866084576
32.0,0.01026881579309702
36.0,0.009712613187730312
40.0,0.009157901629805565
44.0,0.008688420988619328
48.0,0.00830637663602829
52.0,0.00799532700330019
56.0,0.00768668856471777
60.0,0.0074099404737353325
64.0,0.007152702659368515
72.0,0.006519679445773363
80.0,0.005882695317268372
88.0,0.005342635791748762
96.0,0.004822419490665197
104.0,0.004428926855325699
112.0,0.003961403854191303
120.0,0.0035409482661634684
128.0,0.0031998460181057453
144.0,0.002648548223078251
160.0,0.0020775627344846725
176.0,0.0016848816303536296
192.0,0.0012442867737263441
208.0,0.0005978174158371985
224.0,0.00039816100616008043
240.0,0.000511515885591507
256.0,0.0007917076582089067
288.0,0.0009227052796632051
320.0,0.00046956836013123393
352.0,0.00021903055312577635
384.0,-0.0002941385318990797
416.0,-0.00054296845337376
448.0,-0.00044327270006760955
480.0,-3.4641041565919295e-05
512.0,0.0006709308363497257
576.0,0.0004722587182186544
640.0,0.0009401451097801328
704.0,0.00010952368756989017
768.0,-0.0002562290756031871
832.0,0.0005996912368573248
896.0,0.0012500936863943934
960.0,0.0017120977863669395
1024.0,0.0007861850317567587
1152.0,0.00010621215915307403
1280.0,-0.0012555057182908058
1408.0,-0.0016992517048493028
1536.0,-0.0011253486154600978
1664.0,-0.001195257413201034
1792.0,-0.0008821797673590481
1920.0,6.406462489394471e-05
2048.0,-0.0003905172343365848
2304.0,-0.0011631272500380874
2560.0,5.554817835218273e-05
2816.0,-0.0003328742750454694
3072.0,0.00042475073132663965
3328.0,0.000580899475608021
3584.0,0.0005999411805532873
3840.0,0.0006127004744485021
4096.0,-5.060116382082924e-05
4608.0,-0.00018721142259892076
5120.0,0.00013311966904439032
5632.0,0.0005567767657339573
6144.0,0.000589841278269887
6656.0,0.00038366904482245445
7168.0,-0.0002538160770200193
7680.0,-0.0015517591964453459
8192.0,-0.002490307902917266
end
