version,3.0
numOfCh,1
type,point
parent_name,19e3e_0dot2-1dot0
ch_type,1_1
kcount,1
numberNandB,1
brightnessNandB,1
carpet pos,0
pc,0
Time (ms),CH1 Auto-Correlation
1.0,0.02251710370182991
2.0,0.022064097225666046
3.0,0.021633531898260117
4.0,0.021217240020632744
5.0,0.020821208134293556
6.0,0.020435012876987457
7.0,0.020055469125509262
8.0,0.01968781277537346
9.0,0.019340740516781807
10.0,0.01899879425764084
11.0,0.018667342141270638
12.0,0.018338751047849655
13.0,0.01802361011505127
14.0,0.017723947763442993
15.0,0.017426982522010803
16.0,0.01713331788778305
18.0,0.01653803139925003
20.0,0.01598038151860237
22.0,0.015487377531826496
24.0,0.015006455592811108
26.0,0.014548061415553093
28.0,0.014127843081951141
30.0,0.013736151158809662
32.0,0.013364610262215137
36.0,0.012710388749837875
40.0,0.012145004235208035
44.0,0.011664703488349915
48.0,0.011209000833332539
52.0,0.010738409124314785
56.0,0.010226508602499962
60.0,0.009695945307612419
64.0,0.009245619177818298
72.0,0.00842393096536398
80.0,0.007565965410321951
88.0,0.006750515196472406
96.0,0.006102644372731447
104.0,0.005645263008773327
112.0,0.005255484022200108
120.0,0.0048646642826497555
128.0,0.004419117234647274
144.0,0.003891606582328677
160.0,0.003662750357761979
176.0,0.0033312891609966755
192.0,0.002891461830586195
208.0,0.0023534195497632027
224.0,0.002236124826595187
240.0,0.002562584588304162
256.0,0.0026561159174889326
288.0,0.0017596478573977947
320.0,0.0013699788833037019
352.0,0.001115645281970501
384.0,0.0009156407904811203
416.0,0.0002593015960883349
448.0,-0.000637213175650686
480.0,-0.0008765828097239137
512.0,-6.987830147409113e-06
576.0,0.000216744898352772
640.0,-0.0006285290000960231
704.0,-0.0008307542884722352
768.0,-0.0001843493664637208
832.0,-0.0004094047471880913
896.0,-0.0016158423386514187
960.0,-0.0021372230257838964
1024.0,-0.002908251713961363
1152.0,-0.0021123532205820084
1280.0,-0.000386581989005208
1408.0,0.0010616614017635584
1536.0,0.002657471690326929
1664.0,0.0019636156503111124
1792.0,2.629654591146391e-05
1920.0,-0.001970276702195406
2048.0,-0.001133149373345077
2304.0,-0.0007030608248896897
2560.0,0.0005667194491252303
2816.0,0.0016100909560918808
3072.0,0.0025444072671234608
3328.0,-0.00012736233475152403
3584.0,-0.0021083937026560307
3840.0,-0.003080671885982156
4096.0,-0.003640762297436595
4608.0,0.002067483961582184
5120.0,-0.0004405157233122736
5632.0,-0.0011232772376388311
6144.0,0.0005152316298335791
6656.0,-0.0026714710984379053
7168.0,-0.0015638024779036641
7680.0,0.000978905358351767
8192.0,-0.0019231641199439764
end
