version,3.0
numOfCh,1
type,point
parent_name,19e3e_0dot2-1dot0
ch_type,1_1
kcount,1
numberNandB,1
brightnessNandB,1
carpet pos,0
pc,0
Time (ms),CH1 Auto-Correlation
1.0,0.02146957442164421
2.0,0.021047033369541168
3.0,0.020634669810533524
4.0,0.020253986120224
5.0,0.01990073174238205
6.0,0.019556432962417603
7.0,0.019232572987675667
8.0,0.01892034523189068
9.0,0.018610773608088493
10.0,0.01829903945326805
11.0,0.01800638809800148
12.0,0.01772427000105381
13.0,0.017461566254496574
14.0,0.017212526872754097
15.0,0.016962915658950806
16.0,0.016715534031391144
18.0,0.016244424507021904
20.0,0.01582334376871586
22.0,0.015440613962709904
24.0,0.015071076340973377
26.0,0.014722682535648346
28.0,0.01438072882592678
30.0,0.014044211246073246
32.0,0.01371572446078062
36.0,0.013159893453121185
40.0,0.012664929032325745
44.0,0.012158520519733429
48.0,0.011705221608281136
52.0,0.01127647701650858
56.0,0.010866439901292324
60.0,0.010481222532689571
64.0,0.0101638687774539
72.0,0.009600108489394188
80.0,0.009150645695626736
88.0,0.008564536459743977
96.0,0.008007889613509178
104.0,0.007558936253190041
112.0,0.007192317862063646
120.0,0.006836417131125927
128.0,0.006552703212946653
144.0,0.005862805992364883
160.0,0.0051294006407260895
176.0,0.004840805660933256
192.0,0.004585361108183861
208.0,0.004290758166462183
224.0,0.0038190451450645924
240.0,0.0033000668045133352
256.0,0.002668414730578661
288.0,0.001634992309845984
320.0,0.0010321768932044506
352.0,0.0005053485510870814
384.0,-0.00011369740241207182
416.0,-0.00039356437628157437
448.0,-0.00032795919105410576
480.0,0.000167720383615233
512.0,0.001313584391027689
576.0,0.003005784470587969
640.0,0.0027524020988494158
704.0,0.002195478416979313
768.0,0.0025675285141915083
832.0,0.0013712022919207811
896.0,0.0013771130470559
960.0,0.0015841788845136762
1024.0,0.0009837555699050426
1152.0,0.001762846251949668
1280.0,0.0025277913082391024
1408.0,0.002466377569362521
1536.0,0.0022489489056169987
1664.0,0.0002952932263724506
1792.0,0.00023784779477864504
1920.0,-6.298119114944711e-05
2048.0,-2.7492128538142424e-06
2304.0,-0.0010225953301414847
2560.0,0.0032484589610248804
2816.0,0.0016304317396134138
3072.0,-0.0017340383492410183
3328.0,-0.0018874554662033916
3584.0,-0.0016012029955163598
3840.0,-0.0020514780189841986
4096.0,0.0005439314409159124
4608.0,-0.0023289863020181656
5120.0,-8.695622091181576e-05
5632.0,-0.0019605024717748165
6144.0,-0.0026864130049943924
6656.0,-0.0011100505944341421
7168.0,-0.0004922099760733545
7680.0,-0.0016346832271665335
8192.0,-0.0027199042961001396
end
