version,3.0
numOfCh,1
type,point
parent_name,19e3e_0dot2-1dot0
ch_type,1_1
kcount,1
numberNandB,1
brightnessNandB,1
carpet pos,0
pc,0
Time (ms),CH1 Auto-Correlation
1.0,0.017283322289586067
2.0,0.016850091516971588
3.0,0.01644003763794899
4.0,0.01605069451034069
5.0,0.01567830890417099
6.0,0.015327582135796547
7.0,0.014996368438005447
8.0,0.014676311053335667
9.0,0.014363891445100307
10.0,0.014043398201465607
11.0,0.013724515214562416
12.0,0.013427533209323883
13.0,0.013148089870810509
14.0,0.01288185641169548
15.0,0.01262554433196783
16.0,0.012374162673950195
18.0,0.011872520670294762
20.0,0.011392712593078613
22.0,0.01094481535255909
24.0,0.0105081582441926
26.0,0.010091448202729225
28.0,0.009689492173492908
30.0,0.009294316172599792
32.0,0.008924189954996109
36.0,0.008295943029224873
40.0,0.0077750468626618385
44.0,0.007298521231859922
48.0,0.006825057324022055
52.0,0.006383175496011972
56.0,0.0059623392298817635
60.0,0.005583744961768389
64.0,0.005232592578977346
72.0,0.0045526581816375256
80.0,0.004097991622984409
88.0,0.0038461058866232634
96.0,0.003743204055353999
104.0,0.0037064228672534227
112.0,0.0035316995345056057
120.0,0.0033718214835971594
128.0,0.00312829134054482
144.0,0.002745641628280282
160.0,0.0023791599087417126
176.0,0.001830494380556047
192.0,0.0012688401620835066
208.0,0.0010358529398217797
224.0,0.0008531393832527101
240.0,0.0009064485202543437
256.0,0.0007832438568584621
288.0,0.0006940568564459682
320.0,0.0003068677324336022
352.0,-0.0007105007534846663
384.0,-0.0017161860596388578
416.0,-0.0022692191414535046
448.0,-0.002295493148267269
480.0,-0.002151976805180311
512.0,-0.0025814645923674107
576.0,-0.0024723985698074102
640.0,-0.002033689059317112
704.0,-0.0008344851084984839
768.0,0.00019431910186540335
832.0,0.00028581186779774725
896.0,0.0009508344810456038
960.0,0.0008786940015852451
1024.0,0.0008604981703683734
1152.0,-0.0016888813115656376
1280.0,-0.0008729842957109213
1408.0,-0.0011846189154312015
1536.0,0.0006010574288666248
1664.0,0.0009699039510451257
1792.0,0.0007235981756821275
1920.0,0.0010352557292208076
2048.0,0.001693587750196457
2304.0,0.0005187076749280095
2560.0,-0.001671343226917088
2816.0,-0.001299623865634203
3072.0,0.0010794962290674448
3328.0,-0.0011774221202358603
3584.0,-0.0016879434697329998
3840.0,0.0012637778418138623
4096.0,0.0014369460986927152
4608.0,-0.0006967670051380992
5120.0,-6.519906310131773e-05
5632.0,-0.0003289066953584552
6144.0,0.0010560826631262898
6656.0,-0.0005069454782642424
7168.0,0.0007350962841883302
7680.0,-0.0006214085733518004
8192.0,0.0010163681581616402
end
