version,3.0
numOfCh,1
type,point
parent_name,19e3e_0dot2-1dot0
ch_type,1_1
kcount,1
numberNandB,1
brightnessNandB,1
carpet pos,0
pc,0
Time (ms),CH1 Auto-Correlation
1.0,0.023071041330695152
2.0,0.02264062687754631
3.0,0.022235777229070663
4.0,0.021847618743777275
5.0,0.021476225927472115
6.0,0.021121326833963394
7.0,0.020759614184498787
8.0,0.020402811467647552
9.0,0.02004469931125641
10.0,0.019699910655617714
11.0,0.019367704167962074
12.0,0.019040806218981743
13.0,0.018732165917754173
14.0,0.01843416877090931
15.0,0.018135758116841316
16.0,0.017842629924416542
18.0,0.01730169542133808
20.0,0.01679179072380066
22.0,0.016300227493047714
24.0,0.0158560648560524
26.0,0.01544236484915018
28.0,0.01502842828631401
30.0,0.014655699022114277
32.0,0.014332816936075687
36.0,0.013732821680605412
40.0,0.013160567730665207
44.0,0.012603679671883583
48.0,0.012064648792147636
52.0,0.01155749149620533
56.0,0.011002735234797001
60.0,0.010490041226148605
64.0,0.009997586719691753
72.0,0.009063524194061756
80.0,0.008333791047334671
88.0,0.00765584409236908
96.0,0.007173899561166763
104.0,0.006793326232582331
112.0,0.0063990638591349125
120.0,0.006044580601155758
128.0,0.005693927872925997
144.0,0.005087672267109156
160.0,0.0046168058179318905
176.0,0.004020207095891237
192.0,0.0034342578146606684
208.0,0.003007888561114669
224.0,0.002941134851425886
240.0,0.002767096273601055
256.0,0.0026078505907207727
288.0,0.0022837205324321985
320.0,0.0013707434991374612
352.0,0.0013806438073515892
384.0,0.0011485967552289367
416.0,0.0011653186520561576
448.0,0.0010753321694210172
480.0,0.0014878783840686083
512.0,0.0014266653452068567
576.0,0.0006205960526131094
640.0,0.00012567317753564566
704.0,0.0002793375460896641
768.0,0.0003932914405595511
832.0,0.0008421482634730637
896.0,0.000860512547660619
960.0,0.002060967730358243
1024.0,0.002041439525783062
1152.0,0.00020497734658420086
1280.0,-0.0018490399233996868
1408.0,-0.001684267888776958
1536.0,-0.002637929515913129
1664.0,-0.0015106505015864968
1792.0,-0.00169685750734061
1920.0,-6.538275920320302e-05
2048.0,0.00023397617042064667
2304.0,-0.000375572795746848
2560.0,0.00011749056284315884
2816.0,2.285836853843648e-05
3072.0,0.0012124590575695038
3328.0,0.0016169346636161208
3584.0,0.0010047542164102197
3840.0,0.0011569883208721876
4096.0,-0.00198081461712718
4608.0,-0.0008985185995697975
5120.0,-2.7913893063669093e-05
5632.0,-0.0008460497483611107
6144.0,-1.508074092271272e-06
6656.0,-0.0015852232463657856
7168.0,-0.0036928148474544287
7680.0,-0.0015185552183538675
8192.0,-0.001168999238871038
end
