version,3.0
numOfCh,1
type,point
parent_name,19e3e_0dot2-1dot0
ch_type,1_1
kcount,1
numberNandB,1
brightnessNandB,1
carpet pos,0
pc,0
Time (ms),CH1 Auto-Correlation
1.0,0.02033083885908127
2.0,0.019906610250473022
3.0,0.019483860582113266
4.0,0.01909797638654709
5.0,0.01873105950653553
6.0,0.01838792860507965
7.0,0.01807485893368721
8.0,0.017780151218175888
9.0,0.0174740981310606
10.0,0.017170226201415062
11.0,0.01689097471535206
12.0,0.016626780852675438
13.0,0.016364488750696182
14.0,0.016097962856292725
15.0,0.015830881893634796
16.0,0.015567569993436337
18.0,0.015078890137374401
20.0,0.014617377892136574
22.0,0.014181430451571941
24.0,0.013757368549704552
26.0,0.013339121825993061
28.0,0.012947911396622658
30.0,0.012598797678947449
32.0,0.012297752313315868
36.0,0.01171428058296442
40.0,0.011170787736773491
44.0,0.010701444931328297
48.0,0.010300246067345142
52.0,0.009865336120128632
56.0,0.009483246132731438
60.0,0.009225860238075256
64.0,0.008988362736999989
72.0,0.008464156650006771
80.0,0.007826283574104309
88.0,0.007137432228773832
96.0,0.006496482528746128
104.0,0.0060107773169875145
112.0,0.0056278519332408905
120.0,0.005108747631311417
128.0,0.004798418376594782
144.0,0.004203492775559425
160.0,0.0036798890214413404
176.0,0.003182161133736372
192.0,0.002828801516443491
208.0,0.002500132191926241
224.0,0.002050193725153804
240.0,0.0013096686452627182
256.0,0.000677775067742914
288.0,0.0007105313707143068
320.0,0.0007364659104496241
352.0,0.00036871651536785066
384.0,0.0005455308710224926
416.0,0.0007758864085189998
448.0,6.66687628836371e-05
480.0,-0.0004891504650004208
512.0,-0.0006687911809422076
576.0,-0.0007274983800016344
640.0,-0.0005855786148458719
704.0,-0.0006758586969226599
768.0,0.0007074017194099724
832.0,0.0014471523463726044
896.0,0.00047299356083385646
960.0,-0.0008402738021686673
1024.0,-0.0013290576171129942
1152.0,0.0006544635980390012
1280.0,0.0011627186322584748
1408.0,0.0017328762914985418
1536.0,0.0016965121030807495
1664.0,0.0012062359601259232
1792.0,0.0002156757836928591
1920.0,0.0005909252795390785
2048.0,0.000537687330506742
2304.0,0.0007771755917929113
2560.0,0.0011842899257317185
2816.0,0.001604279619641602
3072.0,0.001116471947170794
3328.0,-5.899218740523793e-05
3584.0,-0.0014322702772915363
3840.0,-0.0026180462446063757
4096.0,0.00022058430477045476
4608.0,-0.0005089534097351134
5120.0,0.001174948294647038
5632.0,-0.0015688632847741246
6144.0,-0.002134623471647501
6656.0,-0.0006585754454135895
7168.0,-0.0007698665140196681
7680.0,0.0004298549029044807
8192.0,-0.0015318358782678843
end
