version,3.0
numOfCh,1
type,point
parent_name,19e3e_0dot2-1dot0
ch_type,1_1
kcount,1
numberNandB,1
brightnessNandB,1
carpet pos,0
pc,0
Time (ms),CH1 Auto-Correlation
1.0,0.02113385684788227
2.0,0.02068200707435608
3.0,0.02026541717350483
4.0,0.019850917160511017
5.0,0.019465496763586998
6.0,0.019096553325653076
7.0,0.018734663724899292
8.0,0.018375318497419357
9.0,0.01803617924451828
10.0,0.01771393045783043
11.0,0.01741546392440796
12.0,0.01712842471897602
13.0,0.016842572018504143
14.0,0.016554316505789757
15.0,0.016267407685518265
16.0,0.015983914956450462
18.0,0.015416153706610203
20.0,0.014900177717208862
22.0,0.014434505254030228
24.0,0.014008820988237858
26.0,0.013580067083239555
28.0,0.013140096329152584
30.0,0.01270212884992361
32.0,0.012281951494514942
36.0,0.011540285311639309
40.0,0.010887162759900093
44.0,0.010326625779271126
48.0,0.009918535128235817
52.0,0.009596017189323902
56.0,0.009287062101066113
60.0,0.009018918499350548
64.0,0.00875211413949728
72.0,0.008146509528160095
80.0,0.007569567766040564
88.0,0.007019033655524254
96.0,0.0064991838298738
104.0,0.006067262031137943
112.0,0.005929951090365648
120.0,0.005902716424316168
128.0,0.005717303603887558
144.0,0.0048262570053339005
160.0,0.004220013041049242
176.0,0.004049604758620262
192.0,0.004272587597370148
208.0,0.004453026689589024
224.0,0.00467785494402051
240.0,0.004917498212307692
256.0,0.004901422653347254
288.0,0.0038422918878495693
320.0,0.0032779392786324024
352.0,0.0027509243227541447
384.0,0.0022406382486224174
416.0,0.0020750185940414667
448.0,0.002071250695735216
480.0,0.0026454373728483915
512.0,0.0031108756083995104
576.0,0.0022459367755800486
640.0,0.0007918972987681627
704.0,-0.0007540137739852071
768.0,-0.0013117220951244235
832.0,-0.0009414321975782514
896.0,-0.0005433981423266232
960.0,-0.0011773192090913653
1024.0,-0.0011526659363880754
1152.0,-0.0015190646518021822
1280.0,-0.0012088522780686617
1408.0,-0.0009398089023306966
1536.0,-0.000382265163352713
1664.0,-0.0006578570464625955
1792.0,-0.0002774397435132414
1920.0,0.0005945402081124485
2048.0,0.0010003402130678296
2304.0,0.0007845659274607897
2560.0,0.0012961962493136525
2816.0,0.001296516158618033
3072.0,-0.0004962680977769196
3328.0,-0.0011723213829100132
3584.0,-0.003089054487645626
3840.0,-0.002302714856341481
4096.0,-0.002287302166223526
4608.0,-0.00015033372619654983
5120.0,-0.0009291579481214285
5632.0,0.00012588192475959659
6144.0,0.0002925457083620131
6656.0,-0.0017426649574190378
7168.0,-1.7695039787213318e-05
7680.0,0.003095414722338319
8192.0,0.0012277174973860383
end
