version,3.0
numOfCh,1
type,point
parent_name,19e3e_0dot2-1dot0
ch_type,1_1
kcount,1
numberNandB,1
brightnessNandB,1
carpet pos,0
pc,0
Time (ms),CH1 Auto-Correlation
1.0,0.0207732692360878
2.0,0.020338252186775208
3.0,0.019917162135243416
4.0,0.01951071061193943
5.0,0.019116319715976715
6.0,0.018732385709881783
7.0,0.018371066078543663
8.0,0.01801750622689724
9.0,0.017667777836322784
10.0,0.01733553223311901
11.0,0.017008032649755478
12.0,0.016700873151421547
13.0,0.01640193536877632
14.0,0.016112644225358963
15.0,0.015833785757422447
16.0,0.015565190464258194
18.0,0.015040858648717403
20.0,0.014537297189235687
22.0,0.014067103154957294
24.0,0.013641923666000366
26.0,0.013262412510812283
28.0,0.012906546704471111
30.0,0.012544389814138412
32.0,0.012179020792245865
36.0,0.0115130003541708
40.0,0.010944786481559277
44.0,0.010436858050525188
48.0,0.009973685257136822
52.0,0.009543905965983868
56.0,0.009131484664976597
60.0,0.00877823494374752
64.0,0.008451482281088829
72.0,0.00789577979594469
80.0,0.007444578222930431
88.0,0.0070223077200353146
96.0,0.006424871273338795
104.0,0.005932816304266453
112.0,0.005483701359480619
120.0,0.00489819748327136
128.0,0.00430044811218977
144.0,0.0036826885771006346
160.0,0.003156863385811448
176.0,0.0027643539942801
192.0,0.0023292729165405035
208.0,0.002048156689852476
224.0,0.0015605465741828084
240.0,0.0010038998443633318
256.0,0.0004592548939399421
288.0,0.00016483348736073822
320.0,0.00046834853128530085
352.0,-4.9376380047760904e-05
384.0,-0.0006278404034674168
416.0,-0.0006480775773525238
448.0,-0.0003829174966085702
480.0,0.0001757099526003003
512.0,0.0009727090364322066
576.0,0.0012018760899081826
640.0,0.0002747444377746433
704.0,-0.0004477080365177244
768.0,-0.0011955269146710634
832.0,-0.0006146769737824798
896.0,0.0004361406317912042
960.0,0.0007514350581914186
1024.0,0.0004036195750813931
1152.0,0.0004198349779471755
1280.0,-0.0002843438123818487
1408.0,-0.0008758464246056974
1536.0,-0.0006597877363674343
1664.0,-0.001914146007038653
1792.0,-0.0010037432657554746
1920.0,0.00046083619236014783
2048.0,0.0010710683418437839
2304.0,-0.0007255475502461195
2560.0,0.00030336904455907643
2816.0,-0.0002943735453300178
3072.0,0.0009236058103851974
3328.0,-0.0023975297808647156
3584.0,-0.001432493794709444
3840.0,-0.0007554220501333475
4096.0,0.0017349080881103873
4608.0,0.0006887766066938639
5120.0,0.0008389816503040493
5632.0,-0.0005317349568940699
6144.0,-0.0017063472187146544
6656.0,-5.259730824036524e-05
7168.0,-0.001670044264756143
7680.0,-0.0014895263593643904
8192.0,-0.0003646855475381017
end
