version,3.0
numOfCh,1
type,point
parent_name,19e3e_0dot2-1dot0
ch_type,1_1
kcount,1
numberNandB,1
brightnessNandB,1
carpet pos,0
pc,0
Time (ms),CH1 Auto-Correlation
1.0,0.024267185479402542
2.0,0.02383347786962986
3.0,0.023418975993990898
4.0,0.02303300052881241
5.0,0.02265419252216816
6.0,0.022281283512711525
7.0,0.021925996989011765
8.0,0.021574456244707108
9.0,0.02124323882162571
10.0,0.020920153707265854
11.0,0.020607655867934227
12.0,0.02029240131378174
13.0,0.019992338493466377
14.0,0.019700275734066963
15.0,0.019439242780208588
16.0,0.019180525094270706
18.0,0.0187048502266407
20.0,0.018282519653439522
22.0,0.01789688505232334
24.0,0.017511636018753052
26.0,0.017127586528658867
28.0,0.0167640782892704
30.0,0.016422782093286514
32.0,0.016087904572486877
36.0,0.015409816056489944
40.0,0.014768111519515514
44.0,0.014169245027005672
48.0,0.01360297854989767
52.0,0.01306322030723095
56.0,0.012564700096845627
60.0,0.012052780948579311
64.0,0.011535387486219406
72.0,0.010636631399393082
80.0,0.00986039824783802
88.0,0.00932568870484829
96.0,0.008877278305590153
104.0,0.008462443947792053
112.0,0.008142697624862194
120.0,0.007930649444460869
128.0,0.007777933031320572
144.0,0.007640020921826363
160.0,0.007651475723832846
176.0,0.0076479059644043446
192.0,0.007409955840557814
208.0,0.007207087706774473
224.0,0.0069172498770058155
240.0,0.006556111853569746
256.0,0.0061569130048155785
288.0,0.0053442479111254215
320.0,0.004744590725749731
352.0,0.004372413270175457
384.0,0.0040982989594340324
416.0,0.004026008304208517
448.0,0.004085320048034191
480.0,0.0039362781681120396
512.0,0.004138690419495106
576.0,0.002998996526002884
640.0,0.002420939039438963
704.0,0.0019051582785323262
768.0,0.0027328073047101498
832.0,0.00319910841062665
896.0,0.0028211968019604683
960.0,0.0020844796672463417
1024.0,0.0016925500240176916
1152.0,-8.982366125565022e-05
1280.0,-0.001699911430478096
1408.0,-0.0010160141391679645
1536.0,0.00034262059489265084
1664.0,0.0007504201494157314
1792.0,0.00018132568220607936
1920.0,-0.0001425285154255107
2048.0,-0.0005422520916908979
2304.0,-0.0022719737607985735
2560.0,-0.0023405998945236206
2816.0,-0.004000055603682995
3072.0,-0.004479242954403162
3328.0,-0.004738648887723684
3584.0,-0.0035636783577501774
3840.0,-0.0016807046486064792
4096.0,-0.002785524819046259
4608.0,-0.0011353848967701197
5120.0,0.0009943441255018115
5632.0,0.0027765862178057432
6144.0,0.0020808845292776823
6656.0,0.0018381292466074228
7168.0,0.0004158708325121552
7680.0,0.0011928216554224491
8192.0,0.0003947898221667856
end
