version,3.0
numOfCh,1
type,point
parent_name,714af_0dot6-0dot01
ch_type,1_1
kcount,1
numberNandB,1
brightnessNandB,1
carpet pos,0
pc,0
Time (ms),CH1 Auto-Correlation
1.0,0.025045348331332207
2.0,0.023917650803923607
3.0,0.022915124893188477
4.0,0.02203015424311161
5.0,0.02120286412537098
6.0,0.02046709507703781
7.0,0.01977130025625229
8.0,0.019112706184387207
9.0,0.018528396263718605
10.0,0.017956608906388283
11.0,0.017412789165973663
12.0,0.016905784606933594
13.0,0.016428368166089058
14.0,0.015950489789247513
15.0,0.015483276918530464
16.0,0.014996718615293503
18.0,0.014130262657999992
20.0,0.013311252929270267
22.0,0.012529376894235611
24.0,0.01181088574230671
26.0,0.011162037029862404
28.0,0.010603041388094425
30.0,0.010163440369069576
32.0,0.009822830557823181
36.0,0.009129180572926998
40.0,0.008447336032986641
44.0,0.007849868386983871
48.0,0.007413780316710472
52.0,0.007021382451057434
56.0,0.006632725242525339
60.0,0.006136686075478792
64.0,0.005625544115900993
72.0,0.00483666080981493
80.0,0.0039378139190375805
88.0,0.0031272186897695065
96.0,0.0022948801051825285
104.0,0.0016886991215869784
112.0,0.0014300551265478134
120.0,0.0013360821176320314
128.0,0.001258420874364674
144.0,0.000944901374168694
160.0,0.00043068581726402044
176.0,0.0004819394671358168
192.0,0.0005261150654405355
208.0,0.0008559258421882987
224.0,0.0013687142636626959
240.0,0.0018507352797314525
256.0,0.0015120008029043674
288.0,0.0014681891771033406
320.0,0.001342986710369587
352.0,0.0007707510376349092
384.0,-0.0001652167848078534
416.0,-0.0009427579934708774
448.0,-0.0009965995559468865
480.0,-0.0012749736197292805
512.0,-0.001098520471714437
576.0,4.374403215479106e-05
640.0,0.0010276384418830276
704.0,0.0023294128477573395
768.0,0.003046804340556264
832.0,0.0026431286241859198
896.0,0.0015156390145421028
960.0,0.001701461966149509
1024.0,0.0007492091972380877
1152.0,0.0007050118292681873
1280.0,0.001548486528918147
1408.0,0.0014042354887351394
1536.0,0.001878315582871437
1664.0,0.0013685619924217463
1792.0,8.186716149793938e-05
1920.0,0.00024730103905312717
2048.0,0.0013364356709644198
2304.0,-0.0006570755504071712
2560.0,-0.0008925730944611132
2816.0,0.0018856191309168935
3072.0,0.0009786366717889905
3328.0,-0.0014812034787610173
3584.0,-0.0007201896514743567
3840.0,-0.0006223748787306249
4096.0,-0.0008499908726662397
4608.0,0.0003909567603841424
5120.0,-0.0013216292718425393
5632.0,-0.0006192978471517563
6144.0,-0.0018241783836856484
6656.0,-0.0024538682773709297
7168.0,-0.0019993148744106293
7680.0,-0.002418296178802848
8192.0,-0.001805882784537971
end
