version,3.0
numOfCh,1
type,point
parent_name,714af_0dot6-0dot01
ch_type,1_1
kcount,1
numberNandB,1
brightnessNandB,1
carpet pos,0
pc,0
Time (ms),CH1 Auto-Correlation
1.0,0.021713823080062866
2.0,0.02067149244248867
3.0,0.01970764435827732
4.0,0.018826467916369438
5.0,0.01798074319958687
6.0,0.01719818264245987
7.0,0.016499783843755722
8.0,0.01584864780306816
9.0,0.01524373423308134
10.0,0.014676802791655064
11.0,0.014152385294437408
12.0,0.013658823445439339
13.0,0.013162855990231037
14.0,0.012691880576312542
15.0,0.012256207875907421
16.0,0.01186412200331688
18.0,0.011231291107833385
20.0,0.010674322955310345
22.0,0.010216647759079933
24.0,0.009766860865056515
26.0,0.009276390075683594
28.0,0.008789326064288616
30.0,0.00834113359451294
32.0,0.007929121144115925
36.0,0.007207317743450403
40.0,0.0066101099364459515
44.0,0.00621415302157402
48.0,0.005962098948657513
52.0,0.005728724878281355
56.0,0.005369300488382578
60.0,0.004983976949006319
64.0,0.00469739967957139
72.0,0.004353951662778854
80.0,0.004009658005088568
88.0,0.0039639826864004135
96.0,0.0034046475775539875
104.0,0.002920150524005294
112.0,0.002808789722621441
120.0,0.0026106182485818863
128.0,0.0019158334471285343
144.0,0.000202441806322895
160.0,-0.00019143929239362478
176.0,-0.00021170398395042866
192.0,0.00016942773072514683
208.0,0.0002750263374764472
224.0,-0.0003786585002671927
240.0,-0.0015600804472342134
256.0,-0.0018947375938296318
288.0,-0.0003190415445715189
320.0,0.0005283388309180737
352.0,0.0006023411988280714
384.0,-2.7675368983182125e-05
416.0,0.00014219313743524253
448.0,-0.0010395838180556893
480.0,-0.001282131066545844
512.0,-0.00018119359447155148
576.0,-0.0002978338743560016
640.0,-0.0010754625545814633
704.0,-0.002147878287360072
768.0,-0.00319611094892025
832.0,-0.002854585414752364
896.0,-0.0011678290320560336
960.0,0.0003211532603017986
1024.0,0.0017550647025927901
1152.0,0.00012432158109731972
1280.0,-0.00030828238232061267
1408.0,0.00014447057037614286
1536.0,0.0004099009674973786
1664.0,-0.00029319804161787033
1792.0,0.0007629779865965247
1920.0,-0.00034457084257155657
2048.0,-0.0011506903683766723
2304.0,-0.0009379992843605578
2560.0,7.230966730276123e-05
2816.0,-0.000526747084222734
3072.0,-0.0005865683779120445
3328.0,0.0005758774932473898
3584.0,0.0014880797825753689
3840.0,-0.0010498552583158016
4096.0,-0.0021822245325893164
end
