version,3.0
numOfCh,1
type,point
parent_name,714af_0dot6-0dot01
ch_type,1_1
kcount,1
numberNandB,1
brightnessNandB,1
carpet pos,0
pc,0
Time (ms),CH1 Auto-Correlation
1.0,0.026694435626268387
2.0,0.02563387341797352
3.0,0.024674419313669205
4.0,0.0237866323441267
5.0,0.02295421063899994
6.0,0.022164758294820786
7.0,0.0214318186044693
8.0,0.020753907039761543
9.0,0.02014724165201187
10.0,0.019616592675447464
11.0,0.019151996821165085
12.0,0.018705550581216812
13.0,0.01828005164861679
14.0,0.017871703952550888
15.0,0.017492802813649178
16.0,0.017145531252026558
18.0,0.01646476797759533
20.0,0.01584661938250065
22.0,0.015300110913813114
24.0,0.01477051991969347
26.0,0.01428256556391716
28.0,0.013796677812933922
30.0,0.013371809385716915
32.0,0.0129880765452981
36.0,0.012314381077885628
40.0,0.011800596490502357
44.0,0.011315434239804745
48.0,0.010750663466751575
52.0,0.010228017345070839
56.0,0.00966863427311182
60.0,0.009054320864379406
64.0,0.008453636430203915
72.0,0.007548042573034763
80.0,0.0069168186746537685
88.0,0.006480605341494083
96.0,0.006148964632302523
104.0,0.005796228535473347
112.0,0.004997643642127514
120.0,0.0041341655887663364
128.0,0.004068506415933371
144.0,0.003679531393572688
160.0,0.003475345205515623
176.0,0.0031070723198354244
192.0,0.0030705647077411413
208.0,0.0026474883779883385
224.0,0.0023133198264986277
240.0,0.0019236205844208598
256.0,0.002090609632432461
288.0,0.0018328455043956637
320.0,0.0011276642326265574
352.0,0.0008510338957421482
384.0,-0.0002576755068730563
416.0,-0.0006143467617221177
448.0,-0.0015141934854909778
480.0,-0.0009741403628140688
512.0,9.442876944376621e-06
576.0,0.002107182750478387
640.0,0.00251188175752759
704.0,0.003089712932705879
768.0,0.0028403804171830416
832.0,0.0011720058973878622
896.0,0.0009056548005901277
960.0,0.0013606558786705136
1024.0,0.0008121400605887175
1152.0,-0.0007218701648525894
1280.0,0.0007115976186469197
1408.0,0.00213024765253067
1536.0,0.0021154689602553844
1664.0,0.0009624426602385938
1792.0,-0.0003568055690266192
1920.0,-0.0001391782279824838
2048.0,0.001675640931352973
2304.0,-0.0004219264956191182
2560.0,-0.0009488562354817986
2816.0,0.0008864955743774772
3072.0,0.0009745383867993951
3328.0,0.001001938944682479
3584.0,0.0018126367358490825
3840.0,-0.0001662063441472128
4096.0,-0.00028695593937300146
4608.0,0.0007067082915455103
5120.0,0.000608076574280858
5632.0,-0.0013136398047208786
6144.0,4.034462835988961e-05
6656.0,-0.0011150911450386047
7168.0,4.1303705984319095e-06
7680.0,-0.0026767633389681578
8192.0,-0.001782282255589962
end
