version,3.0
numOfCh,1
type,point
parent_name,714af_0dot6-0dot01
ch_type,1_1
kcount,1
numberNandB,1
brightnessNandB,1
carpet pos,0
pc,0
Time (ms),CH1 Auto-Correlation
1.0,0.025636162608861923
2.0,0.024557070806622505
3.0,0.02359098754823208
4.0,0.022678472101688385
5.0,0.021848637610673904
6.0,0.02106962725520134
7.0,0.02032199501991272
8.0,0.01962938718497753
9.0,0.018973996862769127
10.0,0.018319403752684593
11.0,0.01774756796658039
12.0,0.01717912219464779
13.0,0.01664671115577221
14.0,0.016173122450709343
15.0,0.01570843905210495
16.0,0.01527970191091299
18.0,0.014520856551826
20.0,0.013776738196611404
22.0,0.013141843490302563
24.0,0.012596499174833298
26.0,0.01203402504324913
28.0,0.011473177000880241
30.0,0.011029677465558052
32.0,0.01054138783365488
36.0,0.009561452083289623
40.0,0.008813314139842987
44.0,0.008361096493899822
48.0,0.007824010215699673
52.0,0.007202333305031061
56.0,0.006688620429486036
60.0,0.006065373308956623
64.0,0.005678615998476744
72.0,0.00516639556735754
80.0,0.0047603510320186615
88.0,0.004871077835559845
96.0,0.005104892421513796
104.0,0.005280845332890749
112.0,0.0051831030286848545
120.0,0.004829099401831627
128.0,0.004905867390334606
144.0,0.005140812136232853
160.0,0.005016073118895292
176.0,0.004758136812597513
192.0,0.004736989736557007
208.0,0.004984959028661251
224.0,0.005142337642610073
240.0,0.005720828659832478
256.0,0.00584573345258832
288.0,0.005308892577886581
320.0,0.004011467099189758
352.0,0.0029112279880791903
384.0,0.0020011006854474545
416.0,0.0019282619468867779
448.0,0.0014322884380817413
480.0,0.0010925494134426117
512.0,0.0011328259715810418
576.0,-0.0012927888892591
640.0,-0.0018984833732247353
704.0,-7.419967005262151e-05
768.0,-0.0005931328632868826
832.0,-0.001198815880343318
896.0,-0.002497823676094413
960.0,-0.0025785109028220177
1024.0,-0.0031954196747392416
1152.0,-0.001419133972376585
1280.0,-0.002106310334056616
1408.0,-0.0008132448419928551
1536.0,-0.0014848752180114388
1664.0,-0.0006051156087778509
1792.0,-0.0009428699850104749
1920.0,-0.0002168545761378482
2048.0,0.0005473950295709074
2304.0,0.000525532232131809
2560.0,-0.00031619667424820364
2816.0,-0.003189380979165435
3072.0,-0.003275441937148571
3328.0,0.00017563067376613617
3584.0,0.0041484953835606575
3840.0,0.00455948431044817
4096.0,0.0017052849289029837
end
