version,3.0
numOfCh,1
type,point
parent_name,714af_0dot6-0dot01
ch_type,1_1
kcount,1
numberNandB,1
brightnessNandB,1
carpet pos,0
pc,0
Time (ms),CH1 Auto-Correlation
1.0,0.023389143869280815
2.0,0.022276196628808975
3.0,0.02128095179796219
4.0,0.0203635785728693
5.0,0.019518185406923294
6.0,0.01873178221285343
7.0,0.01799178309738636
8.0,0.017305508255958557
9.0,0.016651974990963936
10.0,0.016049079596996307
11.0,0.015506005845963955
12.0,0.015000507235527039
13.0,0.014502828940749168
14.0,0.014052166603505611
15.0,0.013654275797307491
16.0,0.013285082764923573
18.0,0.01258142851293087
20.0,0.011978186666965485
22.0,0.011460761539638042
24.0,0.011018653400242329
26.0,0.010637005791068077
28.0,0.010240737348794937
30.0,0.009882709011435509
32.0,0.009529904462397099
36.0,0.008904754184186459
40.0,0.008271474391222
44.0,0.007773404475301504
48.0,0.007371268235146999
52.0,0.006968112196773291
56.0,0.006610422860831022
60.0,0.006334936711937189
64.0,0.006125310901552439
72.0,0.0053986418060958385
80.0,0.005014179274439812
88.0,0.004616884049028158
96.0,0.0044056810438632965
104.0,0.004187088925391436
112.0,0.004303100053220987
120.0,0.004559543449431658
128.0,0.004380119498819113
144.0,0.0032427050173282623
160.0,0.0025373504031449556
176.0,0.0027861366979777813
192.0,0.002426817314699292
208.0,0.0018508455250412226
224.0,0.0012491615489125252
240.0,0.001110169687308371
256.0,0.00015366257866844535
288.0,-0.0005052409833297133
320.0,-0.00013322700397111475
352.0,-0.0006466076010838151
384.0,-0.0011836433550342917
416.0,-0.0017833162564784288
448.0,-0.0011290659895166755
480.0,-0.0012120160972699523
512.0,-0.0003781480772886425
576.0,-0.00036770562292076647
640.0,-0.0001920230279210955
704.0,0.0002981738653033972
768.0,-0.0004361285245977342
832.0,-0.00025226533762179315
896.0,-0.0018144164932891726
960.0,-0.000982769881375134
1024.0,-0.0007086935802362859
1152.0,4.363896368886344e-05
1280.0,-6.0689588281093165e-05
1408.0,-0.0027637509629130363
1536.0,-0.002937446814030409
1664.0,-0.0019877348095178604
1792.0,0.000284556153928861
1920.0,0.0015243783127516508
2048.0,0.0022105216048657894
2304.0,0.0015252487501129508
2560.0,0.000839519314467907
2816.0,-0.0006820910493843257
3072.0,-0.00023109655012376606
3328.0,-0.0009034633403643966
3584.0,-0.002147945109754801
3840.0,0.00028928861138410866
4096.0,0.00010693422518670559
4608.0,-0.0007793716504238546
5120.0,-0.00021513107640203089
5632.0,-0.0035575968213379383
6144.0,0.001913112006150186
6656.0,0.00044268497731536627
7168.0,0.00148896430619061
7680.0,-0.0019461491610854864
8192.0,-0.0001965098490472883
end
