version,3.0
numOfCh,1
type,point
parent_name,714af_0dot6-0dot01
ch_type,1_1
kcount,1
numberNandB,1
brightnessNandB,1
carpet pos,0
pc,0
Time (ms),CH1 Auto-Correlation
1.0,0.02971063368022442
2.0,0.02859347313642502
3.0,0.027539215981960297
4.0,0.026586031541228294
5.0,0.025714673101902008
6.0,0.02493331953883171
7.0,0.024224096909165382
8.0,0.02357272058725357
9.0,0.022990839555859566
10.0,0.022417878732085228
11.0,0.02189246565103531
12.0,0.021377122029662132
13.0,0.020888585597276688
14.0,0.0204531941562891
15.0,0.02001790702342987
16.0,0.019608458504080772
18.0,0.018902026116847992
20.0,0.01825798861682415
22.0,0.01759890653192997
24.0,0.017020929604768753
26.0,0.016490232199430466
28.0,0.015983013436198235
30.0,0.015514482744038105
32.0,0.015026960521936417
36.0,0.014204010367393494
40.0,0.013410059735178947
44.0,0.01266819704324007
48.0,0.011916509829461575
52.0,0.011324284598231316
56.0,0.010668046772480011
60.0,0.010011589154601097
64.0,0.009547456167638302
72.0,0.009164691902697086
80.0,0.008748693391680717
88.0,0.008891607634723186
96.0,0.008944704197347164
104.0,0.008925320580601692
112.0,0.00877435877919197
120.0,0.008325320668518543
128.0,0.007948447950184345
144.0,0.007086391560733318
160.0,0.006298746448010206
176.0,0.005883423611521721
192.0,0.005409028846770525
208.0,0.005201141349971294
224.0,0.004877377301454544
240.0,0.004460869822651148
256.0,0.003901264164596796
288.0,0.0033112820237874985
320.0,0.002718653529882431
352.0,0.0024259542115032673
384.0,0.0022810406517237425
416.0,0.0022060892079025507
448.0,0.0019591886084526777
480.0,0.00023861236695665866
512.0,-0.00010835329157998785
576.0,-0.0002452259068377316
640.0,0.0005806158878840506
704.0,0.0013268721522763371
768.0,0.003436609636992216
832.0,0.0032852140720933676
896.0,0.003221211489289999
960.0,0.0018419420812278986
1024.0,0.0004071981238666922
1152.0,-0.00037036757566966116
1280.0,-0.0002001755783567205
1408.0,0.001146772294305265
1536.0,0.002040412276983261
1664.0,0.0005446629947982728
1792.0,-0.0022491184063255787
1920.0,-0.0029339415486902
2048.0,-0.004228015895932913
2304.0,-0.0022726934403181076
2560.0,-0.002144098049029708
2816.0,-0.0016906617674976587
3072.0,-0.0011180611327290535
3328.0,-0.0011985277524217963
3584.0,-0.0023417070042341948
3840.0,-0.0010277669643983245
4096.0,0.0005106761236675084
4608.0,0.0019272654317319393
5120.0,-0.001201339066028595
5632.0,0.0009744653361849487
6144.0,0.00018132317927666008
6656.0,-0.0009791068732738495
7168.0,-0.0003214792814105749
7680.0,-0.002025863155722618
8192.0,-0.0010379125596955419
end
