version,3.0
numOfCh,1
type,point
parent_name,714af_0dot6-0dot01
ch_type,1_1
kcount,1
numberNandB,1
brightnessNandB,1
carpet pos,0
pc,0
Time (ms),CH1 Auto-Correlation
1.0,0.02163723297417164
2.0,0.020514843985438347
3.0,0.019512759521603584
4.0,0.01861092820763588
5.0,0.017793206498026848
6.0,0.017056139186024666
7.0,0.016359394416213036
8.0,0.015703819692134857
9.0,0.015087905339896679
10.0,0.014518789015710354
11.0,0.014002508483827114
12.0,0.013518938794732094
13.0,0.013059358112514019
14.0,0.012660602107644081
15.0,0.012293432839214802
16.0,0.011924210004508495
18.0,0.01129476074129343
20.0,0.010729835368692875
22.0,0.010255579836666584
24.0,0.009836659766733646
26.0,0.009377915412187576
28.0,0.00890902616083622
30.0,0.008462756872177124
32.0,0.008137103170156479
36.0,0.007680276874452829
40.0,0.007225447800010443
44.0,0.006823239382356405
48.0,0.006679898593574762
52.0,0.0065411292016506195
56.0,0.0062735374085605145
60.0,0.006107095163315535
64.0,0.005782503169029951
72.0,0.005081400275230408
80.0,0.004593833349645138
88.0,0.004344382788985968
96.0,0.003990504425019026
104.0,0.003756884252652526
112.0,0.003375632455572486
120.0,0.002816170221194625
128.0,0.0024068444035947323
144.0,0.001789555069990456
160.0,0.001243304810486734
176.0,0.0006412219954654574
192.0,0.0004819624882657081
208.0,0.0006942846812307835
224.0,0.0006067778449505568
240.0,0.0006186481332406402
256.0,0.0009279582882300019
288.0,0.0007689635967835784
320.0,7.636505324626341e-05
352.0,-0.00020737307204399258
384.0,-0.00013218885578680784
416.0,-0.0008644103654660285
448.0,-0.0007339175208471715
480.0,-0.00017939842655323446
512.0,0.0001477735349908471
576.0,0.0005279918550513685
640.0,0.000399010197725147
704.0,-0.00033863066346384585
768.0,-0.0002236433356301859
832.0,-0.0008866718271747231
896.0,-0.0006576451123692095
960.0,-0.0007810064125806093
1024.0,-0.0006774658686481416
1152.0,0.00021776382345706224
1280.0,-0.0011670474195852876
1408.0,-0.0008678545709699392
1536.0,-0.0009700615191832185
1664.0,6.78975775372237e-05
1792.0,-0.0005465484573505819
1920.0,-0.00015659787459298968
2048.0,-0.0007132529863156378
2304.0,-0.0003436320403125137
2560.0,-0.00019602790416684002
2816.0,2.7734251489164308e-05
3072.0,-0.0005662749172188342
3328.0,-0.0008344814996235073
3584.0,-0.0004735228721983731
3840.0,2.924974432971794e-05
4096.0,0.0003041740274056792
4608.0,0.0013100879732519388
5120.0,0.0009737609652802348
5632.0,-0.0014195551630109549
6144.0,-7.194495537987677e-06
6656.0,-3.4830663935281336e-05
7168.0,-0.0007669573533348739
7680.0,-0.001560664502903819
8192.0,-0.0006414876552298665
end
