version,3.0
numOfCh,1
type,point
parent_name,714af_0dot6-0dot01
ch_type,1_1
kcount,1
numberNandB,1
brightnessNandB,1
carpet pos,0
pc,0
Time (ms),CH1 Auto-Correlation
1.0,0.023642556741833687
2.0,0.02247820608317852
3.0,0.021465621888637543
4.0,0.02054785192012787
5.0,0.01971036195755005
6.0,0.018953220918774605
7.0,0.018253762274980545
8.0,0.017599239945411682
9.0,0.017012059688568115
10.0,0.016471322625875473
11.0,0.01595682092010975
12.0,0.015468220226466656
13.0,0.015005718916654587
14.0,0.014529557898640633
15.0,0.014103671535849571
16.0,0.0136847710236907
18.0,0.012934179045259953
20.0,0.012296469882130623
22.0,0.011728730984032154
24.0,0.011176656000316143
26.0,0.010669047012925148
28.0,0.01025446504354477
30.0,0.009901224635541439
32.0,0.009600377641618252
36.0,0.009011042304337025
40.0,0.00842648558318615
44.0,0.007848221808671951
48.0,0.007273034192621708
52.0,0.006718035787343979
56.0,0.006173515226691961
60.0,0.00575306685641408
64.0,0.005385638680309057
72.0,0.004819849971681833
80.0,0.004568672738969326
88.0,0.004075055476278067
96.0,0.0036643927451223135
104.0,0.0032767723314464092
112.0,0.002946453168988228
120.0,0.002827452728524804
128.0,0.002748768776655197
144.0,0.0021784158889204264
160.0,0.0016741383587941527
176.0,0.001597664668224752
192.0,0.0018071214435622096
208.0,0.0019814169500023127
224.0,0.002449094783514738
240.0,0.0024476265534758568
256.0,0.0022889955434948206
288.0,0.0028311682399362326
320.0,0.0025211418978869915
352.0,0.002538723172619939
384.0,0.0023562347050756216
416.0,0.0025458449963480234
448.0,0.002317056991159916
480.0,0.0016826314385980368
512.0,0.0015080333687365055
576.0,-0.00020185104222036898
640.0,-7.804897177265957e-05
704.0,-0.00033511262154206634
768.0,-0.0002045895525952801
832.0,0.0011895468924194574
896.0,0.001450601383112371
960.0,-6.843354640295729e-05
1024.0,-0.0011620600707828999
1152.0,-0.0010875242296606302
1280.0,-0.0013861105544492602
1408.0,-0.0022849238011986017
1536.0,-0.0016027220990508795
1664.0,-0.0017128376057371497
1792.0,-0.0021317913196980953
1920.0,-0.000998135656118393
2048.0,0.0007134209736250341
2304.0,-3.3651176636340097e-05
2560.0,0.00036516261752694845
2816.0,0.0007801245665177703
3072.0,0.0007079358911141753
3328.0,0.0008647728245705366
3584.0,-0.00030541192973032594
3840.0,0.00087336654542014
4096.0,0.0013852118281647563
4608.0,-3.1313480576500297e-05
5120.0,-0.00050448375986889
5632.0,-0.0016248911852017045
6144.0,-8.424844418186694e-05
6656.0,0.0005169764044694602
7168.0,0.001741246785968542
7680.0,0.0009788438910618424
8192.0,-9.452887024963275e-05
end
