version,3.0
numOfCh,1
type,point
parent_name,714af_0dot6-0dot01
ch_type,1_1
kcount,1
numberNandB,1
brightnessNandB,1
carpet pos,0
pc,0
Time (ms),CH1 Auto-Correlation
1.0,0.024433279410004616
2.0,0.02332182228565216
3.0,0.022301461547613144
4.0,0.021356070414185524
5.0,0.020501824095845222
6.0,0.01968233846127987
7.0,0.018947124481201172
8.0,0.01825638674199581
9.0,0.01758844219148159
10.0,0.01697877049446106
11.0,0.016391262412071228
12.0,0.015859223902225494
13.0,0.015391986817121506
14.0,0.014957721345126629
15.0,0.014514787122607231
16.0,0.01407450158149004
18.0,0.013262873515486717
20.0,0.012579914182424545
22.0,0.01201950665563345
24.0,0.01150868833065033
26.0,0.011035578325390816
28.0,0.010608886368572712
30.0,0.010196500457823277
32.0,0.009881768375635147
36.0,0.009325039573013783
40.0,0.008786914870142937
44.0,0.00834087934345007
48.0,0.0080329068005085
52.0,0.007768077775835991
56.0,0.007593786343932152
60.0,0.007369813043624163
64.0,0.007072155829519033
72.0,0.006449988577514887
80.0,0.005573107395321131
88.0,0.004908168688416481
96.0,0.004501296207308769
104.0,0.004292608238756657
112.0,0.004033679608255625
120.0,0.0037271841429173946
128.0,0.003699381835758686
144.0,0.003437609411776066
160.0,0.003819817677140236
176.0,0.004152263980358839
192.0,0.0036538306158035994
208.0,0.0027392178308218718
224.0,0.0026192227378487587
240.0,0.0026933273766189814
256.0,0.00286702997982502
288.0,0.002524025971069932
320.0,0.002578714629635215
352.0,0.002765072276815772
384.0,0.002880446147173643
416.0,0.0027368678711354733
448.0,0.00243894150480628
480.0,0.0011949376203119755
512.0,0.0004757404967676848
576.0,0.0009340845281258225
640.0,0.0014529976760968566
704.0,0.0009926535421982408
768.0,0.0013785101473331451
832.0,0.001179295009933412
896.0,0.0003638016351033002
960.0,0.0011487992014735937
1024.0,0.0020665833726525307
1152.0,0.0011113848304376006
1280.0,0.001220862613990903
1408.0,0.0010144186671823263
1536.0,-0.001852019689977169
1664.0,-0.0012013521045446396
1792.0,-0.0012769016902893782
1920.0,0.00026539358077570796
2048.0,0.0010710216592997313
2304.0,0.0007615774520672858
2560.0,-0.0010085941758006811
2816.0,-0.0009350013569928706
3072.0,0.0004661731072701514
3328.0,0.0023431298322975636
3584.0,0.00011447842553025112
3840.0,-0.0018343988340348005
4096.0,0.00015536349383182824
4608.0,-0.0004958371282555163
5120.0,-0.0016729318303987384
5632.0,-0.00038821515045128763
6144.0,-0.0014264233177527785
6656.0,-0.0015186956152319908
7168.0,-0.0032711171079427004
7680.0,-0.0004174550122115761
8192.0,-0.0028588452842086554
end
