version,3.0
numOfCh,1
type,point
parent_name,714af_0dot6-0dot01
ch_type,1_1
kcount,1
numberNandB,1
brightnessNandB,1
carpet pos,0
pc,0
Time (ms),CH1 Auto-Correlation
1.0,0.024397235363721848
2.0,0.023287486284971237
3.0,0.022249208763241768
4.0,0.021322892978787422
5.0,0.02047225646674633
6.0,0.019713308662176132
7.0,0.01902364194393158
8.0,0.018373336642980576
9.0,0.017771508544683456
10.0,0.017193244770169258
11.0,0.016616608947515488
12.0,0.016095558181405067
13.0,0.01562751643359661
14.0,0.01521086785942316
15.0,0.014792440459132195
16.0,0.014405695721507072
18.0,0.013682711869478226
20.0,0.013006188906729221
22.0,0.012361820787191391
24.0,0.01177624799311161
26.0,0.011244877241551876
28.0,0.010752486996352673
30.0,0.010371629148721695
32.0,0.010006816126406193
36.0,0.009327434003353119
40.0,0.008728565648198128
44.0,0.008191147819161415
48.0,0.007671897765249014
52.0,0.0072120120748877525
56.0,0.006937412079423666
60.0,0.006692660041153431
64.0,0.006387948989868164
72.0,0.005945074837654829
80.0,0.005667598452419043
88.0,0.00524037005379796
96.0,0.004492047242820263
104.0,0.003842278616502881
112.0,0.0036099813878536224
120.0,0.003696110099554062
128.0,0.0036120449658483267
144.0,0.0031239825766533613
160.0,0.003079726593568921
176.0,0.0032318513840436935
192.0,0.002825249917805195
208.0,0.0023002594243735075
224.0,0.0019347912166267633
240.0,0.0015607605455443263
256.0,0.0017937211086973548
288.0,0.00126306910533458
320.0,0.0007420342299155891
352.0,0.001047941274009645
384.0,0.0012853264342993498
416.0,0.002118846634402871
448.0,0.001971497666090727
480.0,0.0020829401910305023
512.0,0.002049891045317054
576.0,0.001479433965869248
640.0,0.0019989253487437963
704.0,0.0010762761812657118
768.0,0.0007108201389200985
832.0,-0.00048415648052468896
896.0,-0.0022707651369273663
960.0,-0.002560625784099102
1024.0,-0.0016102866502478719
1152.0,-0.0009252257877960801
1280.0,-0.001957024447619915
1408.0,-0.0027863765135407448
1536.0,-0.0012394170043990016
1664.0,-0.0010753395035862923
1792.0,-0.0014924801653251052
1920.0,-0.00011089980398537591
2048.0,0.0009968921076506376
2304.0,0.0011604327009990811
2560.0,0.0007345087360590696
2816.0,0.0013798796571791172
3072.0,0.0005828744033351541
3328.0,0.0005104964366182685
3584.0,-0.0001860111515270546
3840.0,-0.0003016278496943414
4096.0,0.0013603005791082978
4608.0,0.00021004029258619994
5120.0,-0.0007542910170741379
5632.0,-0.001838221331126988
6144.0,-0.0008036489598453045
6656.0,0.0014211268862709403
7168.0,0.001002421835437417
7680.0,-0.0017803233349695802
8192.0,-0.0029404545202851295
end
