version,3.0
numOfCh,1
type,point
parent_name,714af_0dot6-0dot01
ch_type,1_1
kcount,1
numberNandB,1
brightnessNandB,1
carpet pos,0
pc,0
Time (ms),CH1 Auto-Correlation
1.0,0.0210618544369936
2.0,0.019961751997470856
3.0,0.018954088911414146
4.0,0.018030010163784027
5.0,0.01717239059507847
6.0,0.01640102081000805
7.0,0.01567547768354416
8.0,0.015016186982393265
9.0,0.014401971362531185
10.0,0.013821300119161606
11.0,0.013291193172335625
12.0,0.012768073007464409
13.0,0.012303026393055916
14.0,0.011874732561409473
15.0,0.011428819969296455
16.0,0.010995794087648392
18.0,0.010239547118544579
20.0,0.009616978466510773
22.0,0.009166177362203598
24.0,0.008781732991337776
26.0,0.008419687859714031
28.0,0.008067495189607143
30.0,0.007715735584497452
32.0,0.0073361024260520935
36.0,0.006717349402606487
40.0,0.00607643835246563
44.0,0.005454850383102894
48.0,0.005035556852817535
52.0,0.00478645833209157
56.0,0.004461371805518866
60.0,0.004256501328200102
64.0,0.0038890636060386896
72.0,0.0032232424709945917
80.0,0.003070909297093749
88.0,0.0029677513521164656
96.0,0.0028811802621930838
104.0,0.0028631507884711027
112.0,0.0027843532152473927
120.0,0.0022371094673871994
128.0,0.002119580050930381
144.0,0.0020047398284077644
160.0,0.0012303268304094672
176.0,0.0009887409396469593
192.0,0.0010841357288882136
208.0,0.0006317864754237235
224.0,0.0005254299030639231
240.0,0.000833331432659179
256.0,0.0004852951387874782
288.0,0.0004377423319965601
320.0,-5.7346569519722834e-05
352.0,-0.0005964427255094051
384.0,-0.0008589084609411657
416.0,-5.732239515054971e-05
448.0,-0.00013870834663975984
480.0,0.0005269969697110355
512.0,-0.00015922848251648247
576.0,-0.0015021181898191571
640.0,-0.0011638192227110267
704.0,-0.0011955396039411426
768.0,-0.0008115973323583603
832.0,-0.0004991999012418091
896.0,-0.0006203583907335997
960.0,0.00010179891251027584
1024.0,0.0006391055067069829
1152.0,0.0006937377620488405
1280.0,0.0007000393816269934
1408.0,0.0007652647327631712
1536.0,0.0003834355156868696
1664.0,-0.0008746404782868922
1792.0,-0.00070901308208704
1920.0,0.00062426837394014
2048.0,0.0002617232676129788
2304.0,-0.0009314217604696751
2560.0,-0.0005605057231150568
2816.0,0.0009093119879253209
3072.0,0.0011751421261578798
3328.0,0.0003616419853642583
3584.0,-0.0006477322313003242
3840.0,-0.0007146638236008584
4096.0,-1.136567607318284e-05
4608.0,-0.00032675801776349545
5120.0,-0.00015357024676632136
5632.0,-0.0007071011932566762
6144.0,0.00020009033323731273
6656.0,0.00046692159958183765
7168.0,-0.0009087754879146814
7680.0,-0.0012029006611555815
8192.0,-0.0010640599066391587
end
