version,3.0
numOfCh,1
type,point
parent_name,714af_0dot6-0dot01
ch_type,1_1
kcount,1
numberNandB,1
brightnessNandB,1
carpet pos,0
pc,0
Time (ms),CH1 Auto-Correlation
1.0,0.023447919636964798
2.0,0.02239353023469448
3.0,0.021448999643325806
4.0,0.02057158760726452
5.0,0.019741971045732498
6.0,0.01896831952035427
7.0,0.018240362405776978
8.0,0.017563002184033394
9.0,0.0169178768992424
10.0,0.016309626400470734
11.0,0.015749523416161537
12.0,0.015234637074172497
13.0,0.01475719828158617
14.0,0.014289291575551033
15.0,0.013866906985640526
16.0,0.013454506173729897
18.0,0.012690613977611065
20.0,0.011996455490589142
22.0,0.011371123604476452
24.0,0.010821730829775333
26.0,0.010260103270411491
28.0,0.009751511737704277
30.0,0.009328504092991352
32.0,0.008921612054109573
36.0,0.008240179158747196
40.0,0.007768913172185421
44.0,0.00751900440081954
48.0,0.0072618452832102776
52.0,0.00697392039000988
56.0,0.006644543260335922
60.0,0.006244733929634094
64.0,0.005844998639076948
72.0,0.005262279417365789
80.0,0.0049349223263561726
88.0,0.0047080074436962605
96.0,0.004281559959053993
104.0,0.0037330330815166235
112.0,0.0032590588089078665
120.0,0.00312840030528605
128.0,0.002863979898393154
144.0,0.0026039762888103724
160.0,0.0025721837300807238
176.0,0.00295615429058671
192.0,0.002568793250247836
208.0,0.0029402929358184338
224.0,0.002612522803246975
240.0,0.0020150193013250828
256.0,0.001771637937054038
288.0,0.0016009074170142412
320.0,0.0007724313763901591
352.0,0.0011589615605771542
384.0,0.0008214586996473372
416.0,0.000816703715827316
448.0,0.00023766455706208944
480.0,0.0006621538777835667
512.0,0.0010200424585491419
576.0,0.00020378921180963516
640.0,-0.00026186826289631426
704.0,-0.0007137125940062106
768.0,-0.0009350345353595912
832.0,-0.001962678274139762
896.0,-0.0010133752366527915
960.0,-0.0003944514028262347
1024.0,-2.953452394649503e-06
1152.0,0.0001480829087086022
1280.0,-0.0014908747980371118
1408.0,-0.00016630932805128396
1536.0,-0.000365346553735435
1664.0,-0.0001392573321936652
1792.0,-0.0013492819853127003
1920.0,-0.001386161777190864
2048.0,-0.0014604977332055569
2304.0,-0.0007902177749201655
2560.0,2.7044015951105393e-05
2816.0,0.0006452447269111872
3072.0,0.0004905317910015583
3328.0,-0.0006299117230810225
3584.0,-0.0006373471114784479
3840.0,6.353045318974182e-05
4096.0,0.0004702867881860584
4608.0,-0.0009853530209511518
5120.0,-0.0006305678398348391
5632.0,0.0015167256351560354
6144.0,0.00101410411298275
6656.0,0.00025528002879582345
7168.0,0.0009626008104532957
7680.0,-0.0015747634461149573
8192.0,-0.0019150316948071122
end
