version,3.0
numOfCh,1
type,point
parent_name,714af_0dot6-0dot01
ch_type,1_1
kcount,1
numberNandB,1
brightnessNandB,1
carpet pos,0
pc,0
Time (ms),CH1 Auto-Correlation
1.0,0.023262357339262962
2.0,0.02212071232497692
3.0,0.02111065946519375
4.0,0.020176079124212265
5.0,0.019313737750053406
6.0,0.01852981373667717
7.0,0.017792122438549995
8.0,0.01707201823592186
9.0,0.016416259109973907
10.0,0.015827016904950142
11.0,0.015286186710000038
12.0,0.014791535213589668
13.0,0.014354001730680466
14.0,0.013931669294834137
15.0,0.01357287261635065
16.0,0.013216221705079079
18.0,0.012537206523120403
20.0,0.011921110562980175
22.0,0.011416155844926834
24.0,0.010928160510957241
26.0,0.010503040626645088
28.0,0.010109281167387962
30.0,0.009784298948943615
32.0,0.009547550231218338
36.0,0.00924917496740818
40.0,0.008771014399826527
44.0,0.008371821604669094
48.0,0.007986832410097122
52.0,0.007440601009875536
56.0,0.006960975006222725
60.0,0.006567641161382198
64.0,0.00616114167496562
72.0,0.005646971520036459
80.0,0.005339704919606447
88.0,0.0050814347341656685
96.0,0.004732777830213308
104.0,0.004404052160680294
112.0,0.0042799548245966434
120.0,0.004175921902060509
128.0,0.0043466887436807156
144.0,0.004256345797330141
160.0,0.0043565016239881516
176.0,0.004606769885867834
192.0,0.004908796865493059
208.0,0.0051772091537714005
224.0,0.005377522204071283
240.0,0.005247072316706181
256.0,0.004673719871789217
288.0,0.0045935786329209805
320.0,0.00387747073546052
352.0,0.002945089712738991
384.0,0.0029362880159169436
416.0,0.002792701357975602
448.0,0.0025622646789997816
480.0,0.00330270710401237
512.0,0.0029291226528584957
576.0,0.0017387514235451818
640.0,0.0010465910891070962
704.0,0.001026479178108275
768.0,0.0018712047021836042
832.0,0.0005891092005185783
896.0,-0.0001377096923533827
960.0,-0.00010583495895843953
1024.0,0.0018179015023633838
1152.0,0.0007740567089058459
1280.0,4.297855048207566e-05
1408.0,-0.0006699857185594738
1536.0,-0.0006221265066415071
1664.0,-0.0014869282022118568
1792.0,-0.0017385778483003378
1920.0,-0.002701055957004428
2048.0,-0.0039057214744389057
2304.0,-0.0033759810030460358
2560.0,-0.002494640415534377
2816.0,-0.0018406602321192622
3072.0,-0.001560432487167418
3328.0,-0.000750820036046207
3584.0,0.0005297869793139398
3840.0,0.000877452315762639
4096.0,0.001476938952691853
4608.0,0.0016028425889089704
5120.0,8.611241355538368e-05
5632.0,-0.0007954987231642008
6144.0,-0.0010138979414477944
6656.0,-0.0009254360920749605
7168.0,-0.0004217672976665199
7680.0,0.001981837209314108
8192.0,0.0006863812450319529
end
