version,3.0
numOfCh,1
type,point
parent_name,714af_0dot6-0dot01
ch_type,1_1
kcount,1
numberNandB,1
brightnessNandB,1
carpet pos,0
pc,0
Time (ms),CH1 Auto-Correlation
1.0,0.02299986593425274
2.0,0.021858852356672287
3.0,0.020811406895518303
4.0,0.019856438040733337
5.0,0.018978869542479515
6.0,0.018201841041445732
7.0,0.0174750704318285
8.0,0.016785133630037308
9.0,0.0161393191665411
10.0,0.015557417646050453
11.0,0.015017975121736526
12.0,0.01453347597271204
13.0,0.01406060066074133
14.0,0.013604024425148964
15.0,0.01317020133137703
16.0,0.01274698507040739
18.0,0.012063001282513142
20.0,0.011434121988713741
22.0,0.010909756645560265
24.0,0.010436118580400944
26.0,0.00997746828943491
28.0,0.00951829832047224
30.0,0.009094185195863247
32.0,0.008715459145605564
36.0,0.00805895496159792
40.0,0.00769059220328927
44.0,0.007477100007236004
48.0,0.007250799331814051
52.0,0.007046516053378582
56.0,0.006804279051721096
60.0,0.006587334908545017
64.0,0.006518724374473095
72.0,0.006190866697579622
80.0,0.0055922092869877815
88.0,0.005041126161813736
96.0,0.004599865525960922
104.0,0.004092938732355833
112.0,0.004095091950148344
120.0,0.004076428711414337
128.0,0.003909365274012089
144.0,0.0033922968432307243
160.0,0.002457786351442337
176.0,0.0021118288859725
192.0,0.0025060561019927263
208.0,0.0027177941519767046
224.0,0.0024741077795624733
240.0,0.0017369973938912153
256.0,0.000653043098282069
288.0,0.0006864744937047362
320.0,0.0008319157059304416
352.0,0.0015282812528312206
384.0,0.0016940382774919271
416.0,0.0012958631850779057
448.0,0.0019188259029760957
480.0,0.0020487464498728514
512.0,0.0028424528427422047
576.0,0.0020429729484021664
640.0,0.001340787741355598
704.0,0.0014834824251011014
768.0,0.0010372997494414449
832.0,4.447586979949847e-05
896.0,-0.00046581411152146757
960.0,0.00032139578252099454
1024.0,0.0007047273102216423
1152.0,0.000283632252831012
1280.0,-7.471616117982194e-05
1408.0,0.0005154726677574217
1536.0,0.0013982426607981324
1664.0,0.00046892010141164064
1792.0,0.00010114446195075288
1920.0,-0.0005163428140804172
2048.0,-0.0011128804180771112
2304.0,0.0005839559016749263
2560.0,-0.0003241162630729377
2816.0,0.0010783117031678557
3072.0,0.0004616157675627619
3328.0,0.00038065158878453076
3584.0,0.00031699222745373845
3840.0,0.0005871678004041314
4096.0,-0.0008048431482166052
4608.0,-0.00024950969964265823
5120.0,-0.0011781369103118777
5632.0,-0.0014388771960511804
6144.0,-0.002007432049140334
6656.0,-0.0018182332860305905
7168.0,4.482156873564236e-05
7680.0,-0.00018881328287534416
8192.0,-0.0014663130277767777
end
