version,3.0
numOfCh,1
type,point
parent_name,714af_0dot6-0dot01
ch_type,1_1
kcount,1
numberNandB,1
brightnessNandB,1
carpet pos,0
pc,0
Time (ms),CH1 Auto-Correlation
1.0,0.03189956396818161
2.0,0.030770234763622284
3.0,0.029737768694758415
4.0,0.028768766671419144
5.0,0.027870390564203262
6.0,0.027047457173466682
7.0,0.02623182162642479
8.0,0.025474995374679565
9.0,0.024775050580501556
10.0,0.024100078269839287
11.0,0.023467259481549263
12.0,0.022869030013680458
13.0,0.022293534129858017
14.0,0.021728338673710823
15.0,0.021185237914323807
16.0,0.02073735184967518
18.0,0.019915888085961342
20.0,0.019170310348272324
22.0,0.018470654264092445
24.0,0.017848193645477295
26.0,0.01724291779100895
28.0,0.016631435602903366
30.0,0.016010761260986328
32.0,0.015417770482599735
36.0,0.014349276199936867
40.0,0.01331858616322279
44.0,0.012393041513860226
48.0,0.0115425493568182
52.0,0.010912074707448483
56.0,0.010288755409419537
60.0,0.009796477854251862
64.0,0.009336022660136223
72.0,0.008051684126257896
80.0,0.007181655615568161
88.0,0.006543424446135759
96.0,0.0063894931226968765
104.0,0.006041073706001043
112.0,0.005645150784403086
120.0,0.0055450391955673695
128.0,0.005104837007820606
144.0,0.004640862345695496
160.0,0.005201976280659437
176.0,0.005334451794624329
192.0,0.005639595910906792
208.0,0.006497863680124283
224.0,0.007057111244648695
240.0,0.006399399135261774
256.0,0.005960612092167139
288.0,0.005938544869422913
320.0,0.00496147433295846
352.0,0.0036716547328978777
384.0,0.0025858681183308363
416.0,0.0013293729862198234
448.0,0.0011274099815636873
480.0,0.001225416548550129
512.0,0.0018169090617448092
576.0,0.0018428791081532836
640.0,-0.0001390668039675802
704.0,-0.0015241173096001148
768.0,-0.0003626277903094888
832.0,-0.0005182491731829941
896.0,-0.0005696993903256953
960.0,0.00026872148737311363
1024.0,0.0005786557449027896
1152.0,-0.0011478582164272666
1280.0,-0.0013095757458359003
1408.0,-0.0006731691537424922
1536.0,-0.0003840475401375443
1664.0,0.000267305935267359
1792.0,-0.00038065097760409117
1920.0,0.002479773946106434
2048.0,0.0006836322136223316
2304.0,0.0013921214267611504
2560.0,-0.00016148720169439912
2816.0,-0.000781928189098835
3072.0,-0.00048410019371658564
3328.0,0.0003834462841041386
3584.0,-0.0007449610275216401
3840.0,-0.001665109652094543
4096.0,-0.0017226540949195623
4608.0,-0.0012761610560119152
5120.0,-0.0010142610408365726
5632.0,-0.0015465884935110807
6144.0,-0.0030459475237876177
6656.0,-0.00285071088001132
7168.0,-0.002497176406905055
7680.0,-0.0013438353780657053
8192.0,0.0008067364688031375
end
