version,3.0
numOfCh,1
type,point
parent_name,714af_0dot6-0dot01
ch_type,1_1
kcount,1
numberNandB,1
brightnessNandB,1
carpet pos,0
pc,0
Time (ms),CH1 Auto-Correlation
1.0,0.022597428411245346
2.0,0.0215319711714983
3.0,0.020597590133547783
4.0,0.019764192402362823
5.0,0.018977627158164978
6.0,0.018249904736876488
7.0,0.01753888837993145
8.0,0.016890985891222954
9.0,0.016274258494377136
10.0,0.01568625308573246
11.0,0.015134921297430992
12.0,0.014636528678238392
13.0,0.014178565703332424
14.0,0.01372812781482935
15.0,0.013322521932423115
16.0,0.012943495996296406
18.0,0.012214373797178268
20.0,0.01158357784152031
22.0,0.011022673919796944
24.0,0.010515015572309494
26.0,0.01007950957864523
28.0,0.00967650767415762
30.0,0.009303080849349499
32.0,0.008979018777608871
36.0,0.00831245630979538
40.0,0.007692505605518818
44.0,0.007154666353017092
48.0,0.006619561463594437
52.0,0.006203578785061836
56.0,0.005766223184764385
60.0,0.00541007611900568
64.0,0.0050602322444319725
72.0,0.004307407885789871
80.0,0.0037381157744675875
88.0,0.0036392472684383392
96.0,0.003522473154589534
104.0,0.002988062798976898
112.0,0.0023694415576756
120.0,0.0019277267856523395
128.0,0.0017603489104658365
144.0,0.0016071797581389546
160.0,0.0022816630080342293
176.0,0.0026170166675001383
192.0,0.002269995165988803
208.0,0.0014893843326717615
224.0,0.0006832561921328306
240.0,5.0780337915057316e-05
256.0,0.0001010434134514071
288.0,-0.00032537648803554475
320.0,-0.0005600885488092899
352.0,-0.00044730515219271183
384.0,0.0006423779996111989
416.0,0.0014492542250081897
448.0,0.001015323679894209
480.0,0.0009395143715664744
512.0,0.0008324848022311926
576.0,0.0012233053566887975
640.0,0.0006799527327530086
704.0,-0.001326900441199541
768.0,0.00020498939557000995
832.0,-0.000495885091368109
896.0,-0.0010878040920943022
960.0,0.00012085459457011893
1024.0,0.000792943814303726
1152.0,-0.00031993657466955483
1280.0,-0.0020281996112316847
1408.0,-0.0016273870132863522
1536.0,-0.0006050766096450388
1664.0,0.0007865036022849381
1792.0,0.0005980433197692037
1920.0,0.0002828736323863268
2048.0,0.00045345927355811
2304.0,0.000218191125895828
2560.0,-2.24066916416632e-05
2816.0,2.7911883080378175e-05
3072.0,-0.0011068574385717511
3328.0,-0.0006354937213473022
3584.0,-2.493518877599854e-05
3840.0,-0.0008637241553515196
4096.0,-0.001156431040726602
4608.0,0.00029783500940538943
5120.0,-0.00047313375398516655
5632.0,-0.00016926300304476172
6144.0,-0.0002777945774141699
6656.0,-0.0007085655815899372
7168.0,-0.0007628679741173983
7680.0,0.0012994448188692331
8192.0,0.0007606855942867696
9216.0,0.00038319462328217924
10240.0,0.0016865510260686278
11264.0,-0.0008366043330170214
12288.0,0.000278739957138896
13312.0,-0.0014178891433402896
14336.0,-0.0026659094728529453
end
