version,3.0
numOfCh,1
type,point
parent_name,714af_0dot6-0dot01
ch_type,1_1
kcount,1
numberNandB,1
brightnessNandB,1
carpet pos,0
pc,0
Time (ms),CH1 Auto-Correlation
1.0,0.02942359447479248
2.0,0.028329523280262947
3.0,0.027339786291122437
4.0,0.026414835825562477
5.0,0.025565551593899727
6.0,0.024835586547851562
7.0,0.024159234017133713
8.0,0.023566419258713722
9.0,0.02302316389977932
10.0,0.02250301092863083
11.0,0.022023232653737068
12.0,0.021547112613916397
13.0,0.021090198308229446
14.0,0.020644061267375946
15.0,0.020238811150193214
16.0,0.019844330847263336
18.0,0.01907438039779663
20.0,0.018419379368424416
22.0,0.017800135537981987
24.0,0.017243539914488792
26.0,0.016730602830648422
28.0,0.016335967928171158
30.0,0.015952104702591896
32.0,0.01556119229644537
36.0,0.014727900736033916
40.0,0.013991059735417366
44.0,0.013367045670747757
48.0,0.0127564100548625
52.0,0.012240026146173477
56.0,0.011740567162632942
60.0,0.011244486086070538
64.0,0.010958333499729633
72.0,0.010481378063559532
80.0,0.009907892905175686
88.0,0.009472105652093887
96.0,0.009202335961163044
104.0,0.008720758371055126
112.0,0.007938460446894169
120.0,0.0073198252357542515
128.0,0.006878745276480913
144.0,0.006438362877815962
160.0,0.006110081914812326
176.0,0.005615923088043928
192.0,0.005156942643225193
208.0,0.004654565826058388
224.0,0.00404244614765048
240.0,0.0038432979490607977
256.0,0.0038389794062823057
288.0,0.0038517832290381193
320.0,0.0037779416888952255
352.0,0.0026199184358119965
384.0,0.0020712893456220627
416.0,0.0016195318894460797
448.0,0.0006364565342664719
480.0,0.0005416193744167686
512.0,0.0008237227448262274
576.0,-0.0003096789005212486
640.0,-0.0007874895818531513
704.0,-0.0007027802639640868
768.0,-0.001217141281813383
832.0,-0.0007446431554853916
896.0,-0.0006673678872175515
960.0,0.0008902783156372607
1024.0,-0.000281469285255298
1152.0,-0.0003624777018558234
1280.0,0.0006165319937281311
1408.0,0.0021598779130727053
1536.0,0.003106077667325735
1664.0,0.0037723160348832607
1792.0,0.0032818010076880455
1920.0,0.004023122601211071
2048.0,0.003944046795368195
2304.0,-0.002473828149959445
2560.0,-0.004366114269942045
2816.0,-0.0024356276262551546
3072.0,0.0007116154301911592
3328.0,0.00028084038058295846
3584.0,0.0013991930754855275
3840.0,-0.0007441956549882889
4096.0,-0.0015613544965162873
4608.0,-0.0030537527054548264
5120.0,-0.0009076111018657684
5632.0,0.0002300981868756935
6144.0,-0.001614728127606213
6656.0,-0.0012702122330665588
7168.0,0.000939200515858829
7680.0,0.0018770707538351417
8192.0,0.0011607026681303978
end
