version,3.0
numOfCh,1
type,point
parent_name,714af_0dot6-0dot01
ch_type,1_1
kcount,1
numberNandB,1
brightnessNandB,1
carpet pos,0
pc,0
Time (ms),CH1 Auto-Correlation
1.0,0.060226768255233765
2.0,0.05775293707847595
3.0,0.05535382777452469
4.0,0.05308583751320839
5.0,0.050954513251781464
6.0,0.048887573182582855
7.0,0.04693523421883583
8.0,0.04512166604399681
9.0,0.04329266399145126
10.0,0.04154609516263008
11.0,0.03971787169575691
12.0,0.03796039894223213
13.0,0.03624403476715088
14.0,0.03447632119059563
15.0,0.032670758664608
16.0,0.030917689204216003
18.0,0.026173342019319534
20.0,0.022876959294080734
22.0,0.0197145938873291
24.0,0.016483642160892487
26.0,0.01619202084839344
28.0,0.01597065106034279
30.0,0.01569194905459881
32.0,0.015417792834341526
36.0,0.014597800560295582
40.0,0.01408656220883131
44.0,0.013857954181730747
48.0,0.013412249274551868
52.0,0.012754063121974468
56.0,0.012119314633309841
60.0,0.011301486752927303
64.0,0.010634580627083778
72.0,0.009073269553482533
80.0,0.008190085180103779
88.0,0.00710547249764204
96.0,0.0065818773582577705
104.0,0.006342044100165367
112.0,0.005885697901248932
120.0,0.005252736154943705
128.0,0.005265858955681324
144.0,0.004998008720576763
160.0,0.005223343148827553
176.0,0.006415896583348513
192.0,0.00641584163531661
208.0,0.005069574806839228
224.0,0.0036933268420398235
240.0,0.0017155860550701618
256.0,0.0004988854052498937
288.0,0.00130614941008389
320.0,0.00028597976779565215
352.0,0.0008241265313699841
384.0,0.0008835003827698529
416.0,0.00034264748683199286
448.0,-0.00035785234649665654
480.0,-0.0006553978309966624
512.0,-0.001113040605559945
576.0,-0.0026539782993495464
640.0,-0.0009981784969568253
704.0,0.00036092085065320134
768.0,-0.0014025832060724497
832.0,0.0005520915146917105
896.0,0.0037540909834206104
960.0,0.0021756296046078205
1024.0,0.002659878693521023
1152.0,0.0016934019513428211
1280.0,0.001788116991519928
1408.0,0.001927667879499495
1536.0,-0.0008814315660856664
1664.0,0.0005700970068573952
1792.0,-0.0015310512389987707
1920.0,-0.003405276918783784
2048.0,-0.0028194100596010685
2304.0,0.0010577793000265956
2560.0,0.0007706768228672445
2816.0,-0.001357570174150169
3072.0,-0.0011493159690871835
3328.0,-0.00213747494854033
3584.0,-0.0010761176235973835
3840.0,0.0019690629560500383
4096.0,-0.0010336319683119655
4608.0,-0.0021894099190831184
5120.0,0.000793789338786155
5632.0,-0.0011937350500375032
6144.0,0.002318284474313259
6656.0,-0.0005081232520751655
7168.0,-8.052106568356976e-05
7680.0,0.0005356412148103118
8192.0,-0.004933815449476242
end
