version,3.0
numOfCh,1
type,point
parent_name,714af_0dot6-0dot01
ch_type,1_1
kcount,1
numberNandB,1
brightnessNandB,1
carpet pos,0
pc,0
Time (ms),CH1 Auto-Correlation
1.0,0.0596100352704525
2.0,0.05762620270252228
3.0,0.05565036088228226
4.0,0.05371040850877762
5.0,0.05181565508246422
6.0,0.05000889673829079
7.0,0.04826289042830467
8.0,0.04659566283226013
9.0,0.045064326375722885
10.0,0.04363751783967018
11.0,0.0423094779253006
12.0,0.040962185710668564
13.0,0.039642252027988434
14.0,0.0383886881172657
15.0,0.037083279341459274
16.0,0.03572840243577957
18.0,0.03204438090324402
20.0,0.029335081577301025
22.0,0.026700720191001892
24.0,0.02507675066590309
26.0,0.0245308019220829
28.0,0.024143047630786896
30.0,0.023828299716114998
32.0,0.023494403809309006
36.0,0.0228444691747427
40.0,0.02221475914120674
44.0,0.0216817706823349
48.0,0.021083708852529526
52.0,0.02056691236793995
56.0,0.020081644877791405
60.0,0.01952175237238407
64.0,0.019026746973395348
72.0,0.01839892379939556
80.0,0.017231909558176994
88.0,0.015876833349466324
96.0,0.015367764979600906
104.0,0.015115347690880299
112.0,0.014889177866280079
120.0,0.014561246149241924
128.0,0.014082199893891811
144.0,0.013558479025959969
160.0,0.012758003547787666
176.0,0.012041420675814152
192.0,0.011695957742631435
208.0,0.012093581259250641
224.0,0.012236020527780056
240.0,0.011800928972661495
256.0,0.01167281623929739
288.0,0.01087088044732809
320.0,0.008412560448050499
352.0,0.006632338277995586
384.0,0.005394279956817627
416.0,0.0051826904527843
448.0,0.0047504534013569355
480.0,0.004517843015491962
512.0,0.004817694425582886
576.0,0.0035335724242031574
640.0,0.0029759027529507875
704.0,0.0017855123151093721
768.0,0.0024339037481695414
832.0,0.002550280885770917
896.0,0.003749745897948742
960.0,0.004136577248573303
1024.0,0.0026061648968607187
1152.0,0.006172249559313059
1280.0,0.006641308777034283
1408.0,0.00849149376153946
1536.0,0.004568504169583321
1664.0,0.0033098007552325726
1792.0,-0.00044709298526868224
1920.0,-0.0005729689146392047
2048.0,-0.0011807124828919768
2304.0,0.0018514045514166355
2560.0,0.002708651591092348
2816.0,0.0016676041996106505
3072.0,-0.000915807206183672
3328.0,-0.0026423761155456305
3584.0,-0.00485272565856576
3840.0,-0.006328884046524763
4096.0,-0.006103840656578541
4608.0,-0.007858801633119583
5120.0,-0.007694951258599758
5632.0,-0.0037355776876211166
6144.0,-0.005752083845436573
6656.0,-0.008379925042390823
7168.0,-0.002400398487225175
7680.0,-0.003325846279039979
8192.0,-0.002013307297602296
end
