version,3.0
numOfCh,1
type,point
parent_name,c1204_0dot1-0dot1
ch_type,1_1
kcount,1
numberNandB,1
brightnessNandB,1
carpet pos,0
pc,0
Time (ms),CH1 Auto-Correlation
1.0,0.04738236218690872
2.0,0.04662651941180229
3.0,0.04591061919927597
4.0,0.045260705053806305
5.0,0.04463866725564003
6.0,0.04402667284011841
7.0,0.043423280119895935
8.0,0.04284593462944031
9.0,0.04226294159889221
10.0,0.0417296476662159
11.0,0.041192930191755295
12.0,0.04067708179354668
13.0,0.04018488898873329
14.0,0.039703503251075745
15.0,0.03924698382616043
16.0,0.03881610557436943
18.0,0.037973079830408096
20.0,0.0371517576277256
22.0,0.03630824387073517
24.0,0.03550184890627861
26.0,0.034721631556749344
28.0,0.03398074954748154
30.0,0.03327791392803192
32.0,0.032613079994916916
36.0,0.031449783593416214
40.0,0.03037024661898613
44.0,0.029337694868445396
48.0,0.02839314006268978
52.0,0.027437226846814156
56.0,0.026438314467668533
60.0,0.02547229640185833
64.0,0.024566298350691795
72.0,0.02270018681883812
80.0,0.0214383527636528
88.0,0.02044668234884739
96.0,0.019420957192778587
104.0,0.018140459433197975
112.0,0.01698310300707817
120.0,0.015776358544826508
128.0,0.014349824748933315
144.0,0.01206015795469284
160.0,0.009773367084562778
176.0,0.007864422164857388
192.0,0.006141779012978077
208.0,0.005171786528080702
224.0,0.0049162632785737514
240.0,0.004855250474065542
256.0,0.004751978907734156
288.0,0.0046847546473145485
320.0,0.003754753852263093
352.0,0.0032004984095692635
384.0,0.0038959907833486795
416.0,0.00329439714550972
448.0,0.003048958256840706
480.0,0.0021752077154815197
512.0,-0.00038498491630889475
576.0,-0.0035136262886226177
640.0,-0.0036308285780251026
704.0,-0.0015768369194120169
768.0,-0.0016120097134262323
832.0,-0.0012618842301890254
896.0,0.0007568460423499346
960.0,0.0008202359895221889
1024.0,-0.0027438162360340357
1152.0,-0.00885534193366766
1280.0,-0.011380991898477077
1408.0,-0.007865511812269688
1536.0,-0.011754786595702171
1664.0,-0.007607088889926672
1792.0,-0.0034637548960745335
1920.0,-0.00045942002907395363
2048.0,-0.004950459115207195
2304.0,-0.002807712648063898
2560.0,0.0020007886923849583
2816.0,0.006205649580806494
3072.0,0.006116412114351988
3328.0,0.006997842341661453
3584.0,0.005834868643432856
3840.0,0.003538966178894043
4096.0,-5.8472691307542846e-05
4608.0,-0.0074265324510633945
5120.0,-0.0044529372826218605
5632.0,-0.0007194514619186521
6144.0,-0.0007241486455313861
6656.0,0.006392010021954775
7168.0,0.007267292123287916
7680.0,-0.0003447890339884907
8192.0,-0.006744465325027704
end
