version,3.0
numOfCh,1
type,point
parent_name,c1204_0dot1-0dot1
ch_type,1_1
kcount,1
numberNandB,1
brightnessNandB,1
carpet pos,0
pc,0
Time (ms),CH1 Auto-Correlation
1.0,0.0577247254550457
2.0,0.05711750313639641
3.0,0.056534089148044586
4.0,0.05595052242279053
5.0,0.0553840808570385
6.0,0.054826851934194565
7.0,0.05428208038210869
8.0,0.053735993802547455
9.0,0.05318180099129677
10.0,0.05263832211494446
11.0,0.05210534855723381
12.0,0.051585856825113297
13.0,0.05108308792114258
14.0,0.05058189108967781
15.0,0.05009965971112251
16.0,0.049628689885139465
18.0,0.048681993037462234
20.0,0.04774687439203262
22.0,0.04683796688914299
24.0,0.04596561938524246
26.0,0.045155201107263565
28.0,0.044411782175302505
30.0,0.04367324337363243
32.0,0.04293758049607277
36.0,0.041504643857479095
40.0,0.04021609202027321
44.0,0.039004575461149216
48.0,0.037906356155872345
52.0,0.036881063133478165
56.0,0.03585707023739815
60.0,0.03492017090320587
64.0,0.034070730209350586
72.0,0.032059334218502045
80.0,0.030173391103744507
88.0,0.028262976557016373
96.0,0.02645610272884369
104.0,0.02506251074373722
112.0,0.023888880386948586
120.0,0.022628864273428917
128.0,0.021527253091335297
144.0,0.019863208755850792
160.0,0.017912860959768295
176.0,0.015969084575772285
192.0,0.014487024396657944
208.0,0.013203484937548637
224.0,0.011671802960336208
240.0,0.00999186746776104
256.0,0.008597731590270996
288.0,0.0058260769583284855
320.0,0.0039814542979002
352.0,0.0035217071417719126
384.0,0.003315976820886135
416.0,0.003587370505556464
448.0,0.004259215202182531
480.0,0.004283009562641382
512.0,0.0027959656435996294
576.0,0.00039295273018069565
640.0,-0.0007786841597408056
704.0,0.0002188974613090977
768.0,0.0006739989621564746
832.0,-0.001351599465124309
896.0,-0.003154877806082368
960.0,-0.002989433240145445
1024.0,-0.004709393717348576
1152.0,-0.0038887534756213427
1280.0,-0.005231078248471022
1408.0,-0.002533677266910672
1536.0,-0.001992926700040698
1664.0,0.0012466342886909842
1792.0,-0.004158331546932459
1920.0,-0.005178025923669338
2048.0,-0.004675555508583784
2304.0,-0.0018353667110204697
2560.0,0.002348011825233698
2816.0,2.755662899289746e-05
3072.0,-0.0037611282896250486
3328.0,-0.008007518015801907
3584.0,-0.009220393374562263
3840.0,0.00011406466364860535
4096.0,0.006235227454453707
4608.0,0.011290673166513443
5120.0,-0.00010172962356591597
5632.0,-0.004479650408029556
6144.0,-0.009609575383365154
6656.0,-0.00348062627017498
7168.0,0.0013398786541074514
7680.0,-0.008687193505465984
8192.0,-0.004899142775684595
end
