version,3.0
numOfCh,1
type,point
parent_name,c1204_0dot1-0dot1
ch_type,1_1
kcount,1
numberNandB,1
brightnessNandB,1
carpet pos,0
pc,0
Time (ms),CH1 Auto-Correlation
1.0,0.045498646795749664
2.0,0.04494468495249748
3.0,0.04440335929393768
4.0,0.04386785998940468
5.0,0.043347813189029694
6.0,0.04284203052520752
7.0,0.04235915094614029
8.0,0.04189222306013107
9.0,0.041431725025177
10.0,0.040971528738737106
11.0,0.040528617799282074
12.0,0.040068626403808594
13.0,0.03962179273366928
14.0,0.03918546438217163
15.0,0.03875686228275299
16.0,0.038353536278009415
18.0,0.03755153715610504
20.0,0.036781322211027145
22.0,0.036004431545734406
24.0,0.0352654792368412
26.0,0.03457099199295044
28.0,0.033936142921447754
30.0,0.03331621736288071
32.0,0.03270025923848152
36.0,0.03158991038799286
40.0,0.030594512820243835
44.0,0.029574142768979073
48.0,0.028622576966881752
52.0,0.027903739362955093
56.0,0.027308762073516846
60.0,0.02670697309076786
64.0,0.026001354679465294
72.0,0.024659179151058197
80.0,0.02355053834617138
88.0,0.022366363555192947
96.0,0.021255195140838623
104.0,0.020109517499804497
112.0,0.019146224483847618
120.0,0.018405742943286896
128.0,0.01765427365899086
144.0,0.016570059582591057
160.0,0.015835095196962357
176.0,0.015698513016104698
192.0,0.015533041208982468
208.0,0.01521536149084568
224.0,0.014634057879447937
240.0,0.013948560692369938
256.0,0.012894309125840664
288.0,0.011136747896671295
320.0,0.00982668623328209
352.0,0.008686745539307594
384.0,0.007045422680675983
416.0,0.0045502460561692715
448.0,0.004320385865867138
480.0,0.005223789252340794
512.0,0.005381124094128609
576.0,0.005194607190787792
640.0,0.0034359698183834553
704.0,0.0028327067848294973
768.0,0.002164771081879735
832.0,0.0011677299626171589
896.0,-0.0011061973636969924
960.0,-0.003409974044188857
1024.0,-0.006432659458369017
1152.0,-0.007385103031992912
1280.0,-0.005997566040605307
1408.0,-0.0029013564344495535
1536.0,-0.002631547162309289
1664.0,-0.0040793996304273605
1792.0,-0.0030402590055018663
1920.0,-0.0016659463290125132
2048.0,0.0013704950688406825
2304.0,0.0021599449682980776
2560.0,-0.003939869813621044
2816.0,-0.007116239983588457
3072.0,-0.007946575060486794
3328.0,-0.009527395479381084
3584.0,-0.008488083258271217
3840.0,-0.0028222347609698772
4096.0,0.00501995999366045
4608.0,0.0018503020983189344
5120.0,-0.006944094784557819
5632.0,-0.004710294771939516
6144.0,0.005034008529037237
6656.0,0.009072589688003063
7168.0,0.0029339930042624474
7680.0,0.003589559579268098
8192.0,0.009569773450493813
end
