version,3.0
numOfCh,1
type,point
parent_name,c1204_0dot1-0dot1
ch_type,1_1
kcount,1
numberNandB,1
brightnessNandB,1
carpet pos,0
pc,0
Time (ms),CH1 Auto-Correlation
1.0,0.1194356232881546
2.0,0.11548998206853867
3.0,0.11123042553663254
4.0,0.1068844124674797
5.0,0.10275719314813614
6.0,0.09898971021175385
7.0,0.09548287838697433
8.0,0.09236854314804077
9.0,0.08944579213857651
10.0,0.08671634644269943
11.0,0.08440009504556656
12.0,0.08164497464895248
13.0,0.07908305525779724
14.0,0.07625490427017212
15.0,0.07311105728149414
16.0,0.06963837146759033
18.0,0.06214059516787529
20.0,0.056387823075056076
22.0,0.053486887365579605
24.0,0.05305912718176842
26.0,0.05307833105325699
28.0,0.052939821034669876
30.0,0.052718013525009155
32.0,0.051819100975990295
36.0,0.04846692457795143
40.0,0.04615144059062004
44.0,0.04294144734740257
48.0,0.0393187515437603
52.0,0.03748786821961403
56.0,0.0357159823179245
60.0,0.03490600362420082
64.0,0.034710533916950226
72.0,0.030125565826892853
80.0,0.026457149535417557
88.0,0.024961428716778755
96.0,0.024066833779215813
104.0,0.022201817482709885
112.0,0.02058657817542553
120.0,0.019118409603834152
128.0,0.01839364506304264
144.0,0.016512490808963776
160.0,0.0169414933770895
176.0,0.018158650025725365
192.0,0.016360878944396973
208.0,0.01474583987146616
224.0,0.01325308345258236
240.0,0.012654172256588936
256.0,0.012254981324076653
288.0,0.012741515412926674
320.0,0.011985085904598236
352.0,0.012696096673607826
384.0,0.011692119762301445
416.0,0.00911693274974823
448.0,0.007126361131668091
480.0,0.005324528086930513
512.0,0.004556633532047272
576.0,0.0015685235848650336
640.0,0.0012321175308898091
704.0,0.0035691617522388697
768.0,-0.00010036920139100403
832.0,-0.005152425263077021
896.0,-0.006332910619676113
960.0,-0.007371195126324892
1024.0,-0.005092344246804714
1152.0,-0.0016253346111625433
1280.0,0.002891031326726079
1408.0,0.0053400443866848946
1536.0,0.00550350034609437
1664.0,-0.0004785100754816085
1792.0,-0.001699327491223812
1920.0,-0.0017201583832502365
2048.0,-0.002481782343238592
2304.0,-0.0065480805933475494
2560.0,-0.00805981457233429
2816.0,-0.005458251107484102
3072.0,-0.007952077314257622
3328.0,-0.006385054439306259
3584.0,-0.010240179486572742
3840.0,-0.009483637288212776
4096.0,-0.0040087830275297165
4608.0,0.0019183397525921464
5120.0,0.0065742358565330505
5632.0,0.005049214698374271
6144.0,0.00733489403501153
6656.0,0.011213121004402637
7168.0,0.013410755433142185
7680.0,-0.006049290299415588
8192.0,-0.01936965622007847
end
