version,3.0
numOfCh,1
type,point
parent_name,c1204_0dot1-0dot1
ch_type,1_1
kcount,1
numberNandB,1
brightnessNandB,1
carpet pos,0
pc,0
Time (ms),CH1 Auto-Correlation
1.0,0.052075207233428955
2.0,0.051536910235881805
3.0,0.05102614313364029
4.0,0.050526656210422516
5.0,0.05001474544405937
6.0,0.049507200717926025
7.0,0.049011919647455215
8.0,0.04852297529578209
9.0,0.04804683104157448
10.0,0.047595664858818054
11.0,0.04715469852089882
12.0,0.046736907213926315
13.0,0.0463358536362648
14.0,0.04593484848737717
15.0,0.04552604258060455
16.0,0.045114852488040924
18.0,0.04430884122848511
20.0,0.04351608827710152
22.0,0.04274431988596916
24.0,0.04199772700667381
26.0,0.04127223789691925
28.0,0.04056008160114288
30.0,0.039826925843954086
32.0,0.039104729890823364
36.0,0.03774174302816391
40.0,0.036535922437906265
44.0,0.0354401133954525
48.0,0.03431660681962967
52.0,0.03318202123045921
56.0,0.032079167664051056
60.0,0.03110525943338871
64.0,0.030225150287151337
72.0,0.028517838567495346
80.0,0.02710898034274578
88.0,0.02593963034451008
96.0,0.024993211030960083
104.0,0.024265140295028687
112.0,0.023432118818163872
120.0,0.02258964814245701
128.0,0.02180497720837593
144.0,0.020132537931203842
160.0,0.018907949328422546
176.0,0.018259355798363686
192.0,0.01777089387178421
208.0,0.017323937267065048
224.0,0.0168400127440691
240.0,0.016229385510087013
256.0,0.015772338956594467
288.0,0.014482490718364716
320.0,0.012375881895422935
352.0,0.009190531447529793
384.0,0.006422750186175108
416.0,0.0037327194586396217
448.0,0.0007811957621015608
480.0,-0.0009627536055631936
512.0,-0.000729746709112078
576.0,0.002318704267963767
640.0,0.005088627338409424
704.0,0.005224543623626232
768.0,0.0049245888367295265
832.0,0.007011363748461008
896.0,0.011111278086900711
960.0,0.012021677568554878
1024.0,0.009968061000108719
1152.0,0.006663272622972727
1280.0,0.002975607756525278
1408.0,-0.000697039591614157
1536.0,-3.913182808901183e-05
1664.0,0.0005571661167778075
1792.0,-0.0010309555800631642
1920.0,-0.0017078357050195336
2048.0,-0.0036757146008312702
2304.0,-0.0034423507750034332
2560.0,-0.0012862486764788628
2816.0,-0.0023896093480288982
3072.0,-0.004117126110941172
3328.0,-0.0023320287000387907
3584.0,-0.0008322877110913396
3840.0,0.00019081011123489588
4096.0,-0.0002449151943437755
4608.0,-0.006214187480509281
5120.0,-0.002231321996077895
5632.0,-0.00460953451693058
6144.0,-0.004344630055129528
6656.0,-0.0056172930635511875
7168.0,-0.0114635294303298
7680.0,0.0011551000643521547
8192.0,-0.006844453979283571
end
