version,3.0
numOfCh,1
type,point
parent_name,c1204_0dot1-0dot1
ch_type,1_1
kcount,1
numberNandB,1
brightnessNandB,1
carpet pos,0
pc,0
Time (ms),CH1 Auto-Correlation
1.0,0.051844242960214615
2.0,0.05131816491484642
3.0,0.05081529542803764
4.0,0.05032923072576523
5.0,0.04985281080007553
6.0,0.04936354607343674
7.0,0.048881348222494125
8.0,0.048414845019578934
9.0,0.04796457663178444
10.0,0.047522544860839844
11.0,0.04708470031619072
12.0,0.04664342850446701
13.0,0.04622499644756317
14.0,0.04583132266998291
15.0,0.045446984469890594
16.0,0.045066218823194504
18.0,0.04433172196149826
20.0,0.043620139360427856
22.0,0.04291682690382004
24.0,0.04220493137836456
26.0,0.04151492938399315
28.0,0.04081203415989876
30.0,0.04012634605169296
32.0,0.039482004940509796
36.0,0.038275718688964844
40.0,0.03712216392159462
44.0,0.03599534556269646
48.0,0.034921497106552124
52.0,0.03390589728951454
56.0,0.032972756773233414
60.0,0.032088130712509155
64.0,0.031186293810606003
72.0,0.02942899987101555
80.0,0.0278583113104105
88.0,0.026399750262498856
96.0,0.025057172402739525
104.0,0.023711668327450752
112.0,0.022591840475797653
120.0,0.021791422739624977
128.0,0.021218398585915565
144.0,0.020438717678189278
160.0,0.020214445888996124
176.0,0.019848885014653206
192.0,0.019009195268154144
208.0,0.017892396077513695
224.0,0.01699787564575672
240.0,0.016386937350034714
256.0,0.01547951903194189
288.0,0.013191462494432926
320.0,0.01211657002568245
352.0,0.011763558723032475
384.0,0.010505406185984612
416.0,0.009183742105960846
448.0,0.008771947585046291
480.0,0.008588056080043316
512.0,0.008076068945229053
576.0,0.008878864347934723
640.0,0.0073467884212732315
704.0,0.005639676004648209
768.0,0.004044089466333389
832.0,0.004602643195539713
896.0,0.0051849898882210255
960.0,0.006481443531811237
1024.0,0.00747076328843832
1152.0,0.006794655695557594
1280.0,0.006590292789041996
1408.0,0.007265102118253708
1536.0,0.005122265312820673
1664.0,0.0034108548425137997
1792.0,0.003153185360133648
1920.0,0.0010754511458799243
2048.0,-0.00043910229578614235
2304.0,0.0005452947807498276
2560.0,0.00581955024972558
2816.0,0.0049626934342086315
3072.0,0.0018428864423185587
3328.0,0.005015247501432896
3584.0,0.005720061715692282
3840.0,0.0027820863761007786
4096.0,0.001545448205433786
4608.0,-0.002881190739572048
5120.0,-0.001626623678021133
5632.0,-0.002260388107970357
6144.0,-0.004723995458334684
6656.0,-0.0017437998903915286
7168.0,-0.0027768223080784082
7680.0,-0.010234801098704338
8192.0,-0.01257252972573042
end
