version,3.0
numOfCh,1
type,point
parent_name,c1204_0dot1-0dot1
ch_type,1_1
kcount,1
numberNandB,1
brightnessNandB,1
carpet pos,0
pc,0
Time (ms),CH1 Auto-Correlation
1.0,0.05356884002685547
2.0,0.05298221856355667
3.0,0.05241060256958008
4.0,0.05186640843749046
5.0,0.05136634036898613
6.0,0.050860803574323654
7.0,0.050388213247060776
8.0,0.04993269965052605
9.0,0.04946853965520859
10.0,0.04900270327925682
11.0,0.048546869307756424
12.0,0.04810911789536476
13.0,0.047676410526037216
14.0,0.0472622886300087
15.0,0.046843789517879486
16.0,0.04641738161444664
18.0,0.04560311883687973
20.0,0.044837307184934616
22.0,0.04409344866871834
24.0,0.04333572834730148
26.0,0.04258238524198532
28.0,0.041878484189510345
30.0,0.041228849440813065
32.0,0.0405864343047142
36.0,0.039383597671985626
40.0,0.03825562447309494
44.0,0.037109363824129105
48.0,0.036035846918821335
52.0,0.03503412753343582
56.0,0.03407367318868637
60.0,0.03319254145026207
64.0,0.0323951356112957
72.0,0.03091764636337757
80.0,0.029560251161456108
88.0,0.02856108732521534
96.0,0.027903631329536438
104.0,0.027056477963924408
112.0,0.026189275085926056
120.0,0.025389064103364944
128.0,0.024796470999717712
144.0,0.023913856595754623
160.0,0.02312038280069828
176.0,0.022753959521651268
192.0,0.022006643936038017
208.0,0.02149922028183937
224.0,0.020959433168172836
240.0,0.020139390602707863
256.0,0.019188541918992996
288.0,0.017918188124895096
320.0,0.01757296733558178
352.0,0.017999669536948204
384.0,0.017875442281365395
416.0,0.01754125766456127
448.0,0.016947869211435318
480.0,0.016670066863298416
512.0,0.016769707202911377
576.0,0.016779903322458267
640.0,0.015546615235507488
704.0,0.011921552009880543
768.0,0.009966239333152771
832.0,0.01158327516168356
896.0,0.012536291964352131
960.0,0.014481929130852222
1024.0,0.015213599428534508
1152.0,0.01476883701980114
1280.0,0.015450946986675262
1408.0,0.012971867807209492
1536.0,0.017317237332463264
1664.0,0.016226066276431084
1792.0,0.012505460530519485
1920.0,0.010281321592628956
2048.0,0.006787501275539398
2304.0,0.005618316121399403
2560.0,0.002137149916961789
2816.0,0.006733929738402367
3072.0,0.0007893180591054261
3328.0,-2.3716902433079667e-05
3584.0,-0.00718217808753252
3840.0,-0.005096391309052706
4096.0,-0.009316782467067242
4608.0,-0.011574121192097664
5120.0,-0.01728327013552189
5632.0,-0.016604172065854073
6144.0,-0.009877568110823631
6656.0,-0.012669635005295277
7168.0,-0.017104297876358032
7680.0,-0.011421537958085537
8192.0,-0.006476882845163345
end
