version,3.0
numOfCh,1
type,point
parent_name,c1204_0dot1-0dot1
ch_type,1_1
kcount,1
numberNandB,1
brightnessNandB,1
carpet pos,0
pc,0
Time (ms),CH1 Auto-Correlation
1.0,0.054570041596889496
2.0,0.05403401702642441
3.0,0.053517214953899384
4.0,0.05301841348409653
5.0,0.052529141306877136
6.0,0.052065037190914154
7.0,0.051622118800878525
8.0,0.05116712301969528
9.0,0.05072912946343422
10.0,0.05030742287635803
11.0,0.049881018698215485
12.0,0.04944254457950592
13.0,0.04900461807847023
14.0,0.04858061671257019
15.0,0.048155203461647034
16.0,0.047735102474689484
18.0,0.046892911195755005
20.0,0.04606782644987106
22.0,0.04528244212269783
24.0,0.044521529227495193
26.0,0.04375120624899864
28.0,0.042993709444999695
30.0,0.042248357087373734
32.0,0.04153735563158989
36.0,0.040192216634750366
40.0,0.0388372577726841
44.0,0.03751286491751671
48.0,0.036204513162374496
52.0,0.03492080420255661
56.0,0.03367689624428749
60.0,0.03247903287410736
64.0,0.0314306914806366
72.0,0.029644103720784187
80.0,0.027934042736887932
88.0,0.02628972753882408
96.0,0.024676058441400528
104.0,0.02326372265815735
112.0,0.022037379443645477
120.0,0.020908504724502563
128.0,0.019624004140496254
144.0,0.017215745523571968
160.0,0.014991582371294498
176.0,0.012931514531373978
192.0,0.012182801030576229
208.0,0.011835336685180664
224.0,0.01138363778591156
240.0,0.01049304660409689
256.0,0.00929745938628912
288.0,0.007235516328364611
320.0,0.0050258757546544075
352.0,0.003196265082806349
384.0,0.0026206416077911854
416.0,0.0036415481008589268
448.0,0.005130257923156023
480.0,0.005536946468055248
512.0,0.004575567785650492
576.0,0.0011122095165774226
640.0,-0.0022016684524714947
704.0,-0.0036838422529399395
768.0,-0.003767297836020589
832.0,-0.005968042649328709
896.0,-0.005513645242899656
960.0,-0.004727965220808983
1024.0,-0.00036061290302313864
1152.0,0.0008289434481412172
1280.0,-0.0024390732869505882
1408.0,-0.0029101043473929167
1536.0,-0.006674394477158785
1664.0,-0.007092799060046673
1792.0,-0.0004785216005984694
1920.0,0.003028477542102337
2048.0,0.0012014274252578616
2304.0,-0.0013243614230304956
2560.0,-0.005487516988068819
2816.0,-0.006817921530455351
3072.0,-0.002741121454164386
3328.0,-0.001836802694015205
3584.0,-0.0033278921619057655
3840.0,-0.006980780977755785
4096.0,-0.0015711303567513824
4608.0,0.0017025771085172892
5120.0,0.004389049485325813
5632.0,0.003122924594208598
6144.0,-0.0006638371851295233
6656.0,0.006466678809374571
7168.0,0.0002214675332652405
7680.0,-0.0003846194304060191
8192.0,-0.01122138649225235
end
