version,3.0
numOfCh,1
type,point
parent_name,c1204_0dot1-0dot1
ch_type,1_1
kcount,1
numberNandB,1
brightnessNandB,1
carpet pos,0
pc,0
Time (ms),CH1 Auto-Correlation
1.0,0.04297482594847679
2.0,0.0423622690141201
3.0,0.04178684204816818
4.0,0.041216347366571426
5.0,0.04064857214689255
6.0,0.040110647678375244
7.0,0.039597004652023315
8.0,0.03907177224755287
9.0,0.03854714706540108
10.0,0.038028497248888016
11.0,0.03752972558140755
12.0,0.03703227639198303
13.0,0.03655504062771797
14.0,0.03609040006995201
15.0,0.03562353551387787
16.0,0.035165876150131226
18.0,0.03426750376820564
20.0,0.03336924687027931
22.0,0.03252384439110756
24.0,0.031722743064165115
26.0,0.030945053324103355
28.0,0.030181119218468666
30.0,0.0294966883957386
32.0,0.02889268472790718
36.0,0.027876071631908417
40.0,0.026888404041528702
44.0,0.026060517877340317
48.0,0.02526254579424858
52.0,0.024516403675079346
56.0,0.023842506110668182
60.0,0.023191183805465698
64.0,0.022506916895508766
72.0,0.021386608481407166
80.0,0.020531386137008667
88.0,0.01984112337231636
96.0,0.019278796389698982
104.0,0.01851487159729004
112.0,0.017438799142837524
120.0,0.01618819124996662
128.0,0.015038938261568546
144.0,0.01313319057226181
160.0,0.011870086193084717
176.0,0.011013832874596119
192.0,0.010256137698888779
208.0,0.009519606828689575
224.0,0.009442420676350594
240.0,0.009256483986973763
256.0,0.009439457207918167
288.0,0.01004008762538433
320.0,0.009336553514003754
352.0,0.006889629177749157
384.0,0.0044220974668860435
416.0,0.0020638378337025642
448.0,-0.0002176791022066027
480.0,-0.0017549460753798485
512.0,-0.0004183542914688587
576.0,0.0007988213328644633
640.0,-0.00037257044459693134
704.0,-0.00016266667807940394
768.0,-0.0007042846409603953
832.0,0.0018543340265750885
896.0,0.0020389065612107515
960.0,-0.0012056746054440737
1024.0,-0.001890848157927394
1152.0,-0.0015859605045989156
1280.0,-0.002986291889101267
1408.0,-0.0015113713452592492
1536.0,-0.0017620385624468327
1664.0,-0.001141772954724729
1792.0,-0.0012390515767037868
1920.0,-0.00617019971832633
2048.0,-0.006599024403840303
2304.0,-0.0037202106323093176
2560.0,-0.0004448829567991197
2816.0,0.002798571949824691
3072.0,0.0038044266402721405
3328.0,0.0009862732840701938
3584.0,-0.007770924363285303
3840.0,-0.00622748676687479
4096.0,-0.004251222591847181
4608.0,5.884715574211441e-05
5120.0,0.003403170732781291
5632.0,0.00953566562384367
6144.0,0.006579544395208359
6656.0,-0.002715167822316289
7168.0,-0.006620045285671949
7680.0,-0.004582663532346487
8192.0,-0.006125804502516985
end
