version,3.0
numOfCh,1
type,point
parent_name,c1204_0dot1-0dot1
ch_type,1_1
kcount,1
numberNandB,1
brightnessNandB,1
carpet pos,0
pc,0
Time (ms),CH1 Auto-Correlation
1.0,0.072578564286232
2.0,0.0706687793135643
3.0,0.06878151744604111
4.0,0.06698109209537506
5.0,0.06556789577007294
6.0,0.06398019194602966
7.0,0.06251341104507446
8.0,0.060863640159368515
9.0,0.05893678218126297
10.0,0.057305704802274704
11.0,0.055901914834976196
12.0,0.05445372685790062
13.0,0.05312597379088402
14.0,0.05156068876385689
15.0,0.04982750490307808
16.0,0.048148319125175476
18.0,0.04533883184194565
20.0,0.04414945840835571
22.0,0.04320941120386124
24.0,0.04231187701225281
26.0,0.041386790573596954
28.0,0.04040401428937912
30.0,0.039512552320957184
32.0,0.038824375718832016
36.0,0.036869559437036514
40.0,0.035390228033065796
44.0,0.034172799438238144
48.0,0.03301534801721573
52.0,0.032087262719869614
56.0,0.030939914286136627
60.0,0.029893582686781883
64.0,0.029218969866633415
72.0,0.02835967391729355
80.0,0.026982830837368965
88.0,0.025537699460983276
96.0,0.024317722767591476
104.0,0.02292579784989357
112.0,0.021690726280212402
120.0,0.020629476755857468
128.0,0.01905427873134613
144.0,0.01639590412378311
160.0,0.014736238867044449
176.0,0.013774805702269077
192.0,0.01288079284131527
208.0,0.011925457045435905
224.0,0.011004851199686527
240.0,0.009933533146977425
256.0,0.00863684993237257
288.0,0.008394576609134674
320.0,0.008097575977444649
352.0,0.006957044824957848
384.0,0.005748899187892675
416.0,0.00501072546467185
448.0,0.005173902027308941
480.0,0.004680133890360594
512.0,0.0059144156984984875
576.0,0.0062397983856499195
640.0,0.00826980173587799
704.0,0.007469480391591787
768.0,0.005020597949624062
832.0,0.0026585161685943604
896.0,0.0019175392808392644
960.0,0.003065341617912054
1024.0,0.002543921582400799
1152.0,-0.002787468722090125
1280.0,-0.007224196568131447
1408.0,-0.009066902101039886
1536.0,-0.009319552220404148
1664.0,-0.00894218124449253
1792.0,-0.009849721565842628
1920.0,-0.006950472481548786
2048.0,-0.010029270313680172
2304.0,-0.013361387886106968
2560.0,-0.003074558451771736
2816.0,-0.005497824866324663
3072.0,-0.0020969556644558907
3328.0,-0.0007041830103844404
3584.0,-3.147794268443249e-05
3840.0,0.0013872780837118626
4096.0,0.0070547726936638355
4608.0,-0.0007187264272943139
5120.0,0.006345686968415976
5632.0,0.007047194521874189
6144.0,0.00010053889127448201
6656.0,-0.0013260022969916463
7168.0,-0.002623608335852623
7680.0,-0.002388698048889637
8192.0,-0.0012428236659616232
end
