version,3.0
numOfCh,1
type,point
parent_name,c1204_0dot1-0dot1
ch_type,1_1
kcount,1
numberNandB,1
brightnessNandB,1
carpet pos,0
pc,0
Time (ms),CH1 Auto-Correlation
1.0,0.04741745442152023
2.0,0.046815600246191025
3.0,0.046232182532548904
4.0,0.04567563533782959
5.0,0.0451371856033802
6.0,0.044643089175224304
7.0,0.04414781928062439
8.0,0.043664369732141495
9.0,0.043198373168706894
10.0,0.0427522286772728
11.0,0.04230918362736702
12.0,0.04186110198497772
13.0,0.04142247140407562
14.0,0.040965668857097626
15.0,0.04053930193185806
16.0,0.040137261152267456
18.0,0.039362695068120956
20.0,0.03862675279378891
22.0,0.037919364869594574
24.0,0.037219878286123276
26.0,0.03656444698572159
28.0,0.03591800481081009
30.0,0.03526999428868294
32.0,0.03469020128250122
36.0,0.033522941172122955
40.0,0.0324530228972435
44.0,0.03134002909064293
48.0,0.03020876832306385
52.0,0.029237544164061546
56.0,0.028331421315670013
60.0,0.02742885984480381
64.0,0.026494456455111504
72.0,0.02473234012722969
80.0,0.023332757875323296
88.0,0.022112051025032997
96.0,0.020846180617809296
104.0,0.01969085820019245
112.0,0.018424978479743004
120.0,0.017169151455163956
128.0,0.01596675254404545
144.0,0.014109788462519646
160.0,0.012202151119709015
176.0,0.010202371515333652
192.0,0.00858829915523529
208.0,0.007530019618570805
224.0,0.00709620350971818
240.0,0.007335145957767963
256.0,0.007925442419946194
288.0,0.009493440389633179
320.0,0.009907310828566551
352.0,0.01052013784646988
384.0,0.010322874411940575
416.0,0.009656825102865696
448.0,0.008373049087822437
480.0,0.007819735445082188
512.0,0.007516996003687382
576.0,0.007029700558632612
640.0,0.005153100471943617
704.0,0.0037688042502850294
768.0,0.002635614015161991
832.0,0.003601600183174014
896.0,0.0008784298552200198
960.0,-0.00237529119476676
1024.0,-0.005003493279218674
1152.0,-0.00409664586186409
1280.0,0.001298413029871881
1408.0,0.0011808760464191437
1536.0,-0.0031603125389665365
1664.0,-0.0045561701990664005
1792.0,-0.006863110698759556
1920.0,-0.00804505031555891
2048.0,-0.007227999158203602
2304.0,-0.010693131946027279
2560.0,-0.00879785604774952
2816.0,-0.004778633825480938
3072.0,-0.0043587349355220795
3328.0,-0.002511332044377923
3584.0,-0.000932621187530458
3840.0,-0.0028281742706894875
4096.0,0.0025437369477003813
4608.0,0.004677626304328442
5120.0,0.0026351825799793005
5632.0,0.0005260103498585522
6144.0,-1.6160398445208557e-05
6656.0,-0.001362433424219489
7168.0,0.0019077671458944678
7680.0,0.0036276013124734163
8192.0,0.000645207182969898
end
