version,3.0
numOfCh,1
type,point
parent_name,c1204_0dot1-0dot1
ch_type,1_1
kcount,1
numberNandB,1
brightnessNandB,1
carpet pos,0
pc,0
Time (ms),CH1 Auto-Correlation
1.0,0.05455533415079117
2.0,0.05378197133541107
3.0,0.0530661940574646
4.0,0.052363134920597076
5.0,0.051733821630477905
6.0,0.05112684518098831
7.0,0.05051705613732338
8.0,0.04996075853705406
9.0,0.04945410415530205
10.0,0.04894865304231644
11.0,0.04845844954252243
12.0,0.04797447472810745
13.0,0.04749538004398346
14.0,0.04700595512986183
15.0,0.04648090898990631
16.0,0.045976486057043076
18.0,0.045052796602249146
20.0,0.04413874074816704
22.0,0.043259717524051666
24.0,0.042471736669540405
26.0,0.04171616584062576
28.0,0.04093582183122635
30.0,0.04020946845412254
32.0,0.039511922746896744
36.0,0.03817566856741905
40.0,0.036797378212213516
44.0,0.035653699189424515
48.0,0.034526318311691284
52.0,0.03339666128158569
56.0,0.03240375965833664
60.0,0.03150061145424843
64.0,0.03073231503367424
72.0,0.02948542684316635
80.0,0.029014291241765022
88.0,0.028505930677056313
96.0,0.028023412451148033
104.0,0.027722928673028946
112.0,0.027302516624331474
120.0,0.02661845088005066
128.0,0.025585217401385307
144.0,0.024307312443852425
160.0,0.02342258021235466
176.0,0.022391188889741898
192.0,0.02136143483221531
208.0,0.020793713629245758
224.0,0.020305221900343895
240.0,0.019841952249407768
256.0,0.019405195489525795
288.0,0.018416527658700943
320.0,0.016779277473688126
352.0,0.014151610434055328
384.0,0.012292823754251003
416.0,0.011221365071833134
448.0,0.009264589287340641
480.0,0.008974354714155197
512.0,0.008797043934464455
576.0,0.008813323453068733
640.0,0.0057750968262553215
704.0,0.004992472007870674
768.0,0.004741745535284281
832.0,0.002210339531302452
896.0,0.00034485844662413
960.0,-0.002426743507385254
1024.0,-0.003392686601728201
1152.0,-0.006224055774509907
1280.0,-0.00659799762070179
1408.0,-0.008452788926661015
1536.0,-0.010353953577578068
1664.0,-0.011160748079419136
1792.0,-0.01007190253585577
1920.0,-0.009504040703177452
2048.0,-0.009376590140163898
2304.0,-0.012617806904017925
2560.0,-0.006927230395376682
2816.0,-0.0033604891505092382
3072.0,-0.0020209988579154015
3328.0,0.003959193360060453
3584.0,0.00691923126578331
3840.0,0.005067250691354275
4096.0,0.0031147769186645746
4608.0,0.0043097808957099915
5120.0,-0.004178578034043312
5632.0,-0.015228595584630966
6144.0,-0.00873720645904541
6656.0,-0.0015724346740171313
7168.0,0.0008920571417547762
7680.0,0.006051700096577406
8192.0,0.012112131342291832
end
