version,3.0
numOfCh,1
type,point
parent_name,c1204_0dot1-0dot1
ch_type,1_1
kcount,1
numberNandB,1
brightnessNandB,1
carpet pos,0
pc,0
Time (ms),CH1 Auto-Correlation
1.0,0.06585417687892914
2.0,0.06520897895097733
3.0,0.06457526236772537
4.0,0.06396222859621048
5.0,0.06338262557983398
6.0,0.06279966980218887
7.0,0.06222590059041977
8.0,0.061666831374168396
9.0,0.06114328280091286
10.0,0.06066368892788887
11.0,0.060220230370759964
12.0,0.05977340415120125
13.0,0.05933704599738121
14.0,0.05890914052724838
15.0,0.05849461257457733
16.0,0.05809231847524643
18.0,0.05725965276360512
20.0,0.05656043812632561
22.0,0.055926576256752014
24.0,0.05533791333436966
26.0,0.05479104071855545
28.0,0.05429244041442871
30.0,0.05381293222308159
32.0,0.0532965362071991
36.0,0.05226593092083931
40.0,0.0514322854578495
44.0,0.05054875835776329
48.0,0.04944651201367378
52.0,0.048363592475652695
56.0,0.047432225197553635
60.0,0.04648694396018982
64.0,0.04556894674897194
72.0,0.0441867932677269
80.0,0.042872507125139236
88.0,0.04160640016198158
96.0,0.04039555415511131
104.0,0.039236802607774734
112.0,0.03832658380270004
120.0,0.037486445158720016
128.0,0.03638763353228569
144.0,0.033985383808612823
160.0,0.03270075097680092
176.0,0.03193223848938942
192.0,0.0310706477612257
208.0,0.030344968661665916
224.0,0.02915162965655327
240.0,0.027812069281935692
256.0,0.026651978492736816
288.0,0.025185175240039825
320.0,0.024476997554302216
352.0,0.024032125249505043
384.0,0.02431599609553814
416.0,0.02408328466117382
448.0,0.024446234107017517
480.0,0.024441001936793327
512.0,0.023969663307070732
576.0,0.022087911143898964
640.0,0.015689652413129807
704.0,0.01193059328943491
768.0,0.00911848433315754
832.0,0.007845640182495117
896.0,0.008836359716951847
960.0,0.010773962363600731
1024.0,0.010982787236571312
1152.0,0.00771604897454381
1280.0,0.003053512889891863
1408.0,-0.0012376665836200118
1536.0,-0.0014766606036573648
1664.0,-0.0068755075335502625
1792.0,-0.01192238088697195
1920.0,-0.016607413068413734
2048.0,-0.012565592303872108
2304.0,-0.004789368715137243
2560.0,-0.002967711305245757
2816.0,-0.0033568223007023335
3072.0,-0.004255019128322601
3328.0,-0.0035418705083429813
3584.0,0.0027490705251693726
3840.0,0.00011904799612239003
4096.0,-0.002500569447875023
4608.0,-0.005085558630526066
5120.0,0.0025394747499376535
5632.0,0.0063497163355350494
6144.0,0.010929499752819538
6656.0,0.007584082428365946
7168.0,-0.006851073820143938
7680.0,-0.014311844483017921
8192.0,-0.0279516763985157
end
