version,3.0
numOfCh,1
type,point
parent_name,c1204_0dot1-0dot1
ch_type,1_1
kcount,1
numberNandB,1
brightnessNandB,1
carpet pos,0
pc,0
Time (ms),CH1 Auto-Correlation
1.0,0.0653088241815567
2.0,0.06461483240127563
3.0,0.06394423544406891
4.0,0.06328566372394562
5.0,0.06265617161989212
6.0,0.06208144873380661
7.0,0.061541806906461716
8.0,0.060991376638412476
9.0,0.06045219674706459
10.0,0.05994703620672226
11.0,0.05944313853979111
12.0,0.05899272859096527
13.0,0.05854493007063866
14.0,0.05810793116688728
15.0,0.057671405375003815
16.0,0.05724189803004265
18.0,0.056386664509773254
20.0,0.055530205368995667
22.0,0.054624043405056
24.0,0.05370783060789108
26.0,0.05283855274319649
28.0,0.0520324669778347
30.0,0.05125030502676964
32.0,0.050496093928813934
36.0,0.04911557212471962
40.0,0.04778724163770676
44.0,0.04651317000389099
48.0,0.04537272825837135
52.0,0.044151607900857925
56.0,0.042985402047634125
60.0,0.04178082197904587
64.0,0.04061000421643257
72.0,0.03871125355362892
80.0,0.03685830160975456
88.0,0.03506746143102646
96.0,0.03337706997990608
104.0,0.03179101645946503
112.0,0.03006785362958908
120.0,0.028361525386571884
128.0,0.0266367606818676
144.0,0.02367120236158371
160.0,0.021208833903074265
176.0,0.018717829138040543
192.0,0.01677297241985798
208.0,0.015309040434658527
224.0,0.014358168467879295
240.0,0.013966766186058521
256.0,0.014244691468775272
288.0,0.014082774519920349
320.0,0.01429189182817936
352.0,0.014614306390285492
384.0,0.014713671058416367
416.0,0.014479720033705235
448.0,0.014188094064593315
480.0,0.012921173125505447
512.0,0.012587431818246841
576.0,0.010169624350965023
640.0,0.008349958807229996
704.0,0.008543252944946289
768.0,0.008096389472484589
832.0,0.009057431481778622
896.0,0.006124175153672695
960.0,0.003583196783438325
1024.0,0.0019949711859226227
1152.0,0.004753871355205774
1280.0,0.006945487577468157
1408.0,0.0001856754533946514
1536.0,-0.0047114999033510685
1664.0,-0.00788765400648117
1792.0,-0.00929279439151287
1920.0,-0.005341200157999992
2048.0,-0.008473390713334084
2304.0,-0.012834169901907444
2560.0,-0.00962459109723568
2816.0,-0.015295950695872307
3072.0,-0.01573193445801735
3328.0,-0.010160896927118301
3584.0,-0.016696074977517128
3840.0,-0.005973200313746929
4096.0,-0.0040392824448645115
4608.0,0.004986175335943699
5120.0,0.0046875677071511745
5632.0,0.010626368224620819
6144.0,0.01134448405355215
6656.0,0.008334781043231487
7168.0,0.0010382874170318246
7680.0,-0.008830026723444462
8192.0,-0.0063852486200630665
end
