version,3.0
numOfCh,1
type,point
parent_name,c1204_0dot1-0dot1
ch_type,1_1
kcount,1
numberNandB,1
brightnessNandB,1
carpet pos,0
pc,0
Time (ms),CH1 Auto-Correlation
1.0,0.040588464587926865
2.0,0.039964672178030014
3.0,0.039352454245090485
4.0,0.03874034434556961
5.0,0.038167890161275864
6.0,0.037614814937114716
7.0,0.037096526473760605
8.0,0.036599818617105484
9.0,0.036116015166044235
10.0,0.03566736727952957
11.0,0.035234417766332626
12.0,0.03482406958937645
13.0,0.03441021591424942
14.0,0.033984605222940445
15.0,0.03355990722775459
16.0,0.03316248208284378
18.0,0.03242767974734306
20.0,0.03173786401748657
22.0,0.031105175614356995
24.0,0.030475715175271034
26.0,0.029859241098165512
28.0,0.029264822602272034
30.0,0.028679341077804565
32.0,0.028081946074962616
36.0,0.026925494894385338
40.0,0.02586180344223976
44.0,0.02490757778286934
48.0,0.024004360660910606
52.0,0.023121587932109833
56.0,0.022333800792694092
60.0,0.021584052592515945
64.0,0.020765535533428192
72.0,0.01919192634522915
80.0,0.01777014322578907
88.0,0.016611680388450623
96.0,0.015476842410862446
104.0,0.014565506018698215
112.0,0.013735531829297543
120.0,0.013063628226518631
128.0,0.012312359176576138
144.0,0.010931868106126785
160.0,0.01000279188156128
176.0,0.009785403497517109
192.0,0.010594983585178852
208.0,0.011124550364911556
224.0,0.010619617067277431
240.0,0.009585731662809849
256.0,0.008815797977149487
288.0,0.006807331461459398
320.0,0.00553719000890851
352.0,0.0039460076950490475
384.0,0.0022676405496895313
416.0,0.0011471830075606704
448.0,-4.9260972446063533e-05
480.0,-0.001549946959130466
512.0,-0.002335924655199051
576.0,-0.0009480486623942852
640.0,-9.899649012368172e-05
704.0,-0.0013067005202174187
768.0,-0.0012534211855381727
832.0,-0.0019477938767522573
896.0,-0.002793027786538005
960.0,-0.00112801359500736
1024.0,-0.0007903227815404534
1152.0,-0.0017970810877159238
1280.0,-0.0019541389774531126
1408.0,-0.003007669933140278
1536.0,-0.0026394000742584467
1664.0,0.0023717274889349937
1792.0,-0.002610664116218686
1920.0,-0.0031529029365628958
2048.0,-0.001206406857818365
2304.0,-0.0018511924427002668
2560.0,-0.0021312928292900324
2816.0,0.0005754193407483399
3072.0,0.006337834056466818
3328.0,0.005635309033095837
3584.0,-0.002847647061571479
3840.0,-0.00010027579264715314
4096.0,0.000981857068836689
4608.0,-0.0034090164117515087
5120.0,0.0007423877832479775
5632.0,0.002827215939760208
6144.0,-0.006697287783026695
6656.0,-0.0009698555804789066
7168.0,-0.00654577324166894
7680.0,-0.006638440303504467
8192.0,0.003441035049036145
end
