version,3.0
numOfCh,1
type,point
parent_name,c1204_0dot1-0dot1
ch_type,1_1
kcount,1
numberNandB,1
brightnessNandB,1
carpet pos,0
pc,0
Time (ms),CH1 Auto-Correlation
1.0,0.043739404529333115
2.0,0.04319068416953087
3.0,0.04265725240111351
4.0,0.04214566946029663
5.0,0.04167322814464569
6.0,0.04120104759931564
7.0,0.04075876623392105
8.0,0.04032066836953163
9.0,0.039881568402051926
10.0,0.03945931792259216
11.0,0.03904660418629646
12.0,0.03864030912518501
13.0,0.038249172270298004
14.0,0.03785311058163643
15.0,0.03747854009270668
16.0,0.03712938353419304
18.0,0.03644270822405815
20.0,0.03574451431632042
22.0,0.035075366497039795
24.0,0.03440640866756439
26.0,0.03375057503581047
28.0,0.033130913972854614
30.0,0.03252745419740677
32.0,0.03193221241235733
36.0,0.03083151951432228
40.0,0.02976977452635765
44.0,0.02877640724182129
48.0,0.027797112241387367
52.0,0.026871690526604652
56.0,0.02607065811753273
60.0,0.025396618992090225
64.0,0.024775061756372452
72.0,0.023421479389071465
80.0,0.022219177335500717
88.0,0.021178580820560455
96.0,0.020276950672268867
104.0,0.019406137987971306
112.0,0.018605045974254608
120.0,0.017882367596030235
128.0,0.017265554517507553
144.0,0.016361631453037262
160.0,0.01582682691514492
176.0,0.015301892533898354
192.0,0.014428099617362022
208.0,0.013027173466980457
224.0,0.011686937883496284
240.0,0.010501997545361519
256.0,0.009445986710488796
288.0,0.007400074973702431
320.0,0.004977391101419926
352.0,0.004073535557836294
384.0,0.003931230865418911
416.0,0.0036865239962935448
448.0,0.003651685081422329
480.0,0.004398159217089415
512.0,0.004415666684508324
576.0,0.003142280038446188
640.0,0.002074912190437317
704.0,0.002594314981251955
768.0,0.004866153933107853
832.0,0.0056381747126579285
896.0,0.005267346743494272
960.0,0.004720836412161589
1024.0,0.004683550912886858
1152.0,0.004027863498777151
1280.0,0.005698144901543856
1408.0,0.0042885965667665005
1536.0,0.0012367292074486613
1664.0,-9.104482887778431e-05
1792.0,0.002571654738858342
1920.0,0.0032923012040555477
2048.0,0.003989339806139469
2304.0,0.0030155209824442863
2560.0,-0.0033751800656318665
2816.0,-0.002345011569559574
3072.0,0.000380686076823622
3328.0,0.005441744811832905
3584.0,0.0025479288306087255
3840.0,-0.005389826837927103
4096.0,-0.005627836100757122
4608.0,0.0014165653847157955
5120.0,0.0034301462583243847
5632.0,0.0011007135035470128
6144.0,-5.990644422126934e-05
6656.0,0.0028688032180070877
7168.0,-0.0081789530813694
7680.0,-0.006294480990618467
8192.0,-0.008472449146211147
end
