version,3.0
numOfCh,1
type,point
parent_name,c1204_0dot1-0dot1
ch_type,1_1
kcount,1
numberNandB,1
brightnessNandB,1
carpet pos,0
pc,0
Time (ms),CH1 Auto-Correlation
1.0,0.04422241821885109
2.0,0.04369354620575905
3.0,0.043169427663087845
4.0,0.04266582429409027
5.0,0.04219519719481468
6.0,0.04171709716320038
7.0,0.04126160219311714
8.0,0.04081674665212631
9.0,0.04037870466709137
10.0,0.03996503725647926
11.0,0.0395478680729866
12.0,0.03914045915007591
13.0,0.038740482181310654
14.0,0.03834637999534607
15.0,0.03796916827559471
16.0,0.03760287165641785
18.0,0.03686529025435448
20.0,0.03611467033624649
22.0,0.0353999137878418
24.0,0.034717656672000885
26.0,0.03402940183877945
28.0,0.033371858298778534
30.0,0.03276116028428078
32.0,0.03216581046581268
36.0,0.031127436086535454
40.0,0.030120180919766426
44.0,0.029152672737836838
48.0,0.028134461492300034
52.0,0.02713855355978012
56.0,0.02614259533584118
60.0,0.025156451389193535
64.0,0.024222776293754578
72.0,0.02262524515390396
80.0,0.02116100676357746
88.0,0.019669856876134872
96.0,0.018231980502605438
104.0,0.01703559048473835
112.0,0.015954244881868362
120.0,0.014982970431447029
128.0,0.013873657211661339
144.0,0.012452280148863792
160.0,0.011410411447286606
176.0,0.010421953164041042
192.0,0.009291873313486576
208.0,0.008083172142505646
224.0,0.006969327572733164
240.0,0.006107015535235405
256.0,0.005422237794846296
288.0,0.005374609958380461
320.0,0.004255570471286774
352.0,0.002125825034454465
384.0,0.0006558144232258201
416.0,-0.0017838283674791455
448.0,-0.0026766834780573845
480.0,-0.0027055644895881414
512.0,-0.0023640126455575228
576.0,-0.0020237392745912075
640.0,-0.0016869291430339217
704.0,0.00013284465239848942
768.0,0.0007107580895535648
832.0,0.0019992312882095575
896.0,0.005681684706360102
960.0,0.008594533428549767
1024.0,0.007777313701808453
1152.0,0.0017009414732456207
1280.0,-0.0006210586871020496
1408.0,-0.0046316529624164104
1536.0,-0.005897348280996084
1664.0,-0.005061176139861345
1792.0,-0.0002605356858111918
1920.0,0.004261507652699947
2048.0,0.00908066239207983
2304.0,0.004597026854753494
2560.0,0.0013242115965113044
2816.0,0.005983275361359119
3072.0,0.008981031365692616
3328.0,-0.0009364312863908708
3584.0,-0.007578256540000439
3840.0,-0.003903832519426942
4096.0,0.002010189462453127
4608.0,-0.0021947002969682217
5120.0,0.0025726943276822567
5632.0,0.00011966271267738193
6144.0,-0.002888539107516408
6656.0,-0.00841547641903162
7168.0,-0.007284088991582394
7680.0,-0.0008410988957621157
8192.0,-0.0011819468345493078
end
