version,3.0
numOfCh,1
type,point
parent_name,c1204_0dot1-0dot1
ch_type,1_1
kcount,1
numberNandB,1
brightnessNandB,1
carpet pos,0
pc,0
Time (ms),CH1 Auto-Correlation
1.0,0.06039430946111679
2.0,0.05992874130606651
3.0,0.059464193880558014
4.0,0.05901316553354263
5.0,0.058574382215738297
6.0,0.058140940964221954
7.0,0.05771723762154579
8.0,0.057292643934488297
9.0,0.05688431113958359
10.0,0.056469377130270004
11.0,0.05605943128466606
12.0,0.0556618869304657
13.0,0.055272430181503296
14.0,0.05489996075630188
15.0,0.05454582720994949
16.0,0.05418987199664116
18.0,0.053491003811359406
20.0,0.05282103270292282
22.0,0.05214092135429382
24.0,0.0514584444463253
26.0,0.05076506733894348
28.0,0.05006479471921921
30.0,0.04935947805643082
32.0,0.04867047071456909
36.0,0.04738873243331909
40.0,0.046138256788253784
44.0,0.04496455565094948
48.0,0.043910376727581024
52.0,0.042941201478242874
56.0,0.042031001299619675
60.0,0.04121919721364975
64.0,0.04047086089849472
72.0,0.03914212808012962
80.0,0.03791840001940727
88.0,0.03684906288981438
96.0,0.03599940612912178
104.0,0.035195689648389816
112.0,0.03450298309326172
120.0,0.0337567962706089
128.0,0.03308400511741638
144.0,0.0320620983839035
160.0,0.03132811561226845
176.0,0.030815651640295982
192.0,0.029961297288537025
208.0,0.029209308326244354
224.0,0.02891719713807106
240.0,0.029096148908138275
256.0,0.02901960350573063
288.0,0.028241287916898727
320.0,0.0262996107339859
352.0,0.0241888165473938
384.0,0.022347282618284225
416.0,0.019934549927711487
448.0,0.01765325665473938
480.0,0.016107825562357903
512.0,0.015212184749543667
576.0,0.015876173973083496
640.0,0.013635741546750069
704.0,0.011843030340969563
768.0,0.011440998874604702
832.0,0.0109418835490942
896.0,0.010048520751297474
960.0,0.009796835482120514
1024.0,0.012192988768219948
1152.0,0.015811162069439888
1280.0,0.01911127381026745
1408.0,0.01901901699602604
1536.0,0.01815931126475334
1664.0,0.013802606612443924
1792.0,0.006234931293874979
1920.0,-0.0006677184137515724
2048.0,-0.0028171080630272627
2304.0,-0.0071053458377718925
2560.0,-0.005241616629064083
2816.0,-0.00033860947587527335
3072.0,-0.00050670764176175
3328.0,-0.007731189019978046
3584.0,-0.01499524898827076
3840.0,-0.015915818512439728
4096.0,-0.011648557148873806
4608.0,-0.008227957412600517
5120.0,-0.008756866678595543
5632.0,-0.0028909638058394194
6144.0,0.001414758968167007
6656.0,0.003791554132476449
7168.0,0.01140010729432106
7680.0,0.011770008131861687
8192.0,0.016538184136152267
end
