version,3.0
numOfCh,1
type,point
parent_name,c1204_0dot1-0dot1
ch_type,1_1
kcount,1
numberNandB,1
brightnessNandB,1
carpet pos,0
pc,0
Time (ms),CH1 Auto-Correlation
1.0,0.05009301006793976
2.0,0.049563296139240265
3.0,0.049059778451919556
4.0,0.04856202378869057
5.0,0.048076458275318146
6.0,0.04758429527282715
7.0,0.04711567983031273
8.0,0.04666318744421005
9.0,0.04623652994632721
10.0,0.04582437127828598
11.0,0.045423723757267
12.0,0.0450223870575428
13.0,0.04462738707661629
14.0,0.04422484710812569
15.0,0.04384312033653259
16.0,0.04346620291471481
18.0,0.042743247002363205
20.0,0.042065322399139404
22.0,0.041397545486688614
24.0,0.04075291007757187
26.0,0.04013999179005623
28.0,0.03956286609172821
30.0,0.039000723510980606
32.0,0.038468990474939346
36.0,0.0374755896627903
40.0,0.03658074885606766
44.0,0.03564510866999626
48.0,0.0346553735435009
52.0,0.03366489335894585
56.0,0.032709553837776184
60.0,0.03182516619563103
64.0,0.031062593683600426
72.0,0.029625611379742622
80.0,0.02826824225485325
88.0,0.02706572227180004
96.0,0.026039618998765945
104.0,0.02505330927670002
112.0,0.02392989955842495
120.0,0.022822340950369835
128.0,0.021972637623548508
144.0,0.020643634721636772
160.0,0.019392909482121468
176.0,0.01785511150956154
192.0,0.01591586321592331
208.0,0.014143422245979309
224.0,0.013016198761761189
240.0,0.012101911939680576
256.0,0.010689960792660713
288.0,0.008998863399028778
320.0,0.008234401233494282
352.0,0.006407416891306639
384.0,0.004470278508961201
416.0,0.0024810272734612226
448.0,0.0005084437434561551
480.0,-0.0010937185725197196
512.0,-0.0021797800436615944
576.0,-0.004907676484435797
640.0,-0.008004982955753803
704.0,-0.00939452089369297
768.0,-0.009515347890555859
832.0,-0.0071495892480015755
896.0,-0.004492415580898523
960.0,-0.0027663561049848795
1024.0,-0.002084423089399934
1152.0,0.0013829467352479696
1280.0,0.005259132478386164
1408.0,0.007374901324510574
1536.0,0.0037681511603295803
1664.0,-0.0011528130853548646
1792.0,-0.0009293984621763229
1920.0,-0.004025320056825876
2048.0,-0.008462967351078987
2304.0,-0.004685233812779188
2560.0,0.004184937570244074
2816.0,0.007302347104996443
3072.0,0.004055124241858721
3328.0,-0.0011421948438510299
3584.0,-0.007342306897044182
3840.0,-0.0017396871699020267
4096.0,0.001716525643132627
4608.0,-0.009529929608106613
5120.0,-0.0010124417021870613
5632.0,0.0056297387927770615
6144.0,-0.003655677894130349
6656.0,0.0032810568809509277
7168.0,-0.002105432329699397
7680.0,-0.007737907115370035
8192.0,-0.0014913777122274041
end
