version,3.0
numOfCh,1
type,point
parent_name,c1204_0dot1-0dot1
ch_type,1_1
kcount,1
numberNandB,1
brightnessNandB,1
carpet pos,0
pc,0
Time (ms),CH1 Auto-Correlation
1.0,0.04254943132400513
2.0,0.04208924621343613
3.0,0.0416463278234005
4.0,0.04122509807348251
5.0,0.040828827768564224
6.0,0.0404202938079834
7.0,0.04002376273274422
8.0,0.0396428257226944
9.0,0.03926287591457367
10.0,0.03888719156384468
11.0,0.03850317373871803
12.0,0.03811562433838844
13.0,0.03774777054786682
14.0,0.03737177327275276
15.0,0.037009790539741516
16.0,0.03666179999709129
18.0,0.03594105690717697
20.0,0.03524818643927574
22.0,0.034581080079078674
24.0,0.03393920511007309
26.0,0.03331487253308296
28.0,0.03270411118865013
30.0,0.03212597966194153
32.0,0.03156905621290207
36.0,0.030505457893013954
40.0,0.02951975166797638
44.0,0.028589682653546333
48.0,0.02777656354010105
52.0,0.026974281296133995
56.0,0.026178274303674698
60.0,0.02537813037633896
64.0,0.024606257677078247
72.0,0.023199036717414856
80.0,0.02198578231036663
88.0,0.020710652694106102
96.0,0.019343845546245575
104.0,0.01816720888018608
112.0,0.017145898193120956
120.0,0.016262579709291458
128.0,0.01566605642437935
144.0,0.014868389815092087
160.0,0.01416175439953804
176.0,0.013049975037574768
192.0,0.011837620288133621
208.0,0.01076025515794754
224.0,0.010108143091201782
240.0,0.00899070780724287
256.0,0.007006992120295763
288.0,0.00453815795481205
320.0,0.0028218214865773916
352.0,0.0014944347785785794
384.0,0.0005265415529720485
416.0,-0.000517525477334857
448.0,-0.00148105772677809
480.0,-0.0008134472882375121
512.0,-0.0005707645905204117
576.0,-0.0005706506781280041
640.0,-0.0012204265221953392
704.0,-0.0018981655593961477
768.0,-0.0005129895289428532
832.0,0.0009606741950847208
896.0,0.001459320541471243
960.0,0.001732844510115683
1024.0,0.0018361741676926613
1152.0,0.002633247757330537
1280.0,0.0011414678301662207
1408.0,0.0008948268368840218
1536.0,-0.0012182584032416344
1664.0,-2.1606017526210053e-06
1792.0,0.0008628256036899984
1920.0,0.002260427689179778
2048.0,0.003009549807757139
2304.0,-0.0023229029029607773
2560.0,-0.003795415861532092
2816.0,-0.006422786042094231
3072.0,-0.0014402884989976883
3328.0,-0.0009798667160794139
3584.0,-0.004943039268255234
3840.0,-0.006233361084014177
4096.0,-0.0013048727996647358
4608.0,0.005942196119576693
5120.0,-0.0015753128100186586
5632.0,-0.005300973542034626
6144.0,0.0004133192414883524
6656.0,-0.00026813047588802874
7168.0,-0.0036836753133684397
7680.0,0.00045273618889041245
8192.0,0.004104508552700281
end
