version,3.0
numOfCh,1
type,point
parent_name,c1204_0dot1-0dot1
ch_type,1_1
kcount,1
numberNandB,1
brightnessNandB,1
carpet pos,0
pc,0
Time (ms),CH1 Auto-Correlation
1.0,0.045749910175800323
2.0,0.0453035905957222
3.0,0.0448664128780365
4.0,0.04443421959877014
5.0,0.044018469750881195
6.0,0.043603722006082535
7.0,0.0431983582675457
8.0,0.04279705509543419
9.0,0.04240260645747185
10.0,0.0420207679271698
11.0,0.041641853749752045
12.0,0.041271671652793884
13.0,0.040901146829128265
14.0,0.04054086282849312
15.0,0.04018160700798035
16.0,0.039825476706027985
18.0,0.039126258343458176
20.0,0.038470637053251266
22.0,0.037802014499902725
24.0,0.03715072572231293
26.0,0.03652484342455864
28.0,0.035931479185819626
30.0,0.03535810858011246
32.0,0.034807588905096054
36.0,0.033733438700437546
40.0,0.03269963711500168
44.0,0.03171199932694435
48.0,0.030759302899241447
52.0,0.029804566875100136
56.0,0.028907017782330513
60.0,0.028113510459661484
64.0,0.02739030122756958
72.0,0.02602311596274376
80.0,0.024742785841226578
88.0,0.02346041426062584
96.0,0.02224566787481308
104.0,0.02114826627075672
112.0,0.020215455442667007
120.0,0.01939000003039837
128.0,0.01861751824617386
144.0,0.01706659235060215
160.0,0.015798304229974747
176.0,0.014871898107230663
192.0,0.01412326842546463
208.0,0.013310136273503304
224.0,0.012636548839509487
240.0,0.011805184185504913
256.0,0.010914594866335392
288.0,0.008441323414444923
320.0,0.006176628638058901
352.0,0.005734827369451523
384.0,0.005967478267848492
416.0,0.005162875168025494
448.0,0.004564847331494093
480.0,0.005660348571836948
512.0,0.0070653255097568035
576.0,0.0063020531088113785
640.0,0.006151700392365456
704.0,0.005970913451164961
768.0,0.007009342312812805
832.0,0.004067948088049889
896.0,0.000720453797839582
960.0,-0.0015419587725773454
1024.0,-0.003720184089615941
1152.0,-0.0037386154290288687
1280.0,0.0014515408547595143
1408.0,0.000399138021748513
1536.0,-0.001960757654160261
1664.0,-0.007109503727406263
1792.0,-0.011311100795865059
1920.0,-0.009334521368145943
2048.0,-0.005222770851105452
2304.0,-0.006583032198250294
2560.0,-0.004116059746593237
2816.0,-0.0015573861310258508
3072.0,0.0022701413836330175
3328.0,0.0037679453380405903
3584.0,0.007679787464439869
3840.0,0.006233618129044771
4096.0,-0.0013707499019801617
4608.0,0.001202405896037817
5120.0,-9.835477248998359e-05
5632.0,-0.006381258834153414
6144.0,-0.002076046774163842
6656.0,0.0037215978372842073
7168.0,0.0013048592954874039
7680.0,-0.002608437556773424
8192.0,-0.0034954699221998453
end
