version,3.0
numOfCh,1
type,point
parent_name,c1204_0dot1-0dot1
ch_type,1_1
kcount,1
numberNandB,1
brightnessNandB,1
carpet pos,0
pc,0
Time (ms),CH1 Auto-Correlation
1.0,0.05709708109498024
2.0,0.05658326297998428
3.0,0.05608389526605606
4.0,0.05559438467025757
5.0,0.05512753129005432
6.0,0.0546690970659256
7.0,0.05423382297158241
8.0,0.05381382256746292
9.0,0.053376905620098114
10.0,0.05292477086186409
11.0,0.052479542791843414
12.0,0.05203719809651375
13.0,0.051605306565761566
14.0,0.05118202045559883
15.0,0.050760094076395035
16.0,0.05034174397587776
18.0,0.049542613327503204
20.0,0.04877743497490883
22.0,0.04799957573413849
24.0,0.04723571613430977
26.0,0.04648308455944061
28.0,0.04578128829598427
30.0,0.04504953697323799
32.0,0.04431648552417755
36.0,0.042949043214321136
40.0,0.04164310172200203
44.0,0.040325600653886795
48.0,0.03912356123328209
52.0,0.03796547278761864
56.0,0.036825552582740784
60.0,0.035791490226984024
64.0,0.03478407859802246
72.0,0.032908134162425995
80.0,0.031127355992794037
88.0,0.029517944902181625
96.0,0.027960970997810364
104.0,0.026433944702148438
112.0,0.024885030463337898
120.0,0.023425113409757614
128.0,0.022119104862213135
144.0,0.020281201228499413
160.0,0.019151315093040466
176.0,0.01809837482869625
192.0,0.01680087298154831
208.0,0.015494913794100285
224.0,0.014577683061361313
240.0,0.013953168876469135
256.0,0.014083468355238438
288.0,0.014430314302444458
320.0,0.014198881573975086
352.0,0.013550050556659698
384.0,0.012048428878188133
416.0,0.009888933040201664
448.0,0.008039608597755432
480.0,0.006461810786277056
512.0,0.005601631943136454
576.0,0.006375547964125872
640.0,0.006754692178219557
704.0,0.004444061778485775
768.0,0.002627687994390726
832.0,0.0012653975281864405
896.0,0.0005859071970917284
960.0,0.0016846354119479656
1024.0,0.0009589469991624355
1152.0,-0.0010376021964475513
1280.0,0.00013996732013765723
1408.0,-0.0002819675428327173
1536.0,-0.00450472068041563
1664.0,-0.0036699152551591396
1792.0,0.0005045667639933527
1920.0,-0.0007842424092814326
2048.0,0.002497864654287696
2304.0,0.005348538979887962
2560.0,0.006883099675178528
2816.0,0.007295871153473854
3072.0,0.0032690337393432856
3328.0,-0.0017986432649195194
3584.0,-0.005715212784707546
3840.0,-0.004968908149749041
4096.0,0.0021315296180546284
4608.0,0.0013359413715079427
5120.0,0.007586731109768152
5632.0,0.0005091514904052019
6144.0,0.0013695372035726905
6656.0,-0.013768982142210007
7168.0,-0.003611880587413907
7680.0,-0.00141627318225801
8192.0,0.006159844342619181
end
