version,3.0
numOfCh,1
type,point
parent_name,c1204_0dot1-0dot1
ch_type,1_1
kcount,1
numberNandB,1
brightnessNandB,1
carpet pos,0
pc,0
Time (ms),CH1 Auto-Correlation
1.0,0.042418014258146286
2.0,0.04189939796924591
3.0,0.04139181599020958
4.0,0.04090408235788345
5.0,0.0404173880815506
6.0,0.03993011265993118
7.0,0.03945497050881386
8.0,0.039000850170850754
9.0,0.03855285421013832
10.0,0.038108304142951965
11.0,0.03766771778464317
12.0,0.03723393753170967
13.0,0.03682151809334755
14.0,0.03641944006085396
15.0,0.036025580018758774
16.0,0.035630472004413605
18.0,0.034846413880586624
20.0,0.034068118780851364
22.0,0.03333260864019394
24.0,0.03264416381716728
26.0,0.031982406973838806
28.0,0.03137513995170593
30.0,0.030793262645602226
32.0,0.030218929052352905
36.0,0.029193222522735596
40.0,0.028283732011914253
44.0,0.02742655761539936
48.0,0.026577536016702652
52.0,0.02579297497868538
56.0,0.02506614848971367
60.0,0.024349713698029518
64.0,0.023674767464399338
72.0,0.022350996732711792
80.0,0.0212795939296484
88.0,0.020286329090595245
96.0,0.019447818398475647
104.0,0.018819056451320648
112.0,0.01825718581676483
120.0,0.01772090047597885
128.0,0.017152294516563416
144.0,0.015912717208266258
160.0,0.014466581866145134
176.0,0.013281237334012985
192.0,0.012120733968913555
208.0,0.010972040705382824
224.0,0.00992467999458313
240.0,0.009283291175961494
256.0,0.008866537362337112
288.0,0.007801803760230541
320.0,0.005261562764644623
352.0,0.0032563519198447466
384.0,0.003378932597115636
416.0,0.0038580098189413548
448.0,0.0040675015188753605
480.0,0.004285661969333887
512.0,0.0049196043983101845
576.0,0.00525725306943059
640.0,0.005057596135884523
704.0,0.003909229300916195
768.0,0.001479406259022653
832.0,-0.00015462521696463227
896.0,0.0004985563573427498
960.0,-0.00037622349918819964
1024.0,-0.0006544396164827049
1152.0,0.0027482917066663504
1280.0,0.004965116269886494
1408.0,0.0030088755302131176
1536.0,-0.0011422893730923533
1664.0,-0.0061930641531944275
1792.0,-0.004981531295925379
1920.0,-0.002887353766709566
2048.0,-0.0022553042508661747
2304.0,-0.0013009320246055722
2560.0,-0.0027226132806390524
2816.0,-0.008536760695278645
3072.0,-0.011487764306366444
3328.0,-0.005498357582837343
3584.0,-0.0019210721366107464
3840.0,-0.0015112310647964478
4096.0,-0.0012438910780474544
4608.0,0.0031561588402837515
5120.0,0.0012129592942073941
5632.0,0.003104692092165351
6144.0,0.006223302334547043
6656.0,-0.002243342576548457
7168.0,-0.00217862194404006
7680.0,-0.0016064043156802654
8192.0,0.0003761191328521818
end
