version,3.0
numOfCh,1
type,point
parent_name,c1204_0dot1-0dot1
ch_type,1_1
kcount,1
numberNandB,1
brightnessNandB,1
carpet pos,0
pc,0
Time (ms),CH1 Auto-Correlation
1.0,0.08588461577892303
2.0,0.08415182679891586
3.0,0.08238581568002701
4.0,0.08098543435335159
5.0,0.0798158198595047
6.0,0.07861074805259705
7.0,0.07756827771663666
8.0,0.07650647312402725
9.0,0.07560817152261734
10.0,0.0745265856385231
11.0,0.07296230643987656
12.0,0.07170209288597107
13.0,0.07039351016283035
14.0,0.0690702572464943
15.0,0.06792225688695908
16.0,0.06695504486560822
18.0,0.06468209624290466
20.0,0.06210317462682724
22.0,0.05983753502368927
24.0,0.05761047452688217
26.0,0.05542591214179993
28.0,0.05311154946684837
30.0,0.05118471756577492
32.0,0.0493762344121933
36.0,0.04671250656247139
40.0,0.04332194849848747
44.0,0.04060787707567215
48.0,0.03944804146885872
52.0,0.03853456676006317
56.0,0.037717655301094055
60.0,0.03683964163064957
64.0,0.035921573638916016
72.0,0.03404800593852997
80.0,0.03197706490755081
88.0,0.029901783913373947
96.0,0.02816704660654068
104.0,0.026782820001244545
112.0,0.025868533179163933
120.0,0.025465568527579308
128.0,0.024985428899526596
144.0,0.024214359000325203
160.0,0.024341637268662453
176.0,0.024368925020098686
192.0,0.024402765557169914
208.0,0.024830644950270653
224.0,0.025197817012667656
240.0,0.02520749717950821
256.0,0.02359052747488022
288.0,0.021404307335615158
320.0,0.019225746393203735
352.0,0.017163164913654327
384.0,0.015263409353792667
416.0,0.014786004088819027
448.0,0.014738106168806553
480.0,0.016523126512765884
512.0,0.016658268868923187
576.0,0.01439792662858963
640.0,0.010926412418484688
704.0,0.010351518169045448
768.0,0.008656312711536884
832.0,0.010831900872290134
896.0,0.009563096798956394
960.0,0.008251937106251717
1024.0,0.00983116403222084
1152.0,0.009471585974097252
1280.0,0.01358547993004322
1408.0,0.010207919403910637
1536.0,0.010339723899960518
1664.0,0.0072350273840129375
1792.0,0.0047851623967289925
1920.0,-0.001617730245925486
2048.0,-0.005437981802970171
2304.0,-0.0019027000525966287
2560.0,-0.005029935855418444
2816.0,-0.010714415460824966
3072.0,-0.015194574370980263
3328.0,-0.013070768676698208
3584.0,-0.010998498648405075
3840.0,-0.008821235038340092
4096.0,-0.01129135675728321
4608.0,-0.001071716076694429
5120.0,0.002841321285814047
5632.0,0.004125857725739479
6144.0,0.005371906328946352
6656.0,-0.01208763848990202
7168.0,0.005357333924621344
7680.0,-0.017014561221003532
8192.0,-0.02687310427427292
end
