version,3.0
numOfCh,1
type,point
parent_name,c1204_0dot1-0dot1
ch_type,1_1
kcount,1
numberNandB,1
brightnessNandB,1
carpet pos,0
pc,0
Time (ms),CH1 Auto-Correlation
1.0,0.06289727240800858
2.0,0.06238652020692825
3.0,0.06187644973397255
4.0,0.06138589605689049
5.0,0.060900576412677765
6.0,0.0604398138821125
7.0,0.059967607259750366
8.0,0.059510488063097
9.0,0.05906994268298149
10.0,0.058640412986278534
11.0,0.05821026861667633
12.0,0.057768192142248154
13.0,0.05734897404909134
14.0,0.05693722888827324
15.0,0.056534361094236374
16.0,0.05613703280687332
18.0,0.05537807196378708
20.0,0.05462324991822243
22.0,0.053885772824287415
24.0,0.05319550260901451
26.0,0.05251774936914444
28.0,0.05182928964495659
30.0,0.05114460363984108
32.0,0.05043788626790047
36.0,0.049042053520679474
40.0,0.04767652601003647
44.0,0.046373527497053146
48.0,0.04516959562897682
52.0,0.04413367062807083
56.0,0.0431101992726326
60.0,0.042094431817531586
64.0,0.04114730656147003
72.0,0.039230912923812866
80.0,0.03746011108160019
88.0,0.03588206321001053
96.0,0.03441546857357025
104.0,0.03287876769900322
112.0,0.031520333141088486
120.0,0.030408117920160294
128.0,0.029386721551418304
144.0,0.027446474879980087
160.0,0.025379367172718048
176.0,0.0231741052120924
192.0,0.02091669850051403
208.0,0.01920461654663086
224.0,0.018477438017725945
240.0,0.018447935581207275
256.0,0.018580632284283638
288.0,0.01975191757082939
320.0,0.02086869440972805
352.0,0.02189520001411438
384.0,0.021878557279706
416.0,0.02081325091421604
448.0,0.018729863688349724
480.0,0.015781356021761894
512.0,0.012954458594322205
576.0,0.009129785932600498
640.0,0.007662551011890173
704.0,0.007359007373452187
768.0,0.00669837137684226
832.0,0.006749347783625126
896.0,0.003962006885558367
960.0,0.002846086397767067
1024.0,0.0016689327312633395
1152.0,0.001882050884887576
1280.0,0.0013989852741360664
1408.0,0.0009967173682525754
1536.0,-0.0022183565888553858
1664.0,-0.008599580265581608
1792.0,-0.007256773300468922
1920.0,-0.006516897585242987
2048.0,-0.010067714378237724
2304.0,-0.009370846673846245
2560.0,-0.014584948308765888
2816.0,-0.019676245748996735
3072.0,-0.024519698694348335
3328.0,-0.022728227078914642
3584.0,-0.016312599182128906
3840.0,-0.007515388540923595
4096.0,0.0012349331518635154
4608.0,0.004841421265155077
5120.0,0.012357795611023903
5632.0,0.014453263953328133
6144.0,0.013156922534108162
6656.0,0.009723850525915623
7168.0,-0.0023251166567206383
7680.0,-0.0014570297207683325
8192.0,-0.01238282211124897
end
