version,3.0
numOfCh,1
type,point
parent_name,c1204_0dot1-0dot1
ch_type,1_1
kcount,1
numberNandB,1
brightnessNandB,1
carpet pos,0
pc,0
Time (ms),CH1 Auto-Correlation
1.0,0.062014419585466385
2.0,0.06137373670935631
3.0,0.06075988709926605
4.0,0.060159094631671906
5.0,0.05956272780895233
6.0,0.059015482664108276
7.0,0.05849701166152954
8.0,0.057982511818408966
9.0,0.05746396631002426
10.0,0.05696091055870056
11.0,0.05646897852420807
12.0,0.05597927048802376
13.0,0.0554845817387104
14.0,0.055030614137649536
15.0,0.054577089846134186
16.0,0.054099779576063156
18.0,0.05313738435506821
20.0,0.0521361343562603
22.0,0.051155801862478256
24.0,0.05023658648133278
26.0,0.04935569688677788
28.0,0.048543430864810944
30.0,0.0477200485765934
32.0,0.04686678200960159
36.0,0.045153386890888214
40.0,0.0434243381023407
44.0,0.041843511164188385
48.0,0.04037637636065483
52.0,0.03892625495791435
56.0,0.03765811398625374
60.0,0.036431875079870224
64.0,0.035177700221538544
72.0,0.03265828266739845
80.0,0.03004339337348938
88.0,0.0277389045804739
96.0,0.025635361671447754
104.0,0.024027133360505104
112.0,0.022834187373518944
120.0,0.021682478487491608
128.0,0.020436815917491913
144.0,0.017644980922341347
160.0,0.015624726191163063
176.0,0.014119361527264118
192.0,0.013131271116435528
208.0,0.012170922011137009
224.0,0.011416936293244362
240.0,0.0101394634693861
256.0,0.009160229936242104
288.0,0.007740037050098181
320.0,0.006020574364811182
352.0,0.0034345686435699463
384.0,0.001752716489136219
416.0,0.0013803677866235375
448.0,0.0018725874833762646
480.0,0.0006446151528507471
512.0,-0.0031199194490909576
576.0,-0.008642425760626793
640.0,-0.010202480480074883
704.0,-0.013097762130200863
768.0,-0.013777206651866436
832.0,-0.01075907051563263
896.0,-0.00870083924382925
960.0,-0.006523766554892063
1024.0,-0.005507387686520815
1152.0,-0.0027909071650356054
1280.0,-0.0009678738424554467
1408.0,0.002021198160946369
1536.0,0.003925394266843796
1664.0,0.006878286600112915
1792.0,0.00023445342958439142
1920.0,0.004995354916900396
2048.0,-0.00331640406511724
2304.0,-0.007243410684168339
2560.0,-0.002834687475115061
2816.0,0.0036465052980929613
3072.0,0.008975347504019737
3328.0,-0.0012071901001036167
3584.0,-0.004392234608530998
3840.0,-0.002409531967714429
4096.0,-0.0013787699863314629
4608.0,0.0028829723596572876
5120.0,0.0008435569470748305
5632.0,-0.006425116676837206
6144.0,0.0006449120119214058
6656.0,-0.008145321160554886
7168.0,-0.008329756557941437
7680.0,0.008319872431457043
8192.0,0.0025613117031753063
end
