version,3.0
numOfCh,1
type,point
parent_name,c1204_0dot1-0dot1
ch_type,1_1
kcount,1
numberNandB,1
brightnessNandB,1
carpet pos,0
pc,0
Time (ms),CH1 Auto-Correlation
1.0,0.06074156612157822
2.0,0.060161612927913666
3.0,0.05959843844175339
4.0,0.05904962122440338
5.0,0.05849458649754524
6.0,0.05797072872519493
7.0,0.05747494101524353
8.0,0.05697784572839737
9.0,0.056482963263988495
10.0,0.05600199103355408
11.0,0.05554335191845894
12.0,0.05507731810212135
13.0,0.054622333496809006
14.0,0.054172057658433914
15.0,0.05372151732444763
16.0,0.053284306079149246
18.0,0.05246039107441902
20.0,0.05163473263382912
22.0,0.05081221088767052
24.0,0.050004687160253525
26.0,0.04923836141824722
28.0,0.0485256128013134
30.0,0.04785475134849548
32.0,0.04723158851265907
36.0,0.046055056154727936
40.0,0.04491356387734413
44.0,0.04378193989396095
48.0,0.042615123093128204
52.0,0.04141281545162201
56.0,0.04031988978385925
60.0,0.03931863233447075
64.0,0.03837587684392929
72.0,0.036577291786670685
80.0,0.03511654958128929
88.0,0.03387470170855522
96.0,0.03258803114295006
104.0,0.031128238886594772
112.0,0.02951132506132126
120.0,0.027892766520380974
128.0,0.026253731921315193
144.0,0.023539239540696144
160.0,0.021408451721072197
176.0,0.01982894167304039
192.0,0.018024278804659843
208.0,0.016526147723197937
224.0,0.01568012684583664
240.0,0.014755962416529655
256.0,0.013150903396308422
288.0,0.00976138561964035
320.0,0.006864761468023062
352.0,0.003977131098508835
384.0,0.0032447485718876123
416.0,0.0025083189830183983
448.0,0.0014233840629458427
480.0,0.0019530269782990217
512.0,0.0015435211826115847
576.0,0.001777125522494316
640.0,0.0048413570038974285
704.0,0.008254721760749817
768.0,0.007856320589780807
832.0,0.006306810770183802
896.0,0.006510763894766569
960.0,0.004907450173050165
1024.0,-0.0017709987005218863
1152.0,-0.0066595845855772495
1280.0,-0.0037608719430863857
1408.0,-0.004833385348320007
1536.0,-0.0019454977009445429
1664.0,0.002882370725274086
1792.0,-0.002504373202100396
1920.0,-0.0034458318259567022
2048.0,-0.003690376179292798
2304.0,-9.152619895758107e-05
2560.0,0.007516500074416399
2816.0,-0.002815251937136054
3072.0,-0.013297219760715961
3328.0,-0.01097116805613041
3584.0,-0.0089808264747262
3840.0,-0.007555362768471241
4096.0,-0.006454215385019779
4608.0,-0.009748497046530247
5120.0,0.002607859205454588
5632.0,-0.003786317305639386
6144.0,0.00489380257204175
6656.0,0.0018098718719556928
7168.0,0.004109481815248728
7680.0,0.0016738820122554898
8192.0,0.004024829715490341
end
