version,3.0
numOfCh,1
type,point
parent_name,c1204_0dot1-0dot1
ch_type,1_1
kcount,1
numberNandB,1
brightnessNandB,1
carpet pos,0
pc,0
Time (ms),CH1 Auto-Correlation
1.0,0.05868789926171303
2.0,0.05815034359693527
3.0,0.05763727426528931
4.0,0.057139817625284195
5.0,0.056638482958078384
6.0,0.05615055933594704
7.0,0.05567498505115509
8.0,0.05522282049059868
9.0,0.054796818643808365
10.0,0.054371871054172516
11.0,0.0539870448410511
12.0,0.05357840657234192
13.0,0.0531931109726429
14.0,0.05279918760061264
15.0,0.05242639780044556
16.0,0.05207927152514458
18.0,0.05139060318470001
20.0,0.0507158488035202
22.0,0.05001335218548775
24.0,0.049345266073942184
26.0,0.048702750355005264
28.0,0.04809797555208206
30.0,0.04755616560578346
32.0,0.047026075422763824
36.0,0.04595870524644852
40.0,0.04497360810637474
44.0,0.044045817106962204
48.0,0.043133798986673355
52.0,0.042181748896837234
56.0,0.04128952696919441
60.0,0.040447745472192764
64.0,0.03961063176393509
72.0,0.03800462186336517
80.0,0.03642002493143082
88.0,0.03494522348046303
96.0,0.033356573432683945
104.0,0.03185299411416054
112.0,0.030405089259147644
120.0,0.029152464121580124
128.0,0.028019342571496964
144.0,0.02571176365017891
160.0,0.02303522825241089
176.0,0.020647859200835228
192.0,0.018866995349526405
208.0,0.01727442257106304
224.0,0.015499865636229515
240.0,0.013472765684127808
256.0,0.011788038536906242
288.0,0.00974915362894535
320.0,0.007548261899501085
352.0,0.005508194211870432
384.0,0.004241677932441235
416.0,0.0040464019402861595
448.0,0.004156117793172598
480.0,0.004415702074766159
512.0,0.0050756544806063175
576.0,0.006148332264274359
640.0,0.009546692483127117
704.0,0.00976103451102972
768.0,0.007504160515964031
832.0,0.006703901570290327
896.0,0.005050057079643011
960.0,0.0037936607841402292
1024.0,0.006473276298493147
1152.0,0.008066428825259209
1280.0,0.0066160825081169605
1408.0,0.006790202111005783
1536.0,0.00727436039596796
1664.0,0.0055915601551532745
1792.0,0.0036712291184812784
1920.0,-0.0034252051264047623
2048.0,-0.005274419207125902
2304.0,-0.0036137879360467196
2560.0,-0.001211156020872295
2816.0,-0.007716405671089888
3072.0,-0.01406119205057621
3328.0,-0.008599966764450073
3584.0,-0.004294157028198242
3840.0,-0.00047406103112734854
4096.0,-0.0006101716426201165
4608.0,-0.0007063587545417249
5120.0,0.0076494584791362286
5632.0,-0.00017951527843251824
6144.0,0.009027604013681412
6656.0,0.0022210783790796995
7168.0,-0.0009833605727180839
7680.0,-0.00048410831368528306
8192.0,-0.015845639631152153
end
