version,3.0
numOfCh,1
type,point
parent_name,c1204_0dot1-0dot1
ch_type,1_1
kcount,1
numberNandB,1
brightnessNandB,1
carpet pos,0
pc,0
Time (ms),CH1 Auto-Correlation
1.0,0.06897851079702377
2.0,0.0683673694729805
3.0,0.06778022646903992
4.0,0.06721189618110657
5.0,0.06666354835033417
6.0,0.06612525135278702
7.0,0.06560231000185013
8.0,0.06508325785398483
9.0,0.06457613408565521
10.0,0.06407897919416428
11.0,0.06358475238084793
12.0,0.06310819834470749
13.0,0.06261353939771652
14.0,0.06211224943399429
15.0,0.06160788983106613
16.0,0.06108647584915161
18.0,0.06010980159044266
20.0,0.05918562039732933
22.0,0.05826035887002945
24.0,0.057381339371204376
26.0,0.056610167026519775
28.0,0.055871546268463135
30.0,0.05521570146083832
32.0,0.05461869016289711
36.0,0.05337028205394745
40.0,0.0520162470638752
44.0,0.050632573664188385
48.0,0.04924734681844711
52.0,0.047941263765096664
56.0,0.04672321677207947
60.0,0.045572541654109955
64.0,0.04451652616262436
72.0,0.04284536466002464
80.0,0.04140729084610939
88.0,0.04004209488630295
96.0,0.038952309638261795
104.0,0.038007769733667374
112.0,0.0371805801987648
120.0,0.03639715909957886
128.0,0.035642240196466446
144.0,0.034171152859926224
160.0,0.032067764550447464
176.0,0.029673242941498756
192.0,0.028101837262511253
208.0,0.02663160301744938
224.0,0.02512238174676895
240.0,0.023703258484601974
256.0,0.022042054682970047
288.0,0.02043994516134262
320.0,0.019504504278302193
352.0,0.017820922657847404
384.0,0.016010090708732605
416.0,0.01456297654658556
448.0,0.012805047444999218
480.0,0.01065997127443552
512.0,0.008608972653746605
576.0,0.0023315732832998037
640.0,-0.0010750280926004052
704.0,-0.002703617559745908
768.0,-0.004870347213000059
832.0,-0.006416024640202522
896.0,-0.00986798107624054
960.0,-0.0106514235958457
1024.0,-0.009434590116143227
1152.0,-0.006161458324640989
1280.0,-0.006018902640789747
1408.0,-0.002687137108296156
1536.0,-0.00024660752387717366
1664.0,-0.0010056683095172048
1792.0,-0.0011970540508627892
1920.0,0.0015906509943306446
2048.0,0.00011581552098505199
2304.0,-0.004342072643339634
2560.0,-0.007589124608784914
2816.0,-0.01329158153384924
3072.0,-0.01090151071548462
3328.0,-0.00791129656136036
3584.0,-0.0015366318402811885
3840.0,0.005410674959421158
4096.0,0.007322283927351236
4608.0,-0.003919537644833326
5120.0,0.003333542263135314
5632.0,-0.005874760448932648
6144.0,-0.012797068804502487
6656.0,0.003862868994474411
7168.0,-0.0016051200218498707
7680.0,0.0069765010848641396
8192.0,0.021197138354182243
end
