version,3.0
numOfCh,1
type,point
parent_name,c1204_0dot1-0dot1
ch_type,1_1
kcount,1
numberNandB,1
brightnessNandB,1
carpet pos,0
pc,0
Time (ms),CH1 Auto-Correlation
1.0,0.05140422284603119
2.0,0.05079803615808487
3.0,0.050179459154605865
4.0,0.04959849268198013
5.0,0.04903331398963928
6.0,0.04849755018949509
7.0,0.04797641187906265
8.0,0.047476526349782944
9.0,0.04697900265455246
10.0,0.04648137465119362
11.0,0.04599834978580475
12.0,0.045515306293964386
13.0,0.045050621032714844
14.0,0.04460049793124199
15.0,0.044145435094833374
16.0,0.04368069767951965
18.0,0.04273569956421852
20.0,0.041819069534540176
22.0,0.04089411348104477
24.0,0.03999796137213707
26.0,0.0391223281621933
28.0,0.03827635198831558
30.0,0.03744911774992943
32.0,0.03663870319724083
36.0,0.03508478403091431
40.0,0.033624134957790375
44.0,0.032302871346473694
48.0,0.03111940622329712
52.0,0.030008496716618538
56.0,0.028973082080483437
60.0,0.028044361621141434
64.0,0.027150629088282585
72.0,0.025375595316290855
80.0,0.023861456662416458
88.0,0.022489352151751518
96.0,0.021449552848935127
104.0,0.02064380794763565
112.0,0.02001914195716381
120.0,0.019506944343447685
128.0,0.01896236650645733
144.0,0.01811826415359974
160.0,0.01720365323126316
176.0,0.01668498106300831
192.0,0.015991397202014923
208.0,0.015416045673191547
224.0,0.014412726275622845
240.0,0.013217472471296787
256.0,0.012527870945632458
288.0,0.011361593380570412
320.0,0.009402885101735592
352.0,0.007914990186691284
384.0,0.008636978454887867
416.0,0.009600052610039711
448.0,0.008446457795798779
480.0,0.006106726825237274
512.0,0.004571528639644384
576.0,0.004254447296261787
640.0,0.004672570154070854
704.0,0.003883996279910207
768.0,0.0011286699445918202
832.0,0.0002798853674903512
896.0,9.69049651757814e-05
960.0,0.0007992378086782992
1024.0,0.00214671459980309
1152.0,-0.0024578464217483997
1280.0,-0.003283772384747863
1408.0,-0.0019688971806317568
1536.0,-0.0006393184885382652
1664.0,0.0009995782747864723
1792.0,0.0005454011261463165
1920.0,-0.00031859028968028724
2048.0,-0.003234446980059147
2304.0,-0.006419886369258165
2560.0,-0.006676844786852598
2816.0,-0.0011376512702554464
3072.0,0.004979359917342663
3328.0,0.004479820840060711
3584.0,0.007837807759642601
3840.0,0.007744766306132078
4096.0,0.0050201378762722015
4608.0,0.0037694498896598816
5120.0,-0.005919010378420353
5632.0,-0.0068671731278300285
6144.0,-0.006494888570159674
6656.0,-0.005339135881513357
7168.0,-0.009762680158019066
7680.0,0.0018496537813916802
8192.0,-0.0030624177306890488
end
