version,3.0
numOfCh,1
type,point
parent_name,ff67b_0dot1-1dot0
ch_type,1_1
kcount,1
numberNandB,1
brightnessNandB,1
carpet pos,0
pc,0
Time (ms),CH1 Auto-Correlation
1.0,0.028697416186332703
2.0,0.028297852724790573
3.0,0.027926497161388397
4.0,0.02755066752433777
5.0,0.02718742936849594
6.0,0.026831498369574547
7.0,0.02648312598466873
8.0,0.026140645146369934
9.0,0.02579338476061821
10.0,0.0254517812281847
11.0,0.025131678208708763
12.0,0.024810681119561195
13.0,0.024494659155607224
14.0,0.02418649196624756
15.0,0.023888539522886276
16.0,0.02359643764793873
18.0,0.023014800623059273
20.0,0.022445619106292725
22.0,0.021903228014707565
24.0,0.02136346511542797
26.0,0.02083546668291092
28.0,0.020330872386693954
30.0,0.019845731556415558
32.0,0.019401859492063522
36.0,0.018565744161605835
40.0,0.017747608944773674
44.0,0.01693779043853283
48.0,0.01618668995797634
52.0,0.015490769408643246
56.0,0.014850052073597908
60.0,0.014310372993350029
64.0,0.013823099434375763
72.0,0.012933345511555672
80.0,0.012161322869360447
88.0,0.011493413709104061
96.0,0.01096188835799694
104.0,0.010415321215987206
112.0,0.009875196032226086
120.0,0.009370890446007252
128.0,0.008825047872960567
144.0,0.0076369838789105415
160.0,0.0064685288816690445
176.0,0.005461288150399923
192.0,0.004362387582659721
208.0,0.0036406859289854765
224.0,0.00318325636908412
240.0,0.0026986643206328154
256.0,0.0018815462244674563
288.0,0.0001615629153093323
320.0,-0.0007780352607369423
352.0,-0.0005308717954903841
384.0,-0.000135707639856264
416.0,0.00024031395150814205
448.0,0.0004912492586299777
480.0,0.0007059309282340109
512.0,0.0006622179644182324
576.0,0.00197550468146801
640.0,0.003354188520461321
704.0,0.004729478619992733
768.0,0.0051992409862577915
832.0,0.003201794344931841
896.0,0.0013941210927441716
960.0,0.0011326107196509838
1024.0,0.00045980920549482107
1152.0,0.0007012481801211834
1280.0,0.0025866529904305935
1408.0,0.0029527838341891766
1536.0,-0.0010174682829529047
1664.0,-0.003814809489995241
1792.0,-0.0033069353085011244
1920.0,-0.0032523509580641985
2048.0,-0.0016382456524297595
2304.0,-0.0029710144735872746
2560.0,-0.002200184389948845
2816.0,-0.001897138892672956
3072.0,-0.0034003411419689655
3328.0,-0.003892752341926098
3584.0,-0.0024648234248161316
3840.0,-0.0046194614842534065
4096.0,0.0007243971340358257
4608.0,-0.0003049491497222334
5120.0,0.002982314908877015
5632.0,0.0021135916467756033
6144.0,0.0022542818915098906
6656.0,0.0005485599976964295
7168.0,-0.0008164513856172562
7680.0,-0.001084542484022677
8192.0,-0.002288099844008684
end
