version,3.0
numOfCh,1
type,point
parent_name,ff67b_0dot1-1dot0
ch_type,1_1
kcount,1
numberNandB,1
brightnessNandB,1
carpet pos,0
pc,0
Time (ms),CH1 Auto-Correlation
1.0,0.03576685115695
2.0,0.03531255945563316
3.0,0.03487929329276085
4.0,0.0344596765935421
5.0,0.034035541117191315
6.0,0.03362511098384857
7.0,0.03322114795446396
8.0,0.0328306145966053
9.0,0.032439179718494415
10.0,0.03205246105790138
11.0,0.03167208656668663
12.0,0.03129614517092705
13.0,0.030923640355467796
14.0,0.030569110065698624
15.0,0.030220910906791687
16.0,0.02988118678331375
18.0,0.029186464846134186
20.0,0.028494516387581825
22.0,0.027804376557469368
24.0,0.027124840766191483
26.0,0.026444120332598686
28.0,0.025802291929721832
30.0,0.02516898326575756
32.0,0.02458321861922741
36.0,0.023506518453359604
40.0,0.022549189627170563
44.0,0.02166709303855896
48.0,0.020855609327554703
52.0,0.020108820870518684
56.0,0.01941055804491043
60.0,0.0187320988625288
64.0,0.01809629797935486
72.0,0.01670527085661888
80.0,0.01526600681245327
88.0,0.013961849734187126
96.0,0.012781642377376556
104.0,0.011744854971766472
112.0,0.010667843744158745
120.0,0.009620774537324905
128.0,0.008770577609539032
144.0,0.007764202076941729
160.0,0.007011506240814924
176.0,0.006368831731379032
192.0,0.005932813510298729
208.0,0.005553273018449545
224.0,0.004886453505605459
240.0,0.004001918714493513
256.0,0.0033611624967306852
288.0,0.003042322350665927
320.0,0.0036439308896660805
352.0,0.004692026413977146
384.0,0.004592525772750378
416.0,0.004431040957570076
448.0,0.004868142306804657
480.0,0.004354618024080992
512.0,0.0029721050523221493
576.0,0.0030182567425072193
640.0,0.0025163451209664345
704.0,0.0026615483220666647
768.0,0.0028133844025433064
832.0,0.002111257752403617
896.0,-0.0008360163192264736
960.0,-0.00214867084287107
1024.0,-0.0015197391621768475
1152.0,-0.001203096006065607
1280.0,-7.627008017152548e-05
1408.0,0.00013390036474447697
1536.0,0.0005357303889468312
1664.0,-0.000237900618230924
1792.0,9.285971464123577e-05
1920.0,0.001209327019751072
2048.0,0.003090653335675597
2304.0,0.0029242229647934437
2560.0,0.0026295713614672422
2816.0,-0.0004809116944670677
3072.0,-0.004147334024310112
3328.0,-0.0057368092238903046
3584.0,-0.005975030362606049
3840.0,-0.001970006851479411
4096.0,-0.0019093757728114724
4608.0,0.000424784142524004
5120.0,-0.0013774819672107697
5632.0,-0.003934833686798811
6144.0,-0.005390562582761049
6656.0,-0.002790632424876094
7168.0,-0.0006164655787870288
7680.0,-0.002370515139773488
8192.0,-0.003768513910472393
end
