version,3.0
numOfCh,1
type,point
parent_name,ff67b_0dot1-1dot0
ch_type,1_1
kcount,1
numberNandB,1
brightnessNandB,1
carpet pos,0
pc,0
Time (ms),CH1 Auto-Correlation
1.0,0.044561631977558136
2.0,0.04408031329512596
3.0,0.04364137351512909
4.0,0.04324675351381302
5.0,0.042861148715019226
6.0,0.04248363524675369
7.0,0.04211131110787392
8.0,0.04173792153596878
9.0,0.04139283299446106
10.0,0.041031841188669205
11.0,0.04068605601787567
12.0,0.040362365543842316
13.0,0.04005580022931099
14.0,0.03974483534693718
15.0,0.039451610296964645
16.0,0.0391637459397316
18.0,0.038593143224716187
20.0,0.03799760714173317
22.0,0.03742536902427673
24.0,0.0368698351085186
26.0,0.03631846606731415
28.0,0.03578167408704758
30.0,0.03523463383316994
32.0,0.03472597524523735
36.0,0.03381367400288582
40.0,0.032867446541786194
44.0,0.03200055658817291
48.0,0.031156402081251144
52.0,0.03040197119116783
56.0,0.02968464232981205
60.0,0.02893098257482052
64.0,0.028210464864969254
72.0,0.02691713720560074
80.0,0.025681741535663605
88.0,0.024490399286150932
96.0,0.023417282849550247
104.0,0.022461751475930214
112.0,0.02162960171699524
120.0,0.02083210088312626
128.0,0.019909942522644997
144.0,0.018189914524555206
160.0,0.016476495191454887
176.0,0.014848562888801098
192.0,0.013579243794083595
208.0,0.012313547544181347
224.0,0.011546864174306393
240.0,0.011206962168216705
256.0,0.010771912522614002
288.0,0.010465350933372974
320.0,0.010607692413032055
352.0,0.011013389565050602
384.0,0.01106791291385889
416.0,0.010709252208471298
448.0,0.010870886035263538
480.0,0.010936310514807701
512.0,0.010235592722892761
576.0,0.00798650924116373
640.0,0.006748816929757595
704.0,0.006229598540812731
768.0,0.0052070519886910915
832.0,0.0036367466673254967
896.0,0.0007375236018560827
960.0,-8.977903780760244e-05
1024.0,0.0010474955197423697
1152.0,0.0036204687785357237
1280.0,0.00796995498239994
1408.0,0.009642812423408031
1536.0,0.010371827520430088
1664.0,0.009778098203241825
1792.0,0.009575331583619118
1920.0,0.008860399015247822
2048.0,0.009643926285207272
2304.0,0.003034507390111685
2560.0,0.0031864785123616457
2816.0,0.0023480046074837446
3072.0,0.0020131636410951614
3328.0,0.005164686590433121
3584.0,0.004590602125972509
3840.0,0.003780160564929247
4096.0,-0.0005020826356485486
4608.0,-0.0031622357200831175
5120.0,3.2845980513229733e-06
5632.0,-0.0029275494161993265
6144.0,-0.006333436816930771
6656.0,-0.005481563042849302
7168.0,-0.009235670790076256
7680.0,-0.011859480291604996
8192.0,-0.0051909941248595715
end
