version,3.0
numOfCh,1
type,point
parent_name,ff67b_0dot1-1dot0
ch_type,1_1
kcount,1
numberNandB,1
brightnessNandB,1
carpet pos,0
pc,0
Time (ms),CH1 Auto-Correlation
1.0,0.036150142550468445
2.0,0.035604510456323624
3.0,0.03510711342096329
4.0,0.03461500257253647
5.0,0.034146491438150406
6.0,0.0337117500603199
7.0,0.03329635038971901
8.0,0.03290020674467087
9.0,0.032523561269044876
10.0,0.03213842585682869
11.0,0.03178730234503746
12.0,0.03148498758673668
13.0,0.031187139451503754
14.0,0.030920106917619705
15.0,0.030657745897769928
16.0,0.030375462025403976
18.0,0.029819104820489883
20.0,0.029261678457260132
22.0,0.028673769906163216
24.0,0.028119174763560295
26.0,0.02757093869149685
28.0,0.027029944583773613
30.0,0.026521068066358566
32.0,0.026054315268993378
36.0,0.025156529620289803
40.0,0.024357715621590614
44.0,0.02350470796227455
48.0,0.02269880659878254
52.0,0.021991968154907227
56.0,0.021334849298000336
60.0,0.020700331777334213
64.0,0.020130738615989685
72.0,0.018960770219564438
80.0,0.017884546890854836
88.0,0.01688799448311329
96.0,0.015827955678105354
104.0,0.014902669936418533
112.0,0.014107855968177319
120.0,0.013200882822275162
128.0,0.012350658886134624
144.0,0.0104436744004488
160.0,0.00829789787530899
176.0,0.006245098542422056
192.0,0.004710596054792404
208.0,0.0035267178900539875
224.0,0.002443576231598854
240.0,0.0013241880806162953
256.0,0.00018563673074822873
288.0,-0.0015230093849822879
320.0,-0.0024746733251959085
352.0,-0.003411896526813507
384.0,-0.0039985328912734985
416.0,-0.00433220062404871
448.0,-0.00394482584670186
480.0,-0.0031259970273822546
512.0,-0.002560457680374384
576.0,-0.0010630966862663627
640.0,0.0018353629857301712
704.0,0.00528554106131196
768.0,0.006271363236010075
832.0,0.005684473551809788
896.0,0.004139073193073273
960.0,0.0033713930752128363
1024.0,0.0019201923860237002
1152.0,-0.0010271331993862987
1280.0,-0.0028256061486899853
1408.0,-0.0007391070830635726
1536.0,0.0029668195638805628
1664.0,0.001218681107275188
1792.0,-0.0029529405292123556
1920.0,-0.004998596850782633
2048.0,-0.004049338866025209
2304.0,0.0009408157202415168
2560.0,6.319629756035283e-05
2816.0,-0.0016138112405315042
3072.0,-0.0021343198604881763
3328.0,-0.001319033675827086
3584.0,-0.003880383912473917
3840.0,0.0037800257559865713
4096.0,-0.0027360732201486826
4608.0,-0.0023040217347443104
5120.0,-0.0014906864380463958
5632.0,-0.0014421604573726654
6144.0,0.0005257827579043806
6656.0,-0.0030201233457773924
7168.0,-0.0021995860151946545
7680.0,0.0031124944798648357
8192.0,0.0015816445229575038
end
