version,3.0
numOfCh,1
type,point
parent_name,ff67b_0dot1-1dot0
ch_type,1_1
kcount,1
numberNandB,1
brightnessNandB,1
carpet pos,0
pc,0
Time (ms),CH1 Auto-Correlation
1.0,0.03443071246147156
2.0,0.03392548859119415
3.0,0.03346627578139305
4.0,0.03304464742541313
5.0,0.0326465480029583
6.0,0.032271403819322586
7.0,0.03190139681100845
8.0,0.03154097869992256
9.0,0.0311796385794878
10.0,0.030833007767796516
11.0,0.030507860705256462
12.0,0.030191728845238686
13.0,0.02987520769238472
14.0,0.029551319777965546
15.0,0.029241643846035004
16.0,0.0289408378303051
18.0,0.02832617610692978
20.0,0.027728551998734474
22.0,0.027175383642315865
24.0,0.026627903804183006
26.0,0.026110941544175148
28.0,0.02562049590051174
30.0,0.02515750750899315
32.0,0.02468601055443287
36.0,0.023845365270972252
40.0,0.02295699529349804
44.0,0.0221028383821249
48.0,0.02129780501127243
52.0,0.020590977743268013
56.0,0.0199456624686718
60.0,0.019255327060818672
64.0,0.018465859815478325
72.0,0.016992302611470222
80.0,0.01571389101445675
88.0,0.014565544202923775
96.0,0.01347973570227623
104.0,0.012604014948010445
112.0,0.011897212825715542
120.0,0.011454894207417965
128.0,0.011080075986683369
144.0,0.010810493491590023
160.0,0.010460318997502327
176.0,0.009912651963531971
192.0,0.009110745042562485
208.0,0.008421828970313072
224.0,0.008031957782804966
240.0,0.007549127098172903
256.0,0.0069970423355698586
288.0,0.006223440635949373
320.0,0.004676110111176968
352.0,0.0029688857030123472
384.0,0.0011362023651599884
416.0,0.0007813249249011278
448.0,0.0011686845682561398
480.0,0.0016617990331724286
512.0,0.0012896803673356771
576.0,0.0012796915834769607
640.0,0.0012725499691441655
704.0,-0.00012129099195590243
768.0,-8.580718713346869e-05
832.0,0.001342720352113247
896.0,-0.00046896704589016736
960.0,-0.0019169985316693783
1024.0,-0.002137834206223488
1152.0,-0.0018771174363791943
1280.0,-0.0018948668148368597
1408.0,-0.002443008590489626
1536.0,-0.0035707904025912285
1664.0,-0.003863520687445998
1792.0,-0.002397857140749693
1920.0,-0.001758728176355362
2048.0,-0.002907483372837305
2304.0,-0.003514166921377182
2560.0,-0.0003679178189486265
2816.0,0.0013824363704770803
3072.0,-0.0019309070194140077
3328.0,-0.001788667170330882
3584.0,0.001377799897454679
3840.0,-7.710435602348298e-05
4096.0,-0.0022086044773459435
4608.0,0.00023555601364932954
5120.0,-0.0010923570953309536
5632.0,-0.004540030844509602
6144.0,0.0030103453900665045
6656.0,0.007026689127087593
7168.0,0.0031412066891789436
7680.0,-0.002736567985266447
8192.0,-0.00014484649000223726
end
