version,3.0
numOfCh,1
type,point
parent_name,ff67b_0dot1-1dot0
ch_type,1_1
kcount,1
numberNandB,1
brightnessNandB,1
carpet pos,0
pc,0
Time (ms),CH1 Auto-Correlation
1.0,0.04010679945349693
2.0,0.03969478979706764
3.0,0.03930595889687538
4.0,0.03893950954079628
5.0,0.03859339654445648
6.0,0.0382591150701046
7.0,0.03792155906558037
8.0,0.037584319710731506
9.0,0.037233173847198486
10.0,0.03689354658126831
11.0,0.03655562922358513
12.0,0.0362299419939518
13.0,0.035920869559049606
14.0,0.035609111189842224
15.0,0.03530773147940636
16.0,0.034988559782505035
18.0,0.034422144293785095
20.0,0.03388354554772377
22.0,0.033362261950969696
24.0,0.03285941109061241
26.0,0.032404400408267975
28.0,0.03194982558488846
30.0,0.03148863837122917
32.0,0.031032990664243698
36.0,0.030099958181381226
40.0,0.02919572778046131
44.0,0.028341522440314293
48.0,0.02759050577878952
52.0,0.026865528896450996
56.0,0.026137271896004677
60.0,0.025442251935601234
64.0,0.024734588339924812
72.0,0.02361726202070713
80.0,0.022616861388087273
88.0,0.021730076521635056
96.0,0.020984362810850143
104.0,0.020219530910253525
112.0,0.019468294456601143
120.0,0.018956603482365608
128.0,0.018617484718561172
144.0,0.017957959324121475
160.0,0.017356237396597862
176.0,0.01645178347826004
192.0,0.015735996887087822
208.0,0.01497744768857956
224.0,0.014387674629688263
240.0,0.013883044011890888
256.0,0.013356919400393963
288.0,0.01291047502309084
320.0,0.012064293958246708
352.0,0.01206078752875328
384.0,0.011568066664040089
416.0,0.010858213528990746
448.0,0.010747193358838558
480.0,0.010467354208230972
512.0,0.010570546612143517
576.0,0.01006525382399559
640.0,0.009876465424895287
704.0,0.007973646745085716
768.0,0.007710037752985954
832.0,0.007186395116150379
896.0,0.006552158389240503
960.0,0.006937036756426096
1024.0,0.00794377364218235
1152.0,0.0054385606199502945
1280.0,0.003520432161167264
1408.0,0.0026693898253142834
1536.0,0.0036874059587717056
1664.0,0.0029653862584382296
1792.0,0.0012544135097414255
1920.0,-0.0023820570204406977
2048.0,-0.004101477097719908
2304.0,-0.0041677155531942844
2560.0,-0.003268425352871418
2816.0,-0.004359865561127663
3072.0,-0.0034662482794374228
3328.0,-0.00340864947065711
3584.0,-0.004268483724445105
3840.0,-0.004020582418888807
4096.0,-0.004520288668572903
4608.0,-0.003574769012629986
5120.0,-0.0053640310652554035
5632.0,-0.00041802378837019205
6144.0,0.005695882719010115
6656.0,0.002908706199377775
7168.0,0.0044883843511343
7680.0,0.006401961203664541
8192.0,0.0017686296487227082
end
