version,3.0
numOfCh,1
type,point
parent_name,ff67b_0dot1-1dot0
ch_type,1_1
kcount,1
numberNandB,1
brightnessNandB,1
carpet pos,0
pc,0
Time (ms),CH1 Auto-Correlation
1.0,0.07082197070121765
2.0,0.0674094706773758
3.0,0.06432398408651352
4.0,0.05929242819547653
5.0,0.054825786501169205
6.0,0.050395023077726364
7.0,0.04608098044991493
8.0,0.043440718203783035
9.0,0.04043039306998253
10.0,0.037567317485809326
11.0,0.03709729388356209
12.0,0.0365256629884243
13.0,0.03593853861093521
14.0,0.0353754460811615
15.0,0.03485586866736412
16.0,0.03435010462999344
18.0,0.03358302637934685
20.0,0.03299244865775108
22.0,0.03253272920846939
24.0,0.032297421246767044
26.0,0.03209686651825905
28.0,0.03189302608370781
30.0,0.03155285865068436
32.0,0.0312457587569952
36.0,0.02990368753671646
40.0,0.02921072207391262
44.0,0.028565917164087296
48.0,0.02794935181736946
52.0,0.027465561404824257
56.0,0.02682623453438282
60.0,0.026152510195970535
64.0,0.025506088510155678
72.0,0.024380631744861603
80.0,0.02364933304488659
88.0,0.023270422592759132
96.0,0.022066956385970116
104.0,0.0207468681037426
112.0,0.01993091218173504
120.0,0.020133869722485542
128.0,0.01849447377026081
144.0,0.016584234312176704
160.0,0.015661027282476425
176.0,0.014785735867917538
192.0,0.014279833994805813
208.0,0.013681965880095959
224.0,0.013397580944001675
240.0,0.0129891661927104
256.0,0.012120939791202545
288.0,0.010961082763969898
320.0,0.009648460894823074
352.0,0.007528834510594606
384.0,0.005823513027280569
416.0,0.005247203167527914
448.0,0.005011805333197117
480.0,0.004239558707922697
512.0,0.003714136313647032
576.0,0.0026565527077764273
640.0,0.003950655460357666
704.0,0.004383423365652561
768.0,0.004712977912276983
832.0,0.00391541700810194
896.0,0.0032919016666710377
960.0,0.0027520533185452223
1024.0,0.0028928120154887438
1152.0,0.005684089846909046
1280.0,0.0068741184659302235
1408.0,0.009123582392930984
1536.0,0.009225466288626194
1664.0,0.009732388891279697
1792.0,0.01014714129269123
1920.0,0.009734575636684895
2048.0,0.006974787916988134
2304.0,0.004518312402069569
2560.0,0.005157096311450005
2816.0,0.003967361990362406
3072.0,0.0006136334268376231
3328.0,-0.0031227043364197016
3584.0,-0.003031759988516569
3840.0,0.0006080180173739791
4096.0,0.003771217307075858
4608.0,-0.003480060724541545
5120.0,-0.008535782806575298
5632.0,-0.0039311666041612625
6144.0,-0.004965204279869795
6656.0,-0.007093321997672319
7168.0,-0.010978112928569317
7680.0,-0.008852851577103138
8192.0,-0.0055741495452821255
end
