version,3.0
numOfCh,1
type,point
parent_name,ff67b_0dot1-1dot0
ch_type,1_1
kcount,1
numberNandB,1
brightnessNandB,1
carpet pos,0
pc,0
Time (ms),CH1 Auto-Correlation
1.0,0.04593360424041748
2.0,0.04538292810320854
3.0,0.04487450793385506
4.0,0.044456083327531815
5.0,0.04406409710645676
6.0,0.043675098568201065
7.0,0.043313637375831604
8.0,0.04297099635004997
9.0,0.04264945536851883
10.0,0.04232964292168617
11.0,0.042041197419166565
12.0,0.04172554984688759
13.0,0.041418012231588364
14.0,0.04109017923474312
15.0,0.04079326242208481
16.0,0.04051605984568596
18.0,0.03999671712517738
20.0,0.03949061408638954
22.0,0.038971222937107086
24.0,0.038440071046352386
26.0,0.03794429078698158
28.0,0.03750348091125488
30.0,0.037060122936964035
32.0,0.036662474274635315
36.0,0.035804662853479385
40.0,0.03485895320773125
44.0,0.03398876264691353
48.0,0.03321736678481102
52.0,0.032535627484321594
56.0,0.03184836357831955
60.0,0.031218521296977997
64.0,0.030553093180060387
72.0,0.029359521344304085
80.0,0.028241008520126343
88.0,0.02738066390156746
96.0,0.026748698204755783
104.0,0.025989389047026634
112.0,0.025172416120767593
120.0,0.024431999772787094
128.0,0.02374778874218464
144.0,0.022330310195684433
160.0,0.020709041506052017
176.0,0.01900465413928032
192.0,0.017249636352062225
208.0,0.01592552289366722
224.0,0.01511099748313427
240.0,0.01429250743240118
256.0,0.012888203375041485
288.0,0.010706386528909206
320.0,0.008505904115736485
352.0,0.006750060711055994
384.0,0.00530700758099556
416.0,0.0034682557452470064
448.0,0.0021183285862207413
480.0,0.0012410179479047656
512.0,0.0006733781774528325
576.0,0.0005390738369897008
640.0,0.0008432514732703567
704.0,0.003036928130313754
768.0,0.0033475528471171856
832.0,0.002783010946586728
896.0,0.0010294868843629956
960.0,0.0010756466072052717
1024.0,0.0011948663741350174
1152.0,0.0014859955990687013
1280.0,-0.00038988611777313054
1408.0,0.0005704658688046038
1536.0,0.0041509028524160385
1664.0,0.00896361842751503
1792.0,0.010079911909997463
1920.0,0.008029160089790821
2048.0,0.003436628496274352
2304.0,-0.001419142005033791
2560.0,-0.002249740296974778
2816.0,-0.00021522150200325996
3072.0,-0.0011747559765353799
3328.0,-0.0012434276286512613
3584.0,-0.0004099184588994831
3840.0,-0.0066808066330850124
4096.0,-0.00850117951631546
4608.0,-0.01082633901387453
5120.0,-0.0060461414977908134
5632.0,-0.010289177298545837
6144.0,-0.0033473982475697994
6656.0,-0.0031244996935129166
7168.0,-0.005025964695960283
7680.0,0.000839732529129833
8192.0,0.006328349933028221
end
