version,3.0
numOfCh,1
type,point
parent_name,ff67b_0dot1-1dot0
ch_type,1_1
kcount,1
numberNandB,1
brightnessNandB,1
carpet pos,0
pc,0
Time (ms),CH1 Auto-Correlation
1.0,0.048811569809913635
2.0,0.04825534299015999
3.0,0.047757070511579514
4.0,0.047292668372392654
5.0,0.046847324818372726
6.0,0.04642700031399727
7.0,0.04603864997625351
8.0,0.04566996544599533
9.0,0.04527650400996208
10.0,0.04488791897892952
11.0,0.0445086769759655
12.0,0.04414168372750282
13.0,0.04378820210695267
14.0,0.043425701558589935
15.0,0.043078094720840454
16.0,0.042758163064718246
18.0,0.04213232919573784
20.0,0.041531194001436234
22.0,0.04094330966472626
24.0,0.04036639258265495
26.0,0.03978719189763069
28.0,0.03923580050468445
30.0,0.0387331061065197
32.0,0.038270872086286545
36.0,0.03734050318598747
40.0,0.03638281300663948
44.0,0.035494349896907806
48.0,0.03457348048686981
52.0,0.03374697268009186
56.0,0.03296763077378273
60.0,0.03218410164117813
64.0,0.031433459371328354
72.0,0.03006146103143692
80.0,0.02888152189552784
88.0,0.027545176446437836
96.0,0.026337770745158195
104.0,0.025384582579135895
112.0,0.024570753797888756
120.0,0.02374696545302868
128.0,0.023027941584587097
144.0,0.02167111076414585
160.0,0.020263483747839928
176.0,0.01925736293196678
192.0,0.01835215836763382
208.0,0.017382821068167686
224.0,0.016004132106900215
240.0,0.014704409055411816
256.0,0.013722200877964497
288.0,0.012323902919888496
320.0,0.011240259744226933
352.0,0.01006749551743269
384.0,0.009052430279552937
416.0,0.008474847301840782
448.0,0.007148380856961012
480.0,0.004912812262773514
512.0,0.0022743488661944866
576.0,-0.0016829542582854629
640.0,-0.0028826456982642412
704.0,-0.004571952391415834
768.0,-0.005626092664897442
832.0,-0.005754844751209021
896.0,-0.005552093032747507
960.0,-0.005749275907874107
1024.0,-0.0057866694405674934
1152.0,-0.004405906889587641
1280.0,-0.00560828996822238
1408.0,-0.005469858646392822
1536.0,-0.0028427382931113243
1664.0,-0.00027990149101242423
1792.0,0.003134283935651183
1920.0,0.007145604118704796
2048.0,0.0081029012799263
2304.0,0.004257643595337868
2560.0,-0.00023273566330317408
2816.0,-0.0018717769999057055
3072.0,-0.005517762620002031
3328.0,-0.006823196075856686
3584.0,-0.0028409375809133053
3840.0,0.005976514425128698
4096.0,0.0035532466135919094
4608.0,-0.0017094893846660852
5120.0,0.0007509811548516154
5632.0,-0.004467329476028681
6144.0,-0.003822865430265665
6656.0,0.002533542225137353
7168.0,0.004596654325723648
7680.0,0.0008700690814293921
8192.0,-0.009857872501015663
end
