version,3.0
numOfCh,1
type,point
parent_name,ff67b_0dot1-1dot0
ch_type,1_1
kcount,1
numberNandB,1
brightnessNandB,1
carpet pos,0
pc,0
Time (ms),CH1 Auto-Correlation
1.0,0.03686291351914406
2.0,0.03637923672795296
3.0,0.035935040563344955
4.0,0.03553400933742523
5.0,0.03515465185046196
6.0,0.034789301455020905
7.0,0.034421611577272415
8.0,0.034078843891620636
9.0,0.03373965993523598
10.0,0.03338400274515152
11.0,0.03305669128894806
12.0,0.0327366441488266
13.0,0.03243624046444893
14.0,0.032135237008333206
15.0,0.03186386078596115
16.0,0.03159226477146149
18.0,0.031031427904963493
20.0,0.03043932281434536
22.0,0.029873767867684364
24.0,0.02935473434627056
26.0,0.02881697751581669
28.0,0.028297804296016693
30.0,0.027816014364361763
32.0,0.027357056736946106
36.0,0.02652573585510254
40.0,0.025776760652661324
44.0,0.02507735975086689
48.0,0.024395406246185303
52.0,0.023746293038129807
56.0,0.023132434114813805
60.0,0.022495675832033157
64.0,0.021873684599995613
72.0,0.02063690312206745
80.0,0.019246915355324745
88.0,0.017951074987649918
96.0,0.016976645216345787
104.0,0.016201144084334373
112.0,0.015716996043920517
120.0,0.015335887670516968
128.0,0.014950628392398357
144.0,0.014098769053816795
160.0,0.013561725616455078
176.0,0.013338438235223293
192.0,0.013029701076447964
208.0,0.012466234154999256
224.0,0.011766040697693825
240.0,0.01135957706719637
256.0,0.011203000321984291
288.0,0.00989485066384077
320.0,0.007313826587051153
352.0,0.005083972588181496
384.0,0.0037127030082046986
416.0,0.0035307921934872866
448.0,0.004107236862182617
480.0,0.004136150237172842
512.0,0.0037677050568163395
576.0,0.0028446263168007135
640.0,0.002500584814697504
704.0,0.0031795466784387827
768.0,0.003063721116632223
832.0,0.0026231976225972176
896.0,0.00507422536611557
960.0,0.007787078153342009
1024.0,0.009418041445314884
1152.0,0.010820734314620495
1280.0,0.009136210195720196
1408.0,0.0040447767823934555
1536.0,0.00011943507706746459
1664.0,-0.003433924401178956
1792.0,-0.004770883824676275
1920.0,-0.0042639789171516895
2048.0,-0.0024753152392804623
2304.0,0.0007070295978337526
2560.0,-0.00243339198641479
2816.0,-0.0046347868628799915
3072.0,-0.003624651115387678
3328.0,0.0007639438845217228
3584.0,0.0006443392485380173
3840.0,-0.0025656558573246002
4096.0,-0.0036772447638213634
4608.0,-0.0017965991282835603
5120.0,-0.0037020083982497454
5632.0,-0.004508877173066139
6144.0,-0.0030411258339881897
6656.0,-0.0029162359423935413
7168.0,-0.004244054201990366
7680.0,-0.0020323414355516434
8192.0,-0.011456403881311417
end
