version,3.0
numOfCh,1
type,point
parent_name,ff67b_0dot1-1dot0
ch_type,1_1
kcount,1
numberNandB,1
brightnessNandB,1
carpet pos,0
pc,0
Time (ms),CH1 Auto-Correlation
1.0,0.0490395613014698
2.0,0.04861089959740639
3.0,0.04822081699967384
4.0,0.047852568328380585
5.0,0.047506917268037796
6.0,0.04718192294239998
7.0,0.04686468094587326
8.0,0.04654674977064133
9.0,0.046236082911491394
10.0,0.04594798386096954
11.0,0.045662954449653625
12.0,0.04538634046912193
13.0,0.045088447630405426
14.0,0.04480710253119469
15.0,0.044525086879730225
16.0,0.044248972088098526
18.0,0.04372422397136688
20.0,0.04323301464319229
22.0,0.042768970131874084
24.0,0.042318906635046005
26.0,0.04187498614192009
28.0,0.04141625761985779
30.0,0.040955036878585815
32.0,0.04052753373980522
36.0,0.03974050283432007
40.0,0.03899078816175461
44.0,0.03825251758098602
48.0,0.037563860416412354
52.0,0.036869969218969345
56.0,0.03614719584584236
60.0,0.03542973846197128
64.0,0.03475144878029823
72.0,0.03356248512864113
80.0,0.032508689910173416
88.0,0.031563226133584976
96.0,0.03065318614244461
104.0,0.029902616515755653
112.0,0.02926873415708542
120.0,0.02867811545729637
128.0,0.028055202215909958
144.0,0.026531904935836792
160.0,0.024960437789559364
176.0,0.023573851212859154
192.0,0.022411370649933815
208.0,0.02147963084280491
224.0,0.020750943571329117
240.0,0.020214254036545753
256.0,0.01981399394571781
288.0,0.018598221242427826
320.0,0.017486533150076866
352.0,0.016702666878700256
384.0,0.01571332849562168
416.0,0.014290102757513523
448.0,0.013201314955949783
480.0,0.012441564351320267
512.0,0.011661090888082981
576.0,0.00883309543132782
640.0,0.006598792038857937
704.0,0.005954585503786802
768.0,0.005556046962738037
832.0,0.005940040573477745
896.0,0.0051996661350131035
960.0,0.005549498833715916
1024.0,0.004327091388404369
1152.0,0.004081715364009142
1280.0,0.0072066569700837135
1408.0,0.005118384025990963
1536.0,0.0037586786784231663
1664.0,0.0029481714591383934
1792.0,0.004322482738643885
1920.0,0.006623728200793266
2048.0,0.007624540477991104
2304.0,0.0026937974616885185
2560.0,-0.00034636695636436343
2816.0,-0.0017478022491559386
3072.0,-0.007433030288666487
3328.0,-0.0030884742736816406
3584.0,0.0012886662734672427
3840.0,-0.002516808919608593
4096.0,-0.007615079637616873
4608.0,-0.011302837170660496
5120.0,-0.005782053340226412
5632.0,-0.0023697398137301207
6144.0,-0.0043331170454621315
6656.0,-0.0139540396630764
7168.0,-0.003320526797324419
7680.0,0.00636362424120307
8192.0,0.0018642089562490582
end
