version,3.0
numOfCh,1
type,point
parent_name,ff67b_0dot1-1dot0
ch_type,1_1
kcount,1
numberNandB,1
brightnessNandB,1
carpet pos,0
pc,0
Time (ms),CH1 Auto-Correlation
1.0,0.038269974291324615
2.0,0.03777030482888222
3.0,0.03733494132757187
4.0,0.03691018000245094
5.0,0.03649979084730148
6.0,0.036110978573560715
7.0,0.03573983535170555
8.0,0.03540859743952751
9.0,0.035077083855867386
10.0,0.034767717123031616
11.0,0.03444069251418114
12.0,0.03414434567093849
13.0,0.03383951634168625
14.0,0.033515945076942444
15.0,0.0332048200070858
16.0,0.03289300203323364
18.0,0.032255832105875015
20.0,0.03164229914546013
22.0,0.031048454344272614
24.0,0.030459672212600708
26.0,0.029866009950637817
28.0,0.029238702729344368
30.0,0.02862905152142048
32.0,0.028081800788640976
36.0,0.0270968209952116
40.0,0.02620813064277172
44.0,0.025364724919199944
48.0,0.024492915719747543
52.0,0.02363898791372776
56.0,0.02289532497525215
60.0,0.02215754985809326
64.0,0.02142159268260002
72.0,0.020090416073799133
80.0,0.018817467615008354
88.0,0.017712704837322235
96.0,0.01680949330329895
104.0,0.016092436388134956
112.0,0.015505291521549225
120.0,0.015005886554718018
128.0,0.014658085070550442
144.0,0.014309005811810493
160.0,0.014185648411512375
176.0,0.013789743185043335
192.0,0.013164184056222439
208.0,0.012655580416321754
224.0,0.012185335159301758
240.0,0.011366522870957851
256.0,0.010459563694894314
288.0,0.008193870075047016
320.0,0.007215761113911867
352.0,0.006095207296311855
384.0,0.005184608045965433
416.0,0.004295642022043467
448.0,0.0044142212718725204
480.0,0.004411781206727028
512.0,0.003389989724382758
576.0,0.0015552708646282554
640.0,0.001972437836229801
704.0,0.0029839484486728907
768.0,0.0024750428274273872
832.0,0.0018668185221031308
896.0,0.00200018472969532
960.0,0.001328896963968873
1024.0,0.00023898891231510788
1152.0,-0.0006976115982979536
1280.0,-0.0026240856386721134
1408.0,-0.0040123132057487965
1536.0,-0.0001158421509899199
1664.0,0.0007811025716364384
1792.0,0.0007019885815680027
1920.0,0.0004368801019154489
2048.0,-0.00021058885613456368
2304.0,0.00020957471861038357
2560.0,0.0013242881977930665
2816.0,0.006162358447909355
3072.0,0.008590378798544407
3328.0,0.007459578569978476
3584.0,0.004023677669465542
3840.0,0.005334438756108284
4096.0,0.0009523455519229174
4608.0,-0.0035139727406203747
5120.0,-0.00122930109500885
5632.0,-0.003750099800527096
6144.0,-0.0031838403083384037
6656.0,0.003956399857997894
7168.0,0.0010021826019510627
7680.0,-0.005521845072507858
8192.0,-0.007116525433957577
end
