version,3.0
numOfCh,1
type,point
parent_name,ff67b_0dot1-1dot0
ch_type,1_1
kcount,1
numberNandB,1
brightnessNandB,1
carpet pos,0
pc,0
Time (ms),CH1 Auto-Correlation
1.0,0.03713538497686386
2.0,0.036657169461250305
3.0,0.03623838722705841
4.0,0.03583342581987381
5.0,0.03544580563902855
6.0,0.03508402779698372
7.0,0.0347224660217762
8.0,0.03438268601894379
9.0,0.03404683992266655
10.0,0.03371448442339897
11.0,0.033386364579200745
12.0,0.03305752947926521
13.0,0.03272444009780884
14.0,0.03240816295146942
15.0,0.03210584446787834
16.0,0.03179967403411865
18.0,0.031196756288409233
20.0,0.03062296099960804
22.0,0.030091676861047745
24.0,0.0295623317360878
26.0,0.029033100232481956
28.0,0.02851085178554058
30.0,0.028004975989460945
32.0,0.027532439678907394
36.0,0.026658250018954277
40.0,0.025842128321528435
44.0,0.02503754012286663
48.0,0.024255631491541862
52.0,0.023524338379502296
56.0,0.022804182022809982
60.0,0.022093607112765312
64.0,0.021425528451800346
72.0,0.020293977111577988
80.0,0.01939420960843563
88.0,0.018630435690283775
96.0,0.01778954453766346
104.0,0.016945576295256615
112.0,0.016001388430595398
120.0,0.015225647948682308
128.0,0.014648773707449436
144.0,0.01400674320757389
160.0,0.01337688323110342
176.0,0.012584079056978226
192.0,0.011789167299866676
208.0,0.010929673910140991
224.0,0.010101890191435814
240.0,0.009506205096840858
256.0,0.008889209479093552
288.0,0.008025079034268856
320.0,0.0073373024351894855
352.0,0.007176355924457312
384.0,0.00578112481161952
416.0,0.0045760758221149445
448.0,0.004396420903503895
480.0,0.004771736450493336
512.0,0.005635392386466265
576.0,0.0066176773980259895
640.0,0.006230934988707304
704.0,0.00651044026017189
768.0,0.006146639119833708
832.0,0.0057031819596886635
896.0,0.004348499700427055
960.0,0.003928944934159517
1024.0,0.004202298354357481
1152.0,0.005080732516944408
1280.0,6.712975300615653e-05
1408.0,-0.0006039367872290313
1536.0,-0.0007317811832763255
1664.0,-0.00016884553770069033
1792.0,0.00025974519667215645
1920.0,-0.0011069773463532329
2048.0,0.00019030722614843398
2304.0,0.0004894657176919281
2560.0,-0.0005617301212623715
2816.0,0.0034295900259166956
3072.0,-0.0007885330123826861
3328.0,-0.004939350765198469
3584.0,-0.0005006439751014113
3840.0,-0.0018021634314209223
4096.0,-0.00478828139603138
4608.0,0.0007436657324433327
5120.0,-0.0009211046854034066
5632.0,-0.004308507312089205
6144.0,-0.008151001296937466
6656.0,-0.00664601381868124
7168.0,-0.00486074760556221
7680.0,-0.004043865948915482
8192.0,-0.002890852512791753
end
