version,3.0
numOfCh,1
type,point
parent_name,ff67b_0dot1-1dot0
ch_type,1_1
kcount,1
numberNandB,1
brightnessNandB,1
carpet pos,0
pc,0
Time (ms),CH1 Auto-Correlation
1.0,0.04002537950873375
2.0,0.039121538400650024
3.0,0.03823484480381012
4.0,0.03748272359371185
5.0,0.03697783499956131
6.0,0.03654472157359123
7.0,0.0361173041164875
8.0,0.03573300316929817
9.0,0.035404082387685776
10.0,0.03510245308279991
11.0,0.034814901649951935
12.0,0.034532055258750916
13.0,0.03424087539315224
14.0,0.03396147862076759
15.0,0.0337132066488266
16.0,0.033462319523096085
18.0,0.03291246294975281
20.0,0.03238730877637863
22.0,0.03189696744084358
24.0,0.03137324005365372
26.0,0.030852217227220535
28.0,0.03039390966296196
30.0,0.029925860464572906
32.0,0.02942676655948162
36.0,0.028558989986777306
40.0,0.02780172973871231
44.0,0.02696049027144909
48.0,0.026184409856796265
52.0,0.025494201108813286
56.0,0.024767141789197922
60.0,0.02411799505352974
64.0,0.02353665791451931
72.0,0.02238503284752369
80.0,0.021375376731157303
88.0,0.020383143797516823
96.0,0.019382651895284653
104.0,0.018484700471162796
112.0,0.01758396252989769
120.0,0.016653910279273987
128.0,0.01589685119688511
144.0,0.014804535545408726
160.0,0.013952347449958324
176.0,0.013350524008274078
192.0,0.012747653760015965
208.0,0.012385880574584007
224.0,0.012460651807487011
240.0,0.012736625038087368
256.0,0.012882356531918049
288.0,0.011910420842468739
320.0,0.010972284711897373
352.0,0.009988479316234589
384.0,0.008384757675230503
416.0,0.006935840006917715
448.0,0.0064412751235067844
480.0,0.005984981078654528
512.0,0.00615346385166049
576.0,0.006194881163537502
640.0,0.0053321002051234245
704.0,0.00461895577609539
768.0,0.0037112105637788773
832.0,0.0021026190370321274
896.0,-0.0006303470581769943
960.0,-0.0020907798316329718
1024.0,-0.0014873804757371545
1152.0,-0.0023408280685544014
1280.0,-0.003514142008498311
1408.0,-0.0023640200961381197
1536.0,-0.0025655655190348625
1664.0,-0.0031574571039527655
1792.0,-0.0009271132294088602
1920.0,0.00043196079786866903
2048.0,-0.0009730344172567129
2304.0,-0.005372195038944483
2560.0,-0.0026247447822242975
2816.0,-0.00025965363602153957
3072.0,-0.0005609028739854693
3328.0,0.005243603140115738
3584.0,0.002173971151933074
3840.0,0.0009384959121234715
4096.0,-0.0005829249857924879
4608.0,-0.0034364466555416584
5120.0,-0.009030911140143871
5632.0,-0.012144439853727818
6144.0,-0.004906049929559231
6656.0,0.000596461002714932
7168.0,0.0023265790659934282
7680.0,0.0028269717004150152
8192.0,0.005140374880284071
end
