version,3.0
numOfCh,1
type,point
parent_name,ff67b_0dot1-1dot0
ch_type,1_1
kcount,1
numberNandB,1
brightnessNandB,1
carpet pos,0
pc,0
Time (ms),CH1 Auto-Correlation
1.0,0.03775802254676819
2.0,0.037302166223526
3.0,0.036868978291749954
4.0,0.036466218531131744
5.0,0.03609323874115944
6.0,0.035734307020902634
7.0,0.03537584841251373
8.0,0.03502672165632248
9.0,0.03467220813035965
10.0,0.034316934645175934
11.0,0.03395583853125572
12.0,0.033600229769945145
13.0,0.03325612097978592
14.0,0.032897889614105225
15.0,0.03254655748605728
16.0,0.032208915799856186
18.0,0.03155401349067688
20.0,0.030911708250641823
22.0,0.030317291617393494
24.0,0.029715565964579582
26.0,0.029126495122909546
28.0,0.028584327548742294
30.0,0.02807551622390747
32.0,0.027569839730858803
36.0,0.026546020060777664
40.0,0.02551140822470188
44.0,0.024500947445631027
48.0,0.023525336757302284
52.0,0.022607039660215378
56.0,0.021792186424136162
60.0,0.021058719605207443
64.0,0.020382685586810112
72.0,0.01915372908115387
80.0,0.018062038347125053
88.0,0.017092738300561905
96.0,0.016267983242869377
104.0,0.015456564724445343
112.0,0.014573008753359318
120.0,0.013765131123363972
128.0,0.012966165319085121
144.0,0.011489112861454487
160.0,0.010162871330976486
176.0,0.009069091640412807
192.0,0.008687011897563934
208.0,0.008715500123798847
224.0,0.008815308101475239
240.0,0.009188416413962841
256.0,0.008940969593822956
288.0,0.007917150855064392
320.0,0.006538168527185917
352.0,0.00588015653192997
384.0,0.0054435040801763535
416.0,0.004924800246953964
448.0,0.005269194953143597
480.0,0.005751938559114933
512.0,0.005619271192699671
576.0,0.004800831433385611
640.0,0.0035015083849430084
704.0,0.003144296584650874
768.0,0.004268222022801638
832.0,0.0036702982615679502
896.0,0.0020698285661637783
960.0,0.0011189772048965096
1024.0,0.00041075373883359134
1152.0,-0.001911332830786705
1280.0,-0.0005727697862312198
1408.0,0.001917873159982264
1536.0,0.0019594079349189997
1664.0,0.004348971415311098
1792.0,0.004722938407212496
1920.0,0.0016069727716967463
2048.0,0.00032334119896404445
2304.0,-0.0017865601694211364
2560.0,-0.0022652545012533665
2816.0,-0.003939707297831774
3072.0,-0.0069040474481880665
3328.0,-0.0027431563939899206
3584.0,0.0008082421845756471
3840.0,-0.0010744029423221946
4096.0,-0.004832023289054632
4608.0,-0.002196795539930463
5120.0,-0.0017721069743856788
5632.0,-0.0021763169206678867
6144.0,-0.0022721015848219395
6656.0,-0.004722387995570898
7168.0,-0.00485041830688715
7680.0,-0.002179088070988655
8192.0,-0.0030406902078539133
end
