version,3.0
numOfCh,1
type,point
parent_name,ff67b_0dot1-1dot0
ch_type,1_1
kcount,1
numberNandB,1
brightnessNandB,1
carpet pos,0
pc,0
Time (ms),CH1 Auto-Correlation
1.0,0.05491533875465393
2.0,0.05413442477583885
3.0,0.05330372601747513
4.0,0.05255952477455139
5.0,0.05176267400383949
6.0,0.051041796803474426
7.0,0.05033140629529953
8.0,0.04954318329691887
9.0,0.04913323000073433
10.0,0.04870939627289772
11.0,0.0482843741774559
12.0,0.04786502569913864
13.0,0.04742271080613136
14.0,0.04703639820218086
15.0,0.04658918082714081
16.0,0.046162791550159454
18.0,0.045403823256492615
20.0,0.044734131544828415
22.0,0.04411447420716286
24.0,0.04341447725892067
26.0,0.04272153601050377
28.0,0.04204399511218071
30.0,0.04137922823429108
32.0,0.040855225175619125
36.0,0.03995247930288315
40.0,0.039116181433200836
44.0,0.03829203173518181
48.0,0.03760204464197159
52.0,0.03691497817635536
56.0,0.03611389175057411
60.0,0.03542381152510643
64.0,0.034650769084692
72.0,0.03301023319363594
80.0,0.031694184988737106
88.0,0.030140172690153122
96.0,0.028904568403959274
104.0,0.02779415249824524
112.0,0.026894908398389816
120.0,0.026139024645090103
128.0,0.025241659954190254
144.0,0.0232289656996727
160.0,0.021425748243927956
176.0,0.01985224150121212
192.0,0.018238436430692673
208.0,0.016901317983865738
224.0,0.015894336625933647
240.0,0.015473092906177044
256.0,0.015536732040345669
288.0,0.01633678562939167
320.0,0.01651003398001194
352.0,0.016889143735170364
384.0,0.016557322815060616
416.0,0.01657044142484665
448.0,0.015743965283036232
480.0,0.014180026017129421
512.0,0.012557117268443108
576.0,0.011032069101929665
640.0,0.009998655878007412
704.0,0.010121576488018036
768.0,0.00932336039841175
832.0,0.006380889564752579
896.0,0.0031087007373571396
960.0,0.0006035572150722146
1024.0,0.0010974842589348555
1152.0,0.003669765079393983
1280.0,0.006179029121994972
1408.0,0.004697965458035469
1536.0,0.0010867808014154434
1664.0,-0.0019760760478675365
1792.0,-0.0031325770542025566
1920.0,-0.0008451003232039511
2048.0,0.0014480171957984567
2304.0,0.002961515448987484
2560.0,0.004099313169717789
2816.0,0.00226994208060205
3072.0,-0.002404141006991267
3328.0,0.000915093463845551
3584.0,0.0016885735094547272
3840.0,0.004672839306294918
4096.0,0.0014135603560134768
4608.0,-0.00436391169205308
5120.0,-0.00631004897877574
5632.0,-0.0008043270208872855
6144.0,0.0016102567315101624
6656.0,-0.008349929004907608
7168.0,-0.011474494822323322
7680.0,-0.008455660194158554
8192.0,-0.005194737575948238
end
