version,3.0
numOfCh,1
type,point
parent_name,ff67b_0dot1-1dot0
ch_type,1_1
kcount,1
numberNandB,1
brightnessNandB,1
carpet pos,0
pc,0
Time (ms),CH1 Auto-Correlation
1.0,0.04518605396151543
2.0,0.044710442423820496
3.0,0.044258080422878265
4.0,0.04383542761206627
5.0,0.043446313589811325
6.0,0.043073516339063644
7.0,0.04272998869419098
8.0,0.042372360825538635
9.0,0.04203300550580025
10.0,0.041688788682222366
11.0,0.0413634367287159
12.0,0.04105240851640701
13.0,0.04075713828206062
14.0,0.040459953248500824
15.0,0.04013815149664879
16.0,0.039839331060647964
18.0,0.039235103875398636
20.0,0.038659825921058655
22.0,0.0380883663892746
24.0,0.037563126534223557
26.0,0.03707281872630119
28.0,0.0365450456738472
30.0,0.03603862226009369
32.0,0.03557365760207176
36.0,0.03469650819897652
40.0,0.03376855328679085
44.0,0.03287901356816292
48.0,0.031995244324207306
52.0,0.031130312010645866
56.0,0.030242115259170532
60.0,0.02939312718808651
64.0,0.028620492666959763
72.0,0.02730400860309601
80.0,0.026159273460507393
88.0,0.0251370407640934
96.0,0.02401801571249962
104.0,0.02285180799663067
112.0,0.021742334589362144
120.0,0.020727770403027534
128.0,0.01976729743182659
144.0,0.017818840220570564
160.0,0.01593383215367794
176.0,0.014161949045956135
192.0,0.012653552927076817
208.0,0.011503360234200954
224.0,0.010552680119872093
240.0,0.009768422693014145
256.0,0.009086092002689838
288.0,0.007906782440841198
320.0,0.006693096365779638
352.0,0.006199067924171686
384.0,0.006026814691722393
416.0,0.0061463466845452785
448.0,0.005378327798098326
480.0,0.004368436988443136
512.0,0.004032631404697895
576.0,0.002352354349568486
640.0,0.002445012331008911
704.0,0.0024479380808770657
768.0,0.0027239685878157616
832.0,0.0018801189726218581
896.0,0.0009853420779109001
960.0,0.0024086590856313705
1024.0,0.0033078028354793787
1152.0,0.004755883943289518
1280.0,0.002530809957534075
1408.0,0.0019005308859050274
1536.0,0.002855172147974372
1664.0,0.00024839697289280593
1792.0,-0.0006310401950031519
1920.0,-4.523094048636267e-06
2048.0,-0.0043332925997674465
2304.0,-0.008662623353302479
2560.0,-0.004694490693509579
2816.0,-0.0023136609233915806
3072.0,-0.003147922456264496
3328.0,-0.0016608962323516607
3584.0,-0.00514238653704524
3840.0,-0.005343602504581213
4096.0,-0.003813662566244602
4608.0,-0.0026328698731958866
5120.0,0.002234699670225382
5632.0,-0.007598693948239088
6144.0,0.0009744263370521367
6656.0,0.0035743305925279856
7168.0,0.0009190030978061259
7680.0,0.007499778643250465
8192.0,0.004335418809205294
end
