version,3.0
numOfCh,1
type,point
parent_name,ff67b_0dot1-1dot0
ch_type,1_1
kcount,1
numberNandB,1
brightnessNandB,1
carpet pos,0
pc,0
Time (ms),CH1 Auto-Correlation
1.0,0.03441793844103813
2.0,0.03386557474732399
3.0,0.03336509317159653
4.0,0.03289523720741272
5.0,0.0324578694999218
6.0,0.03205748647451401
7.0,0.03166047856211662
8.0,0.03125195950269699
9.0,0.030831390991806984
10.0,0.03044951893389225
11.0,0.030066676437854767
12.0,0.029671499505639076
13.0,0.029316050931811333
14.0,0.028960958123207092
15.0,0.02860027551651001
16.0,0.02826639637351036
18.0,0.027619535103440285
20.0,0.026992997154593468
22.0,0.026367004960775375
24.0,0.0257789995521307
26.0,0.0252267736941576
28.0,0.02472112327814102
30.0,0.024201668798923492
32.0,0.02370319329202175
36.0,0.02278287149965763
40.0,0.02182270772755146
44.0,0.020925965160131454
48.0,0.020121069625020027
52.0,0.019360991194844246
56.0,0.018717870116233826
60.0,0.018113112077116966
64.0,0.01751803793013096
72.0,0.016539594158530235
80.0,0.01579081080853939
88.0,0.015040176920592785
96.0,0.0142059950158
104.0,0.013481172733008862
112.0,0.012804216705262661
120.0,0.012223714962601662
128.0,0.01171026285737753
144.0,0.01063777506351471
160.0,0.009901704266667366
176.0,0.009506390430033207
192.0,0.009126374498009682
208.0,0.009101131930947304
224.0,0.009178846143186092
240.0,0.009219760075211525
256.0,0.009283168241381645
288.0,0.009676619432866573
320.0,0.008983000181615353
352.0,0.007900955155491829
384.0,0.0067697614431381226
416.0,0.005506313871592283
448.0,0.0050243497826159
480.0,0.004960227757692337
512.0,0.004801539704203606
576.0,0.0038124327547848225
640.0,0.0029819896444678307
704.0,0.0023787471000105143
768.0,0.0024738223291933537
832.0,0.0012864703312516212
896.0,0.00041702724411152303
960.0,0.0004738623392768204
1024.0,0.0001677323889452964
1152.0,-0.001472631236538291
1280.0,-0.001472475123591721
1408.0,-0.0019825687631964684
1536.0,-0.001182776060886681
1664.0,-0.0011866752756759524
1792.0,-0.0019474697764962912
1920.0,-0.0017040156526491046
2048.0,-0.0005597015842795372
2304.0,-0.0002821182133629918
2560.0,-0.0034213357139378786
2816.0,-0.003937236499041319
3072.0,0.00014082647976465523
3328.0,-0.00251407315954566
3584.0,-0.00417289650067687
3840.0,-0.0004694394301623106
4096.0,0.0004669138870667666
4608.0,0.0016644519055262208
5120.0,0.0017357615288347006
5632.0,0.003376399865373969
6144.0,0.004328377544879913
6656.0,-0.0018679166678339243
7168.0,-0.005288238171488047
7680.0,-0.00460234098136425
8192.0,-0.001493575400672853
end
