version,3.0
numOfCh,1
type,point
parent_name,ff67b_0dot1-1dot0
ch_type,1_1
kcount,1
numberNandB,1
brightnessNandB,1
carpet pos,0
pc,0
Time (ms),CH1 Auto-Correlation
1.0,0.04066964611411095
2.0,0.04018354043364525
3.0,0.03975134715437889
4.0,0.03933820500969887
5.0,0.03895292431116104
6.0,0.03857006877660751
7.0,0.03818991407752037
8.0,0.03780244290828705
9.0,0.03742940351366997
10.0,0.03705361858010292
11.0,0.03669548034667969
12.0,0.03635060787200928
13.0,0.036016687750816345
14.0,0.03569315746426582
15.0,0.0353800393640995
16.0,0.03506218269467354
18.0,0.034460801631212234
20.0,0.033890508115291595
22.0,0.03331444784998894
24.0,0.0327354334294796
26.0,0.03217943012714386
28.0,0.03162771090865135
30.0,0.03111162781715393
32.0,0.03062974289059639
36.0,0.029693612828850746
40.0,0.028787072747945786
44.0,0.027950184419751167
48.0,0.027148868888616562
52.0,0.026364723220467567
56.0,0.0256047286093235
60.0,0.024921899661421776
64.0,0.024306420236825943
72.0,0.02321956679224968
80.0,0.022114034742116928
88.0,0.020972726866602898
96.0,0.019845586270093918
104.0,0.01878100261092186
112.0,0.017678551375865936
120.0,0.01663310080766678
128.0,0.015659239143133163
144.0,0.014158857986330986
160.0,0.013138567097485065
176.0,0.01239148061722517
192.0,0.011316316202282906
208.0,0.010524990037083626
224.0,0.009707852266728878
240.0,0.009179464541375637
256.0,0.008817927911877632
288.0,0.008300062268972397
320.0,0.00830323901027441
352.0,0.008203115314245224
384.0,0.007769414689391851
416.0,0.006964458152651787
448.0,0.006167480256408453
480.0,0.005356785375624895
512.0,0.005285338964313269
576.0,0.005737454164773226
640.0,0.004337913356721401
704.0,0.0024496526457369328
768.0,0.002476249821484089
832.0,0.0036441280972212553
896.0,0.005242173559963703
960.0,0.005578729789704084
1024.0,0.0036040840204805136
1152.0,-0.0017989909974858165
1280.0,-0.004092344548553228
1408.0,-0.0018106927163898945
1536.0,-0.00203230744227767
1664.0,-0.003868749598041177
1792.0,-0.0017373159062117338
1920.0,0.002263539470732212
2048.0,0.0015680462820455432
2304.0,0.0018606252269819379
2560.0,0.0016049613477662206
2816.0,-0.00162189407274127
3072.0,-0.000950273999478668
3328.0,-0.0029849151615053415
3584.0,-0.0026803421787917614
3840.0,-0.0008832396124489605
4096.0,0.0023841820657253265
4608.0,0.0023554281797260046
5120.0,-0.0069445399567484856
5632.0,-0.0076091596856713295
6144.0,-0.008390559814870358
6656.0,0.0015359504614025354
7168.0,0.0004649627662729472
7680.0,-0.004024073481559753
8192.0,-0.005088871344923973
end
