version,3.0
numOfCh,1
type,point
parent_name,ff67b_0dot1-1dot0
ch_type,1_1
kcount,1
numberNandB,1
brightnessNandB,1
carpet pos,0
pc,0
Time (ms),CH1 Auto-Correlation
1.0,0.04043177515268326
2.0,0.0391746386885643
3.0,0.038620371371507645
4.0,0.037706512957811356
5.0,0.03721464425325394
6.0,0.036845073103904724
7.0,0.03636902570724487
8.0,0.036014772951602936
9.0,0.035654548555612564
10.0,0.035322368144989014
11.0,0.03501357138156891
12.0,0.034700389951467514
13.0,0.034408532083034515
14.0,0.034125249832868576
15.0,0.033850692212581635
16.0,0.03360436484217644
18.0,0.033078014850616455
20.0,0.0324937142431736
22.0,0.03197009116411209
24.0,0.03144660219550133
26.0,0.030953338369727135
28.0,0.03042333759367466
30.0,0.029932847246527672
32.0,0.029494483023881912
36.0,0.028596892952919006
40.0,0.027701763436198235
44.0,0.02685358375310898
48.0,0.026102149859070778
52.0,0.02537050098180771
56.0,0.02468695119023323
60.0,0.024098971858620644
64.0,0.02354462817311287
72.0,0.02213728427886963
80.0,0.02075423300266266
88.0,0.019382698461413383
96.0,0.018098635599017143
104.0,0.01687588542699814
112.0,0.015987642109394073
120.0,0.015307142399251461
128.0,0.014748158864676952
144.0,0.013603788800537586
160.0,0.012385169975459576
176.0,0.011486937291920185
192.0,0.0104580819606781
208.0,0.009633836336433887
224.0,0.008810519240796566
240.0,0.007736205123364925
256.0,0.006800496950745583
288.0,0.005728747695684433
320.0,0.005227825604379177
352.0,0.005157487001270056
384.0,0.005058307200670242
416.0,0.005793487653136253
448.0,0.005328273866325617
480.0,0.004410053137689829
512.0,0.003890382358804345
576.0,0.003123706905171275
640.0,0.0012571864062920213
704.0,-0.0012265851255506277
768.0,-0.0033092366065829992
832.0,-0.004707448184490204
896.0,-0.004516520071774721
960.0,-0.004261304624378681
1024.0,-0.0034230276942253113
1152.0,-0.0010619621025398374
1280.0,-0.000604835688136518
1408.0,-0.0017239379230886698
1536.0,-0.00041780318133533
1664.0,0.002783004892989993
1792.0,0.004564734175801277
1920.0,0.0019758751150220633
2048.0,0.0018737080972641706
2304.0,0.002040139865130186
2560.0,-0.0005692249978892505
2816.0,-0.0020067233126610518
3072.0,-0.0035530668683350086
3328.0,-0.004339877516031265
3584.0,-0.0005210002418607473
3840.0,-0.0011834389297291636
4096.0,-0.003351395484060049
4608.0,-0.006329726427793503
5120.0,-0.00406235596165061
5632.0,-0.0013180397218093276
6144.0,0.0005852004396729171
6656.0,-0.0011567038018256426
7168.0,-0.003254328155890107
7680.0,0.0025927829556167126
8192.0,0.003617387730628252
end
