version,3.0
numOfCh,1
type,point
parent_name,ff67b_0dot1-1dot0
ch_type,1_1
kcount,1
numberNandB,1
brightnessNandB,1
carpet pos,0
pc,0
Time (ms),CH1 Auto-Correlation
1.0,0.03790311887860298
2.0,0.037499554455280304
3.0,0.037118200212717056
4.0,0.03673797473311424
5.0,0.03637739270925522
6.0,0.03603130951523781
7.0,0.035699065774679184
8.0,0.03536229580640793
9.0,0.03503512591123581
10.0,0.03471342846751213
11.0,0.03439892828464508
12.0,0.03408745676279068
13.0,0.033778365701436996
14.0,0.033473800867795944
15.0,0.03317668288946152
16.0,0.03288508579134941
18.0,0.03233624994754791
20.0,0.03179962933063507
22.0,0.03126998618245125
24.0,0.03074903041124344
26.0,0.03027213178575039
28.0,0.029803600162267685
30.0,0.029347026720643044
32.0,0.028919583186507225
36.0,0.028077082708477974
40.0,0.027266034856438637
44.0,0.026450183242559433
48.0,0.02567226253449917
52.0,0.024965763092041016
56.0,0.024309469386935234
60.0,0.023758552968502045
64.0,0.02325444296002388
72.0,0.022279368713498116
80.0,0.021251369267702103
88.0,0.020235605537891388
96.0,0.019427824765443802
104.0,0.0187666155397892
112.0,0.018260428681969643
120.0,0.017706487327814102
128.0,0.017095617949962616
144.0,0.01576261967420578
160.0,0.014406457543373108
176.0,0.013573315925896168
192.0,0.01280955784022808
208.0,0.011725247837603092
224.0,0.010566288605332375
240.0,0.009405410848557949
256.0,0.008634209632873535
288.0,0.00798214040696621
320.0,0.007842275314033031
352.0,0.00758235203102231
384.0,0.007479640189558268
416.0,0.007713936734944582
448.0,0.007360243704169989
480.0,0.006556983571499586
512.0,0.005793323274701834
576.0,0.005325540900230408
640.0,0.005315255839377642
704.0,0.004486925434321165
768.0,0.00284816836938262
832.0,0.001802612328901887
896.0,0.0004224092699587345
960.0,-0.0018362622940912843
1024.0,4.165318387094885e-05
1152.0,-8.354448800673708e-05
1280.0,-0.0014531781198456883
1408.0,-0.0033483048900961876
1536.0,-0.005020586308091879
1664.0,-0.004840485285967588
1792.0,-0.003255565883591771
1920.0,-0.0029020006768405437
2048.0,-0.005079990718513727
2304.0,-0.0018110205419361591
2560.0,-0.0027118136640638113
2816.0,-0.004262481350451708
3072.0,-0.0026959769893437624
3328.0,-0.0033698463812470436
3584.0,-0.00330980122089386
3840.0,0.0015310251619666815
4096.0,-0.0023218945134431124
4608.0,-0.0015248461859300733
5120.0,-0.005645097699016333
5632.0,-0.0024673643056303263
6144.0,0.0029922244139015675
6656.0,0.0060423980467021465
7168.0,0.008022880181670189
7680.0,0.002930370857939124
8192.0,-0.003938313573598862
end
