version,3.0
numOfCh,1
type,point
parent_name,ff67b_0dot1-1dot0
ch_type,1_1
kcount,1
numberNandB,1
brightnessNandB,1
carpet pos,0
pc,0
Time (ms),CH1 Auto-Correlation
1.0,0.04872960224747658
2.0,0.04828975349664688
3.0,0.04787227138876915
4.0,0.04746494069695473
5.0,0.04707304760813713
6.0,0.04668423905968666
7.0,0.046309858560562134
8.0,0.045950062572956085
9.0,0.04561200737953186
10.0,0.045273393392562866
11.0,0.04493466764688492
12.0,0.04458966851234436
13.0,0.04423891380429268
14.0,0.04389882832765579
15.0,0.04355253279209137
16.0,0.043206680566072464
18.0,0.04257090389728546
20.0,0.041967298835515976
22.0,0.04138677939772606
24.0,0.040791187435388565
26.0,0.04022112861275673
28.0,0.03970722109079361
30.0,0.0392250157892704
32.0,0.0387614406645298
36.0,0.03789038211107254
40.0,0.03709828108549118
44.0,0.03639765456318855
48.0,0.035707443952560425
52.0,0.03504502773284912
56.0,0.034458138048648834
60.0,0.033885546028614044
64.0,0.03337150439620018
72.0,0.03255746141076088
80.0,0.03174421191215515
88.0,0.030864298343658447
96.0,0.030117234215140343
104.0,0.0293610617518425
112.0,0.028533853590488434
120.0,0.027647022157907486
128.0,0.026795219630002975
144.0,0.025583775714039803
160.0,0.0246201753616333
176.0,0.023968877270817757
192.0,0.023307399824261665
208.0,0.022259658202528954
224.0,0.02104800008237362
240.0,0.020067350938916206
256.0,0.019200561568140984
288.0,0.018068982288241386
320.0,0.016458414494991302
352.0,0.01526479609310627
384.0,0.014465904794633389
416.0,0.013470405712723732
448.0,0.012363691814243793
480.0,0.011051595211029053
512.0,0.010463261976838112
576.0,0.007582554593682289
640.0,0.007255871314555407
704.0,0.006254937965422869
768.0,0.004579680040478706
832.0,0.0024042590521275997
896.0,-0.0003381154383532703
960.0,-0.00044426374370232224
1024.0,-0.0011424741242080927
1152.0,-0.0020180651918053627
1280.0,-0.0010275087552145123
1408.0,1.0127751011168584e-05
1536.0,-0.0015811780467629433
1664.0,-0.004016340710222721
1792.0,-0.006521944422274828
1920.0,-0.004264237824827433
2048.0,0.0007978297653608024
2304.0,0.00032810252741910517
2560.0,-0.0027230277191847563
2816.0,-0.0030213017016649246
3072.0,-0.00468143867328763
3328.0,-0.007502765394747257
3584.0,-0.006464636884629726
3840.0,-0.008510405197739601
4096.0,-0.010083531960844994
4608.0,-0.006821847520768642
5120.0,-0.005823924671858549
5632.0,-0.001953922677785158
6144.0,0.009221287444233894
6656.0,0.015951305627822876
7168.0,0.016186581924557686
7680.0,0.0037641695234924555
8192.0,-0.0008006883435882628
end
