version,3.0
numOfCh,1
type,point
parent_name,ff67b_0dot1-1dot0
ch_type,1_1
kcount,1
numberNandB,1
brightnessNandB,1
carpet pos,0
pc,0
Time (ms),CH1 Auto-Correlation
1.0,0.03829590976238251
2.0,0.03782567009329796
3.0,0.03737916424870491
4.0,0.0369594544172287
5.0,0.03655277565121651
6.0,0.03615063428878784
7.0,0.03575059771537781
8.0,0.03536646440625191
9.0,0.03498917445540428
10.0,0.03462912142276764
11.0,0.03427320718765259
12.0,0.03393308073282242
13.0,0.03359333425760269
14.0,0.03325147554278374
15.0,0.03292889520525932
16.0,0.032603442668914795
18.0,0.03196464851498604
20.0,0.031384922564029694
22.0,0.030810074880719185
24.0,0.030266599729657173
26.0,0.029783394187688828
28.0,0.02934684418141842
30.0,0.02891879715025425
32.0,0.028486652299761772
36.0,0.02758372575044632
40.0,0.026723066344857216
44.0,0.025915147736668587
48.0,0.025157783180475235
52.0,0.024466505274176598
56.0,0.02381795272231102
60.0,0.023228192701935768
64.0,0.02268928475677967
72.0,0.021417472511529922
80.0,0.02003747597336769
88.0,0.018922895193099976
96.0,0.01802019402384758
104.0,0.0170206930488348
112.0,0.016043545678257942
120.0,0.015208967961370945
128.0,0.01430800836533308
144.0,0.012341746129095554
160.0,0.010782691650092602
176.0,0.010069978423416615
192.0,0.00953988078981638
208.0,0.008971206843852997
224.0,0.00834251381456852
240.0,0.007401661481708288
256.0,0.006422428414225578
288.0,0.005476685706526041
320.0,0.005406571086496115
352.0,0.004815864842385054
384.0,0.004681147634983063
416.0,0.005415548104792833
448.0,0.005586502607911825
480.0,0.004266814794391394
512.0,0.002009088173508644
576.0,-0.0006031706579960883
640.0,-0.0009559980826452374
704.0,0.0003788234025705606
768.0,0.002369899768382311
832.0,0.003728231880813837
896.0,0.0038547292351722717
960.0,0.002504594624042511
1024.0,0.002532151760533452
1152.0,0.002948472276329994
1280.0,0.0015300946542993188
1408.0,-0.0012751107569783926
1536.0,-0.002649544971063733
1664.0,-0.0003192788572050631
1792.0,0.0017328026005998254
1920.0,0.002335498807951808
2048.0,0.0021259705536067486
2304.0,-4.1336887079523876e-05
2560.0,-0.0026770886033773422
2816.0,-3.7678814805985894e-06
3072.0,-0.000856735568959266
3328.0,-0.0013641893165186048
3584.0,0.005019147414714098
3840.0,0.007081138901412487
4096.0,0.005354038439691067
4608.0,-0.002300034975633025
5120.0,-0.0008560934802517295
5632.0,-0.0024202519562095404
6144.0,-0.00865169893950224
6656.0,-0.008040514774620533
7168.0,-0.005496255122125149
7680.0,0.0003633427550084889
8192.0,1.8231123249279335e-05
end
