version,3.0
numOfCh,1
type,point
parent_name,ff67b_0dot1-1dot0
ch_type,1_1
kcount,1
numberNandB,1
brightnessNandB,1
carpet pos,0
pc,0
Time (ms),CH1 Auto-Correlation
1.0,0.05423251911997795
2.0,0.053722117096185684
3.0,0.05326659232378006
4.0,0.05283155292272568
5.0,0.052405260503292084
6.0,0.05200878903269768
7.0,0.05163218453526497
8.0,0.05126199126243591
9.0,0.05089357867836952
10.0,0.05051834508776665
11.0,0.05015302821993828
12.0,0.04980061203241348
13.0,0.0494573712348938
14.0,0.04911322519183159
15.0,0.0487654022872448
16.0,0.048417676240205765
18.0,0.04773951321840286
20.0,0.04708554595708847
22.0,0.04646497219800949
24.0,0.0458780936896801
26.0,0.04528968408703804
28.0,0.04473108425736427
30.0,0.04422537609934807
32.0,0.043753985315561295
36.0,0.042780257761478424
40.0,0.041811347007751465
44.0,0.040976110845804214
48.0,0.04015934839844704
52.0,0.03938809782266617
56.0,0.03870866075158119
60.0,0.03817160800099373
64.0,0.037748783826828
72.0,0.03696014732122421
80.0,0.03615140914916992
88.0,0.035193540155887604
96.0,0.03431078791618347
104.0,0.033504221588373184
112.0,0.03260129690170288
120.0,0.031563371419906616
128.0,0.030558262020349503
144.0,0.028880557045340538
160.0,0.0276801697909832
176.0,0.026615114882588387
192.0,0.02543235756456852
208.0,0.024352790787816048
224.0,0.02291249856352806
240.0,0.021298682317137718
256.0,0.020222460851073265
288.0,0.01873498223721981
320.0,0.016899537295103073
352.0,0.015091286040842533
384.0,0.013848554342985153
416.0,0.01183799933642149
448.0,0.010162262246012688
480.0,0.008909051306545734
512.0,0.007320260629057884
576.0,0.003949204459786415
640.0,0.002348514972254634
704.0,0.002014602767303586
768.0,0.0021652886644005775
832.0,0.003336483845487237
896.0,0.004669844638556242
960.0,0.005659584887325764
1024.0,0.008439337834715843
1152.0,0.0099665941670537
1280.0,0.010619132779538631
1408.0,0.008942603133618832
1536.0,0.005321977194398642
1664.0,0.003695852356031537
1792.0,0.004080901853740215
1920.0,0.0042371624149382114
2048.0,0.004369715228676796
2304.0,0.002354099415242672
2560.0,-0.004467805381864309
2816.0,-0.006622985936701298
3072.0,-0.0027688518166542053
3328.0,0.0012390586780384183
3584.0,0.0023071954492479563
3840.0,-0.00613760482519865
4096.0,-0.006214947439730167
4608.0,-0.0002740113122854382
5120.0,-0.0007013844442553818
5632.0,-0.00021475047105923295
6144.0,0.0012080541346222162
6656.0,-0.001944872783496976
7168.0,-0.013346722349524498
7680.0,-0.013838022947311401
8192.0,-0.011266830377280712
end
