version,3.0
numOfCh,1
type,point
parent_name,4-cuts
ch_type,1_1
kcount,1
numberNandB,1
brightnessNandB,1
carpet pos,0
pc,0
Time (ms),CH1 Auto-Correlation
1.0,0.015455126762390137
2.0,0.012588853016495705
3.0,0.010576063767075539
4.0,0.009033825248479843
5.0,0.007868691347539425
6.0,0.006992282811552286
7.0,0.006286130286753178
8.0,0.005870155058801174
9.0,0.005435487721115351
10.0,0.005130716599524021
11.0,0.004833443555980921
12.0,0.00452957209199667
13.0,0.004199076443910599
14.0,0.003882691729813814
15.0,0.0036818580701947212
16.0,0.003541452344506979
18.0,0.003097738139331341
20.0,0.0027899243868887424
22.0,0.0026455093175172806
24.0,0.0024490277282893658
26.0,0.0023341698106378317
28.0,0.0022191335447132587
30.0,0.002099666278809309
32.0,0.002146434271708131
36.0,0.001978121930733323
40.0,0.0017195799155160785
44.0,0.001249114517122507
48.0,0.0009696498163975775
52.0,0.001028873841278255
56.0,0.0010712220100685954
60.0,0.001049910788424313
64.0,0.0010216891532763839
72.0,0.0010883500799536705
80.0,0.0009435488609597087
88.0,0.0006884387694299221
96.0,0.0005911309854127467
104.0,0.0004335241683293134
112.0,0.00016250120825134218
120.0,7.864119106670842e-05
128.0,1.4060354260436725e-05
144.0,-0.00040738144889473915
160.0,-0.0002767298137769103
176.0,-0.00024222613137681037
192.0,-0.0003045602061320096
208.0,-0.0003974748542532325
224.0,-0.0005694600404240191
240.0,-0.0008644015761092305
256.0,-0.0004887611721642315
288.0,9.441413567401469e-05
320.0,-5.058456736151129e-05
352.0,0.0003814054070971906
384.0,0.0004283420566935092
416.0,0.0002232974802609533
448.0,0.000145623431308195
480.0,0.00038967322325333953
512.0,0.0001522055099485442
576.0,0.00031038656015880406
640.0,0.0001251642097486183
704.0,0.00013366175699047744
768.0,0.00039023891440592706
832.0,0.0003012746456079185
896.0,-0.0002229142264695838
960.0,-0.0004187773447483778
1024.0,-3.086202559643425e-05
1152.0,0.00032085768179968
1280.0,0.0005007028812542558
1408.0,0.000365138694178313
1536.0,-0.00010489161650184542
1664.0,-0.00031321626738645136
1792.0,0.00020783208310604095
1920.0,0.0005567040061578155
2048.0,-8.852300652506528e-07
2304.0,0.00032985288999043405
2560.0,0.00046011150698177516
2816.0,-0.00041253858944401145
3072.0,-9.035748371388763e-05
3328.0,-7.060412463033572e-05
3584.0,-0.0001448232651455328
3840.0,-0.00012480784789659083
4096.0,-0.0002802499511744827
4608.0,-8.695733413333073e-06
5120.0,-0.0001811464171623811
5632.0,-0.0002888381714001298
6144.0,-0.00036181777250021696
6656.0,-0.0003626243269536644
7168.0,1.888708175101783e-05
7680.0,-0.00011300417099846527
8192.0,-0.00024472977383993566
9216.0,3.406226824154146e-05
10240.0,-1.62950291269226e-05
11264.0,0.00017037389625329524
12288.0,0.00015032033843453974
13312.0,0.00015180630725808442
14336.0,7.095899491105229e-05
end
