version,3.0
numOfCh,1
type,point
parent_name,4-cuts
ch_type,1_1
kcount,1
numberNandB,1
brightnessNandB,1
carpet pos,0
pc,0
Time (ms),CH1 Auto-Correlation
1.0,0.015624027699232101
2.0,0.012596787884831429
3.0,0.010410839691758156
4.0,0.008840924128890038
5.0,0.007644555997103453
6.0,0.006638931110501289
7.0,0.005921410396695137
8.0,0.00543492054566741
9.0,0.005037944298237562
10.0,0.004752108361572027
11.0,0.0044811493717134
12.0,0.004180530551820993
13.0,0.00382607220672071
14.0,0.0034538544714450836
15.0,0.003107150085270405
16.0,0.0027265676762908697
18.0,0.002222084440290928
20.0,0.0019374185940250754
22.0,0.0018288814462721348
24.0,0.0017558670369908214
26.0,0.001598098548129201
28.0,0.0016087155090644956
30.0,0.0015400559641420841
32.0,0.0013559882063418627
36.0,0.0012327422155067325
40.0,0.00105145329143852
44.0,0.0007101286901161075
48.0,0.0005732833524234593
52.0,0.0004615969373844564
56.0,0.0002592661767266691
60.0,0.0004118076176382601
64.0,0.00039859782555140555
72.0,0.0004925060202367604
80.0,0.0004328775976318866
88.0,0.0003889706276822835
96.0,0.0008444307604804635
104.0,0.0010536828776821494
112.0,0.0006745140417478979
120.0,3.7272337067406625e-05
128.0,0.00012357073137536645
144.0,0.00014248846855480224
160.0,-0.00013237506209407002
176.0,-0.00016815151320770383
192.0,0.00015541695756837726
208.0,-0.00034207385033369064
224.0,-0.00042879756074398756
240.0,-0.0001935592299560085
256.0,0.00010055944585474208
288.0,-0.00019328499911352992
320.0,-0.00021315203048288822
352.0,0.00021467091573867947
384.0,-0.000344297121046111
416.0,-6.074204975448083e-06
448.0,-0.00022381778398994356
480.0,-7.622396515216678e-05
512.0,-0.00031282752752304077
576.0,6.6937500378116965e-06
640.0,0.000360006932169199
704.0,0.0001433336001355201
768.0,0.00020701812172774225
832.0,0.0004528870922513306
896.0,-4.6781347919022664e-05
960.0,-0.00037465078639797866
1024.0,-0.00039124468457885087
1152.0,-0.0004952400922775269
1280.0,-0.00015041405276861042
1408.0,-0.00017184023454319686
1536.0,7.418249151669443e-05
1664.0,-0.00011743397044483572
1792.0,-0.00033955698017962277
1920.0,-3.820316487690434e-05
2048.0,0.00023124997096601874
2304.0,0.00019408953085076064
2560.0,-8.116853859974071e-05
2816.0,0.0003961611073464155
3072.0,0.0003397115506231785
3328.0,0.0001719922001939267
3584.0,0.00010021351772593334
3840.0,-0.00013593980111181736
4096.0,-0.000260978820733726
4608.0,-9.732086618896574e-05
5120.0,-0.00018201369675807655
5632.0,0.00024443332222290337
6144.0,0.00015737864305265248
6656.0,-6.041943925083615e-05
7168.0,-0.00028237493825145066
7680.0,-2.9376291422522627e-05
8192.0,-2.4991762984427623e-05
9216.0,-0.0001326264755334705
10240.0,-3.9182163163786754e-05
11264.0,-0.00010312329686712474
12288.0,-0.0001319402945227921
13312.0,0.00019438669551163912
14336.0,-0.00021850524353794754
end
