version,3.0
numOfCh,1
type,point
parent_name,4-cuts
ch_type,1_1
kcount,1
numberNandB,1
brightnessNandB,1
carpet pos,0
pc,0
Time (ms),CH1 Auto-Correlation
1.0,0.015612516552209854
2.0,0.012624742463231087
3.0,0.010526874102652073
4.0,0.008946679532527924
5.0,0.007697190623730421
6.0,0.00674004340544343
7.0,0.005964764393866062
8.0,0.0053796712309122086
9.0,0.0050355554558336735
10.0,0.004681119229644537
11.0,0.004333022050559521
12.0,0.004010613542050123
13.0,0.0037527172826230526
14.0,0.003498985432088375
15.0,0.0033279082272201777
16.0,0.0030577180441468954
18.0,0.0027575423009693623
20.0,0.0025066030211746693
22.0,0.0023782216012477875
24.0,0.0023570763878524303
26.0,0.002348472597077489
28.0,0.0022209661547094584
30.0,0.0020372355356812477
32.0,0.0019570363219827414
36.0,0.0016097824554890394
40.0,0.001547361258417368
44.0,0.0014142879517748952
48.0,0.0013544070534408092
52.0,0.0014096854720264673
56.0,0.0011913676280528307
60.0,0.0009912587702274323
64.0,0.0008372426382265985
72.0,0.0007545675616711378
80.0,0.000662546488456428
88.0,0.00025787236518226564
96.0,-0.0003023073077201843
104.0,-0.00029290589736774564
112.0,0.00010875942825805396
120.0,0.00023581490677315742
128.0,-6.895169644849375e-05
144.0,-0.0002075632510241121
160.0,0.00011775567691074684
176.0,-0.00017734483117237687
192.0,0.00016423572378698736
208.0,-9.877106640487909e-05
224.0,-0.0003160362539347261
240.0,-8.982680446933955e-05
256.0,5.9341491578379646e-05
288.0,-7.499389903387055e-05
320.0,-0.0002593668468762189
352.0,-0.000237979504163377
384.0,-0.0007434613653458655
416.0,-0.0006866194889880717
448.0,-0.00027164729544892907
480.0,-9.958820737665519e-05
512.0,0.0001745283807395026
576.0,0.00010885125811910257
640.0,0.0001538849901407957
704.0,0.000549964199308306
768.0,0.00036329220165498555
832.0,0.00016571309242863208
896.0,-0.00014281048788689077
960.0,-0.0006402822909876704
1024.0,-2.0775834855157882e-05
1152.0,-0.0003559338510967791
1280.0,2.420722557872068e-05
1408.0,0.00011819914652733132
1536.0,0.00016749078349675983
1664.0,-0.0003841236175503582
1792.0,0.00032898166682571173
1920.0,0.00034616925404407084
2048.0,0.00020140499691478908
2304.0,-0.00035697297425940633
2560.0,-6.591879355255514e-05
2816.0,-8.070362673606724e-05
3072.0,-0.0002535042294766754
3328.0,-0.00011209271906409413
3584.0,2.053936623269692e-05
3840.0,-9.178798791253939e-05
4096.0,-0.00015577573503833264
4608.0,-9.179746848531067e-05
5120.0,-5.469022289616987e-05
5632.0,4.545751289697364e-05
6144.0,-7.511071453336626e-05
6656.0,-1.3571196177508682e-05
7168.0,0.00010489933629287407
7680.0,0.00014864589320495725
8192.0,0.00023235095432028174
9216.0,-4.070697468705475e-05
10240.0,0.0002210782840847969
11264.0,-0.0003750087053049356
12288.0,2.514940752007533e-05
13312.0,-0.0004245316667947918
14336.0,0.00036369048757478595
end
