version,3.0
numOfCh,1
type,point
parent_name,4-cuts
ch_type,1_1
kcount,1
numberNandB,1
brightnessNandB,1
carpet pos,0
pc,0
Time (ms),CH1 Auto-Correlation
1.0,0.016576185822486877
2.0,0.01372294407337904
3.0,0.011606339365243912
4.0,0.009980426169931889
5.0,0.008780015632510185
6.0,0.007759243715554476
7.0,0.007098989095538855
8.0,0.006555916275829077
9.0,0.006101272534579039
10.0,0.005712813697755337
11.0,0.005219810176640749
12.0,0.004790264181792736
13.0,0.004440734628587961
14.0,0.0041158488020300865
15.0,0.0038726190105080605
16.0,0.0036678698379546404
18.0,0.0032458119094371796
20.0,0.0029828259721398354
22.0,0.0028021165635436773
24.0,0.002605066169053316
26.0,0.0024745920673012733
28.0,0.002181057818233967
30.0,0.0019021142506971955
32.0,0.0017867196584120393
36.0,0.0016636340878903866
40.0,0.0014710533432662487
44.0,0.0012278008507564664
48.0,0.0011656974675133824
52.0,0.0009854043601080775
56.0,0.0007237478857859969
60.0,0.000735358044039458
64.0,0.0009348058956675231
72.0,0.0007851589471101761
80.0,0.0009928409708663821
88.0,0.0007129806908778846
96.0,0.0006199997733347118
104.0,0.0003661768278107047
112.0,0.0004162731929682195
120.0,0.00042409379966557026
128.0,-2.1581816326943226e-05
144.0,7.088913844199851e-05
160.0,0.00040601444197818637
176.0,0.00028962825308553874
192.0,-0.000181105628143996
208.0,-0.0006243456737138331
224.0,-0.0002331584255443886
240.0,-0.00045873213093727827
256.0,-0.0003690921002998948
288.0,-0.0004432643763720989
320.0,-0.00021429946355056018
352.0,-8.658372098580003e-05
384.0,-0.0003090675745625049
416.0,-0.00047223494038917124
448.0,-1.6420985048171133e-05
480.0,-0.0003670051519293338
512.0,-0.0003549427492544055
576.0,-0.0007087172707542777
640.0,-0.00018982966139446944
704.0,-1.1782036381191574e-05
768.0,0.00020016265625599772
832.0,-0.0003159561601933092
896.0,-9.749544551596045e-05
960.0,0.00012179157056380063
1024.0,-0.000276893813861534
1152.0,0.0002008009614655748
1280.0,3.902892785845324e-06
1408.0,0.00046270113671198487
1536.0,0.00021399930119514465
1664.0,-0.00040070564136840403
1792.0,-7.63735588407144e-05
1920.0,-0.0001685823081061244
2048.0,6.545885844388977e-05
2304.0,9.645275713410228e-05
2560.0,0.0004540993249975145
2816.0,-8.778823030297644e-06
3072.0,-0.0004900191561318934
3328.0,-1.2110485840821639e-05
3584.0,-0.00013739443966187537
3840.0,1.821326350182062e-06
4096.0,-0.0001026586614898406
4608.0,-5.543238512473181e-05
5120.0,0.0002932401548605412
5632.0,-0.00010818342707352713
6144.0,-0.00018727767746895552
6656.0,0.00010869372636079788
7168.0,-1.3404463970800862e-05
7680.0,0.00010758184362202883
8192.0,-0.0002217061846749857
9216.0,-5.3775333071826026e-05
10240.0,-0.00014563709555659443
11264.0,-5.218389560468495e-05
12288.0,-3.908906364813447e-05
13312.0,-0.00029797916067764163
14336.0,0.00019592829630710185
end
