version,3.0
numOfCh,1
type,point
parent_name,4-cuts
ch_type,1_1
kcount,1
numberNandB,1
brightnessNandB,1
carpet pos,0
pc,0
Time (ms),CH1 Auto-Correlation
1.0,0.016765063628554344
2.0,0.013800093904137611
3.0,0.011688349768519402
4.0,0.010144108906388283
5.0,0.009027615189552307
6.0,0.008030420169234276
7.0,0.00721406377851963
8.0,0.006468011997640133
9.0,0.005897217430174351
10.0,0.005446937866508961
11.0,0.005016352515667677
12.0,0.004655044060200453
13.0,0.004321578424423933
14.0,0.004013360012322664
15.0,0.0038335539866238832
16.0,0.003670821897685528
18.0,0.0033983327448368073
20.0,0.00307684438303113
22.0,0.0028779292479157448
24.0,0.0026225524488836527
26.0,0.0025493439752608538
28.0,0.002509011421352625
30.0,0.0023491824977099895
32.0,0.002164035104215145
36.0,0.0017837138148024678
40.0,0.0013655009679496288
44.0,0.0013929373817518353
48.0,0.001418155967257917
52.0,0.0013227788731455803
56.0,0.0012151030823588371
60.0,0.0012181673664599657
64.0,0.0010427354136481881
72.0,0.0006407577893696725
80.0,0.0008367419359274209
88.0,0.0006563612259924412
96.0,0.0006774395587854087
104.0,0.0006673102616332471
112.0,0.00030589461675845087
120.0,0.00034365098690614104
128.0,0.00012090157542843372
144.0,-5.063688149675727e-05
160.0,1.272961185350141e-06
176.0,0.00026919334777630866
192.0,0.000515847175847739
208.0,0.0008292318671010435
224.0,0.0003180214262101799
240.0,1.314743440161692e-05
256.0,-0.00011627119965851307
288.0,2.7954780307481997e-05
320.0,-0.00013160657545085996
352.0,-0.0005490796756930649
384.0,-0.00013628497254103422
416.0,0.000323851709254086
448.0,0.00011476268991827965
480.0,-0.0003645464312285185
512.0,-0.0002892769989557564
576.0,-0.000402883073547855
640.0,-0.0003886035119649023
704.0,-0.0006885401671752334
768.0,-0.0006921891472302377
832.0,-0.0006338433013297617
896.0,-0.00019206445722375065
960.0,-0.00018652922881301492
1024.0,-0.0001894369925139472
1152.0,0.00012249418068677187
1280.0,-0.0003509296802803874
1408.0,-0.00016315834363922477
1536.0,0.00018852313223760575
1664.0,0.00015064804756548256
1792.0,0.0002919266698881984
1920.0,0.0003942304174415767
2048.0,-0.0001842226629378274
2304.0,-0.00013813668920192868
2560.0,-0.00016395986313000321
2816.0,-0.00012407940812408924
3072.0,0.0003353006613906473
3328.0,0.000120892385893967
3584.0,-0.0001476582110626623
3840.0,-1.523448372608982e-05
4096.0,0.0004316253762226552
4608.0,-0.00010323306923964992
5120.0,-0.00044570944737643003
5632.0,0.00029150693444535136
6144.0,0.0002075250813504681
6656.0,-0.00042186665814369917
7168.0,0.0004011062846984714
7680.0,0.0002594043326098472
8192.0,-0.0006471584783867002
9216.0,-9.923315701598767e-06
10240.0,-4.828003056900343e-06
11264.0,-6.842198490630835e-05
12288.0,-3.0576753488276154e-05
13312.0,-2.8014357667416334e-05
14336.0,-1.469006292609265e-05
end
