version,3.0
numOfCh,1
type,point
parent_name,4-cuts
ch_type,1_1
kcount,1
numberNandB,1
brightnessNandB,1
carpet pos,0
pc,0
Time (ms),CH1 Auto-Correlation
1.0,0.01714453287422657
2.0,0.0141468970105052
3.0,0.012097377330064774
4.0,0.010532193817198277
5.0,0.00943717360496521
6.0,0.008581028319895267
7.0,0.007860200479626656
8.0,0.007212722208350897
9.0,0.0065133236348629
10.0,0.006012595258653164
11.0,0.005691766273230314
12.0,0.005377986002713442
13.0,0.005142359994351864
14.0,0.004858788568526506
15.0,0.004551959224045277
16.0,0.004379128571599722
18.0,0.003939556889235973
20.0,0.0036036695819348097
22.0,0.0034105260856449604
24.0,0.0032545868307352066
26.0,0.00306721031665802
28.0,0.0026749444659799337
30.0,0.0022003885824233294
32.0,0.0019824637565761805
36.0,0.0017770788399502635
40.0,0.001826662803068757
44.0,0.001631097518838942
48.0,0.0014120889827609062
52.0,0.0011265355860814452
56.0,0.001230515306815505
60.0,0.0012024431489408016
64.0,0.0009731403551995754
72.0,0.001106813084334135
80.0,0.0008840066730044782
88.0,0.0008592902449890971
96.0,0.0008610730292275548
104.0,0.0005794399767182767
112.0,0.0008463529520668089
120.0,0.0007481130305677652
128.0,0.0005016467184759676
144.0,0.00013075036986265332
160.0,-0.0002170634106732905
176.0,0.00028884189669042826
192.0,0.0002079451223835349
208.0,-0.0001358127046842128
224.0,-0.0004647038003895432
240.0,-0.0006657296908088028
256.0,-0.0002553122176323086
288.0,-0.0006135074654594064
320.0,-0.0007678187103010714
352.0,-0.0009976201690733433
384.0,-0.00031082125497050583
416.0,0.00025604444090276957
448.0,-0.00014274368004407734
480.0,-0.00046773464418947697
512.0,0.00016826088540256023
576.0,8.602125308243558e-05
640.0,-0.0002568290219642222
704.0,0.00038986848085187376
768.0,0.00021200139599386603
832.0,0.00035302192554809153
896.0,-0.0002738725452218205
960.0,0.00018039099813904613
1024.0,-0.0005421519163064659
1152.0,-0.00012533988046925515
1280.0,0.000145307945786044
1408.0,0.00025692040799185634
1536.0,0.0005922176642343402
1664.0,0.0005173466051928699
1792.0,8.311494457302615e-05
1920.0,-0.0003979630710091442
2048.0,0.00016390779637731612
2304.0,0.0004099687503185123
2560.0,-0.0005604302859865129
2816.0,0.00016693324141670018
3072.0,-4.027333125122823e-05
3328.0,0.00029054615879431367
3584.0,0.00014584988821297884
3840.0,-0.00014195265248417854
4096.0,0.0001908564881887287
4608.0,-0.00015884643653407693
5120.0,-3.890649168170057e-05
5632.0,9.307586879003793e-05
6144.0,-0.0003953058912884444
6656.0,0.00013295213284436613
7168.0,0.0001363858173135668
7680.0,-1.5004929082351737e-05
8192.0,-0.00038684389437548816
9216.0,-5.985049938317388e-05
10240.0,-0.00012787287414539605
11264.0,3.195992758264765e-05
12288.0,-0.0004894070443697274
13312.0,-0.0002353746967855841
14336.0,-0.0003642033552750945
end
