version,3.0
numOfCh,1
type,point
parent_name,4-cuts
ch_type,1_1
kcount,1
numberNandB,1
brightnessNandB,1
carpet pos,0
pc,0
Time (ms),CH1 Auto-Correlation
1.0,0.01676487736403942
2.0,0.013797583989799023
3.0,0.011645196005702019
4.0,0.010171975009143353
5.0,0.009010045789182186
6.0,0.008008815348148346
7.0,0.007211253046989441
8.0,0.0065402379259467125
9.0,0.006021527573466301
10.0,0.00572439469397068
11.0,0.005430976394563913
12.0,0.005174525082111359
13.0,0.004815856926143169
14.0,0.004516125191003084
15.0,0.004287175368517637
16.0,0.00394048634916544
18.0,0.0035034767352044582
20.0,0.0031280817929655313
22.0,0.002856799168512225
24.0,0.002730922307819128
26.0,0.0023838214110583067
28.0,0.002149266889318824
30.0,0.0020155892707407475
32.0,0.002003603847697377
36.0,0.0020777450408786535
40.0,0.0021523209288716316
44.0,0.0023057840298861265
48.0,0.0020184172317385674
52.0,0.0018096406711265445
56.0,0.0016995941987261176
60.0,0.0015723356045782566
64.0,0.0014070984907448292
72.0,0.0009710710146464407
80.0,0.0007959080976434052
88.0,0.0004446162492968142
96.0,0.0005367912235669792
104.0,0.0007469019619747996
112.0,0.0004970136797055602
120.0,0.0002665241772774607
128.0,-2.0086499716853723e-05
144.0,-1.8109982192981988e-05
160.0,-2.524912270018831e-05
176.0,-0.00010177170770475641
192.0,-3.1185565603664145e-05
208.0,0.00038288647192530334
224.0,0.00019425594655331224
240.0,0.00026078789960592985
256.0,0.0005088830948807299
288.0,5.300057819113135e-05
320.0,-0.00026964431162923574
352.0,-0.0002441946999169886
384.0,-8.769239502726123e-05
416.0,0.0006291930912993848
448.0,0.0002567831252235919
480.0,9.333909838460386e-05
512.0,0.0004265172756277025
576.0,-0.0002436097274767235
640.0,-0.00032448454294353724
704.0,-0.0005334403249435127
768.0,-0.0006322827539406717
832.0,-0.00013943066005595028
896.0,3.787167224800214e-05
960.0,-0.0002448043960612267
1024.0,-0.00011411202285671607
1152.0,-0.00020697605214081705
1280.0,-3.1811214284971356e-05
1408.0,-5.9151454479433596e-05
1536.0,0.0004376511205919087
1664.0,0.00024490905343554914
1792.0,0.00014177004049997777
1920.0,-0.00042654870776459575
2048.0,-0.0003361106791999191
2304.0,-0.0001381069014314562
2560.0,0.0003967124212067574
2816.0,-8.499207615386695e-05
3072.0,-0.00025938660837709904
3328.0,-2.115442111971788e-05
3584.0,3.496423232718371e-05
3840.0,0.0003622579970397055
4096.0,-1.3815016245644074e-05
4608.0,-0.00031886633951216936
5120.0,-7.25250574760139e-05
5632.0,1.3387904800765682e-05
6144.0,-0.0003746907168533653
6656.0,0.0002814814215525985
7168.0,0.0004886751412414014
7680.0,0.00011630343942670152
8192.0,-0.00043133331928402185
9216.0,-7.99458211986348e-05
10240.0,-6.775557994842529e-05
11264.0,-0.00019583282119128853
12288.0,-0.00011984791490249336
13312.0,0.00022056007583159953
14336.0,0.0002672244736459106
end
