version,3.0
numOfCh,1
type,point
parent_name,4-cuts
ch_type,1_1
kcount,1
numberNandB,1
brightnessNandB,1
carpet pos,0
pc,0
Time (ms),CH1 Auto-Correlation
1.0,0.027784930542111397
2.0,0.02301320992410183
3.0,0.01964198797941208
4.0,0.017007658258080482
5.0,0.015240566805005074
6.0,0.01383364386856556
7.0,0.01258834172040224
8.0,0.011523435823619366
9.0,0.010706956498324871
10.0,0.00992956105619669
11.0,0.009361366741359234
12.0,0.00888900738209486
13.0,0.008248594589531422
14.0,0.007753340993076563
15.0,0.007446344941854477
16.0,0.0070232804864645
18.0,0.006197201553732157
20.0,0.005574692972004414
22.0,0.00532328337430954
24.0,0.004997474141418934
26.0,0.004598509054630995
28.0,0.00400626752525568
30.0,0.0035424381494522095
32.0,0.003308899002149701
36.0,0.0029333189595490694
40.0,0.002643951214849949
44.0,0.0022395129781216383
48.0,0.0019642310217022896
52.0,0.001725509762763977
56.0,0.0018770802998915315
60.0,0.0014363530790433288
64.0,0.0012213550508022308
72.0,0.0004516027111094445
80.0,0.00025528547121211886
88.0,7.970612205099314e-05
96.0,-0.0002521948772482574
104.0,-0.0003070331003982574
112.0,-0.0004918999038636684
120.0,-0.0002802305680233985
128.0,-0.0003633416199591011
144.0,0.00027187992236576974
160.0,3.404183735256083e-05
176.0,-0.0005253017880022526
192.0,-0.00021354624186642468
208.0,-0.00012520393647719175
224.0,0.0005979357520118356
240.0,0.001189302303828299
256.0,0.0007869830587878823
288.0,0.00038541675894521177
320.0,0.0006862920126877725
352.0,0.0007068769773468375
384.0,0.0009687176789157093
416.0,0.00044036275357939303
448.0,-0.0007607500883750618
480.0,-0.00047138697118498385
512.0,-0.0003616012108977884
576.0,-0.00020634301472455263
640.0,0.0005269127432256937
704.0,0.00030566524947062135
768.0,-0.00047795893624424934
832.0,-0.0002843035326804966
896.0,0.00017819745698943734
960.0,0.0006138909375295043
1024.0,0.0018002076540142298
1152.0,-0.0002359281643293798
1280.0,0.0006879967986606061
1408.0,0.00031037567532621324
1536.0,-0.0006083186599425972
1664.0,0.0007864297949708998
1792.0,-0.00019320279534440488
1920.0,-0.0005712070851586759
2048.0,0.0001856212184065953
2304.0,-9.655954636400566e-05
2560.0,0.00028395827393978834
2816.0,-0.0005907933227717876
3072.0,-0.0007596852374263108
3328.0,4.3054398702224717e-05
3584.0,-0.0008137334953062236
3840.0,-7.405259384540841e-05
4096.0,9.913722169585526e-05
4608.0,-0.00020428317657206208
5120.0,-0.00014733355783391744
5632.0,-0.0008301780326291919
6144.0,0.0001450160052627325
6656.0,0.0002998574636876583
7168.0,-6.19825950707309e-05
7680.0,0.0003483882173895836
8192.0,1.5111035281734075e-05
9216.0,0.0002831834717653692
10240.0,0.00012809190957341343
11264.0,-0.00015376170631498098
12288.0,-0.0005342029617168009
13312.0,-0.000581452390179038
14336.0,-0.0004978658980689943
end
