version,3.0
numOfCh,1
type,point
parent_name,4-cuts
ch_type,1_1
kcount,1
numberNandB,1
brightnessNandB,1
carpet pos,0
pc,0
Time (ms),CH1 Auto-Correlation
1.0,0.016495486721396446
2.0,0.013689604587852955
3.0,0.011745649389922619
4.0,0.01031253021210432
5.0,0.009120922535657883
6.0,0.008151176385581493
7.0,0.007408336736261845
8.0,0.006714661605656147
9.0,0.006060848943889141
10.0,0.005508814938366413
11.0,0.004992270842194557
12.0,0.004557936917990446
13.0,0.004212906118482351
14.0,0.003904370591044426
15.0,0.0037095146253705025
16.0,0.0034457824658602476
18.0,0.0028639892116189003
20.0,0.002482170006260276
22.0,0.0020895551424473524
24.0,0.001931287464685738
26.0,0.0018418986583128572
28.0,0.0017310803523287177
30.0,0.0016239088727161288
32.0,0.001533787464722991
36.0,0.0012277185451239347
40.0,0.0010344402398914099
44.0,0.0009084938792511821
48.0,0.0009967806981876493
52.0,0.0008638453437015414
56.0,0.0007525415858253837
60.0,0.000770075770560652
64.0,0.0008924403809942305
72.0,0.0008260663598775864
80.0,0.0005627812352031469
88.0,0.00037780875572934747
96.0,0.00048109638737514615
104.0,0.00031320026027970016
112.0,0.00045266980305314064
120.0,0.00033503666054457426
128.0,0.0002046916342806071
144.0,0.00013295453391037881
160.0,-0.0002371193841099739
176.0,-2.3962191335158423e-05
192.0,0.0002741173084359616
208.0,0.00018558661395218223
224.0,-4.459638148546219e-05
240.0,-0.0001583599078003317
256.0,-0.00030239514308050275
288.0,-7.743792230030522e-05
320.0,0.00022413900296669453
352.0,-0.00029063940746709704
384.0,-5.551905360334786e-06
416.0,-8.25942333904095e-05
448.0,3.715632556122728e-05
480.0,-0.00019577816419769078
512.0,-0.0004267293552402407
576.0,0.0004665319574996829
640.0,0.00019144918769598007
704.0,2.2808857465861365e-05
768.0,0.0008234844426624477
832.0,-0.0002137973642675206
896.0,-0.00036303457454778254
960.0,-0.0007519412902183831
1024.0,-0.00033114495454356074
1152.0,-0.00023136625532060862
1280.0,-5.0535312766442075e-05
1408.0,0.0005776465986855328
1536.0,-9.99381227302365e-05
1664.0,-0.0002301050117239356
1792.0,-0.00012972588592674583
1920.0,0.00041922449599951506
2048.0,6.753556954208761e-05
2304.0,-6.239431240828708e-05
2560.0,1.1985453966190107e-05
2816.0,-4.3433061364339665e-05
3072.0,-0.0005024219863116741
3328.0,0.0002548114862293005
3584.0,-0.00014584044401999563
3840.0,6.198938535817433e-06
4096.0,-0.00011853603064082563
4608.0,0.00013963403762318194
5120.0,-0.00012740252714138478
5632.0,-0.0002755044843070209
6144.0,-8.024462294997647e-05
6656.0,6.699395453324541e-05
7168.0,-0.0002383096725679934
7680.0,-0.00028802125598303974
8192.0,0.00018713063036557287
9216.0,0.00011137650290038437
10240.0,1.7328689864370972e-05
11264.0,0.00011853570322273299
12288.0,-0.00015461878501810133
13312.0,4.6934383135521784e-05
14336.0,-7.058473420329392e-05
end
