version,3.0
numOfCh,1
type,point
parent_name,4-cuts
ch_type,1_1
kcount,1
numberNandB,1
brightnessNandB,1
carpet pos,0
pc,0
Time (ms),CH1 Auto-Correlation
1.0,0.028443975374102592
2.0,0.023517126217484474
3.0,0.020263828337192535
4.0,0.017697326838970184
5.0,0.015742892399430275
6.0,0.014244532212615013
7.0,0.012835176661610603
8.0,0.011686117388308048
9.0,0.010904312133789062
10.0,0.010079016909003258
11.0,0.00906803086400032
12.0,0.008501715958118439
13.0,0.007963578216731548
14.0,0.0075449650175869465
15.0,0.007157157175242901
16.0,0.006501531228423119
18.0,0.005493480246514082
20.0,0.004811427090317011
22.0,0.00437255809083581
24.0,0.0038744353223592043
26.0,0.003471523057669401
28.0,0.0031475413125008345
30.0,0.003159664571285248
32.0,0.0031327735632658005
36.0,0.003047139849513769
40.0,0.0031742022838443518
44.0,0.0031155075412243605
48.0,0.0033567550126463175
52.0,0.0035558613017201424
56.0,0.0031571562867611647
60.0,0.0028614418115466833
64.0,0.0025435227435082197
72.0,0.002127876039594412
80.0,0.0022779912687838078
88.0,0.0019452027045190334
96.0,0.0015008581103757024
104.0,0.001137846033088863
112.0,0.0014206748455762863
120.0,0.001610559062100947
128.0,0.0015427598264068365
144.0,0.0010684821754693985
160.0,0.0006549590616486967
176.0,0.0013244996080175042
192.0,0.0010583038674667478
208.0,0.0008912157500162721
224.0,0.0003999396285507828
240.0,0.0009794562356546521
256.0,0.0012261332012712955
288.0,0.00041710471850819886
320.0,0.000432250730227679
352.0,0.00035094982013106346
384.0,-0.0004815811407752335
416.0,-0.000572746735997498
448.0,-0.00033127484493888915
480.0,-0.0007444820366799831
512.0,-0.0002101723657688126
576.0,-2.480615694366861e-05
640.0,-5.981703725410625e-05
704.0,-0.0009564566425979137
768.0,-0.0007879118784330785
832.0,-0.0011398004135116935
896.0,-0.00038307634531520307
960.0,0.0003694155893754214
1024.0,0.0004980811499990523
1152.0,7.454832666553557e-05
1280.0,0.0004249622579663992
1408.0,0.0005043267155997455
1536.0,0.0006080299499444664
1664.0,-0.00043611018918454647
1792.0,-0.00014328534598462284
1920.0,3.5392458812566474e-05
2048.0,3.217485982531798e-06
2304.0,-0.0004336611309554428
2560.0,0.00020708865486085415
2816.0,1.0707090950745624e-05
3072.0,0.0008968422771431506
3328.0,0.0004981894744560122
3584.0,0.0003126747615169734
3840.0,0.0005136034451425076
4096.0,0.0002723532961681485
4608.0,-0.00035927980206906796
5120.0,-0.00013808920630253851
5632.0,3.8913654861971736e-05
6144.0,0.0002504816511645913
6656.0,5.131297075422481e-05
7168.0,0.0003761982370633632
7680.0,-0.0006508452934212983
8192.0,-0.0006452345987781882
9216.0,-0.00010034513979917392
10240.0,-0.0003784478176385164
11264.0,-0.0006239638314582407
12288.0,-0.0007398760062642395
13312.0,-0.00042541668517515063
14336.0,-0.00014461127284448594
end
