version,3.0
numOfCh,1
type,point
parent_name,4-cuts
ch_type,1_1
kcount,1
numberNandB,1
brightnessNandB,1
carpet pos,0
pc,0
Time (ms),CH1 Auto-Correlation
1.0,0.02652018889784813
2.0,0.021758930757641792
3.0,0.018451739102602005
4.0,0.015841875225305557
5.0,0.013910220004618168
6.0,0.012350584380328655
7.0,0.011038442142307758
8.0,0.009968036785721779
9.0,0.008921770378947258
10.0,0.00812913104891777
11.0,0.007363433949649334
12.0,0.0069212839007377625
13.0,0.006493003573268652
14.0,0.005919241812080145
15.0,0.005557736847549677
16.0,0.005231572315096855
18.0,0.004662944935262203
20.0,0.004050232470035553
22.0,0.003796388627961278
24.0,0.003344108583405614
26.0,0.00311060412786901
28.0,0.002725383499637246
30.0,0.0025038758758455515
32.0,0.0022670079488307238
36.0,0.002019651234149933
40.0,0.0016803330508992076
44.0,0.0012024326715618372
48.0,0.001012530643492937
52.0,0.0012128737289458513
56.0,0.0008496458176523447
60.0,0.0005803040694445372
64.0,0.0006104618078097701
72.0,0.0007197189261205494
80.0,0.000616217206697911
88.0,0.00035866876714862883
96.0,-7.506222755182534e-05
104.0,0.0003150806878693402
112.0,0.001026367535814643
120.0,0.0009824406588450074
128.0,0.0007284533930942416
144.0,0.0015698736533522606
160.0,0.0006884702015668154
176.0,0.0005285613588057458
192.0,0.00022653257474303246
208.0,0.00042176913120783865
224.0,0.0008215517736971378
240.0,0.00041651478386484087
256.0,0.00022247963352128863
288.0,0.0005223944899626076
320.0,0.00026736382278613746
352.0,0.0002745648380368948
384.0,-0.0002635906857904047
416.0,2.3344058718066663e-05
448.0,0.0001794293784769252
480.0,-0.000999287236481905
512.0,-0.0007569356821477413
576.0,0.0008048978052102029
640.0,-0.0006610398413613439
704.0,-0.001092127407900989
768.0,7.402106712106615e-05
832.0,-0.0008640809101052582
896.0,-0.00011025310232071206
960.0,-0.0005284998333081603
1024.0,-0.000840052671264857
1152.0,0.0003147406387142837
1280.0,-4.578315565595403e-05
1408.0,-0.00024235199089162052
1536.0,-7.018776523182169e-05
1664.0,5.5576467275386676e-05
1792.0,0.0006564537179656327
1920.0,-0.0001363074261462316
2048.0,-0.0001373820996377617
2304.0,-0.00033277232432737947
2560.0,-0.00040427761268801987
2816.0,-0.00013586047862190753
3072.0,4.390478352434002e-05
3328.0,0.00010497520270291716
3584.0,0.00018914112297352403
3840.0,-0.0002578370622359216
4096.0,0.00030283856904134154
4608.0,-0.00036932501825504005
5120.0,-0.00042670531547628343
5632.0,-0.00022994575556367636
6144.0,0.0005874505150131881
6656.0,-0.0003713115584105253
7168.0,0.0003630696446634829
7680.0,0.00042362738167867064
8192.0,-7.301633013412356e-05
9216.0,-0.00012886831245850772
10240.0,-0.0001046716861310415
11264.0,0.0002255266736028716
12288.0,-0.00047694536624476314
13312.0,-7.357796857832e-05
14336.0,0.0005631313542835414
end
