version,3.0
numOfCh,1
type,point
parent_name,4-cuts
ch_type,1_1
kcount,1
numberNandB,1
brightnessNandB,1
carpet pos,0
pc,0
Time (ms),CH1 Auto-Correlation
1.0,0.01599731110036373
2.0,0.013040953315794468
3.0,0.011015142314136028
4.0,0.009507694281637669
5.0,0.008433663286268711
6.0,0.007654862944036722
7.0,0.0069689140655100346
8.0,0.006294894032180309
9.0,0.005780396983027458
10.0,0.005378200672566891
11.0,0.005000189878046513
12.0,0.004615916404873133
13.0,0.0041876588948071
14.0,0.0038816810119897127
15.0,0.003577303607016802
16.0,0.0032986116129904985
18.0,0.002794503467157483
20.0,0.00263163517229259
22.0,0.002535296604037285
24.0,0.0023415926843881607
26.0,0.0021772347390651703
28.0,0.002255949191749096
30.0,0.002295862417668104
32.0,0.0021625373046845198
36.0,0.0021453655790537596
40.0,0.002005467191338539
44.0,0.0017067167209461331
48.0,0.0016743337037041783
52.0,0.001540027093142271
56.0,0.00145254866220057
60.0,0.0013650773325935006
64.0,0.0014649606309831142
72.0,0.0009830363560467958
80.0,0.0005597242852672935
88.0,0.0005983136361464858
96.0,0.0007317965500988066
104.0,0.0011259540915489197
112.0,0.000996826565824449
120.0,0.0006611954304389656
128.0,0.0005495196674019098
144.0,0.0008443314582109451
160.0,0.0006107556400820613
176.0,0.0004005740338470787
192.0,0.0003316548827569932
208.0,3.572808418539353e-05
224.0,9.646547550801188e-05
240.0,0.00023287774820346385
256.0,0.00013804459013044834
288.0,8.035870268940926e-05
320.0,-2.4006396415643394e-05
352.0,-0.0003282246470917016
384.0,-0.0007297209231182933
416.0,-0.0007599906530231237
448.0,-0.0005013663321733475
480.0,-0.0003875121765304357
512.0,-0.0005423566908575594
576.0,-6.988376844674349e-05
640.0,9.590864647179842e-05
704.0,-0.00023822607181500643
768.0,0.00036274324520491064
832.0,0.0002066015003947541
896.0,0.0004783032927662134
960.0,0.00011220137821510434
1024.0,-0.00046408569323830307
1152.0,-0.000359080993803218
1280.0,-0.0005239321617409587
1408.0,-0.0002941835846286267
1536.0,0.00010213876521447673
1664.0,-8.166149928001687e-05
1792.0,-0.0002539516717661172
1920.0,-0.00021550219389609993
2048.0,-0.0003025969781447202
2304.0,0.00023742682242300361
2560.0,0.0004574521735776216
2816.0,-9.859188867267221e-05
3072.0,-9.120219328906387e-05
3328.0,9.289893932873383e-05
3584.0,-0.0005869079614058137
3840.0,-0.00042663473868742585
4096.0,0.00019529178098309785
4608.0,0.0003133965947199613
5120.0,0.00016828940715640783
5632.0,-0.0002994016685988754
6144.0,-0.00046274380292743444
6656.0,-0.00018488532805349678
7168.0,0.0003210234281141311
7680.0,0.00023618897830601782
8192.0,-0.00020201211737003177
9216.0,0.00011190601071575657
10240.0,8.774828893365338e-05
11264.0,-6.549924000864848e-05
12288.0,3.1241579563356936e-05
13312.0,-0.00010823433694895357
14336.0,0.00033995319972746074
end
