version,3.0
numOfCh,1
type,point
parent_name,4-cuts
ch_type,1_1
kcount,1
numberNandB,1
brightnessNandB,1
carpet pos,0
pc,0
Time (ms),CH1 Auto-Correlation
1.0,0.01606486737728119
2.0,0.013140657916665077
3.0,0.011119188740849495
4.0,0.009541047737002373
5.0,0.008262676186859608
6.0,0.00737411854788661
7.0,0.006679923739284277
8.0,0.006068053655326366
9.0,0.005509389564394951
10.0,0.004917727317661047
11.0,0.004389260895550251
12.0,0.0040625459514558315
13.0,0.0037934030406177044
14.0,0.0035377698950469494
15.0,0.0032484859693795443
16.0,0.0029741418547928333
18.0,0.002501191571354866
20.0,0.0023114115465432405
22.0,0.001988082891330123
24.0,0.001595935202203691
26.0,0.0011401526862755418
28.0,0.0007991914753802121
30.0,0.0007786444039084017
32.0,0.0008795781759545207
36.0,0.0012232932494953275
40.0,0.0011278839083388448
44.0,0.001167068025097251
48.0,0.0011769530829042196
52.0,0.0010698818368837237
56.0,0.0012489726068452
60.0,0.0013758388813585043
64.0,0.0014457106590270996
72.0,0.0013419766910374165
80.0,0.0010536391055211425
88.0,0.0008289488032460213
96.0,0.0007224972941912711
104.0,0.0004000095068477094
112.0,0.0003024636534973979
120.0,0.00046727294102311134
128.0,0.0008079037652350962
144.0,0.0005826231790706515
160.0,-0.0002673134731594473
176.0,-0.00031855146517045796
192.0,-0.0002169646177208051
208.0,-4.530142177827656e-05
224.0,-0.00029593403451144695
240.0,0.00017109319742303342
256.0,0.00015120921307243407
288.0,-5.139490167493932e-05
320.0,0.00040139234624803066
352.0,0.00021422030113171786
384.0,0.0002996560651808977
416.0,-4.0888327930588275e-05
448.0,0.0002492337371222675
480.0,9.02194224181585e-05
512.0,0.00023861363297328353
576.0,7.892277062637731e-05
640.0,-5.757015969720669e-05
704.0,-0.000267308292677626
768.0,-0.00033396470826119184
832.0,-0.00010891706915572286
896.0,-4.3237105273874477e-05
960.0,-0.00027999081066809595
1024.0,-0.00024125950585585088
1152.0,-0.0001849441323429346
1280.0,-0.000344853411661461
1408.0,-0.00013701811258215457
1536.0,-0.00047822794294916093
1664.0,-0.00035541102988645434
1792.0,4.39897257820121e-06
1920.0,-0.00013097337796352804
2048.0,5.600461736321449e-05
2304.0,-0.00023252330720424652
2560.0,5.545118256122805e-05
2816.0,-0.00029923932743258774
3072.0,0.00031397503335028887
3328.0,0.00014713899872731417
3584.0,7.077338523231447e-05
3840.0,0.0004581982211675495
4096.0,-0.00022338946291711181
4608.0,-3.79969242203515e-05
5120.0,0.00011558742698980495
5632.0,-6.2070983403828e-05
6144.0,-0.00022052226995583624
6656.0,-3.101013498962857e-05
7168.0,1.3518334526452236e-05
7680.0,9.259736543754116e-05
8192.0,0.0002148300554836169
9216.0,-7.491813448723406e-05
10240.0,0.0001550526067148894
11264.0,0.00019720227282959968
12288.0,-0.00021746907441411167
13312.0,-0.00015975048881955445
14336.0,2.822725218720734e-05
end
