version,3.0
numOfCh,1
type,point
parent_name,4-cuts
ch_type,1_1
kcount,1
numberNandB,1
brightnessNandB,1
carpet pos,0
pc,0
Time (ms),CH1 Auto-Correlation
1.0,0.016602784395217896
2.0,0.013683529570698738
3.0,0.011663218960165977
4.0,0.010250532999634743
5.0,0.009224191308021545
6.0,0.008373118005692959
7.0,0.007694009225815535
8.0,0.007127969525754452
9.0,0.006648792419582605
10.0,0.006138973403722048
11.0,0.005703933537006378
12.0,0.005392271559685469
13.0,0.00514223100617528
14.0,0.004930261988192797
15.0,0.0048004137352108955
16.0,0.004544890485703945
18.0,0.0042074271477758884
20.0,0.003911767154932022
22.0,0.0035397906322032213
24.0,0.0031722988933324814
26.0,0.003105099545791745
28.0,0.002995406510308385
30.0,0.0027346659917384386
32.0,0.002770704450085759
36.0,0.0025838366709649563
40.0,0.002408061409369111
44.0,0.002318434650078416
48.0,0.002184039680287242
52.0,0.0021090067457407713
56.0,0.0022425923962146044
60.0,0.0018853208748623729
64.0,0.0017237213905900717
72.0,0.0010521655203774571
80.0,0.0007436032756231725
88.0,0.00048153745592571795
96.0,0.00024588481755927205
104.0,0.00046503497287631035
112.0,0.0006733554764650762
120.0,0.0007720718858763576
128.0,0.0006482457392849028
144.0,0.00015514118422288448
160.0,0.00034293203498236835
176.0,0.000284006935544312
192.0,0.00037706075818277895
208.0,7.362892938544974e-05
224.0,-8.563007577322423e-05
240.0,-0.0004023132787551731
256.0,-0.0003133522695861757
288.0,-0.00041783624328672886
320.0,-0.00027190003311261535
352.0,0.0001741252635838464
384.0,0.00018808461027219892
416.0,-0.00029446740518324077
448.0,-0.00048404402332380414
480.0,-0.0005363284726627171
512.0,-0.0002844771952368319
576.0,-0.0004452574357856065
640.0,-0.0002585194306448102
704.0,0.00022233513300307095
768.0,-0.00015323510160669684
832.0,-0.00036052640643902123
896.0,-0.0003939582093153149
960.0,-0.00027392824995331466
1024.0,1.6189125744858757e-05
1152.0,-0.0005611663800664246
1280.0,-0.0002224872150691226
1408.0,0.0002512447827029973
1536.0,0.00018640561029314995
1664.0,0.0002968597109429538
1792.0,-0.00016738443810027093
1920.0,-0.0004628933675121516
2048.0,-0.00043027373612858355
2304.0,-0.00016773153038229793
2560.0,-2.8854821721324697e-05
2816.0,0.0001902900548884645
3072.0,-0.00011168637138325721
3328.0,0.00032307341462001204
3584.0,-0.00042548932833597064
3840.0,0.0003245167317800224
4096.0,0.0002324857487110421
4608.0,-0.00037455870187841356
5120.0,-0.00012365439033601433
5632.0,0.00015583164349664003
6144.0,-0.0002464956196490675
6656.0,0.00012978732411284
7168.0,-8.238728332798928e-05
7680.0,-0.00011680912575684488
8192.0,0.00024891021894291043
9216.0,-0.00019298851839266717
10240.0,-0.0001915979228215292
11264.0,7.990007725311443e-05
12288.0,0.0004060410428792238
13312.0,-0.0004489568236749619
14336.0,-3.688696233439259e-05
end
