version,3.0
numOfCh,1
type,point
parent_name,4-cuts
ch_type,1_1
kcount,1
numberNandB,1
brightnessNandB,1
carpet pos,0
pc,0
Time (ms),CH1 Auto-Correlation
1.0,0.015784570947289467
2.0,0.012822583317756653
3.0,0.010794120840728283
4.0,0.009428475052118301
5.0,0.008338971063494682
6.0,0.007563096471130848
7.0,0.006878669373691082
8.0,0.0061765206046402454
9.0,0.00576192419975996
10.0,0.005359122063964605
11.0,0.004968849942088127
12.0,0.004608919844031334
13.0,0.004268051125109196
14.0,0.004011344630271196
15.0,0.003773055737838149
16.0,0.0035937679931521416
18.0,0.0032268469221889973
20.0,0.002972856629639864
22.0,0.0028015298303216696
24.0,0.002736870665103197
26.0,0.0025962854269891977
28.0,0.002500704489648342
30.0,0.0023427570704370737
32.0,0.001996624981984496
36.0,0.0017587285256013274
40.0,0.0014602110022678971
44.0,0.0010661660926416516
48.0,0.0009412969811819494
52.0,0.000812996702734381
56.0,0.0006467857165262103
60.0,0.0003980326291639358
64.0,0.00026630479260347784
72.0,-5.95846759097185e-05
80.0,5.504969522007741e-05
88.0,4.624874236469623e-06
96.0,-0.0005256402073428035
104.0,-0.00036774916225112975
112.0,-0.00015971837274264544
120.0,-0.00010430225665913895
128.0,-7.030872802715749e-05
144.0,0.00023494730703532696
160.0,0.0006184950470924377
176.0,0.0004833144776057452
192.0,-7.414275023620576e-05
208.0,-3.9964976167539135e-05
224.0,-0.0002765907265711576
240.0,-0.000555607897695154
256.0,-0.0001307298371102661
288.0,-0.0001135867860284634
320.0,2.656297874636948e-05
352.0,0.0002017100341618061
384.0,6.578158354386687e-05
416.0,7.000696496106684e-05
448.0,0.0009809964103624225
480.0,0.0012662888038903475
512.0,0.0005154244718141854
576.0,0.00011381720105418935
640.0,0.00014529428153764457
704.0,-0.0002860285167116672
768.0,0.00013952073641121387
832.0,-6.851025682408363e-05
896.0,0.000242412366787903
960.0,-3.037972237507347e-05
1024.0,0.0005218398873694241
1152.0,-0.0005670274258591235
1280.0,-0.00022970310237724334
1408.0,-8.393170719500631e-05
1536.0,-0.00025855490821413696
1664.0,0.0002073517971439287
1792.0,-0.00022063821961637586
1920.0,-0.0005157378036528826
2048.0,-0.0003946721844840795
2304.0,-0.00022004541824571788
2560.0,-0.0001707313786027953
2816.0,-0.0002858424559235573
3072.0,0.00011471582547528669
3328.0,-0.0003278256335761398
3584.0,5.117669570608996e-05
3840.0,3.964655115851201e-05
4096.0,-0.00010593758634058759
4608.0,0.00029086004360578954
5120.0,8.032350888242945e-05
5632.0,-3.880284202750772e-05
6144.0,-0.00014778849435970187
6656.0,-6.794258661102504e-05
7168.0,-1.2036961152261938e-06
7680.0,0.00011548642942216247
8192.0,6.063844557502307e-05
9216.0,-9.32465263758786e-05
10240.0,-8.159083790815203e-07
11264.0,0.00014084024587646127
12288.0,-9.487083298154175e-05
13312.0,-0.00012032644735882059
14336.0,0.00013896853488404304
end
