version,3.0
numOfCh,1
type,point
parent_name,4-cuts
ch_type,1_1
kcount,1
numberNandB,1
brightnessNandB,1
carpet pos,0
pc,0
Time (ms),CH1 Auto-Correlation
1.0,0.016097117215394974
2.0,0.01331673376262188
3.0,0.011173889972269535
4.0,0.009740691632032394
5.0,0.008749628439545631
6.0,0.007921219803392887
7.0,0.007370312698185444
8.0,0.0067503019236028194
9.0,0.006200121715664864
10.0,0.005652406718581915
11.0,0.005226038862019777
12.0,0.0048275780864059925
13.0,0.004575290251523256
14.0,0.004312523175030947
15.0,0.00404384545981884
16.0,0.0038975386414676905
18.0,0.003634469350799918
20.0,0.0032740088645368814
22.0,0.00300526968203485
24.0,0.002773223677650094
26.0,0.0026477891951799393
28.0,0.002483355812728405
30.0,0.002198368078097701
32.0,0.0020954266656190157
36.0,0.001927302568219602
40.0,0.0018161940388381481
44.0,0.001613029045984149
48.0,0.0016238923417404294
52.0,0.0018713409081101418
56.0,0.0019017010927200317
60.0,0.001620106166228652
64.0,0.001264155376702547
72.0,0.0011830583680421114
80.0,0.0010484186932444572
88.0,0.0007399458554573357
96.0,0.0005728245014324784
104.0,0.0002743922232184559
112.0,0.0004909930867142975
120.0,0.0005145877948962152
128.0,0.0005821621743962169
144.0,0.0001045422104652971
160.0,0.00019741141295526177
176.0,0.0007678978727199137
192.0,0.00032455340260639787
208.0,-0.0001252827642019838
224.0,1.857902498159092e-05
240.0,7.994251791387796e-05
256.0,0.0003011531080119312
288.0,0.0003245054103899747
320.0,0.00042949451017193496
352.0,0.00029911004821769893
384.0,-6.161332566989586e-05
416.0,-7.66632947488688e-05
448.0,0.0001805779611459002
480.0,-0.0003437915293034166
512.0,-0.0003084871859755367
576.0,-0.0007359295268543065
640.0,-3.1304523417929886e-06
704.0,-0.0004066746332682669
768.0,-5.3283805755199865e-05
832.0,-0.0002811720478348434
896.0,2.3980173864401877e-05
960.0,-0.0001563650876050815
1024.0,-7.726370677119121e-05
1152.0,-0.0004381410835776478
1280.0,-0.0004150579043198377
1408.0,-0.0003474843397270888
1536.0,0.00039979093708097935
1664.0,0.00043893500696867704
1792.0,0.00025077228201553226
1920.0,0.0005763088702224195
2048.0,0.0002083868021145463
2304.0,-0.000306768313748762
2560.0,0.0001275203685509041
2816.0,-0.00028055740403942764
3072.0,-0.00011122164141852409
3328.0,0.00029700383311137557
3584.0,0.0002662776387296617
3840.0,-0.00014793682203162462
4096.0,-0.0001290912041440606
4608.0,-0.00029670156072825193
5120.0,5.541965219890699e-05
5632.0,3.177485996275209e-05
6144.0,-0.00021408128668554127
6656.0,-8.496983355144039e-05
7168.0,0.00011833801545435563
7680.0,-0.00019990988948848099
8192.0,-0.0005089135374873877
9216.0,0.00012613189755938947
10240.0,-0.00013714081433136016
11264.0,0.0006317218649201095
12288.0,-0.00037570681888610125
13312.0,-0.00018896472465712577
14336.0,0.0008034191560000181
end
