version,3.0
numOfCh,1
type,point
parent_name,4-cuts
ch_type,1_1
kcount,1
numberNandB,1
brightnessNandB,1
carpet pos,0
pc,0
Time (ms),CH1 Auto-Correlation
1.0,0.016950244084000587
2.0,0.01388612762093544
3.0,0.01175472792237997
4.0,0.010137616656720638
5.0,0.008866066113114357
6.0,0.00783031526952982
7.0,0.006959616672247648
8.0,0.006275248248130083
9.0,0.005660708993673325
10.0,0.005170098971575499
11.0,0.0046860831789672375
12.0,0.00431470712646842
13.0,0.004064500331878662
14.0,0.0038260051514953375
15.0,0.0035805562511086464
16.0,0.0033482934813946486
18.0,0.0030379381496459246
20.0,0.0029301000759005547
22.0,0.002940118545666337
24.0,0.0027605718933045864
26.0,0.00263550179079175
28.0,0.002386087318882346
30.0,0.002386481501162052
32.0,0.0023321860935539007
36.0,0.0018341245595365763
40.0,0.0014985757879912853
44.0,0.0011482661357149482
48.0,0.0010949481511488557
52.0,0.0008732472779229283
56.0,0.0006138084572739899
60.0,0.0006126347579993308
64.0,0.0006904990877956152
72.0,0.00035004978417418897
80.0,0.00039660988841205835
88.0,0.00041424314258620143
96.0,0.00013247855531517416
104.0,0.00019367635832168162
112.0,0.00027346808928996325
120.0,0.0003668622812256217
128.0,0.0007539265207014978
144.0,0.000532363192178309
160.0,0.0006549547542817891
176.0,0.0001161754917120561
192.0,0.00022841367172077298
208.0,0.00030775993946008384
224.0,0.00018828186148311943
240.0,-0.00014365193783305585
256.0,-1.3014686373935547e-05
288.0,-0.0001622806885279715
320.0,-0.0001875558082247153
352.0,6.655653123743832e-05
384.0,8.082755084615201e-05
416.0,-0.00010458156612003222
448.0,-0.0003867988707497716
480.0,-0.000238430016906932
512.0,-0.00015211997379083186
576.0,0.00018635501328390092
640.0,-0.00028076008311472833
704.0,0.0001117306383093819
768.0,0.00024305839906446636
832.0,0.0004272042424418032
896.0,-7.061819633236155e-05
960.0,-0.0006970984395593405
1024.0,-0.0005596675327979028
1152.0,-0.00039317546179518104
1280.0,-8.34454403957352e-05
1408.0,7.334016845561564e-05
1536.0,-0.000111050670966506
1664.0,0.00025720850680954754
1792.0,-0.00031787416082806885
1920.0,-0.0001783773477654904
2048.0,-0.00015034597890917212
2304.0,0.0003069511440116912
2560.0,-9.472376405028626e-05
2816.0,-0.0002269048272864893
3072.0,0.000244174269028008
3328.0,0.0004921725485473871
3584.0,-1.229722511197906e-05
3840.0,0.00025674313656054437
4096.0,-0.00026217298000119627
4608.0,-0.00017894752090796828
5120.0,8.127041655825451e-05
5632.0,5.8610916312318295e-05
6144.0,9.591369598638266e-05
6656.0,0.00010692132491385564
7168.0,-0.00017470301827415824
7680.0,-0.0004303747264202684
8192.0,-2.4910245883802418e-06
9216.0,5.734678416047245e-05
10240.0,-2.764229429885745e-05
11264.0,-0.00023017771309241652
12288.0,4.1866856918204576e-05
13312.0,6.0031376051483676e-05
14336.0,-0.00011787004041252658
end
