version,3.0
numOfCh,1
type,point
parent_name,4-cuts
ch_type,1_1
kcount,1
numberNandB,1
brightnessNandB,1
carpet pos,0
pc,0
Time (ms),CH1 Auto-Correlation
1.0,0.015940040349960327
2.0,0.013054338283836842
3.0,0.010946323163807392
4.0,0.009484847076237202
5.0,0.008415644988417625
6.0,0.007628405932337046
7.0,0.007046826649457216
8.0,0.0063012707978487015
9.0,0.00570082338526845
10.0,0.005161660723388195
11.0,0.004766654223203659
12.0,0.004373959731310606
13.0,0.0039047698955982924
14.0,0.0035739566665142775
15.0,0.003320279996842146
16.0,0.0031009542290121317
18.0,0.0029707083012908697
20.0,0.002786236349493265
22.0,0.0025770068168640137
24.0,0.002319237682968378
26.0,0.0021634912118315697
28.0,0.0019969723653048277
30.0,0.0017892394680529833
32.0,0.0017820047214627266
36.0,0.00146178447175771
40.0,0.0012296056374907494
44.0,0.0008587189367972314
48.0,0.0006423213635571301
52.0,0.0005079846596345305
56.0,0.0001796686847228557
60.0,0.00011775634629884735
64.0,0.00017276819562539458
72.0,0.0003476497367955744
80.0,-7.038873445708305e-05
88.0,-0.00018425058806315064
96.0,-0.0007572589092887938
104.0,-0.0005728600663132966
112.0,-0.00024138769367709756
120.0,0.00022135938343126327
128.0,0.00032785945222713053
144.0,0.0006116742733865976
160.0,0.0003001973673235625
176.0,-0.0001838557218434289
192.0,-0.0002102700382238254
208.0,-0.0003630280843935907
224.0,-4.557846114039421e-05
240.0,0.000535807223059237
256.0,0.00021495365945156664
288.0,5.134648017701693e-05
320.0,-0.0001655843952903524
352.0,-0.00010519835632294416
384.0,-0.00033047032775357366
416.0,6.889602082083002e-05
448.0,0.00039198261220008135
480.0,0.0003465847112238407
512.0,0.0002127765619661659
576.0,0.00027847159071825445
640.0,0.00023814922315068543
704.0,-9.170302655547857e-05
768.0,-0.0004632280906662345
832.0,-0.0004988223081454635
896.0,-0.00021270527213346213
960.0,0.00019302825967315584
1024.0,-0.0002740435884334147
1152.0,0.00026629536296240985
1280.0,-0.0002892848278861493
1408.0,-6.17469268036075e-05
1536.0,-0.0002280572516610846
1664.0,0.0001878778712125495
1792.0,0.00042640697211027145
1920.0,-0.00010915377060882747
2048.0,-0.00015259614156093448
2304.0,-5.377946763474029e-07
2560.0,-1.6321942894137464e-05
2816.0,-1.901516407087911e-05
3072.0,-0.00018246506806463003
3328.0,0.00020344021322671324
3584.0,-0.00012124919885536656
3840.0,0.0004588223819155246
4096.0,1.7815820683608763e-05
4608.0,3.104032657574862e-05
5120.0,-5.829885776620358e-05
5632.0,-0.0001395387516822666
6144.0,8.776611139182933e-06
6656.0,-0.00040798287955112755
7168.0,-7.443629874614999e-05
7680.0,0.00027455706731416285
8192.0,-3.417911648284644e-05
9216.0,-2.682867670955602e-05
10240.0,-0.00031348460470326245
11264.0,0.00010691006173146889
12288.0,-0.00012257455091457814
13312.0,0.00016388847143389285
14336.0,-0.00045961057185195386
end
