version,3.0
numOfCh,1
type,point
parent_name,4-cuts
ch_type,1_1
kcount,1
numberNandB,1
brightnessNandB,1
carpet pos,0
pc,0
Time (ms),CH1 Auto-Correlation
1.0,0.01648687943816185
2.0,0.013598505407571793
3.0,0.011434013023972511
4.0,0.009889243170619011
5.0,0.00874537043273449
6.0,0.007790953852236271
7.0,0.007129492238163948
8.0,0.006557210348546505
9.0,0.0059981634840369225
10.0,0.005585638340562582
11.0,0.005202066618949175
12.0,0.004812509287148714
13.0,0.004386696964502335
14.0,0.004002732690423727
15.0,0.0037104592192918062
16.0,0.0035212719812989235
18.0,0.003213274059817195
20.0,0.0027768113650381565
22.0,0.002563941292464733
24.0,0.002434623194858432
26.0,0.0022379274014383554
28.0,0.0020537234377115965
30.0,0.0018626003293320537
32.0,0.0016633670311421156
36.0,0.0016455273143947124
40.0,0.0018324035918340087
44.0,0.001725389389321208
48.0,0.001447640242986381
52.0,0.0008745702798478305
56.0,0.0007829881506040692
60.0,0.0009392222273163497
64.0,0.0009450717479921877
72.0,0.0006854702951386571
80.0,0.0002686036459635943
88.0,0.000130737797007896
96.0,0.00011540917330421507
104.0,0.0003148465766571462
112.0,0.0003883478348143399
120.0,6.927668437128887e-05
128.0,0.0003080706810578704
144.0,-0.0003656884073279798
160.0,-0.0005626687780022621
176.0,-9.826762834563851e-05
192.0,0.00018567050574347377
208.0,-2.0393551949382527e-06
224.0,1.5868787158979103e-05
240.0,0.00012773973867297173
256.0,-0.00018434150842949748
288.0,-0.00015241189976222813
320.0,-0.00012060147855663672
352.0,-0.0007081329822540283
384.0,-0.0006660994840785861
416.0,-5.976805550744757e-05
448.0,3.238140561734326e-05
480.0,0.00022390430967789143
512.0,0.0006514826673083007
576.0,0.000184762422577478
640.0,-0.00042883213609457016
704.0,0.00021533200924750417
768.0,0.0003152303397655487
832.0,-3.317627852084115e-05
896.0,-0.000446620600996539
960.0,-0.0002611058880575001
1024.0,-0.00015856123354751617
1152.0,-0.0006318878149613738
1280.0,0.0003504006308503449
1408.0,-0.00011268286471022293
1536.0,0.00047911639558151364
1664.0,-0.0005132043152116239
1792.0,5.9576384956017137e-05
1920.0,-0.00046379261766560376
2048.0,7.57150337449275e-05
2304.0,0.00020345444499980658
2560.0,-0.0003056097775697708
2816.0,0.0004511828883551061
3072.0,-5.991975558572449e-05
3328.0,-0.00017011405725497752
3584.0,0.0001820694305934012
3840.0,6.8105855461908504e-06
4096.0,-0.0001669774210313335
4608.0,-0.0001309822837356478
5120.0,-6.956322613405064e-05
5632.0,0.0001112397585529834
6144.0,0.00014082614507060498
6656.0,0.00015046079352032393
7168.0,-1.1432286228796329e-08
7680.0,-0.00010044204827863723
8192.0,-0.00018397398525848985
9216.0,8.243094271165319e-06
10240.0,0.00017241350724361837
11264.0,-0.00017223648319486529
12288.0,9.508714720141143e-05
13312.0,0.00017195411783177406
14336.0,-0.0004246662138029933
end
