version,3.0
numOfCh,1
type,point
parent_name,4-cuts
ch_type,1_1
kcount,1
numberNandB,1
brightnessNandB,1
carpet pos,0
pc,0
Time (ms),CH1 Auto-Correlation
1.0,0.029740842059254646
2.0,0.02494426630437374
3.0,0.021557601168751717
4.0,0.01900348998606205
5.0,0.01695138029754162
6.0,0.015259958803653717
7.0,0.013929375447332859
8.0,0.012706086970865726
9.0,0.011731591075658798
10.0,0.010936049744486809
11.0,0.010271647945046425
12.0,0.00966669898480177
13.0,0.00892710406333208
14.0,0.008298330940306187
15.0,0.007882366888225079
16.0,0.007344564888626337
18.0,0.006600071210414171
20.0,0.006163259036839008
22.0,0.005311521235853434
24.0,0.004645676352083683
26.0,0.004531778860837221
28.0,0.004576675593852997
30.0,0.004508171696215868
32.0,0.004343307577073574
36.0,0.004117532167583704
40.0,0.003753562457859516
44.0,0.0031980974599719048
48.0,0.003024183213710785
52.0,0.002713460009545088
56.0,0.0024531525559723377
60.0,0.0020211422815918922
64.0,0.0010754393879324198
72.0,0.0011335535673424602
80.0,0.0015424620360136032
88.0,0.001043782220222056
96.0,0.0008198581635951996
104.0,0.0004683932347688824
112.0,0.0001623747230041772
120.0,-0.0010517026530578732
128.0,-0.001677850028499961
144.0,-0.0007446848903782666
160.0,-0.00025713848299346864
176.0,-9.490874617767986e-06
192.0,0.000680736789945513
208.0,0.0008979986887425184
224.0,0.000900786544661969
240.0,0.0008460928802378476
256.0,0.0008759591146372259
288.0,0.0004291896184440702
320.0,-0.0010696350364014506
352.0,-0.0006452248780988157
384.0,-0.0008132142247632146
416.0,-0.0014269122621044517
448.0,-0.0009703430696390569
480.0,-0.0002214841078966856
512.0,-0.0005311951390467584
576.0,-0.0004816681903321296
640.0,-0.0001473528827773407
704.0,0.00016208001761697233
768.0,-0.0003900894953403622
832.0,-0.00037472540861926973
896.0,0.0006123477360233665
960.0,0.00034812078229151666
1024.0,-0.00015712955791968852
1152.0,-0.0010051062563434243
1280.0,-7.592336623929441e-05
1408.0,-0.0004320118168834597
1536.0,-0.00033913261722773314
1664.0,-0.0006632051081396639
1792.0,-0.00013345497427508235
1920.0,0.00021933336392976344
2048.0,1.573588451719843e-05
2304.0,-8.940426596382167e-06
2560.0,-8.991570939542726e-05
2816.0,-7.516384357586503e-05
3072.0,-4.202387935947627e-05
3328.0,0.0003111957630608231
3584.0,2.9410903152893297e-05
3840.0,-6.56947449897416e-05
4096.0,-0.00010600396490190178
4608.0,-0.00031483895145356655
5120.0,3.502294566715136e-05
5632.0,-8.792896551312879e-05
6144.0,-2.8362494049360976e-05
6656.0,0.0006709163426421583
7168.0,2.9047221687505953e-05
7680.0,-0.0007999919471330941
8192.0,-0.00015832371718715876
9216.0,0.00045281232451088727
10240.0,-0.0002559024724178016
11264.0,-0.0005480003892444074
12288.0,0.0007171893958002329
13312.0,0.0003534179413691163
14336.0,-0.001610053819604218
end
