version,3.0
numOfCh,1
type,point
parent_name,4-cuts
ch_type,1_1
kcount,1
numberNandB,1
brightnessNandB,1
carpet pos,0
pc,0
Time (ms),CH1 Auto-Correlation
1.0,0.01519935205578804
2.0,0.012222523801028728
3.0,0.010145027190446854
4.0,0.008799347095191479
5.0,0.007585350889712572
6.0,0.006621059030294418
7.0,0.005909394007176161
8.0,0.005251266993582249
9.0,0.004673783201724291
10.0,0.004196717403829098
11.0,0.0037713649217039347
12.0,0.0034413859248161316
13.0,0.0032089396845549345
14.0,0.0030578121077269316
15.0,0.0029233205132186413
16.0,0.002779848873615265
18.0,0.002303234301507473
20.0,0.0020814076997339725
22.0,0.001795508316718042
24.0,0.0017051732866093516
26.0,0.0015483576571568847
28.0,0.001403140602633357
30.0,0.0013316139811649919
32.0,0.0011471409816294909
36.0,0.0010150161106139421
40.0,0.0007988503202795982
44.0,0.0007091272273100913
48.0,0.0006691503222100437
52.0,0.0007865859079174697
56.0,0.0006751520559191704
60.0,0.0004949166905134916
64.0,0.0003698022919707
72.0,0.00010588101577013731
80.0,-0.00023921203683130443
88.0,-0.0003008452185895294
96.0,0.00013313804811332375
104.0,0.0002018897357629612
112.0,0.00023652597155887634
120.0,0.00025939749320968986
128.0,4.045263267471455e-05
144.0,0.00017504185962025076
160.0,0.00025533066946081817
176.0,3.309464591438882e-05
192.0,-0.000184767457540147
208.0,-0.0005035481881350279
224.0,-0.00030561775201931596
240.0,-0.00042164098704233766
256.0,-0.00041450001299381256
288.0,-0.00027333281468600035
320.0,8.982792496681213e-05
352.0,0.0005323187215253711
384.0,0.0003142953501082957
416.0,-0.00015402781718876213
448.0,-0.0001666662428760901
480.0,0.00013626404688693583
512.0,0.00015562378393951803
576.0,2.7969728762400337e-05
640.0,0.00024714184110052884
704.0,4.8268932005157694e-05
768.0,0.00010068014671560377
832.0,0.00041770568350329995
896.0,-1.96192049770616e-05
960.0,-0.0001287592458538711
1024.0,0.0005439891829155385
1152.0,-3.861363074975088e-05
1280.0,5.299783879308961e-05
1408.0,-0.00017114383808802813
1536.0,-2.224019044660963e-05
1664.0,3.2447991316075786e-07
1792.0,-0.00022663561685476452
1920.0,-0.0005502041894942522
2048.0,0.00010037895845016465
2304.0,-0.00019227928714826703
2560.0,-0.00018395596998743713
2816.0,-0.00030140343005768955
3072.0,-0.00016739359125494957
3328.0,-0.00014550291234627366
3584.0,9.776118531590328e-05
3840.0,-0.00018945230112876743
4096.0,0.00013352390669751912
4608.0,0.00010314356040908024
5120.0,0.00013632986519951373
5632.0,4.811934195458889e-05
6144.0,1.52870543388417e-05
6656.0,-8.797717600828037e-05
7168.0,-0.0001329216465819627
7680.0,-5.447422881843522e-05
8192.0,7.828597881598398e-05
9216.0,6.49352150503546e-05
10240.0,4.9935344577534124e-05
11264.0,2.2445141439675353e-05
12288.0,-8.229925697378349e-06
13312.0,-0.00016273197252303362
14336.0,-2.6027953936136328e-05
end
