version,3.0
numOfCh,1
type,point
parent_name,4-cuts
ch_type,1_1
kcount,1
numberNandB,1
brightnessNandB,1
carpet pos,0
pc,0
Time (ms),CH1 Auto-Correlation
1.0,0.016276899725198746
2.0,0.013509200885891914
3.0,0.011594557203352451
4.0,0.010184137150645256
5.0,0.00896703451871872
6.0,0.008069206029176712
7.0,0.007372328545898199
8.0,0.0067480821162462234
9.0,0.006290671415627003
10.0,0.00584900937974453
11.0,0.005336658097803593
12.0,0.004981286823749542
13.0,0.004744709003716707
14.0,0.004568914882838726
15.0,0.004517559427767992
16.0,0.004383838269859552
18.0,0.004079406149685383
20.0,0.0036775905173271894
22.0,0.0034518372267484665
24.0,0.0031349132768809795
26.0,0.0029553307686001062
28.0,0.0028407005593180656
30.0,0.0025447553489357233
32.0,0.0021391068585217
36.0,0.0018387639429420233
40.0,0.0016997193451970816
44.0,0.00152399274520576
48.0,0.001276537193916738
52.0,0.0012307739816606045
56.0,0.0013249691110104322
60.0,0.0011870297603309155
64.0,0.0010194684145972133
72.0,0.00047532381722703576
80.0,9.655574831413105e-05
88.0,-8.522745338268578e-05
96.0,7.661819836357608e-06
104.0,-7.184019341366366e-05
112.0,3.035053850908298e-05
120.0,-0.00030800423701293766
128.0,-0.000173862514202483
144.0,-0.0003678338835015893
160.0,-0.0002448783488944173
176.0,2.4497308913851157e-05
192.0,0.0002836068451870233
208.0,-8.105652523227036e-05
224.0,-0.0005488868919201195
240.0,-0.0005030151805840433
256.0,5.905180296394974e-05
288.0,0.00041377375600859523
320.0,0.0002951933129224926
352.0,-2.9468243155861273e-05
384.0,-0.0002058306708931923
416.0,-0.00018808810273185372
448.0,0.00022796535631641746
480.0,0.0004080640501342714
512.0,4.959023863193579e-05
576.0,-4.886999158770777e-05
640.0,0.0002546701580286026
704.0,0.0006091734394431114
768.0,7.691678183618933e-05
832.0,-0.00017543535795994103
896.0,-0.00010022654896602035
960.0,-0.00020142467110417783
1024.0,-0.00016082116053439677
1152.0,-9.545591638016049e-06
1280.0,0.0002423619880573824
1408.0,0.00013443453644867986
1536.0,-0.0001695858663879335
1664.0,-0.0002643158077262342
1792.0,-0.00032021765946410596
1920.0,7.395220018224791e-05
2048.0,8.939596591517329e-05
2304.0,-6.444323662435636e-05
2560.0,-6.854235107311979e-05
2816.0,7.676761015318334e-05
3072.0,0.0002766002726275474
3328.0,-5.1008690206799656e-05
3584.0,0.00010576428030617535
3840.0,0.0002710029948502779
4096.0,-7.063732482492924e-05
4608.0,0.0004056231409776956
5120.0,0.00010354103142162785
5632.0,-0.00013342830061446875
6144.0,-0.00013636620133183897
6656.0,-0.0001539463410153985
7168.0,-0.0001071207007043995
7680.0,-0.00013948128616902977
8192.0,0.00010403900523670018
9216.0,-9.991954357246868e-06
10240.0,-0.00021388840104918927
11264.0,-0.00028509311960078776
12288.0,-0.0001257639960385859
13312.0,5.9353628785174806e-06
14336.0,-0.00021615032164845616
end
