version,3.0
numOfCh,1
type,point
parent_name,4-cuts
ch_type,1_1
kcount,1
numberNandB,1
brightnessNandB,1
carpet pos,0
pc,0
Time (ms),CH1 Auto-Correlation
1.0,0.014636262319982052
2.0,0.011790157295763493
3.0,0.009871521964669228
4.0,0.008369590155780315
5.0,0.007273063529282808
6.0,0.006414130795747042
7.0,0.005705563817173243
8.0,0.005162614397704601
9.0,0.004539382178336382
10.0,0.0040193116292357445
11.0,0.003595785703510046
12.0,0.0033339879009872675
13.0,0.0031457573641091585
14.0,0.0028547453694045544
15.0,0.002656989498063922
16.0,0.002550855977460742
18.0,0.002176062436774373
20.0,0.0019439405295997858
22.0,0.001777832512743771
24.0,0.00175195571500808
26.0,0.001649711630307138
28.0,0.0015196386957541108
30.0,0.0014154416276142001
32.0,0.001301121897995472
36.0,0.0009040466393344104
40.0,0.0007748549687676132
44.0,0.0005399985238909721
48.0,0.00047653482761234045
52.0,0.00038342634798027575
56.0,0.00031082279747352004
60.0,0.0003571560955606401
64.0,0.0004859477048739791
72.0,0.0006243527168408036
80.0,0.00040042042382992804
88.0,0.0003300864773336798
96.0,0.00019655998039525002
104.0,0.00038518322980962694
112.0,0.0007104686228558421
120.0,0.0007739454740658402
128.0,0.0005207668291404843
144.0,0.000163166769198142
160.0,-0.00024042953737080097
176.0,0.000280237291008234
192.0,-2.3178532501333393e-05
208.0,0.00012460065772756934
224.0,0.0002303926885360852
240.0,0.0004042854125145823
256.0,0.0004261975991539657
288.0,0.0002470861072652042
320.0,0.00025978166377171874
352.0,6.624664820265025e-06
384.0,-0.00039700663182884455
416.0,-0.0002256611332995817
448.0,-0.0002381656231591478
480.0,0.00013642538397107273
512.0,0.00021548046788666397
576.0,5.015996521251509e-06
640.0,-3.640812428784557e-05
704.0,-0.0002037860540440306
768.0,0.0002073599462164566
832.0,-0.0001016726964735426
896.0,-0.00018501043086871505
960.0,-0.0003309957683086395
1024.0,-0.00055584596702829
1152.0,-0.00044152207556180656
1280.0,-7.172539426392177e-06
1408.0,-0.00020898852380923927
1536.0,-9.37504373723641e-05
1664.0,-0.0004652678908314556
1792.0,0.0002768962294794619
1920.0,-6.044258043402806e-05
2048.0,0.00032819435000419617
2304.0,-0.00013990567822474986
2560.0,0.0002312260476173833
2816.0,-3.136326631647535e-05
3072.0,3.63483777618967e-05
3328.0,5.683170456904918e-05
3584.0,-4.2096999095520005e-05
3840.0,0.00012986220826860517
4096.0,-8.558171975892037e-05
4608.0,2.1170932086533867e-05
5120.0,8.778389201324899e-06
5632.0,-0.0002665469655767083
6144.0,-0.00034103653160855174
6656.0,0.00014976048259995878
7168.0,0.000279722036793828
7680.0,0.000246784882619977
8192.0,-0.0003149298718199134
9216.0,5.530913404072635e-05
10240.0,0.00020407837291713804
11264.0,-0.00016296097601298243
12288.0,0.00028992959414608777
13312.0,-0.0003949753299821168
14336.0,0.00020630763901863247
end
