version,3.0
numOfCh,1
type,point
parent_name,4-cuts
ch_type,1_1
kcount,1
numberNandB,1
brightnessNandB,1
carpet pos,0
pc,0
Time (ms),CH1 Auto-Correlation
1.0,0.01626071147620678
2.0,0.0131760248914361
3.0,0.011086096055805683
4.0,0.00953375268727541
5.0,0.008265356533229351
6.0,0.007328247185796499
7.0,0.006542407441884279
8.0,0.0059153009206056595
9.0,0.005272922571748495
10.0,0.004767038393765688
11.0,0.004352803807705641
12.0,0.004075969569385052
13.0,0.003782861167564988
14.0,0.0035627130419015884
15.0,0.0033939380664378405
16.0,0.0033069071359932423
18.0,0.003029082203283906
20.0,0.002644764957949519
22.0,0.0024306096602231264
24.0,0.0022474699653685093
26.0,0.002128813648596406
28.0,0.0020680357702076435
30.0,0.0019388594664633274
32.0,0.0018633813597261906
36.0,0.001803587656468153
40.0,0.001672790152952075
44.0,0.001611606334336102
48.0,0.0015148534439504147
52.0,0.0014152094954624772
56.0,0.0015562176704406738
60.0,0.0014338401379063725
64.0,0.001440948573872447
72.0,0.0012022979790344834
80.0,0.0006075567798689008
88.0,0.00022647653531748801
96.0,-0.00020546205632854253
104.0,-9.429211786482483e-05
112.0,-0.00015836930833756924
120.0,-8.22032870928524e-06
128.0,-0.00011153879313496873
144.0,-0.0008495039655826986
160.0,-0.0006323158740997314
176.0,-0.00031627388671040535
192.0,-0.0005189998773857951
208.0,-0.0009827356552705169
224.0,-0.0004536722553893924
240.0,-0.00029951074975542724
256.0,-0.0003385669260751456
288.0,-0.00013286426838021725
320.0,-0.0003942259063478559
352.0,-0.00010403613850940019
384.0,-0.00021822661801707
416.0,7.167087460402399e-05
448.0,-4.237932444084436e-05
480.0,0.00042350919102318585
512.0,0.0005468848394230008
576.0,0.0005304274964146316
640.0,0.00014426202687900513
704.0,-0.0002072356583084911
768.0,-0.0002665381762199104
832.0,-0.0005325665697455406
896.0,0.0002616893616504967
960.0,0.0005099194240756333
1024.0,0.00011405981058487669
1152.0,-0.00024027041217777878
1280.0,-9.867506014415994e-05
1408.0,0.00016493753355462104
1536.0,0.0005375342443585396
1664.0,-0.0004132047761231661
1792.0,0.00010427446977701038
1920.0,-0.00018835377704817802
2048.0,0.00024788203882053494
2304.0,-4.7572466428391635e-06
2560.0,9.442090231459588e-05
2816.0,3.270331217208877e-05
3072.0,0.00025257153902202845
3328.0,-0.0001687629264779389
3584.0,0.0002665838983375579
3840.0,3.6150288451608503e-06
4096.0,-0.00020480953389778733
4608.0,-0.00010587728320388123
5120.0,8.97345398698235e-06
5632.0,-0.00010710318747442216
6144.0,-5.208656148170121e-05
6656.0,-3.4451084502507e-05
7168.0,7.689459744142368e-05
7680.0,-0.00019289313058834523
8192.0,2.7650632546283305e-05
9216.0,-8.936699305195361e-05
10240.0,-0.00011212093522772193
11264.0,1.8488806745153852e-05
12288.0,-0.00027285938267596066
13312.0,-0.0002908317546825856
14336.0,-3.120837573078461e-05
end
