version,3.0
numOfCh,1
type,point
parent_name,4-cuts
ch_type,1_1
kcount,1
numberNandB,1
brightnessNandB,1
carpet pos,0
pc,0
Time (ms),CH1 Auto-Correlation
1.0,0.025316888466477394
2.0,0.020485831424593925
3.0,0.017278289422392845
4.0,0.01498336624354124
5.0,0.013238736428320408
6.0,0.01177904661744833
7.0,0.01037418469786644
8.0,0.009214770048856735
9.0,0.008281884714961052
10.0,0.007519086357206106
11.0,0.007024023216217756
12.0,0.006675833836197853
13.0,0.006314299535006285
14.0,0.005707576405256987
15.0,0.005270835477858782
16.0,0.0046736751683056355
18.0,0.0038641609717160463
20.0,0.0032992020715028048
22.0,0.0029809577390551567
24.0,0.002603875705972314
26.0,0.0023865869734436274
28.0,0.0021839120890945196
30.0,0.0020542507991194725
32.0,0.0018729527946561575
36.0,0.0017614684766158462
40.0,0.0014736306620761752
44.0,0.00132923130877316
48.0,0.0015678671188652515
52.0,0.0011216922430321574
56.0,0.0008078364771790802
60.0,0.0002712446148507297
64.0,0.00014051042671781033
72.0,0.0005528672481887043
80.0,0.000256820407230407
88.0,-0.00025945811648853123
96.0,-0.0005392790772020817
104.0,-0.0002608951472211629
112.0,9.866635082289577e-05
120.0,0.0002459471579641104
128.0,-0.00019639544188976288
144.0,0.00013936781033407897
160.0,-0.0005779984057880938
176.0,0.00020843773381784558
192.0,0.0001859837502706796
208.0,0.0001750651135807857
224.0,0.0006975652067922056
240.0,0.0006776850786991417
256.0,-0.0002310936397407204
288.0,2.030284122156445e-05
320.0,-0.0008261012262664735
352.0,-5.189924922888167e-05
384.0,0.0003293903137091547
416.0,0.00048203562619164586
448.0,-0.00020301683980505913
480.0,-0.00023412307200487703
512.0,-0.00032442586962133646
576.0,1.0700898201321252e-05
640.0,-1.4826395272393711e-05
704.0,-0.00034946526284329593
768.0,0.00016290839994326234
832.0,0.0005016924696974456
896.0,8.173062087735161e-05
960.0,-0.0003109647077508271
1024.0,-0.00030364099075086415
1152.0,-0.0005029513267800212
1280.0,-0.0006016273982822895
1408.0,-0.0002403457765467465
1536.0,2.4558952645747922e-05
1664.0,-6.567770469700918e-05
1792.0,7.859780453145504e-05
1920.0,-0.0005583584425039589
2048.0,-0.00026055320631712675
2304.0,-0.0001233957300428301
2560.0,-7.52866908442229e-05
2816.0,6.397334072971717e-05
3072.0,0.00013944321835879236
3328.0,0.00015201789210550487
3584.0,0.00024516970734111965
3840.0,2.6733976028481266e-06
4096.0,0.0003611485590226948
4608.0,-0.00017152829968836159
5120.0,-0.00024582393234595656
5632.0,-4.8210953536909074e-05
6144.0,-0.00023045761918183416
6656.0,2.5748513508006e-06
7168.0,0.0006828993209637702
7680.0,0.00026485210401006043
8192.0,-0.0005513376090675592
9216.0,-0.0001847934618126601
10240.0,0.00028359954012557864
11264.0,0.00027307248092256486
12288.0,-0.0009516360005363822
13312.0,0.0006379405967891216
14336.0,0.0003617260663304478
end
