version,3.0
numOfCh,1
type,point
parent_name,4-cuts
ch_type,1_1
kcount,1
numberNandB,1
brightnessNandB,1
carpet pos,0
pc,0
Time (ms),CH1 Auto-Correlation
1.0,0.027364609763026237
2.0,0.02245355397462845
3.0,0.019052213057875633
4.0,0.01678517460823059
5.0,0.015003303997218609
6.0,0.013624681159853935
7.0,0.012426401488482952
8.0,0.011280154809355736
9.0,0.010315170511603355
10.0,0.009789757430553436
11.0,0.0091157341375947
12.0,0.008509594947099686
13.0,0.008018234744668007
14.0,0.007475276477634907
15.0,0.0070665678940713406
16.0,0.006831674370914698
18.0,0.006339624989777803
20.0,0.0060496823862195015
22.0,0.00576460687443614
24.0,0.005225031636655331
26.0,0.004886182956397533
28.0,0.004588143900036812
30.0,0.0041773817501962185
32.0,0.004123421385884285
36.0,0.0035331961698830128
40.0,0.003164330031722784
44.0,0.002583935158327222
48.0,0.0021065387409180403
52.0,0.0015919270226731896
56.0,0.0011961525306105614
60.0,0.0009650581050664186
64.0,0.0009404850425198674
72.0,0.0008634001715108752
80.0,0.0005049019819125533
88.0,0.0003357436798978597
96.0,0.00028112251311540604
104.0,0.0005818491335958242
112.0,0.000531701254658401
120.0,0.0011127337347716093
128.0,0.0017134235240519047
144.0,0.0012381651904433966
160.0,0.0016115271719172597
176.0,0.0014817732153460383
192.0,0.00042062863940373063
208.0,-0.0006620234926231205
224.0,-0.0014299236936494708
240.0,-0.0006189118139445782
256.0,-0.0005888841114938259
288.0,-7.231484050862491e-05
320.0,-0.0006266514537855983
352.0,-0.0008984518935903907
384.0,-0.0004933130112476647
416.0,0.0007058373303152621
448.0,0.0012255433248355985
480.0,0.0010203489800915122
512.0,0.00048161589074879885
576.0,0.0009723874973133206
640.0,-0.00015010072092991322
704.0,0.00019364796753507107
768.0,1.3698415386897977e-05
832.0,-0.00034289920586161315
896.0,0.0007840368198230863
960.0,0.00020007022249046713
1024.0,2.737504109973088e-05
1152.0,-7.981030648807064e-06
1280.0,-0.0004859105683863163
1408.0,0.00014576448302250355
1536.0,-0.00011858901416417211
1664.0,-0.0007533713360317051
1792.0,-0.0008332086727023125
1920.0,-0.0007213171338662505
2048.0,-0.00035032376763410866
2304.0,5.989750206936151e-05
2560.0,-0.0007641945267096162
2816.0,-0.00046338929678313434
3072.0,-0.0006892348174005747
3328.0,2.430051245028153e-05
3584.0,0.0006939509767107666
3840.0,0.000380265642888844
4096.0,0.0004172199114691466
4608.0,0.00033800670644268394
5120.0,-0.00018813526548910886
5632.0,0.00045324768871068954
6144.0,-0.0002348679699935019
6656.0,-0.00025806884514167905
7168.0,-0.000604385684709996
7680.0,0.0006457932176999748
8192.0,-0.0003271069435868412
9216.0,0.00023688249348197132
10240.0,-0.0005852565518580377
11264.0,-0.0002685447980184108
12288.0,-4.0080321923596784e-05
13312.0,0.00029322534101083875
14336.0,9.995148866437376e-05
end
