version,3.0
numOfCh,1
type,point
parent_name,4-cuts
ch_type,1_1
kcount,1
numberNandB,1
brightnessNandB,1
carpet pos,0
pc,0
Time (ms),CH1 Auto-Correlation
1.0,0.028209641575813293
2.0,0.023305678740143776
3.0,0.0197371244430542
4.0,0.016958998516201973
5.0,0.014838390052318573
6.0,0.01311208214610815
7.0,0.011696208268404007
8.0,0.01049930602312088
9.0,0.0094651710242033
10.0,0.00859240721911192
11.0,0.007842877879738808
12.0,0.007157889660447836
13.0,0.006764471996575594
14.0,0.006504886317998171
15.0,0.006138987839221954
16.0,0.005797042511403561
18.0,0.005345288664102554
20.0,0.004639350809156895
22.0,0.003974621184170246
24.0,0.003781313542276621
26.0,0.0032345636282116175
28.0,0.0028918394818902016
30.0,0.0029073129408061504
32.0,0.002630077302455902
36.0,0.001971662510186434
40.0,0.0013967782724648714
44.0,0.0010869763791561127
48.0,0.0013363425387069583
52.0,0.0012421136489138007
56.0,0.000940613157581538
60.0,0.0010218016104772687
64.0,0.0011391645530238748
72.0,0.0006837371620349586
80.0,0.0007927195983938873
88.0,0.0007430213154293597
96.0,0.0008024033741094172
104.0,0.001076840446330607
112.0,0.0010804857593029737
120.0,0.0010311626829206944
128.0,0.000767238496337086
144.0,0.0009334804490208626
160.0,0.0012428370537236333
176.0,0.0009455719264224172
192.0,0.001139368861913681
208.0,0.0012300638481974602
224.0,0.0005641125608235598
240.0,0.0005167743656784296
256.0,-1.6256748494924977e-05
288.0,-0.00021261408983264118
320.0,0.0008594878017902374
352.0,0.001236261916346848
384.0,-0.0004915111348964274
416.0,7.70645565353334e-05
448.0,0.00042828917503356934
480.0,0.0013394546695053577
512.0,0.00033725451794452965
576.0,-0.00011287671077298
640.0,-0.0003718671796377748
704.0,-0.00024396038497798145
768.0,0.0002697679155971855
832.0,-0.0003189277194906026
896.0,-0.00041494410834275186
960.0,-0.00036663515493273735
1024.0,-0.0002495177322998643
1152.0,-0.0005262732738628983
1280.0,-0.0003075844142585993
1408.0,0.0001390998950228095
1536.0,0.00020134367514401674
1664.0,0.00011448648001533002
1792.0,-7.196058140834793e-05
1920.0,-0.00014466539141722023
2048.0,0.000437736336607486
2304.0,-0.00012593361316248775
2560.0,0.000307578535284847
2816.0,3.979338362114504e-05
3072.0,0.0001481242070440203
3328.0,-0.00022010081738699228
3584.0,7.467195246135816e-05
3840.0,1.8223390725324862e-05
4096.0,-0.00031669915188103914
4608.0,-0.00015737356443423778
5120.0,-4.637393794837408e-05
5632.0,7.330493099289015e-05
6144.0,7.47772864997387e-05
6656.0,-0.00015409827756229788
7168.0,-0.00010722148726927117
7680.0,0.0002388892462477088
8192.0,-0.00012967665679752827
9216.0,2.2156918930704705e-05
10240.0,-0.0003973583516199142
11264.0,-0.0005005978746339679
12288.0,-0.000577723840251565
13312.0,-0.0004993675393052399
14336.0,0.00037990981945768
end
