version,3.0
numOfCh,1
type,point
parent_name,4-cuts
ch_type,1_1
kcount,1
numberNandB,1
brightnessNandB,1
carpet pos,0
pc,0
Time (ms),CH1 Auto-Correlation
1.0,0.025284234434366226
2.0,0.02058267779648304
3.0,0.017240436747670174
4.0,0.01475618313997984
5.0,0.013009099289774895
6.0,0.011543845757842064
7.0,0.010245716199278831
8.0,0.009128695353865623
9.0,0.008069454692304134
10.0,0.007550744339823723
11.0,0.0070229703560471535
12.0,0.006642862688750029
13.0,0.00638459762558341
14.0,0.005912017077207565
15.0,0.005529271438717842
16.0,0.00541685288771987
18.0,0.005219535436481237
20.0,0.004781861789524555
22.0,0.004553630948066711
24.0,0.004148442763835192
26.0,0.0038485515397042036
28.0,0.003498049918562174
30.0,0.0031601584050804377
32.0,0.0027994231786578894
36.0,0.0025439804885536432
40.0,0.002606401452794671
44.0,0.002056596102192998
48.0,0.0016851195832714438
52.0,0.0015697205672040582
56.0,0.0012633323203772306
60.0,0.0013658066745847464
64.0,0.0012292190222069621
72.0,0.0010529077844694257
80.0,0.0005823122919537127
88.0,0.00033084917231462896
96.0,0.0002499226829968393
104.0,6.687873974442482e-05
112.0,-0.00011988283949904144
120.0,1.0442025768497842e-06
128.0,6.233429303392768e-05
144.0,-3.3151267416542396e-05
160.0,-0.0002001138054765761
176.0,-0.000337048782967031
192.0,-0.0005585451144725084
208.0,-0.0006508906371891499
224.0,-0.0007996728527359664
240.0,-0.0005704808281734586
256.0,-0.000441821466665715
288.0,-0.00024671253049746156
320.0,-0.0005772864096798003
352.0,-0.0007761135930195451
384.0,-0.0005090466002002358
416.0,-2.1325740817701444e-05
448.0,0.0004540650697890669
480.0,-9.651538857724518e-05
512.0,-8.849066216498613e-05
576.0,0.00022000851458869874
640.0,-0.000680598197504878
704.0,-0.00015752411854919046
768.0,0.00019163214892614633
832.0,0.00020880711963400245
896.0,0.0005182866589166224
960.0,-0.00025653373450040817
1024.0,-0.00023429190332535654
1152.0,-0.0003005358448717743
1280.0,-0.0002509191690478474
1408.0,0.0007461104542016983
1536.0,-0.0006033305544406176
1664.0,-0.0008243625634349883
1792.0,-0.00033856884692795575
1920.0,0.00046043473412282765
2048.0,0.0003192117146681994
2304.0,0.0003606283862609416
2560.0,-0.00022574988543055952
2816.0,0.00023592464276589453
3072.0,6.0468704759841785e-05
3328.0,-0.0003403053560759872
3584.0,-0.000353964016539976
3840.0,-0.00025374157121405005
4096.0,-0.0002602781751193106
4608.0,8.857820648699999e-05
5120.0,0.00025746997562237084
5632.0,-0.00017760155606083572
6144.0,-0.0003427000774536282
6656.0,-0.00029945551068522036
7168.0,0.0005240789614617825
7680.0,9.055625559994951e-05
8192.0,-0.0004484387463890016
9216.0,0.0003767443122342229
10240.0,-4.549033837975003e-05
11264.0,4.026270835311152e-05
12288.0,0.00012725307897198945
13312.0,-0.0005923265707679093
14336.0,0.0004253058577887714
end
