version,3.0
numOfCh,1
type,point
parent_name,4-cuts
ch_type,1_1
kcount,1
numberNandB,1
brightnessNandB,1
carpet pos,0
pc,0
Time (ms),CH1 Auto-Correlation
1.0,0.027568992227315903
2.0,0.02290082350373268
3.0,0.0194870475679636
4.0,0.01708313263952732
5.0,0.015079055912792683
6.0,0.013474526815116405
7.0,0.012108705937862396
8.0,0.011122150346636772
9.0,0.010112009942531586
10.0,0.009340035729110241
11.0,0.008800172246992588
12.0,0.008253260515630245
13.0,0.007654325570911169
14.0,0.007141078356653452
15.0,0.006739164236932993
16.0,0.0064161974005401134
18.0,0.005704100709408522
20.0,0.004963361192494631
22.0,0.0042879520915448666
24.0,0.0035823180805891752
26.0,0.0031758383847773075
28.0,0.0028036683797836304
30.0,0.0024629859253764153
32.0,0.0023965868167579174
36.0,0.002223206451162696
40.0,0.00195968896150589
44.0,0.0018759208032861352
48.0,0.0020020753145217896
52.0,0.002012664219364524
56.0,0.0018513835966587067
60.0,0.0015057716518640518
64.0,0.001231391099281609
72.0,0.0010527078993618488
80.0,0.0008123866864480078
88.0,0.0010347338393330574
96.0,0.0011574610834941268
104.0,0.0008363193483091891
112.0,0.00030845083529129624
120.0,7.091679435689002e-05
128.0,0.00031609568395651877
144.0,-0.0002537730324547738
160.0,-0.00022299063857644796
176.0,0.00033688542316667736
192.0,0.0008208874496631324
208.0,0.0002827724674716592
224.0,0.00011124739103252068
240.0,-0.0005635665729641914
256.0,-0.00016765100008342415
288.0,0.00015126804646570235
320.0,0.0001323840842815116
352.0,-0.0002751933643594384
384.0,-0.0005174537654966116
416.0,-8.891221659723669e-05
448.0,-0.00013923621736466885
480.0,-0.0001519798970548436
512.0,-9.010091162053868e-05
576.0,0.00011643372272374108
640.0,0.0008806161349639297
704.0,-0.00013656540249940008
768.0,0.00011893377813976258
832.0,0.00045744155067950487
896.0,-0.000396544550312683
960.0,-0.00038375091389752924
1024.0,0.0002549688215367496
1152.0,-1.1493827514641453e-05
1280.0,0.00026847567642107606
1408.0,-7.880591874709353e-05
1536.0,-0.00025206198915839195
1664.0,-0.0008946639718487859
1792.0,-0.0006962796906009316
1920.0,-0.00039659306639805436
2048.0,0.00013852617121301591
2304.0,0.00012897148553747684
2560.0,-0.0005094044026918709
2816.0,0.0001073135863407515
3072.0,-2.4272530936286785e-05
3328.0,-0.00019989449356216937
3584.0,2.199459049734287e-05
3840.0,-0.00036497035762295127
4096.0,-0.0003428862546570599
4608.0,-0.0004997147480025887
5120.0,0.00019063116633333266
5632.0,-0.0001807907101465389
6144.0,0.00030591702670790255
6656.0,0.0001462498476030305
7168.0,0.00044600156252272427
7680.0,-6.802551069995388e-06
8192.0,0.0001507196284364909
9216.0,0.0001621574629098177
10240.0,-0.00034650054294615984
11264.0,-5.560021963901818e-05
12288.0,0.00016311185027007014
13312.0,-0.0003587030223570764
14336.0,-5.5564683862030506e-05
end
