version,3.0
numOfCh,1
type,point
parent_name,4-cuts
ch_type,1_1
kcount,1
numberNandB,1
brightnessNandB,1
carpet pos,0
pc,0
Time (ms),CH1 Auto-Correlation
1.0,0.015780264511704445
2.0,0.012973473407328129
3.0,0.010875224135816097
4.0,0.00936057511717081
5.0,0.00812599714845419
6.0,0.007106487639248371
7.0,0.006345459725707769
8.0,0.005612429231405258
9.0,0.005142176058143377
10.0,0.004689262714236975
11.0,0.004435062408447266
12.0,0.004211589694023132
13.0,0.003927268087863922
14.0,0.003706833580508828
15.0,0.0034395670518279076
16.0,0.0032577132806181908
18.0,0.00294032646343112
20.0,0.0026988787576556206
22.0,0.002391120418906212
24.0,0.0021089822985231876
26.0,0.001998427789658308
28.0,0.0018840139964595437
30.0,0.0017645114567130804
32.0,0.001514739473350346
36.0,0.0012542079202830791
40.0,0.0013965398538857698
44.0,0.0014546121237799525
48.0,0.0015425302553921938
52.0,0.0015482028247788548
56.0,0.001510560978204012
60.0,0.0015592386480420828
64.0,0.0015680608339607716
72.0,0.0012480646837502718
80.0,0.0010272064246237278
88.0,0.0009970861719921231
96.0,0.0007784569170325994
104.0,0.0005921304109506309
112.0,0.00029116179211996496
120.0,-9.69568791333586e-05
128.0,-0.00019060689373873174
144.0,0.00037634262116625905
160.0,-1.1632098903646693e-05
176.0,4.115133560844697e-05
192.0,0.0003032281238120049
208.0,0.00038094352930784225
224.0,-2.416519055259414e-05
240.0,2.1066111003165133e-05
256.0,0.00026528703165240586
288.0,-0.00045263601350598037
320.0,-0.0004594215133693069
352.0,-0.00027925902395509183
384.0,-0.00016829422384034842
416.0,-0.0001292318047489971
448.0,-0.00028167341952212155
480.0,0.0001280112483073026
512.0,-0.00012745839194394648
576.0,0.0004973381292074919
640.0,0.00035505450796335936
704.0,0.0003048875951208174
768.0,0.00019178111688233912
832.0,-0.00016856621368788183
896.0,-0.000367041677236557
960.0,0.0003627230762504041
1024.0,0.00012049340875819325
1152.0,0.00039111211663112044
1280.0,0.00027417438104748726
1408.0,0.00027957718702964485
1536.0,5.2016504923813045e-05
1664.0,0.0006504161283373833
1792.0,-0.0002612211974337697
1920.0,-0.00030790671007707715
2048.0,-0.0002491474151611328
2304.0,7.788318180246279e-05
2560.0,-0.00013677262177225202
2816.0,0.00014343079237733036
3072.0,-0.00013956089969724417
3328.0,2.409255102975294e-05
3584.0,7.796140562277287e-05
3840.0,0.0005064526339992881
4096.0,-0.00016875546134542674
4608.0,-9.919865260599181e-05
5120.0,0.00027979022706858814
5632.0,-0.00023045011039357632
6144.0,-3.2693864341126755e-05
6656.0,1.875788984762039e-05
7168.0,-0.00022388591605704278
7680.0,-0.00012760533718392253
8192.0,-0.00015034423267934471
9216.0,-0.0003918596194125712
10240.0,-8.918749517761171e-05
11264.0,-8.097661338979378e-05
12288.0,-7.578564691357315e-05
13312.0,-0.00023510796017944813
14336.0,-0.00029598953551612794
end
