version,3.0
numOfCh,1
type,point
parent_name,4-cuts
ch_type,1_1
kcount,1
numberNandB,1
brightnessNandB,1
carpet pos,0
pc,0
Time (ms),CH1 Auto-Correlation
1.0,0.02844984084367752
2.0,0.02363556995987892
3.0,0.020299360156059265
4.0,0.017893165349960327
5.0,0.01593400165438652
6.0,0.0143616683781147
7.0,0.01316000148653984
8.0,0.012093358673155308
9.0,0.011120831593871117
10.0,0.010203604586422443
11.0,0.00938035175204277
12.0,0.008843251504004002
13.0,0.008503193035721779
14.0,0.00807220209389925
15.0,0.0076276701875030994
16.0,0.00715708639472723
18.0,0.006281216163188219
20.0,0.005669083446264267
22.0,0.005304263439029455
24.0,0.005266057327389717
26.0,0.005191285628825426
28.0,0.005015864968299866
30.0,0.004712298046797514
32.0,0.00428415834903717
36.0,0.0037494448479264975
40.0,0.002967042615637183
44.0,0.002769379410892725
48.0,0.002743992954492569
52.0,0.0022785435430705547
56.0,0.0021778708323836327
60.0,0.0021318085491657257
64.0,0.0017658465076237917
72.0,0.001081368769519031
80.0,0.0004860410117544234
88.0,0.00032745214411988854
96.0,-0.0007082223310135305
104.0,-0.0012293631443753839
112.0,-0.0017692114925011992
120.0,-0.0015429737977683544
128.0,-0.0020539737306535244
144.0,-0.0008239231538027525
160.0,-2.035642864939291e-05
176.0,0.00031266442965716124
192.0,0.0007003872888162732
208.0,0.0007530793081969023
224.0,0.0013720383867621422
240.0,0.0012990501709282398
256.0,0.0005236217402853072
288.0,0.00019958330085501075
320.0,-0.0001423553767381236
352.0,-0.0005873767076991498
384.0,-0.000934080861043185
416.0,-0.0009552206029184163
448.0,-0.0013259357074275613
480.0,-0.0004451179120223969
512.0,-0.000664133345708251
576.0,-3.6644411011366174e-05
640.0,-0.0010428810492157936
704.0,-0.0005679152673110366
768.0,-0.00022287238971330225
832.0,-0.00018933095270767808
896.0,-0.0002416737552266568
960.0,-0.00042001481051556766
1024.0,-0.0006747451261617243
1152.0,-0.00013690508785657585
1280.0,-1.7561291315359995e-05
1408.0,0.000449422252131626
1536.0,0.0014232182875275612
1664.0,0.00028779180138371885
1792.0,-0.00012799967953469604
1920.0,-0.0003640216891653836
2048.0,-0.00046994895092211664
2304.0,0.0001280648139072582
2560.0,0.00016460561892017722
2816.0,0.00014233036199584603
3072.0,0.0005871813627891243
3328.0,-0.00045719248009845614
3584.0,-9.863494051387534e-05
3840.0,-0.00016657165542710572
4096.0,4.947852357872762e-05
4608.0,-0.00017616605327930301
5120.0,-0.00016623115516267717
5632.0,0.0005048300954513252
6144.0,-0.0003230478323530406
6656.0,-0.00018614399596117437
7168.0,-0.00016468780813738704
7680.0,-0.0004144956765230745
8192.0,0.0003360260452609509
9216.0,1.9872593384206994e-06
10240.0,-0.000102739613794256
11264.0,-9.15188775252318e-06
12288.0,9.729374141898006e-05
13312.0,8.022684778552502e-05
14336.0,-3.797473618760705e-05
end
