version,3.0
numOfCh,1
type,point
parent_name,4-cuts
ch_type,1_1
kcount,1
numberNandB,1
brightnessNandB,1
carpet pos,0
pc,0
Time (ms),CH1 Auto-Correlation
1.0,0.0287570059299469
2.0,0.02400139719247818
3.0,0.02083589881658554
4.0,0.01842189021408558
5.0,0.01666710525751114
6.0,0.015307617373764515
7.0,0.014079148881137371
8.0,0.01309763453900814
9.0,0.012086495757102966
10.0,0.011248643510043621
11.0,0.010471050627529621
12.0,0.00971200317144394
13.0,0.00923577044159174
14.0,0.008767707273364067
15.0,0.00821290910243988
16.0,0.007707194425165653
18.0,0.007224434055387974
20.0,0.007002618163824081
22.0,0.006682030390948057
24.0,0.006276370957493782
26.0,0.005911116488277912
28.0,0.0051611135713756084
30.0,0.0047503309324383736
32.0,0.004250782076269388
36.0,0.0036166843492537737
40.0,0.003168136812746525
44.0,0.0028968427795916796
48.0,0.0031643440015614033
52.0,0.002830695128068328
56.0,0.0025550001300871372
60.0,0.0020684758201241493
64.0,0.0019744050223380327
72.0,0.0014450621092692018
80.0,0.001221427577547729
88.0,0.0009641887154430151
96.0,0.0012820500414818525
104.0,0.0010254434309899807
112.0,0.0008884398266673088
120.0,0.001406969502568245
128.0,0.0012946596834808588
144.0,0.0010011567501351237
160.0,0.0010114924516528845
176.0,0.000388566026231274
192.0,0.00011178979184478521
208.0,0.00041092964238487184
224.0,-0.00010899882181547582
240.0,-0.000337413715897128
256.0,-0.00045803087414242327
288.0,-0.0003049383813049644
320.0,0.00132165034301579
352.0,0.0024426390882581472
384.0,0.0016605252167209983
416.0,0.001023782417178154
448.0,0.0005794709431938827
480.0,0.00046772125642746687
512.0,0.001710735261440277
576.0,0.0004722935555037111
640.0,0.000141012467793189
704.0,0.0007720416761003435
768.0,-2.8545466193463653e-05
832.0,0.00024069986829999834
896.0,0.0006927986396476626
960.0,0.00029907713178545237
1024.0,0.00014290190301835537
1152.0,-0.00012660461652558297
1280.0,0.0009951313259080052
1408.0,0.0004769522347487509
1536.0,0.00013099964417051524
1664.0,0.0010435651056468487
1792.0,0.0006724317790940404
1920.0,0.0012516657589003444
2048.0,0.0007237542304210365
2304.0,0.00020948014571331441
2560.0,0.000491649261675775
2816.0,0.0008977950783446431
3072.0,-0.000503969204146415
3328.0,0.00039352255407720804
3584.0,-0.0008168206550180912
3840.0,-0.00011181447916897014
4096.0,-0.00020205439068377018
4608.0,0.00043714334606193006
5120.0,0.0001997622021008283
5632.0,-0.00022232963237911463
6144.0,-0.0001308163773501292
6656.0,-0.00021000468404963613
7168.0,0.00017412190209142864
7680.0,-9.498896542936563e-05
8192.0,-0.0007871055277064443
9216.0,-0.0009516645804978907
10240.0,-0.0005612564273178577
11264.0,-0.0011212932877242565
12288.0,-0.00023826300457585603
13312.0,-0.0012428468326106668
14336.0,-7.106461271177977e-05
end
