version,3.0
numOfCh,1
type,point
parent_name,4-cuts
ch_type,1_1
kcount,1
numberNandB,1
brightnessNandB,1
carpet pos,0
pc,0
Time (ms),CH1 Auto-Correlation
1.0,0.0268317312002182
2.0,0.022196447476744652
3.0,0.019011789932847023
4.0,0.016618438065052032
5.0,0.014680176042020321
6.0,0.013120755553245544
7.0,0.01168048195540905
8.0,0.01056996826082468
9.0,0.009685182943940163
10.0,0.008920256048440933
11.0,0.00808672234416008
12.0,0.007506164722144604
13.0,0.007070641033351421
14.0,0.006901745218783617
15.0,0.006507874000817537
16.0,0.006148348096758127
18.0,0.005537655670195818
20.0,0.004990294110029936
22.0,0.0045678503811359406
24.0,0.004225776065140963
26.0,0.0034927381202578545
28.0,0.0028643140103667974
30.0,0.003012938192114234
32.0,0.002841266570612788
36.0,0.0025324872694909573
40.0,0.0018623413052409887
44.0,0.0018636500462889671
48.0,0.0018661482026800513
52.0,0.0015209410339593887
56.0,0.0010920760687440634
60.0,0.0008035369100980461
64.0,0.0005750448908656836
72.0,0.0008954264339990914
80.0,0.0005400415393523872
88.0,0.00020967012096662074
96.0,0.0002466619771439582
104.0,2.9175451345508918e-05
112.0,0.0002219152811449021
120.0,0.0002594598918221891
128.0,0.0007580125238746405
144.0,0.0006398066179826856
160.0,0.000806835072580725
176.0,0.0010395488934591413
192.0,0.001160024432465434
208.0,0.0008938296232372522
224.0,0.0001813668932300061
240.0,0.00012912477541249245
256.0,-0.00035076632048003376
288.0,4.864359198109014e-06
320.0,0.0004885214730165899
352.0,0.0010821640025824308
384.0,-0.00032243310124613345
416.0,-2.9067389277770417e-06
448.0,-0.0002623476611915976
480.0,-0.00029230082873255014
512.0,-0.0002381314116064459
576.0,-0.00030657093157060444
640.0,-2.6479290681891143e-05
704.0,-0.00014171571820043027
768.0,0.000695744703989476
832.0,-0.0003901512245647609
896.0,-7.486069807782769e-05
960.0,0.0002901525585912168
1024.0,0.0005082546849735081
1152.0,7.956401532283053e-06
1280.0,-0.0003796556266024709
1408.0,2.585492438811343e-05
1536.0,-6.453382411564235e-06
1664.0,0.0006813760264776647
1792.0,0.0005922680720686913
1920.0,-0.0002460628456901759
2048.0,-0.0011041624238714576
2304.0,-0.00031518147443421185
2560.0,-0.0004747373750433326
2816.0,-0.0007729876670055091
3072.0,0.0003744310815818608
3328.0,6.819159352744464e-06
3584.0,7.489010749850422e-05
3840.0,-0.00013531949662137777
4096.0,-0.0002383082319283858
4608.0,1.4982489119574893e-05
5120.0,0.00019352782692294568
5632.0,-0.0003077969595324248
6144.0,-0.00019418532610870898
6656.0,-0.0001171863914350979
7168.0,-0.00018883985467255116
7680.0,-6.750410830136389e-05
8192.0,-3.0795636121183634e-06
9216.0,6.0475798818515614e-05
10240.0,0.0006777385715395212
11264.0,3.0290998438431416e-06
12288.0,-0.0005180807202123106
13312.0,-0.00013744078751187772
14336.0,0.0001343544281553477
end
