version,3.0
numOfCh,1
type,point
parent_name,4-cuts
ch_type,1_1
kcount,1
numberNandB,1
brightnessNandB,1
carpet pos,0
pc,0
Time (ms),CH1 Auto-Correlation
1.0,0.027995405718684196
2.0,0.023134473711252213
3.0,0.019710779190063477
4.0,0.017229048535227776
5.0,0.01506864745169878
6.0,0.013563006184995174
7.0,0.012406006455421448
8.0,0.011406908743083477
9.0,0.010562727227807045
10.0,0.009820375591516495
11.0,0.009253396652638912
12.0,0.008823160082101822
13.0,0.008342206478118896
14.0,0.00798846036195755
15.0,0.0074825105257332325
16.0,0.007140493020415306
18.0,0.006663253530859947
20.0,0.006115692667663097
22.0,0.005704852286726236
24.0,0.005329062230885029
26.0,0.004996344447135925
28.0,0.004596486687660217
30.0,0.004216623492538929
32.0,0.0041633849032223225
36.0,0.003824703861027956
40.0,0.0028379722498357296
44.0,0.0023836984764784575
48.0,0.0017327361274510622
52.0,0.0014872057363390923
56.0,0.001632455037906766
60.0,0.002108542947098613
64.0,0.002070571295917034
72.0,0.0008303325739689171
80.0,0.0008075389778241515
88.0,0.0015786964213475585
96.0,0.001125676790252328
104.0,0.0007091666338965297
112.0,0.0008609882206656039
120.0,0.000323059648508206
128.0,0.0006023896858096123
144.0,0.0001888065889943391
160.0,-0.0004609343595802784
176.0,7.82675706432201e-05
192.0,0.00024955853587016463
208.0,0.0004089393769390881
224.0,9.717799548525363e-05
240.0,0.000318858859827742
256.0,0.0004119930090382695
288.0,-0.00023507827427238226
320.0,-0.00032960137468762696
352.0,3.924417615053244e-05
384.0,0.0006211246363818645
416.0,0.000973943795543164
448.0,-0.00032179849222302437
480.0,-0.000955365423578769
512.0,3.83244150725659e-05
576.0,-0.0003135826555080712
640.0,-3.903803008142859e-05
704.0,-0.0006708570290356874
768.0,-0.0006615961901843548
832.0,-0.00025924979127012193
896.0,3.491615643724799e-05
960.0,0.00018657372856978327
1024.0,-0.00031571267754770815
1152.0,-0.00015245459508150816
1280.0,0.0008858247892931104
1408.0,-0.000606830813921988
1536.0,0.00021258500055409968
1664.0,-0.00014286940859165043
1792.0,0.00029977073427289724
1920.0,-6.606517126783729e-05
2048.0,0.0006849587662145495
2304.0,0.00011449281737441197
2560.0,0.0002515839005354792
2816.0,-0.0007453899015672505
3072.0,-0.0005238060839474201
3328.0,0.0005031584296375513
3584.0,-0.00025557904154993594
3840.0,0.00023236408014781773
4096.0,-0.00032983400160446763
4608.0,-0.0006270129815675318
5120.0,-6.661825318587944e-05
5632.0,0.00014465890126302838
6144.0,-0.0005247285007499158
6656.0,-0.00021017520339228213
7168.0,-0.0003011167573276907
7680.0,0.00023880918161012232
8192.0,0.00011793199519161135
9216.0,0.0004888182156719267
10240.0,-1.112382688006619e-05
11264.0,0.0004051735741086304
12288.0,-0.0002500224218238145
13312.0,-0.00021796207875013351
14336.0,-0.0008627321221865714
end
