version,3.0
numOfCh,1
type,point
parent_name,4-cuts
ch_type,1_1
kcount,1
numberNandB,1
brightnessNandB,1
carpet pos,0
pc,0
Time (ms),CH1 Auto-Correlation
1.0,0.015881503000855446
2.0,0.01304706372320652
3.0,0.011108736507594585
4.0,0.009740591049194336
5.0,0.008657732978463173
6.0,0.007830450311303139
7.0,0.007190711796283722
8.0,0.006624987814575434
9.0,0.006120908539742231
10.0,0.005652160849422216
11.0,0.005264011211693287
12.0,0.004976834636181593
13.0,0.004748853389173746
14.0,0.0045080059207975864
15.0,0.0043419888243079185
16.0,0.004323069006204605
18.0,0.0040182932280004025
20.0,0.00374704715795815
22.0,0.003445100737735629
24.0,0.003249525325372815
26.0,0.0029953850898891687
28.0,0.002766340970993042
30.0,0.0026148553006350994
32.0,0.0025082342326641083
36.0,0.002205164870247245
40.0,0.0018813443602994084
44.0,0.00172747066244483
48.0,0.0014532869681715965
52.0,0.0014293637359514832
56.0,0.0014785807579755783
60.0,0.0013455284060910344
64.0,0.0012243185192346573
72.0,0.0008817404159344733
80.0,0.0008495963993482292
88.0,0.0006932097603566945
96.0,0.00032987413578666747
104.0,0.0003203866945113987
112.0,0.0005780786159448326
120.0,0.0005427858559414744
128.0,0.0006255529006011784
144.0,0.0006072092219255865
160.0,0.0004947492270730436
176.0,0.0008314914884977043
192.0,0.0006965009961277246
208.0,0.00044912350131198764
224.0,0.00018714442558120936
240.0,0.0005854208138771355
256.0,0.0007141564274206758
288.0,0.0002821733651217073
320.0,0.00021312969329301268
352.0,0.0002859318919945508
384.0,0.00021887448383495212
416.0,-2.616605706862174e-05
448.0,0.0002567766059655696
480.0,-0.0001362186303595081
512.0,-0.00041477830382063985
576.0,8.765056008996908e-06
640.0,-0.00014492217451334
704.0,0.00023643425083719194
768.0,0.0006265443516895175
832.0,-2.5122608349192888e-05
896.0,-0.00024157176085282117
960.0,-0.0005872519104741514
1024.0,-0.0007447201642207801
1152.0,-0.00013951635628473014
1280.0,-4.4453732698457316e-05
1408.0,0.00013274690718390048
1536.0,-4.263326991349459e-05
1664.0,-0.00027924354071728885
1792.0,-2.112620131811127e-05
1920.0,0.00036727957194671035
2048.0,0.0005857177311554551
2304.0,-0.00020038767252117395
2560.0,-0.0004438714240677655
2816.0,-6.884679169161245e-05
3072.0,-0.00025638213264755905
3328.0,0.0003527617081999779
3584.0,0.00022972634178586304
3840.0,-0.00038317262078635395
4096.0,0.00022170456941239536
4608.0,-0.00010914052836596966
5120.0,9.677418347564526e-06
5632.0,5.095269807497971e-05
6144.0,-0.00039026999729685485
6656.0,-0.00010460704652359709
7168.0,5.590377259068191e-05
7680.0,0.0003906791389454156
8192.0,-2.697918171179481e-05
9216.0,-1.148448973253835e-05
10240.0,-0.00024503382155671716
11264.0,-0.00012147001689299941
12288.0,0.0001565951097290963
13312.0,-0.0001622159470571205
14336.0,0.00043697995715774596
end
