version,3.0
numOfCh,1
type,point
parent_name,4-cuts
ch_type,1_1
kcount,1
numberNandB,1
brightnessNandB,1
carpet pos,0
pc,0
Time (ms),CH1 Auto-Correlation
1.0,0.02718650922179222
2.0,0.022288452833890915
3.0,0.01903778314590454
4.0,0.016514448449015617
5.0,0.014397862367331982
6.0,0.012642337940633297
7.0,0.01114866603165865
8.0,0.010095036588609219
9.0,0.009333072230219841
10.0,0.008464757353067398
11.0,0.007607603911310434
12.0,0.00685342401266098
13.0,0.006367011461406946
14.0,0.006090095266699791
15.0,0.005909100640565157
16.0,0.005770786665380001
18.0,0.005514870397746563
20.0,0.005213492084294558
22.0,0.004715398419648409
24.0,0.004375274758785963
26.0,0.0044387709349393845
28.0,0.004223030060529709
30.0,0.004016788210719824
32.0,0.0037419358268380165
36.0,0.003300456563010812
40.0,0.002951703267171979
44.0,0.0026483917608857155
48.0,0.0028547511901706457
52.0,0.0025847633369266987
56.0,0.00245959241874516
60.0,0.002510261023417115
64.0,0.002771211788058281
72.0,0.002117803553119302
80.0,0.0024435685481876135
88.0,0.0022387332282960415
96.0,0.0020189641509205103
104.0,0.0015927291242405772
112.0,0.0010195201030001044
120.0,0.00011984584125457332
128.0,9.58941673161462e-05
144.0,0.00016439643513876945
160.0,-0.0006630835705436766
176.0,-0.0010417731245979667
192.0,-0.0007051487918943167
208.0,-0.0009423118317499757
224.0,-0.000945251842495054
240.0,-0.000429520383477211
256.0,-0.00019012037955690175
288.0,-0.0005992089281789958
320.0,-0.0005601554876193404
352.0,-0.00011435860506026074
384.0,0.00011349672422511503
416.0,0.0008535931119695306
448.0,0.00029649949283339083
480.0,0.0002531245118007064
512.0,0.0001779926533345133
576.0,0.0004624654829967767
640.0,-0.00023142193094827235
704.0,0.000581378408242017
768.0,5.1368464482948184e-05
832.0,-0.0001208907924592495
896.0,-0.000870823860168457
960.0,-0.000775430235080421
1024.0,0.0005750516429543495
1152.0,0.0004065918910782784
1280.0,0.00012051937665091828
1408.0,-0.0002760009665507823
1536.0,-0.00044605726725421846
1664.0,-2.7795063942903653e-05
1792.0,0.0004909036215394735
1920.0,-0.00038779317401349545
2048.0,-0.0007901368662714958
2304.0,0.00033145619090646505
2560.0,-0.00034414278343319893
2816.0,0.0004321286687627435
3072.0,-0.00019355228869244456
3328.0,-0.00018311190069653094
3584.0,0.00020744708308484405
3840.0,-6.99922748026438e-05
4096.0,-0.000296383019303903
4608.0,-0.0002972779329866171
5120.0,-0.00028886503423564136
5632.0,0.00029221188742667437
6144.0,-0.0003744389396160841
6656.0,0.0001857277238741517
7168.0,-0.00015154891298152506
7680.0,-0.0005095466622151434
8192.0,-3.732677942025475e-05
9216.0,0.0003266699204687029
10240.0,0.0003972866397816688
11264.0,-0.0001347345969406888
12288.0,-0.00017319523612968624
13312.0,-7.675259439565707e-06
14336.0,-2.309658157173544e-05
end
