version,3.0
numOfCh,1
type,point
parent_name,4-cuts
ch_type,1_1
kcount,1
numberNandB,1
brightnessNandB,1
carpet pos,0
pc,0
Time (ms),CH1 Auto-Correlation
1.0,0.02776620164513588
2.0,0.022830316796898842
3.0,0.019461097195744514
4.0,0.017032213509082794
5.0,0.015083721838891506
6.0,0.013709194026887417
7.0,0.012439483776688576
8.0,0.011338119395077229
9.0,0.010489054955542088
10.0,0.009863533079624176
11.0,0.009296135045588017
12.0,0.00876965094357729
13.0,0.008345203474164009
14.0,0.007897363975644112
15.0,0.0075166798196733
16.0,0.006985566578805447
18.0,0.006178160663694143
20.0,0.005566056352108717
22.0,0.004929897375404835
24.0,0.004406956024467945
26.0,0.0038601651322096586
28.0,0.003449214156717062
30.0,0.0031793713569641113
32.0,0.003080264665186405
36.0,0.0026811875868588686
40.0,0.0026627397164702415
44.0,0.0027778337243944407
48.0,0.0028753457590937614
52.0,0.0023545154836028814
56.0,0.0017875474877655506
60.0,0.0017019158694893122
64.0,0.0015442095464095473
72.0,0.0010887637035921216
80.0,0.001126284128986299
88.0,0.0012846862664446235
96.0,0.0009664735407568514
104.0,0.0008249575621448457
112.0,0.0009292956674471498
120.0,0.0008194103720597923
128.0,0.0007246037130244076
144.0,0.0006841389695182443
160.0,0.000535409024450928
176.0,0.000818032945971936
192.0,0.0010881115449592471
208.0,0.0013223419664427638
224.0,0.0011916810180991888
240.0,0.00033016904490068555
256.0,0.00020814260642509907
288.0,0.0005757692269980907
320.0,0.0008862362010404468
352.0,0.00045799449435435236
384.0,-0.00045491516357287765
416.0,-0.000706117192748934
448.0,-0.0005191396339796484
480.0,0.00038353470154106617
512.0,0.0005250080139376223
576.0,0.0007652483764104545
640.0,0.00038657558616250753
704.0,0.0007916929898783565
768.0,-0.0005484928842633963
832.0,-0.0010942837689071894
896.0,-0.0006826212047599256
960.0,-0.0012521508615463972
1024.0,-0.00044951721793040633
1152.0,4.7953555622370914e-05
1280.0,-3.665432086563669e-05
1408.0,-0.0002618753060232848
1536.0,-0.0006687028799206018
1664.0,0.000952310161665082
1792.0,0.0007428787066601217
1920.0,0.0009317086660303175
2048.0,-0.0006876328261569142
2304.0,5.212645191932097e-05
2560.0,-0.0005855270428583026
2816.0,4.845217063120799e-06
3072.0,0.00013116176705807447
3328.0,0.0012165571097284555
3584.0,0.0009664977551437914
3840.0,-4.651401468436234e-05
4096.0,0.00012220045027788728
4608.0,0.00018064248433802277
5120.0,0.0005714104627259076
5632.0,-0.0012619311455637217
6144.0,-0.00018187216483056545
6656.0,0.00023705472995061427
7168.0,0.0001784590567694977
7680.0,-0.0005009123124182224
8192.0,0.000549923861399293
9216.0,-0.0004925953107886016
10240.0,-0.0004124389379285276
11264.0,-8.264619100373238e-05
12288.0,-0.0009004556341096759
13312.0,-0.000333576463162899
14336.0,-0.0003172650176566094
end
