version,3.0
numOfCh,1
type,point
parent_name,4-cuts
ch_type,1_1
kcount,1
numberNandB,1
brightnessNandB,1
carpet pos,0
pc,0
Time (ms),CH1 Auto-Correlation
1.0,0.016526173800230026
2.0,0.013575815595686436
3.0,0.011481879279017448
4.0,0.009845863096415997
5.0,0.008664267137646675
6.0,0.007874335162341595
7.0,0.007151525467634201
8.0,0.00659914081916213
9.0,0.006054799538105726
10.0,0.005461189430207014
11.0,0.005007554776966572
12.0,0.00464132335036993
13.0,0.004333317279815674
14.0,0.004190129227936268
15.0,0.004036241210997105
16.0,0.0038041872903704643
18.0,0.003390716854482889
20.0,0.0031857851427048445
22.0,0.002921413630247116
24.0,0.002629991387948394
26.0,0.002468325663357973
28.0,0.0022736915852874517
30.0,0.0022067707031965256
32.0,0.002059863181784749
36.0,0.001915852539241314
40.0,0.001993389567360282
44.0,0.0019408336374908686
48.0,0.0015617867466062307
52.0,0.0012168512912467122
56.0,0.0011756477179005742
60.0,0.0009226595866493881
64.0,0.0007228020112961531
72.0,0.0005684752250090241
80.0,0.0006741221877746284
88.0,0.0007004874642007053
96.0,0.0007735013496130705
104.0,0.0007446961244568229
112.0,0.00025827830540947616
120.0,0.00021173148707021028
128.0,0.00011621091107372195
144.0,0.00034879567101597786
160.0,0.00011605741019593552
176.0,8.48249183036387e-05
192.0,0.0003241771482862532
208.0,0.00025035793078131974
224.0,7.534490578109398e-05
240.0,0.00040630053263157606
256.0,0.0007277572876773775
288.0,0.0006671319133602083
320.0,0.0004030669806525111
352.0,-7.624919089721516e-05
384.0,-0.0003482048923615366
416.0,-0.0007855299045331776
448.0,-0.0004105058906134218
480.0,-0.0002735680027399212
512.0,-0.00010573976032901555
576.0,-0.00046396770630963147
640.0,0.00039777005440555513
704.0,-0.00028243381530046463
768.0,-2.976216455863323e-05
832.0,0.00016838991723489016
896.0,0.0003073598491027951
960.0,0.0001460587081965059
1024.0,-0.00031966474489308894
1152.0,-0.00012032068480039015
1280.0,-0.0005317407194525003
1408.0,-0.0004624202265404165
1536.0,2.6024688850156963e-05
1664.0,-5.335332389222458e-05
1792.0,-0.00013254446093924344
1920.0,7.896366878412664e-05
2048.0,-0.00041881221113726497
2304.0,-0.00011256206198595464
2560.0,-0.0002444283745717257
2816.0,-4.316607373766601e-05
3072.0,0.00019433122361078858
3328.0,0.0001260919962078333
3584.0,-0.00017525305156596005
3840.0,0.00014612468658015132
4096.0,-1.6838992451084778e-05
4608.0,0.0002719564945437014
5120.0,-0.0002780455397441983
5632.0,0.00020704290363937616
6144.0,0.00017055375792551786
6656.0,1.514182258688379e-06
7168.0,-0.0002798611531034112
7680.0,3.144234142382629e-05
8192.0,-0.0002919167745858431
9216.0,6.337907507258933e-06
10240.0,9.228177805198357e-05
11264.0,-5.741624772781506e-05
12288.0,-0.00026491962489672005
13312.0,0.00018200429622083902
14336.0,-0.00031581224175170064
end
