version,3.0
numOfCh,1
type,point
parent_name,4-cuts
ch_type,1_1
kcount,1
numberNandB,1
brightnessNandB,1
carpet pos,0
pc,0
Time (ms),CH1 Auto-Correlation
1.0,0.029166078194975853
2.0,0.024136437103152275
3.0,0.02053266391158104
4.0,0.017856808379292488
5.0,0.01598229445517063
6.0,0.01448702160269022
7.0,0.013311918824911118
8.0,0.01231071725487709
9.0,0.011271936818957329
10.0,0.010189943015575409
11.0,0.009285629726946354
12.0,0.008505289442837238
13.0,0.00798792578279972
14.0,0.007415967993438244
15.0,0.007014857605099678
16.0,0.006732925307005644
18.0,0.006187917664647102
20.0,0.005670084152370691
22.0,0.005272572860121727
24.0,0.004815347492694855
26.0,0.004376153461635113
28.0,0.003828651737421751
30.0,0.003557560732588172
32.0,0.0033136093989014626
36.0,0.003184826113283634
40.0,0.0032666760962456465
44.0,0.003143221139907837
48.0,0.0033748417627066374
52.0,0.0028268685564398766
56.0,0.0023343104403465986
60.0,0.0017008734866976738
64.0,0.001403125119395554
72.0,0.0008386994595639408
80.0,0.0004210149636492133
88.0,0.0011252884287387133
96.0,0.0009282507235184312
104.0,0.0005111903301440179
112.0,0.0003632093721535057
120.0,1.9294080630061217e-05
128.0,-5.475652505992912e-05
144.0,-0.00045317457988858223
160.0,-0.0006521940813399851
176.0,-0.0003677551867440343
192.0,4.4546162826009095e-05
208.0,-0.00016858075105119497
224.0,-0.0005412217578850687
240.0,-0.00022592925233766437
256.0,-0.0003969554672949016
288.0,-6.114149437053129e-05
320.0,-0.0002529133344069123
352.0,-0.0008818468195386231
384.0,-0.0009366617305204272
416.0,1.4476714568445459e-05
448.0,0.000651923764962703
480.0,-4.389450987218879e-05
512.0,9.499980660621077e-05
576.0,-5.860755481990054e-05
640.0,0.0001784034975571558
704.0,-0.00028333556838333607
768.0,0.000616317440290004
832.0,0.000646485248580575
896.0,0.0006127717788331211
960.0,0.00035542735713534057
1024.0,0.00025485717924311757
1152.0,-0.0006018303101882339
1280.0,5.9064492234028876e-05
1408.0,0.00010233515058644116
1536.0,-0.0004763994656968862
1664.0,-0.0008830755832605064
1792.0,0.0003099562309216708
1920.0,0.00032618941622786224
2048.0,-0.00016879428585525602
2304.0,-0.00023786995734553784
2560.0,0.0003709860611706972
2816.0,0.0003023641475010663
3072.0,0.00016373903781641275
3328.0,0.00012444620369933546
3584.0,-3.553585702320561e-05
3840.0,0.0001181214684038423
4096.0,5.814733867737232e-06
4608.0,0.0001799390884116292
5120.0,-0.00023051809694152325
5632.0,-6.244389078347012e-05
6144.0,-0.0006410269415937364
6656.0,8.564360905438662e-05
7168.0,2.786480945360381e-05
7680.0,0.0005012153997085989
8192.0,3.451398515608162e-05
9216.0,-0.0003142124623991549
10240.0,9.690447041066363e-05
11264.0,-0.00012607364624273032
12288.0,-0.0005363558884710073
13312.0,-0.0004701709549408406
14336.0,7.85997835919261e-05
end
