version,3.0
numOfCh,1
type,point
parent_name,4-cuts
ch_type,1_1
kcount,1
numberNandB,1
brightnessNandB,1
carpet pos,0
pc,0
Time (ms),CH1 Auto-Correlation
1.0,0.016521746292710304
2.0,0.013542287051677704
3.0,0.011499488726258278
4.0,0.009984111413359642
5.0,0.008735699579119682
6.0,0.007867655716836452
7.0,0.00711639691144228
8.0,0.0064086103811860085
9.0,0.005793983582407236
10.0,0.0053126076236367226
11.0,0.004859810695052147
12.0,0.004614152945578098
13.0,0.004341308027505875
14.0,0.004019513260573149
15.0,0.0037793677765876055
16.0,0.003493477124720812
18.0,0.0030964454635977745
20.0,0.0028580815996974707
22.0,0.0026840055361390114
24.0,0.0025967375840991735
26.0,0.002536563202738762
28.0,0.002475641667842865
30.0,0.002275998005643487
32.0,0.0020453128963708878
36.0,0.0016555192414671183
40.0,0.0016500877682119608
44.0,0.00179179641418159
48.0,0.001780823920853436
52.0,0.0016891892300918698
56.0,0.0015079407021403313
60.0,0.0014986799797043204
64.0,0.0011823446257039905
72.0,0.0009307412547059357
80.0,0.0007934014429338276
88.0,0.0005063574644736946
96.0,0.00038090470479801297
104.0,0.0005399220390245318
112.0,0.0005988834309391677
120.0,0.0007606481085531414
128.0,0.000613728363532573
144.0,0.0006595213199034333
160.0,0.0006508835940621793
176.0,0.00045337577466852963
192.0,-3.3101281587732956e-05
208.0,-0.00025951958377845585
224.0,-0.00013863816275261343
240.0,-1.9960159988841042e-05
256.0,-6.110332469688728e-05
288.0,0.00011380929208826274
320.0,0.00024933918030001223
352.0,-0.00024003989528864622
384.0,-0.0008599762804806232
416.0,-0.0004515738692134619
448.0,-0.00018157996237277985
480.0,-0.0001466661342419684
512.0,0.00025531809660606086
576.0,-0.0004583811096381396
640.0,-0.00046060350723564625
704.0,-0.0005096748354844749
768.0,-0.0004516055341809988
832.0,3.6297245969763026e-05
896.0,-0.0004076333134435117
960.0,-0.00031946442322805524
1024.0,-0.00013678855611942708
1152.0,-0.0001434324512956664
1280.0,-2.4928580387495458e-05
1408.0,-4.22118537244387e-05
1536.0,8.665131463203579e-05
1664.0,-0.00012980983592569828
1792.0,6.694364856230095e-06
1920.0,-0.00035257820854894817
2048.0,-0.00022144714603200555
2304.0,0.0003112824633717537
2560.0,-0.00037776160752400756
2816.0,-4.218562025926076e-05
3072.0,0.00034163580858148634
3328.0,-0.00012292647443246096
3584.0,0.00022104664822109044
3840.0,0.00016371170931961387
4096.0,0.0001516955380793661
4608.0,-0.0004897316684946418
5120.0,7.733941311016679e-05
5632.0,0.00019576583872549236
6144.0,4.4329342927085236e-05
6656.0,-0.0002431795874144882
7168.0,0.0001079375870176591
7680.0,-7.362385531450855e-06
8192.0,7.733028178336099e-05
9216.0,0.00024175882572308183
10240.0,-0.000456510839285329
11264.0,4.337463542469777e-05
12288.0,0.00030752408201806247
13312.0,-0.00024966592900455
14336.0,8.854555198922753e-05
end
