version,3.0
numOfCh,1
type,point
parent_name,4-cuts
ch_type,1_1
kcount,1
numberNandB,1
brightnessNandB,1
carpet pos,0
pc,0
Time (ms),CH1 Auto-Correlation
1.0,0.0161520354449749
2.0,0.013332591392099857
3.0,0.011266635730862617
4.0,0.009616026654839516
5.0,0.008451568894088268
6.0,0.007450663484632969
7.0,0.006647621747106314
8.0,0.005985904019325972
9.0,0.005454957019537687
10.0,0.004974107723683119
11.0,0.004626416135579348
12.0,0.004438972566276789
13.0,0.00418888358399272
14.0,0.003938118927180767
15.0,0.003697628853842616
16.0,0.0034770623315125704
18.0,0.0031696504447609186
20.0,0.0027779496740549803
22.0,0.0024170794058591127
24.0,0.002028202172368765
26.0,0.0018501181621104479
28.0,0.0018461450235918164
30.0,0.001690275501459837
32.0,0.001499806297942996
36.0,0.0012311232276260853
40.0,0.0011062892153859138
44.0,0.001075891894288361
48.0,0.00101750111207366
52.0,0.0009096218855120242
56.0,0.0006446806364692748
60.0,0.0005096056847833097
64.0,0.0006330318283289671
72.0,0.0005132153164595366
80.0,0.0006717988289892673
88.0,0.00016569523722864687
96.0,0.0003301250981166959
104.0,0.00044064794201403856
112.0,0.0009719409281387925
120.0,0.0008249633829109371
128.0,0.0005974097293801606
144.0,0.0002002023975364864
160.0,-3.0286223591247108e-06
176.0,0.00030160066671669483
192.0,0.0003317091322969645
208.0,0.00048445831635035574
224.0,0.0006683079991489649
240.0,0.0003444566682446748
256.0,0.0004414857248775661
288.0,0.00028963517979718745
320.0,-0.00025205116253346205
352.0,-0.000295516278129071
384.0,0.00019640287791844457
416.0,-1.0861107284654281e-06
448.0,3.5616403692984022e-06
480.0,-0.0004915966419503093
512.0,-0.00021363960695452988
576.0,0.00021869649935979396
640.0,-0.0004470745043363422
704.0,-0.0004866116214543581
768.0,4.845589864999056e-05
832.0,-0.0001193023199448362
896.0,-0.00040455805719830096
960.0,-0.00026814141892828047
1024.0,-1.8852580979000777e-05
1152.0,0.0002366232656640932
1280.0,-0.00011672673281282187
1408.0,0.00041652508662082255
1536.0,0.0002785493852570653
1664.0,0.00026028905995190144
1792.0,0.00025611420278437436
1920.0,8.101621642708778e-05
2048.0,-0.0005425830604508519
2304.0,6.19672573520802e-05
2560.0,-0.00013546747504733503
2816.0,-0.00040769524639472365
3072.0,-3.197994010406546e-05
3328.0,1.5311930837924592e-05
3584.0,-0.00022175452613737434
3840.0,0.00015157659072428942
4096.0,-0.000151337226270698
4608.0,-0.00015017403347883373
5120.0,-0.00020561181008815765
5632.0,-0.000157884816871956
6144.0,-9.519029117655009e-05
6656.0,-0.00010435397416586056
7168.0,-0.00015148933744058013
7680.0,4.1427567339269444e-05
8192.0,0.0001193536227219738
9216.0,0.00018335875938646495
10240.0,0.00029125798027962446
11264.0,-1.1765352610382251e-05
12288.0,-0.0001600300456630066
13312.0,1.200519000121858e-05
14336.0,6.936069985385984e-05
end
