version,3.0
numOfCh,1
type,point
parent_name,4-cuts
ch_type,1_1
kcount,1
numberNandB,1
brightnessNandB,1
carpet pos,0
pc,0
Time (ms),CH1 Auto-Correlation
1.0,0.016875026747584343
2.0,0.013918771408498287
3.0,0.011714390479028225
4.0,0.010174814611673355
5.0,0.008955234661698341
6.0,0.007992589846253395
7.0,0.007208982482552528
8.0,0.006537207867950201
9.0,0.00609445758163929
10.0,0.005686272867023945
11.0,0.005322832148522139
12.0,0.005003293044865131
13.0,0.004702474921941757
14.0,0.004406093619763851
15.0,0.004037411417812109
16.0,0.0038564743008464575
18.0,0.0036719124764204025
20.0,0.003519737161695957
22.0,0.0033472960349172354
24.0,0.003165069269016385
26.0,0.002985328668728471
28.0,0.002773950807750225
30.0,0.002724513178691268
32.0,0.002680423902347684
36.0,0.0020607716869562864
40.0,0.0017956121591851115
44.0,0.0016567952698096633
48.0,0.0015340865356847644
52.0,0.0014148387126624584
56.0,0.001307062921114266
60.0,0.0010071874130517244
64.0,0.0008714557625353336
72.0,0.0004776051500812173
80.0,0.0006569646648131311
88.0,0.001015468966215849
96.0,0.0011560142738744617
104.0,0.000758317590225488
112.0,0.0008089523180387914
120.0,0.0008887509466148913
128.0,0.0009048253996297717
144.0,0.0003842863079626113
160.0,0.00031263381242752075
176.0,0.00021997131989337504
192.0,-0.00031501089688390493
208.0,-0.000664399063680321
224.0,-0.00012583433999679983
240.0,0.0002358379279030487
256.0,0.0005258548771962523
288.0,9.374734509037808e-05
320.0,-0.00013852646225132048
352.0,-7.358606671914458e-05
384.0,-0.00010796525020850822
416.0,-0.00011923022975679487
448.0,-0.00010551037121331319
480.0,-0.0003277946962043643
512.0,-0.000610561401117593
576.0,-0.0002464615390636027
640.0,-0.00015285707195289433
704.0,-0.00037525847437791526
768.0,-7.231260678963736e-05
832.0,-0.00016321951989084482
896.0,-0.0002757979673333466
960.0,-0.000759974354878068
1024.0,-0.0005295747541822493
1152.0,-0.0003810484195128083
1280.0,9.436179243493825e-05
1408.0,-4.102947423234582e-05
1536.0,1.0506543731025886e-05
1664.0,8.150717621902004e-05
1792.0,-0.00037610300933010876
1920.0,9.406291064806283e-05
2048.0,-0.00012814874935429543
2304.0,-8.299669570988044e-05
2560.0,0.0002968136395793408
2816.0,0.0004313973186071962
3072.0,2.2299884221865796e-05
3328.0,-5.953950676484965e-05
3584.0,-1.0309215667803073e-06
3840.0,-5.856975622009486e-05
4096.0,0.00023230457736644894
4608.0,-0.00038719255826435983
5120.0,0.00027640187181532383
5632.0,0.0002274691651109606
6144.0,-0.00014795879542361945
6656.0,-0.0001429915428161621
7168.0,-2.3958555175340734e-05
7680.0,-0.00018279248615726829
8192.0,0.0002589263895060867
9216.0,-5.0649534387048334e-05
10240.0,-0.00012875685933977365
11264.0,3.05563080473803e-05
12288.0,-0.0001035879467963241
13312.0,2.3366272216662765e-05
14336.0,-0.00011418998474255204
end
