version,3.0
numOfCh,1
type,point
parent_name,4-cuts
ch_type,1_1
kcount,1
numberNandB,1
brightnessNandB,1
carpet pos,0
pc,0
Time (ms),CH1 Auto-Correlation
1.0,0.016627540811896324
2.0,0.013834350742399693
3.0,0.011822687461972237
4.0,0.010294091887772083
5.0,0.009105024859309196
6.0,0.008208191022276878
7.0,0.007429651450365782
8.0,0.006795342080295086
9.0,0.0061525609344244
10.0,0.005685566458851099
11.0,0.005230333190411329
12.0,0.004870439413934946
13.0,0.0045765843242406845
14.0,0.004195714369416237
15.0,0.0038182558491826057
16.0,0.003490192350000143
18.0,0.0030419921968132257
20.0,0.0027174095157533884
22.0,0.0025094763841480017
24.0,0.002322648884728551
26.0,0.002019542269408703
28.0,0.0016744948225095868
30.0,0.0016006212681531906
32.0,0.0015602214261889458
36.0,0.001451850519515574
40.0,0.0014123583678156137
44.0,0.0012788239400833845
48.0,0.0012496568961068988
52.0,0.0012032411759719253
56.0,0.0012049494544044137
60.0,0.0009550577378831804
64.0,0.0008775993483141065
72.0,0.000603135209530592
80.0,0.0007761016022413969
88.0,0.0008005559793673456
96.0,0.0007989825680851936
104.0,0.0005866628489457071
112.0,0.0004703935992438346
120.0,0.0004339049628470093
128.0,0.0005289170076139271
144.0,0.0005679306341335177
160.0,0.0005560624413192272
176.0,0.000617580080870539
192.0,0.0004145625571254641
208.0,-0.00036916547105647624
224.0,-0.0005317244213074446
240.0,-0.0002753655717242509
256.0,-0.00025295745581388474
288.0,-0.0004996781353838742
320.0,-0.0002691482659429312
352.0,-0.0002920348779298365
384.0,-0.0001292183151235804
416.0,-0.00022816358250565827
448.0,-0.00014955466031096876
480.0,7.624876161571592e-05
512.0,-0.00011060389078920707
576.0,-0.00034634594339877367
640.0,0.00030260527273640037
704.0,9.552411938784644e-05
768.0,-0.00024391540500801057
832.0,0.0005343357915990055
896.0,0.000128434257931076
960.0,-0.00024428110918961465
1024.0,0.0003069421509280801
1152.0,0.00014545372687280178
1280.0,0.0004160906537435949
1408.0,-0.0005143392481841147
1536.0,-0.0002527436299715191
1664.0,-4.829264435102232e-05
1792.0,3.581877172109671e-05
1920.0,-7.10839667590335e-05
2048.0,-2.6754260034067556e-05
2304.0,-7.58608293836005e-05
2560.0,-1.1848565009131562e-05
2816.0,1.9654546122183092e-05
3072.0,0.0001816692529246211
3328.0,-7.075728353811428e-05
3584.0,-0.00010798348375828937
3840.0,0.00011561759311007336
4096.0,0.00010594794730423018
4608.0,4.567958603729494e-05
5120.0,-0.0003788271569646895
5632.0,-0.0002512888750061393
6144.0,-0.00012217553739901632
6656.0,-0.00015072552196215838
7168.0,-0.0001916330074891448
7680.0,3.38017925969325e-05
8192.0,1.3316132026375271e-05
9216.0,-0.00022931935382075608
10240.0,-1.0153904440812767e-05
11264.0,0.00015756351058371365
12288.0,0.0002993318485096097
13312.0,-0.00029669844661839306
14336.0,0.00026509459712542593
end
