version,3.0
numOfCh,1
type,point
parent_name,4-cuts
ch_type,1_1
kcount,1
numberNandB,1
brightnessNandB,1
carpet pos,0
pc,0
Time (ms),CH1 Auto-Correlation
1.0,0.01722314953804016
2.0,0.014195783995091915
3.0,0.01208262424916029
4.0,0.010567338205873966
5.0,0.009397879242897034
6.0,0.008453781716525555
7.0,0.007620318327099085
8.0,0.007004639133810997
9.0,0.0064766560681164265
10.0,0.005886487662792206
11.0,0.005399842280894518
12.0,0.005066147539764643
13.0,0.004717527888715267
14.0,0.004433704540133476
15.0,0.004262005910277367
16.0,0.00414486275985837
18.0,0.004025433678179979
20.0,0.0036612057592719793
22.0,0.0033254369627684355
24.0,0.0031748716719448566
26.0,0.003001741599291563
28.0,0.0027375277131795883
30.0,0.002602827502414584
32.0,0.002408047206699848
36.0,0.0018580456962808967
40.0,0.0014040765818208456
44.0,0.0013631500769406557
48.0,0.0012402854626998305
52.0,0.0011394480243325233
56.0,0.0010969844879582524
60.0,0.0010371520183980465
64.0,0.001257618423551321
72.0,0.0011500002583488822
80.0,0.00120330520439893
88.0,0.0007690825150348246
96.0,0.00042707836837507784
104.0,0.0003204650420229882
112.0,5.746359238401055e-05
120.0,-0.00012132799020037055
128.0,-8.428943692706525e-05
144.0,8.423694816883653e-05
160.0,7.781556632835418e-05
176.0,-2.497992682037875e-05
192.0,3.0174327548593283e-05
208.0,-0.0003371765196789056
224.0,0.0001829745015129447
240.0,0.00019785389304161072
256.0,0.00042276550084352493
288.0,0.0005131346988491714
320.0,-3.637564805103466e-05
352.0,0.00024187174858525395
384.0,6.914497498655692e-05
416.0,-0.0003285467391833663
448.0,-1.7504646166344173e-05
480.0,-0.0004912051954306662
512.0,-0.00039870390901342034
576.0,0.00010379339073551819
640.0,-4.9386522732675076e-05
704.0,-0.00013372286048252136
768.0,-0.0004806122451554984
832.0,2.476158260833472e-05
896.0,0.00037990990676917136
960.0,-6.912728713359684e-05
1024.0,0.00046069975360296667
1152.0,0.00020675017731264234
1280.0,0.00020109441538807005
1408.0,-0.0003293634799774736
1536.0,-2.3530197722720914e-05
1664.0,-0.00047151281614787877
1792.0,7.597146759508178e-05
1920.0,0.0004975937190465629
2048.0,0.00025191728491336107
2304.0,-0.00036535205435939133
2560.0,-0.0005599709693342447
2816.0,-0.0001678746921243146
3072.0,-0.00018610195547807962
3328.0,-5.282188067212701e-05
3584.0,-0.0002763969241641462
3840.0,8.52406446938403e-05
4096.0,4.60190640296787e-05
4608.0,-0.00017758565081749111
5120.0,4.162326149526052e-05
5632.0,8.722646452952176e-05
6144.0,-0.0001778344885678962
6656.0,6.46109037916176e-05
7168.0,0.0002094501833198592
7680.0,0.000274746649665758
8192.0,2.729771404119674e-05
9216.0,1.178884667751845e-05
10240.0,-0.00025505878147669137
11264.0,-0.00021539397130254656
12288.0,6.38127385172993e-05
13312.0,0.0001376884465571493
14336.0,9.434033563593403e-05
end
