version,3.0
numOfCh,1
type,point
parent_name,4-cuts
ch_type,1_1
kcount,1
numberNandB,1
brightnessNandB,1
carpet pos,0
pc,0
Time (ms),CH1 Auto-Correlation
1.0,0.017079107463359833
2.0,0.014149483293294907
3.0,0.012087860144674778
4.0,0.010518426075577736
5.0,0.009317856281995773
6.0,0.008389473892748356
7.0,0.007712187245488167
8.0,0.007130512967705727
9.0,0.006572490092366934
10.0,0.006011433433741331
11.0,0.005607932806015015
12.0,0.0052087693475186825
13.0,0.004888245370239019
14.0,0.004679881036281586
15.0,0.004523073323071003
16.0,0.004214271437376738
18.0,0.003749200841411948
20.0,0.0033586735371500254
22.0,0.003124525537714362
24.0,0.0028822331223636866
26.0,0.002731170505285263
28.0,0.002611613366752863
30.0,0.002347227418795228
32.0,0.002119986806064844
36.0,0.0018337094224989414
40.0,0.0016670268960297108
44.0,0.0014563758159056306
48.0,0.001249020337127149
52.0,0.0010648343013599515
56.0,0.0010003600036725402
60.0,0.0008987010223791003
64.0,0.001009387313388288
72.0,0.000991887180134654
80.0,0.0007394384010694921
88.0,0.0004551497695501894
96.0,0.0005371743463911116
104.0,0.0003655978653114289
112.0,0.00033877219539135695
120.0,0.00010965771070914343
128.0,-5.033933848608285e-05
144.0,0.00011652599641820416
160.0,0.00020105915609747171
176.0,0.00016304530436173081
192.0,-0.0007722109439782798
208.0,-0.000742305361200124
224.0,-0.000356377218849957
240.0,-0.00034854686236940324
256.0,-0.0004874904698226601
288.0,-0.0002228117227787152
320.0,-0.0004707572516053915
352.0,-0.000586657493840903
384.0,-0.00029309766250662506
416.0,-0.0001429843105142936
448.0,0.0005129756173118949
480.0,-3.276302959420718e-05
512.0,8.404587424593046e-05
576.0,-3.0342671379912645e-05
640.0,-0.00015370141773018986
704.0,-0.0004243444127496332
768.0,-0.00032840220956131816
832.0,-1.962165697477758e-05
896.0,4.315915430197492e-05
960.0,-7.149058365030214e-05
1024.0,-0.00028197438223287463
1152.0,0.00025083875516429543
1280.0,-0.00020165347086731344
1408.0,4.5261927880346775e-05
1536.0,-0.00020055317145306617
1664.0,0.00011848795838886872
1792.0,9.477492312726099e-06
1920.0,5.642440737574361e-05
2048.0,0.0005598294665105641
2304.0,-0.0003053024993278086
2560.0,-0.00019181708921678364
2816.0,-0.00021457744878716767
3072.0,0.000367889238987118
3328.0,0.00023669317306485027
3584.0,6.409127672668546e-05
3840.0,-0.00024162456975318491
4096.0,0.000351341615896672
4608.0,-0.00010015457519330084
5120.0,0.00015423241711687297
5632.0,-0.00031431810930371284
6144.0,6.881618173792958e-05
6656.0,4.095582426089095e-06
7168.0,9.366298763779923e-05
7680.0,-7.033217116259038e-05
8192.0,0.00016795203555375338
9216.0,-0.0001702260342426598
10240.0,-1.0203982128587086e-05
11264.0,-0.00010488335828995332
12288.0,-0.00015597286983393133
13312.0,-2.5186967832269147e-05
14336.0,-0.00012381865235511214
end
