version,3.0
numOfCh,1
type,point
parent_name,4-cuts
ch_type,1_1
kcount,1
numberNandB,1
brightnessNandB,1
carpet pos,0
pc,0
Time (ms),CH1 Auto-Correlation
1.0,0.016163716092705727
2.0,0.013361359015107155
3.0,0.011422032490372658
4.0,0.009905090555548668
5.0,0.008797853253781796
6.0,0.007895998656749725
7.0,0.007192141376435757
8.0,0.006546431686729193
9.0,0.005929980892688036
10.0,0.005497443489730358
11.0,0.005179253872483969
12.0,0.004868439398705959
13.0,0.004665334243327379
14.0,0.004570157267153263
15.0,0.004480467643588781
16.0,0.004388121888041496
18.0,0.004087164998054504
20.0,0.003808654611930251
22.0,0.0035233465023338795
24.0,0.0033516092225909233
26.0,0.0033959224820137024
28.0,0.0033182112965732813
30.0,0.0032271905802190304
32.0,0.0029041196685284376
36.0,0.002525380812585354
40.0,0.0022359301801770926
44.0,0.0017315364675596356
48.0,0.0014461093815043569
52.0,0.0015387426828965545
56.0,0.001416140585206449
60.0,0.0012215545866638422
64.0,0.0011375790927559137
72.0,0.0010722120059654117
80.0,0.0009977014269679785
88.0,0.0008507361053489149
96.0,0.0006602689391002059
104.0,0.0008980646380223334
112.0,0.0007481385255232453
120.0,0.00013868261885363609
128.0,-0.0002066987508442253
144.0,-0.00038174373912625015
160.0,-0.0004704117891378701
176.0,-0.0004152514738962054
192.0,-1.8895492758019827e-05
208.0,0.0003514369309414178
224.0,0.0007822497864253819
240.0,0.0010287549812346697
256.0,0.0009028111817315221
288.0,0.0009065105696208775
320.0,0.0008050986798480153
352.0,0.0009650132851675153
384.0,0.0006185458041727543
416.0,0.0002681335317902267
448.0,-8.019418601179495e-05
480.0,0.00014678144361823797
512.0,0.00013667285384144634
576.0,3.659122376120649e-05
640.0,-0.0002237116714240983
704.0,-0.0001653901272220537
768.0,0.00011698859452735633
832.0,-0.00018627999816089869
896.0,0.00013419044262263924
960.0,0.0002330123243154958
1024.0,0.00011711902334354818
1152.0,-9.55805808189325e-05
1280.0,9.500004671281204e-05
1408.0,-7.325130718527362e-05
1536.0,0.0004660845152102411
1664.0,0.00012044572940794751
1792.0,0.00012485176557675004
1920.0,0.0002247625234303996
2048.0,-6.852298247395083e-05
2304.0,0.00023705765488557518
2560.0,0.0005732412100769579
2816.0,-1.9181756215402856e-05
3072.0,-0.0003167092800140381
3328.0,-0.00013484625378623605
3584.0,-0.00032922966056503356
3840.0,-0.0003201528452336788
4096.0,-0.00036206445656716824
4608.0,-0.000547597708646208
5120.0,0.00021471141371876001
5632.0,-0.0001351617684122175
6144.0,-1.4120288142294157e-05
6656.0,-0.00020808000408578664
7168.0,-0.0003544413484632969
7680.0,0.000407148152589798
8192.0,0.0003326096630189568
9216.0,-0.00012610366684384644
10240.0,0.00014872217434458435
11264.0,-0.00023852934828028083
12288.0,-0.0005474448553286493
13312.0,0.00017242705507669598
14336.0,-0.0004188176244497299
end
