version,3.0
numOfCh,1
type,point
parent_name,4-cuts
ch_type,1_1
kcount,1
numberNandB,1
brightnessNandB,1
carpet pos,0
pc,0
Time (ms),CH1 Auto-Correlation
1.0,0.028244677931070328
2.0,0.023318540304899216
3.0,0.01993057318031788
4.0,0.017520198598504066
5.0,0.015628265216946602
6.0,0.014279237017035484
7.0,0.012895999476313591
8.0,0.01162460446357727
9.0,0.010462422855198383
10.0,0.009579841047525406
11.0,0.00898032821714878
12.0,0.008374283090233803
13.0,0.007935666479170322
14.0,0.0074751474894583225
15.0,0.0070595876313745975
16.0,0.006789487786591053
18.0,0.006067545153200626
20.0,0.0053763678297400475
22.0,0.005076189059764147
24.0,0.0048492527566850185
26.0,0.00416451133787632
28.0,0.003807455999776721
30.0,0.0038647588808089495
32.0,0.0036724023520946503
36.0,0.0030901730060577393
40.0,0.0022746287286281586
44.0,0.0019677840173244476
48.0,0.0014391399454325438
52.0,0.0012406151508912444
56.0,0.0011060010874643922
60.0,0.00090792280388996
64.0,0.0008415560005232692
72.0,0.0005256911390461028
80.0,0.0006497108843177557
88.0,0.0005904465797357261
96.0,0.00015928316861391068
104.0,-2.919244798249565e-05
112.0,0.0005524461739696562
120.0,0.0010482796933501959
128.0,0.0007823554333299398
144.0,0.0007060490315780044
160.0,-9.866525215329602e-05
176.0,-6.82763711665757e-05
192.0,-0.0001598173548700288
208.0,-0.0007555391057394445
224.0,-0.0012004304444417357
240.0,-0.00015414549852721393
256.0,0.0006315715727396309
288.0,-0.0002201517199864611
320.0,-1.6425454305135645e-05
352.0,-0.00029876126791350543
384.0,-0.0002986649633385241
416.0,-0.000201452145120129
448.0,-0.0006294804625213146
480.0,-0.00110403704456985
512.0,-0.0007414562860503793
576.0,0.000335594144416973
640.0,0.0002272373385494575
704.0,0.0003497825819067657
768.0,-1.9668417735374533e-05
832.0,0.0006038777646608651
896.0,-0.00022824206098448485
960.0,-0.0008294876315630972
1024.0,-0.0004050496791023761
1152.0,0.0004981353413313627
1280.0,0.0006761871627531946
1408.0,0.0002707974927034229
1536.0,-0.0007699599373154342
1664.0,-0.0007980293012224138
1792.0,-0.00047406231169588864
1920.0,-3.7713346046075458e-06
2048.0,0.00016129585856106132
2304.0,-0.00020391723955981433
2560.0,4.774131866724929e-06
2816.0,-0.0011227737413719296
3072.0,-0.00047664387966506183
3328.0,0.0001897393522085622
3584.0,0.00019191911269444972
3840.0,0.0002818133507389575
4096.0,-0.0005206517525948584
4608.0,0.0005620807060040534
5120.0,0.00012368049647193402
5632.0,0.0001649137557251379
6144.0,0.00023475689522456378
6656.0,-0.0009891146328300238
7168.0,-7.040336640784517e-05
7680.0,-0.00039030061452649534
8192.0,0.0006467392668128014
9216.0,2.315864185220562e-05
10240.0,3.970503530581482e-05
11264.0,9.270883310819045e-05
12288.0,-0.00017942750127986073
13312.0,1.9790182705037296e-05
14336.0,0.0001768439105944708
end
