version,3.0
numOfCh,1
type,point
parent_name,4-cuts
ch_type,1_1
kcount,1
numberNandB,1
brightnessNandB,1
carpet pos,0
pc,0
Time (ms),CH1 Auto-Correlation
1.0,0.01685544103384018
2.0,0.013939467258751392
3.0,0.011804030276834965
4.0,0.010174920782446861
5.0,0.00887465663254261
6.0,0.007780977059155703
7.0,0.006910624448210001
8.0,0.006099004298448563
9.0,0.005513648968189955
10.0,0.0051095192320644855
11.0,0.004788420163094997
12.0,0.004467859398573637
13.0,0.004272027872502804
14.0,0.004045394714921713
15.0,0.003758976934477687
16.0,0.0035182018764317036
18.0,0.0032073475886136293
20.0,0.003088728990405798
22.0,0.0028284157160669565
24.0,0.0028088651597499847
26.0,0.0028572806622833014
28.0,0.0027112397365272045
30.0,0.002418943215161562
32.0,0.002223894465714693
36.0,0.001919816597364843
40.0,0.001573245390318334
44.0,0.0013896027812734246
48.0,0.0013521990040317178
52.0,0.0013478006003424525
56.0,0.0010819314047694206
60.0,0.0011511975899338722
64.0,0.001081848400644958
72.0,0.0008565945317968726
80.0,0.000578537757974118
88.0,0.0007191566401161253
96.0,0.0007402580231428146
104.0,0.00036056459066458046
112.0,0.0001959255605470389
120.0,6.312686309684068e-05
128.0,-0.00010235213994747028
144.0,-7.995626219781116e-05
160.0,0.00011115612142020836
176.0,0.000284108828054741
192.0,0.00024973147083073854
208.0,6.654243043158203e-05
224.0,-6.618967745453119e-06
240.0,8.933414210332558e-05
256.0,5.3790568927070126e-05
288.0,0.0001252945512533188
320.0,1.3416828551271465e-05
352.0,-0.000302827509585768
384.0,5.8421319408807904e-05
416.0,-6.816848326707259e-05
448.0,-0.00030684686498716474
480.0,2.28843873628648e-05
512.0,-1.932118948388961e-06
576.0,-0.00034340753336437047
640.0,-0.0004437136522028595
704.0,-0.000327040848787874
768.0,0.0006157708121463656
832.0,0.0007023498765192926
896.0,-0.00017682797624729574
960.0,-8.332205470651388e-05
1024.0,-0.00023608320043422282
1152.0,-0.0001275416580028832
1280.0,-0.0003243264800403267
1408.0,-0.00033626434742473066
1536.0,-0.0002027911104960367
1664.0,9.60088727879338e-05
1792.0,-0.0006509886588901281
1920.0,-0.0006560183246619999
2048.0,0.00012413610238581896
2304.0,-0.000539153057616204
2560.0,0.0006299205706454813
2816.0,0.00027503306046128273
3072.0,-9.543989290250465e-05
3328.0,0.0003426186740398407
3584.0,-0.0001749326620483771
3840.0,1.1693120541167445e-05
4096.0,0.0003238774661440402
4608.0,-0.00015420766430906951
5120.0,-2.9489247026504017e-05
5632.0,-0.00021590592223219573
6144.0,5.916348527534865e-05
6656.0,-2.0581937860697508e-05
7168.0,7.767062925267965e-06
7680.0,3.705971175804734e-05
8192.0,-0.0003590390260796994
9216.0,0.0002762844378594309
10240.0,-0.00011209201329620555
11264.0,5.543585757550318e-06
12288.0,0.0006865168106742203
13312.0,-0.0005686702788807452
14336.0,-0.0003071656683459878
end
