version,3.0
numOfCh,1
type,point
parent_name,4-cuts
ch_type,1_1
kcount,1
numberNandB,1
brightnessNandB,1
carpet pos,0
pc,0
Time (ms),CH1 Auto-Correlation
1.0,0.016796370968222618
2.0,0.013809317722916603
3.0,0.011724176816642284
4.0,0.010178846307098866
5.0,0.008923548273742199
6.0,0.008019769564270973
7.0,0.007271266542375088
8.0,0.006559458561241627
9.0,0.005981804803013802
10.0,0.005553191527724266
11.0,0.005206273403018713
12.0,0.004819060675799847
13.0,0.004603834822773933
14.0,0.004493718035519123
15.0,0.004174358211457729
16.0,0.003927017096430063
18.0,0.003406069241464138
20.0,0.003009738400578499
22.0,0.00272277626208961
24.0,0.002551896497607231
26.0,0.0022375560365617275
28.0,0.0021454112138599157
30.0,0.0020710707176476717
32.0,0.0021772838663309813
36.0,0.0019069984555244446
40.0,0.0018080002628266811
44.0,0.0017865317640826106
48.0,0.0015456762630492449
52.0,0.001310823019593954
56.0,0.0012647982221096754
60.0,0.0013358870055526495
64.0,0.0013190151657909155
72.0,0.0009917180286720395
80.0,0.0005916255176998675
88.0,0.0005687213852070272
96.0,0.0003519908932503313
104.0,0.0003961616603191942
112.0,0.0004980555386282504
120.0,0.00034634891198948026
128.0,-8.006946882233024e-05
144.0,-4.316084960009903e-05
160.0,0.00015692869783379138
176.0,0.000256591709330678
192.0,-0.0003851235087495297
208.0,5.0269973144168034e-05
224.0,-8.411216549575329e-05
240.0,0.00018868173356167972
256.0,8.109974442049861e-05
288.0,-1.685035613263608e-06
320.0,0.0005876531358808279
352.0,0.0005194648983888328
384.0,0.0003121648041997105
416.0,0.00010089856368722394
448.0,0.0002850433229468763
480.0,0.0002603576285764575
512.0,1.4231025488697924e-05
576.0,9.468157804803923e-05
640.0,-7.548581925220788e-05
704.0,0.0003179656050633639
768.0,0.00020166925969533622
832.0,-3.7139154301257804e-05
896.0,-0.00017292730626650155
960.0,-0.00022349003120325506
1024.0,0.0002377009077463299
1152.0,-0.00015074634575285017
1280.0,-0.0004273311351425946
1408.0,-0.0002865000569727272
1536.0,-0.00017625282634980977
1664.0,0.00011258608719799668
1792.0,-1.820946272346191e-05
1920.0,0.0001457276230212301
2048.0,-0.0001694925595074892
2304.0,-0.00023303994385059923
2560.0,-6.378515536198393e-05
2816.0,0.00032137127709575
3072.0,1.778169462340884e-06
3328.0,0.00022702215937897563
3584.0,0.0004723655874840915
3840.0,-7.39438328309916e-05
4096.0,0.00024351675529032946
4608.0,4.9556008889339864e-05
5120.0,-2.203648728027474e-05
5632.0,-0.00022015861759427935
6144.0,-0.00027379245148040354
6656.0,-6.142572965472937e-05
7168.0,6.66764608467929e-05
7680.0,-0.00027541423332877457
8192.0,-4.787647776538506e-05
9216.0,-5.653650441672653e-05
10240.0,-0.0003152014105580747
11264.0,-3.2828698749653995e-05
12288.0,8.070862349995878e-06
13312.0,-0.00011328069376759231
14336.0,-6.2423205235973e-05
end
