version,3.0
numOfCh,1
type,point
parent_name,4-cuts
ch_type,1_1
kcount,1
numberNandB,1
brightnessNandB,1
carpet pos,0
pc,0
Time (ms),CH1 Auto-Correlation
1.0,0.01720847375690937
2.0,0.014183362014591694
3.0,0.011995898559689522
4.0,0.010466981679201126
5.0,0.009269366972148418
6.0,0.008323746733367443
7.0,0.007633522618561983
8.0,0.007041886914521456
9.0,0.006495373323559761
10.0,0.006053810473531485
11.0,0.005552446935325861
12.0,0.005123453680425882
13.0,0.004764185287058353
14.0,0.004410586319863796
15.0,0.004123297519981861
16.0,0.003946999087929726
18.0,0.0034392322413623333
20.0,0.00341589841991663
22.0,0.0032523355912417173
24.0,0.003027321770787239
26.0,0.0027789510786533356
28.0,0.0024664271622896194
30.0,0.0023249469231814146
32.0,0.0021896944381296635
36.0,0.0019324315944686532
40.0,0.0015600190963596106
44.0,0.0014223423786461353
48.0,0.0013725007884204388
52.0,0.0013844483764842153
56.0,0.0013508712872862816
60.0,0.0012767184525728226
64.0,0.001068486599251628
72.0,0.0009145074873231351
80.0,0.0006248186691664159
88.0,0.0006500043091364205
96.0,0.0003235570329707116
104.0,0.0006597716710530221
112.0,0.0008658961742185056
120.0,0.0009333744528703392
128.0,0.0008110447670333087
144.0,0.0007520468789152801
160.0,0.00031928307726047933
176.0,0.0005577278207056224
192.0,0.0004453518195077777
208.0,3.666056727524847e-05
224.0,7.609435124322772e-05
240.0,-0.00011784792150137946
256.0,2.7226876682107104e-06
288.0,-0.0003568615939002484
320.0,-0.000755739223677665
352.0,-0.0004915847675874829
384.0,-0.00024613382993265986
416.0,-0.00010512808512430638
448.0,0.00015796961088199168
480.0,9.996545122703537e-05
512.0,-0.0002403018152108416
576.0,3.604895027820021e-05
640.0,0.00030579353915527463
704.0,-0.00039426295552402735
768.0,-0.00045934555237181485
832.0,-0.00015279291255865246
896.0,-0.00020722973567899317
960.0,-0.00046646458213217556
1024.0,0.00031053839484229684
1152.0,0.00015171783161349595
1280.0,-0.0003288688021712005
1408.0,-0.00023735698778182268
1536.0,0.0003643332456704229
1664.0,0.00039371245657093823
1792.0,-0.0002076526143355295
1920.0,-0.0005555691896006465
2048.0,-3.5352390113985166e-05
2304.0,0.0004407017841003835
2560.0,-0.0002990677021443844
2816.0,-0.00017873939941637218
3072.0,-0.000394099042750895
3328.0,7.119008660083637e-05
3584.0,-3.915214256267063e-05
3840.0,-3.080501119256951e-05
4096.0,-0.0005439130472950637
4608.0,0.00018716805789154023
5120.0,-0.0004860007611569017
5632.0,9.392150968778878e-05
6144.0,-0.00016557707567699254
6656.0,0.0003801833081524819
7168.0,0.000289255753159523
7680.0,-3.969006866100244e-05
8192.0,0.00020425017282832414
9216.0,0.00012294530461076647
10240.0,6.206309626577422e-05
11264.0,-0.00013960362412035465
12288.0,-0.0002871323667932302
13312.0,-0.0001694451057119295
14336.0,-0.0001824367354856804
end
