version,3.0
numOfCh,1
type,point
parent_name,4-cuts
ch_type,1_1
kcount,1
numberNandB,1
brightnessNandB,1
carpet pos,0
pc,0
Time (ms),CH1 Auto-Correlation
1.0,0.026442520320415497
2.0,0.021413324400782585
3.0,0.018125202506780624
4.0,0.015653062611818314
5.0,0.01382017508149147
6.0,0.012303542345762253
7.0,0.011035731993615627
8.0,0.010004337877035141
9.0,0.009116544388234615
10.0,0.008432656526565552
11.0,0.00784502923488617
12.0,0.007321379613131285
13.0,0.006822184659540653
14.0,0.0065334937535226345
15.0,0.00629966426640749
16.0,0.005923999473452568
18.0,0.005303769838064909
20.0,0.004900183994323015
22.0,0.004582257010042667
24.0,0.004249065648764372
26.0,0.00383881782181561
28.0,0.0036809826269745827
30.0,0.0037371923681348562
32.0,0.0036287612747401
36.0,0.0030995653942227364
40.0,0.002829445991665125
44.0,0.0023624671157449484
48.0,0.002055079210549593
52.0,0.0013744214083999395
56.0,0.0008956350502558053
60.0,0.0008261366747319698
64.0,0.0013052760623395443
72.0,0.0014097342500463128
80.0,0.001174675882793963
88.0,0.0004995730705559254
96.0,0.0004228178586345166
104.0,0.00019127577252220362
112.0,0.000286761176539585
120.0,0.0009776107035577297
128.0,0.00047615444054827094
144.0,0.00032428925624117255
160.0,-0.00012990929826628417
176.0,0.0002701982739381492
192.0,0.0010312148369848728
208.0,0.00035797219607047737
224.0,0.0006529181264340878
240.0,-5.557517579291016e-05
256.0,0.00019266597519163042
288.0,0.0004683334846049547
320.0,-2.0918767404509708e-05
352.0,-0.00036100056604482234
384.0,5.819646503368858e-06
416.0,0.00029417869518511
448.0,-0.0001152207114500925
480.0,0.00036521052243188024
512.0,7.887954416219145e-05
576.0,-0.00016378435248043388
640.0,-0.00023496930953115225
704.0,-0.00039059860864654183
768.0,0.00027488829800859094
832.0,-0.0001648557372391224
896.0,0.0011534348595887423
960.0,0.000832600868307054
1024.0,-0.0004082979285158217
1152.0,0.00035142357228323817
1280.0,-0.00011522166460053995
1408.0,0.0003742800035979599
1536.0,0.0004466007521841675
1664.0,0.00018093944527208805
1792.0,-0.00043716697837226093
1920.0,-4.787485158885829e-05
2048.0,-0.0004449548723641783
2304.0,-0.00043215113691985607
2560.0,-0.00023152069479692727
2816.0,-0.00016987220442388207
3072.0,-0.0003006222832482308
3328.0,-0.000761925068218261
3584.0,-0.000376783253159374
3840.0,0.0004128507571294904
4096.0,0.00012005058670183644
4608.0,-2.4242855943157338e-05
5120.0,8.393968164455146e-05
5632.0,8.383805106859654e-05
6144.0,0.0003863610327243805
6656.0,-6.105135253164917e-05
7168.0,-0.0004099975049030036
7680.0,-8.879366214387119e-05
8192.0,0.00013143697287887335
9216.0,0.00013506400864571333
10240.0,0.0003927853249479085
11264.0,-0.00021347565052565187
12288.0,-0.00017674619448371232
13312.0,-0.0009202639921568334
14336.0,0.0005403105751611292
end
