version,3.0
numOfCh,1
type,point
parent_name,4-cuts
ch_type,1_1
kcount,1
numberNandB,1
brightnessNandB,1
carpet pos,0
pc,0
Time (ms),CH1 Auto-Correlation
1.0,0.01586698368191719
2.0,0.012911669909954071
3.0,0.01082286424934864
4.0,0.00927670393139124
5.0,0.008078137412667274
6.0,0.007196235936135054
7.0,0.0065908716060221195
8.0,0.0060127126052975655
9.0,0.005546404980123043
10.0,0.005104039795696735
11.0,0.004689313005656004
12.0,0.00430586701259017
13.0,0.00397386634722352
14.0,0.0035506945569068193
15.0,0.0032223286107182503
16.0,0.002923092106357217
18.0,0.0027611616533249617
20.0,0.002483037766069174
22.0,0.0021397117525339127
24.0,0.001924676587805152
26.0,0.0017662213649600744
28.0,0.0017189184436574578
30.0,0.0016317380359396338
32.0,0.0015436784597113729
36.0,0.0012521808966994286
40.0,0.0010362218599766493
44.0,0.0012585192453116179
48.0,0.0010057889157906175
52.0,0.0008497753296978772
56.0,0.000765861535910517
60.0,0.0007699998095631599
64.0,0.0008908705785870552
72.0,0.0003313670458737761
80.0,0.00031023856718093157
88.0,0.00033346773125231266
96.0,0.0004932075389660895
104.0,0.0005557248368859291
112.0,0.00030879073892720044
120.0,0.00019016896840184927
128.0,0.00011449238081695512
144.0,0.00014065561117604375
160.0,0.0002424134872853756
176.0,0.00034033734118565917
192.0,0.0007603145204484463
208.0,-0.0001855773152783513
224.0,-0.0005336658214218915
240.0,-0.00023380646598525345
256.0,-2.1287389245117083e-05
288.0,-0.0005784784443676472
320.0,-0.0005182540044188499
352.0,-0.0006143449572846293
384.0,-7.765491318423301e-06
416.0,0.00013580160157289356
448.0,2.694949580472894e-05
480.0,6.502593896584585e-05
512.0,-5.2337072702357545e-06
576.0,0.00036949178320355713
640.0,0.0007136567146517336
704.0,0.00034213988692499697
768.0,0.0005294868024066091
832.0,6.677587953163311e-05
896.0,-4.489856291911565e-05
960.0,-4.872042336501181e-05
1024.0,0.0001546508283354342
1152.0,-0.0001606086443644017
1280.0,5.572753434535116e-05
1408.0,0.00022806599736213684
1536.0,0.000370044814189896
1664.0,0.00027446108288131654
1792.0,8.864892151905224e-06
1920.0,-0.0002797534689307213
2048.0,-0.00018352216284256428
2304.0,8.913215424399823e-05
2560.0,3.77921387553215e-05
2816.0,-0.0005423547117970884
3072.0,0.00021937701967544854
3328.0,-0.00018163517233915627
3584.0,-0.0003673234605230391
3840.0,0.00022528282715938985
4096.0,-0.00027883544680662453
4608.0,-0.00018435956735629588
5120.0,-0.00012645962124224752
5632.0,-6.728822336299345e-05
6144.0,-1.786632310540881e-05
6656.0,6.898656010889681e-06
7168.0,0.00013822053733747452
7680.0,0.00010232275235466659
8192.0,0.00012133522977819666
9216.0,7.918790652183816e-05
10240.0,-9.987333760363981e-05
11264.0,-0.00018022880249191076
12288.0,-0.0001034719607559964
13312.0,-0.000286478636553511
14336.0,-0.00032847325201146305
end
