version,3.0
numOfCh,1
type,point
parent_name,4-cuts
ch_type,1_1
kcount,1
numberNandB,1
brightnessNandB,1
carpet pos,0
pc,0
Time (ms),CH1 Auto-Correlation
1.0,0.017031779512763023
2.0,0.014089216478168964
3.0,0.011955821886658669
4.0,0.010320862755179405
5.0,0.009075749665498734
6.0,0.008002175018191338
7.0,0.007229948416352272
8.0,0.006660724990069866
9.0,0.006079402286559343
10.0,0.005629892461001873
11.0,0.005211951676756144
12.0,0.0048934235237538815
13.0,0.004715353716164827
14.0,0.004481583368033171
15.0,0.00435579102486372
16.0,0.0041233147494494915
18.0,0.0037841147277504206
20.0,0.003367501078173518
22.0,0.00307920528575778
24.0,0.002899224404245615
26.0,0.0028812855016440153
28.0,0.0027606969233602285
30.0,0.002394614741206169
32.0,0.00206445949152112
36.0,0.0013736801920458674
40.0,0.000996429705992341
44.0,0.0009506213245913386
48.0,0.0006635638419538736
52.0,0.0006994405994191766
56.0,0.0008502051932737231
60.0,0.0009049733052961528
64.0,0.0009042742312885821
72.0,0.0006693635950796306
80.0,0.0003517635341268033
88.0,0.00021099121659062803
96.0,-0.00011876148346345872
104.0,-0.00039741548243910074
112.0,-0.0006151068955659866
120.0,-0.00019239277753513306
128.0,9.033586684381589e-05
144.0,0.0001395563449477777
160.0,1.1340696346451296e-06
176.0,-0.0002531705249566585
192.0,-0.0003229586873203516
208.0,-0.00022252595226746053
224.0,0.00028074884903617203
240.0,0.0004073888121638447
256.0,0.0005907764425501227
288.0,-1.399785378453089e-05
320.0,-0.0007030428387224674
352.0,-0.0007310656365007162
384.0,-0.0005792157608084381
416.0,-0.0005509137990884483
448.0,-0.00017262279288843274
480.0,-0.00037124287337064743
512.0,-0.00042702440987341106
576.0,-0.00036181515315547585
640.0,-9.352392225991935e-05
704.0,-0.0001872464781627059
768.0,4.13382331316825e-05
832.0,8.086746674962342e-05
896.0,-0.0003258691867813468
960.0,-7.929794264782686e-06
1024.0,-0.00033636868465691805
1152.0,0.0003273811307735741
1280.0,-4.67565369035583e-05
1408.0,0.0001882126380223781
1536.0,0.00019011639233212918
1664.0,-0.0002885772264562547
1792.0,-9.842312283581123e-05
1920.0,-0.0004082914092577994
2048.0,0.00011112429638160393
2304.0,0.00031868903897702694
2560.0,-0.0003396887914277613
2816.0,-0.0002661462058313191
3072.0,0.00013244721048977226
3328.0,9.823244909057394e-05
3584.0,-0.00014287733938544989
3840.0,-3.5876357287634164e-05
4096.0,-3.5084660339634866e-05
4608.0,-6.088696318329312e-05
5120.0,-6.092068724683486e-05
5632.0,0.00015715548943262547
6144.0,-7.998592627700418e-05
6656.0,-0.00020123019930906594
7168.0,0.0001356061256956309
7680.0,-8.876201172824949e-05
8192.0,0.00025084734079428017
9216.0,-1.532858186692465e-05
10240.0,-9.868589404504746e-05
11264.0,0.00015931279631331563
12288.0,-0.00024295983894262463
13312.0,0.00035668438067659736
14336.0,-7.839722093194723e-05
end
