version,3.0
numOfCh,1
type,point
parent_name,4-cuts
ch_type,1_1
kcount,1
numberNandB,1
brightnessNandB,1
carpet pos,0
pc,0
Time (ms),CH1 Auto-Correlation
1.0,0.027428923174738884
2.0,0.022598864510655403
3.0,0.019142132252454758
4.0,0.016526758670806885
5.0,0.014378214254975319
6.0,0.012605412863194942
7.0,0.011204059235751629
8.0,0.010145471431314945
9.0,0.009328947402536869
10.0,0.008605197072029114
11.0,0.007843194529414177
12.0,0.00741526298224926
13.0,0.0071290237829089165
14.0,0.006683442275971174
15.0,0.0062318178825080395
16.0,0.005783602595329285
18.0,0.005113757215440273
20.0,0.004513162188231945
22.0,0.004109130706638098
24.0,0.003814607858657837
26.0,0.003482225351035595
28.0,0.0032223467715084553
30.0,0.002874755999073386
32.0,0.0028778407722711563
36.0,0.002816137159243226
40.0,0.0025913731660693884
44.0,0.0024965223856270313
48.0,0.003182120155543089
52.0,0.0035653160884976387
56.0,0.0033173991832882166
60.0,0.0027117952704429626
64.0,0.002681666985154152
72.0,0.0023458460345864296
80.0,0.001691525336354971
88.0,0.0018486168701201677
96.0,0.001863550511188805
104.0,0.0022047909442335367
112.0,0.0016801052261143923
120.0,0.0008393279858864844
128.0,0.00072686024941504
144.0,0.00019791843078564852
160.0,0.0009585521765984595
176.0,0.0011985294986516237
192.0,0.0011520745465531945
208.0,0.0005293803988024592
224.0,0.0004558423242997378
240.0,-0.00022607872961089015
256.0,1.7145168385468423e-05
288.0,2.3416092517436482e-05
320.0,0.00039385410491377115
352.0,0.0008500072290189564
384.0,0.0001486778783146292
416.0,-0.00018036914116237313
448.0,1.2098977094865404e-05
480.0,0.0001638474641367793
512.0,-0.000443180586444214
576.0,-0.0003943749761674553
640.0,-0.0008041062974371016
704.0,-0.0006208202103152871
768.0,-0.000686402025166899
832.0,-0.0006092065596021712
896.0,-0.00029605237068608403
960.0,-0.00042333529563620687
1024.0,0.00029753398848697543
1152.0,-0.0002787378034554422
1280.0,-0.0007959894719533622
1408.0,-0.001102927140891552
1536.0,-0.0005968421464785933
1664.0,-0.000867957656737417
1792.0,-0.00041799971950240433
1920.0,-0.00027082691667601466
2048.0,0.0006189764244481921
2304.0,0.0007347124628722668
2560.0,0.0001498902856837958
2816.0,-0.0006082573672756553
3072.0,0.00043453724356368184
3328.0,0.00034682577825151384
3584.0,-0.00022905998048372567
3840.0,-0.0006672291783615947
4096.0,-2.7381183826946653e-06
4608.0,-6.856284744571894e-05
5120.0,-0.00047365191858261824
5632.0,0.00017948492313735187
6144.0,0.0004794983542524278
6656.0,9.830531780607998e-05
7168.0,-0.0009157819440588355
7680.0,-0.00037746093585155904
8192.0,-0.00010339386790292338
9216.0,-0.00039530673529952765
10240.0,0.00025622910470701754
11264.0,8.954265649663284e-05
12288.0,0.00016945558309089392
13312.0,-7.158358494052663e-05
14336.0,8.974019146990031e-05
end
