version,3.0
numOfCh,1
type,point
parent_name,4-cuts
ch_type,1_1
kcount,1
numberNandB,1
brightnessNandB,1
carpet pos,0
pc,0
Time (ms),CH1 Auto-Correlation
1.0,0.01675633154809475
2.0,0.013800573535263538
3.0,0.011741561815142632
4.0,0.01014756690710783
5.0,0.00898518692702055
6.0,0.008112837560474873
7.0,0.007311986759305
8.0,0.0066420878283679485
9.0,0.0061288573779165745
10.0,0.005598392337560654
11.0,0.005187117960304022
12.0,0.0048632752150297165
13.0,0.004524824675172567
14.0,0.0042444877326488495
15.0,0.004162647295743227
16.0,0.0039803157560527325
18.0,0.003630976425483823
20.0,0.003310674801468849
22.0,0.003169234609231353
24.0,0.0029494669288396835
26.0,0.002907250775024295
28.0,0.002682043705135584
30.0,0.0024465778842568398
32.0,0.002224600175395608
36.0,0.001980563858523965
40.0,0.001603569253347814
44.0,0.0013471172424033284
48.0,0.0013203033013269305
52.0,0.0012973278062418103
56.0,0.0008560011629015207
60.0,0.0005106456810608506
64.0,0.000343173771398142
72.0,0.0002445764548610896
80.0,0.0006027222261764109
88.0,0.0007769903168082237
96.0,0.0009606032399460673
104.0,0.0009795050136744976
112.0,0.0010100697400048375
120.0,0.0009941410971805453
128.0,0.0007556175696663558
144.0,0.0008737342432141304
160.0,0.0006750858156010509
176.0,-0.00031880836468189955
192.0,-8.853741746861488e-05
208.0,-6.397614924935624e-05
224.0,-1.5909934518276714e-05
240.0,-0.00033574129338376224
256.0,-0.0002680579200387001
288.0,-0.0008704877691343427
320.0,-0.000654027156997472
352.0,-0.00028190083685331047
384.0,-0.00015185757365543395
416.0,0.0003869423526339233
448.0,0.0010361496824771166
480.0,0.0005927078891545534
512.0,-5.137057087267749e-05
576.0,-4.175528010819107e-05
640.0,-7.707799522904679e-05
704.0,0.00011299965990474448
768.0,5.777508704341017e-06
832.0,0.00018388760508969426
896.0,0.00046171393478289247
960.0,-0.0002517285756766796
1024.0,-0.00010998660582117736
1152.0,4.9717000365490094e-05
1280.0,8.220176823670045e-05
1408.0,-0.00011406240810174495
1536.0,-0.0003073419793508947
1664.0,-5.924932338530198e-05
1792.0,-6.319470412563533e-05
1920.0,3.955231295549311e-05
2048.0,0.00030584479100070894
2304.0,-4.7528021241305396e-05
2560.0,-0.0003303512930870056
2816.0,0.00044054057798348367
3072.0,-9.804958244785666e-05
3328.0,-4.851057747146115e-05
3584.0,-0.0006466383347287774
3840.0,-0.00033743857056833804
4096.0,-0.00032032563467510045
4608.0,-0.00015077914576977491
5120.0,-0.00018074491526931524
5632.0,0.0004080275830347091
6144.0,0.000287167786154896
6656.0,-9.81384509941563e-05
7168.0,-0.00019933820294681937
7680.0,0.0005127090262249112
8192.0,-3.876483242493123e-05
9216.0,-4.827472002943978e-05
10240.0,-0.0003564941871445626
11264.0,4.0707698644837365e-05
12288.0,-0.00013176743232179433
13312.0,7.353074761340395e-05
14336.0,0.00016455765580758452
end
