version,3.0
numOfCh,1
type,point
parent_name,4-cuts
ch_type,1_1
kcount,1
numberNandB,1
brightnessNandB,1
carpet pos,0
pc,0
Time (ms),CH1 Auto-Correlation
1.0,0.02716974914073944
2.0,0.022250615060329437
3.0,0.019046034663915634
4.0,0.016600962728261948
5.0,0.014652888290584087
6.0,0.013245961628854275
7.0,0.01186653133481741
8.0,0.010743997059762478
9.0,0.00963683519512415
10.0,0.008706513792276382
11.0,0.007927266880869865
12.0,0.00714496523141861
13.0,0.0064896331168711185
14.0,0.006115404423326254
15.0,0.005756337195634842
16.0,0.005418659187853336
18.0,0.0050431108102202415
20.0,0.004918938037008047
22.0,0.00465066684409976
24.0,0.004040491301566362
26.0,0.0035453070886433125
28.0,0.0034276433289051056
30.0,0.003324425546452403
32.0,0.0029206317849457264
36.0,0.0027461505960673094
40.0,0.002457121852785349
44.0,0.00216718390583992
48.0,0.001864369842223823
52.0,0.0012644602684304118
56.0,0.0010912589496001601
60.0,0.0006634165765717626
64.0,0.00043240439845249057
72.0,7.140543311834335e-05
80.0,9.229742863681167e-05
88.0,-0.00021463648590724915
96.0,-6.548804230988026e-05
104.0,-6.952846888452768e-05
112.0,0.0004787975049111992
120.0,0.0005053470958955586
128.0,0.0003479683364275843
144.0,-0.00034188691643066704
160.0,-4.9431357183493674e-05
176.0,-9.300076635554433e-05
192.0,0.0004519064095802605
208.0,0.00021368208399508148
224.0,8.297972090076655e-05
240.0,4.8854089982341975e-05
256.0,-0.0005377254565246403
288.0,-0.0011097999522462487
320.0,-0.0011260464088991284
352.0,-0.0007671323837712407
384.0,-0.00048200442688539624
416.0,-0.00040141315548680723
448.0,2.7782783945440315e-05
480.0,0.0001262911973753944
512.0,-0.0006083627231419086
576.0,0.00020957081869710237
640.0,-5.8061272284248844e-05
704.0,0.00031001685420051217
768.0,0.00028887102962471545
832.0,0.00010133579780813307
896.0,-0.0002798219211399555
960.0,0.00025861855829134583
1024.0,-0.00013718041009269655
1152.0,-0.0005450363969430327
1280.0,-0.00019537884509190917
1408.0,-0.00043048232328146696
1536.0,0.0004485864774324
1664.0,0.0003459906147327274
1792.0,0.0003006543265655637
1920.0,-1.756512574502267e-05
2048.0,0.0005983738228678703
2304.0,-0.00044290325604379177
2560.0,-0.00020843331003561616
2816.0,-0.00044018967309966683
3072.0,1.6882968338904902e-05
3328.0,-0.00027738645439967513
3584.0,0.00022318304399959743
3840.0,0.00040697643999010324
4096.0,0.00045667809899896383
4608.0,-0.0002754912420641631
5120.0,9.039536234922707e-05
5632.0,0.0003702372487168759
6144.0,4.8493868234800175e-05
6656.0,-0.0004404619976412505
7168.0,-0.00020061183022335172
7680.0,-0.00011057758092647418
8192.0,-0.00025328289484605193
9216.0,0.00020460653468035161
10240.0,-8.185818296624348e-05
11264.0,7.299964636331424e-05
12288.0,-0.00035227101761847734
13312.0,-5.1018021622439846e-05
14336.0,-3.0500137654598802e-05
end
