version,3.0
numOfCh,1
type,point
parent_name,4-cuts
ch_type,1_1
kcount,1
numberNandB,1
brightnessNandB,1
carpet pos,0
pc,0
Time (ms),CH1 Auto-Correlation
1.0,0.01681447960436344
2.0,0.01402648538351059
3.0,0.011962403543293476
4.0,0.01036208774894476
5.0,0.009162760339677334
6.0,0.00816042348742485
7.0,0.00731886038556695
8.0,0.006599032320082188
9.0,0.006085134577006102
10.0,0.005628752056509256
11.0,0.005171365104615688
12.0,0.004889649339020252
13.0,0.004614347126334906
14.0,0.004350967705249786
15.0,0.004061122424900532
16.0,0.0037517622113227844
18.0,0.0034606787376105785
20.0,0.0032325591892004013
22.0,0.0028904532082378864
24.0,0.002440796699374914
26.0,0.002027882030233741
28.0,0.0017017152858898044
30.0,0.0013950788415968418
32.0,0.0013816653518006206
36.0,0.0013532716548070312
40.0,0.00097813387401402
44.0,0.0009719806839711964
48.0,0.0008660855237394571
52.0,0.000718149880412966
56.0,0.00048161999438889325
60.0,0.0002182450407417491
64.0,0.00019722677825484425
72.0,-8.064856956480071e-05
80.0,0.00032607343746349216
88.0,0.0002685669460333884
96.0,-5.950313061475754e-05
104.0,9.521588071947917e-05
112.0,8.812781743472442e-06
120.0,0.0002383332757744938
128.0,0.0004727939376607537
144.0,0.000816132640466094
160.0,0.00048762120422907174
176.0,0.00017356977332383394
192.0,0.00023777993919793516
208.0,0.00037988173426128924
224.0,0.0009360080002807081
240.0,0.0009863474406301975
256.0,0.0003165561647620052
288.0,0.00010712724906625226
320.0,-6.910298543516546e-05
352.0,0.0006700252997688949
384.0,0.0003735173959285021
416.0,-8.693460404174402e-05
448.0,-7.639956311322749e-05
480.0,0.0002026427537202835
512.0,5.866515857633203e-05
576.0,-0.0003712763136718422
640.0,-0.0004924805252812803
704.0,3.843454032903537e-05
768.0,7.221511623356491e-05
832.0,-0.0004445087688509375
896.0,0.00033792087924666703
960.0,7.139162335079163e-05
1024.0,-0.00020412832964211702
1152.0,9.365988080389798e-05
1280.0,0.00010691452189348638
1408.0,0.00020137288083788007
1536.0,-0.000249118369538337
1664.0,9.111471445066854e-05
1792.0,-0.0001453783770557493
1920.0,-5.6099368521245196e-05
2048.0,-0.00013601453974843025
2304.0,0.00013135942572262138
2560.0,-0.00014277365698944777
2816.0,1.7760638002073392e-05
3072.0,3.873767491313629e-05
3328.0,-0.0002582696033641696
3584.0,-0.00015628105029463768
3840.0,-9.576229058438912e-05
4096.0,0.0003875642141792923
4608.0,0.0002190177474403754
5120.0,5.630113810184412e-05
5632.0,-6.53766401228495e-05
6144.0,-8.063011773629114e-05
6656.0,2.3636806872673333e-05
7168.0,-4.3783249566331506e-05
7680.0,-0.0004622424894478172
8192.0,-0.0004733545065391809
9216.0,6.84641272528097e-05
10240.0,-0.00012440930004231632
11264.0,4.856496525462717e-05
12288.0,-0.00020408227283041924
13312.0,7.131745951483026e-05
14336.0,-6.26205510343425e-05
end
