version,3.0
numOfCh,1
type,point
parent_name,4-cuts
ch_type,1_1
kcount,1
numberNandB,1
brightnessNandB,1
carpet pos,0
pc,0
Time (ms),CH1 Auto-Correlation
1.0,0.01699865236878395
2.0,0.01413367036730051
3.0,0.012064295820891857
4.0,0.010572167113423347
5.0,0.009415180422365665
6.0,0.008502152748405933
7.0,0.007734989747405052
8.0,0.007053328212350607
9.0,0.006566212512552738
10.0,0.006072565913200378
11.0,0.005583963356912136
12.0,0.005288003943860531
13.0,0.004962977487593889
14.0,0.004746478982269764
15.0,0.004634153097867966
16.0,0.004467586055397987
18.0,0.004116380587220192
20.0,0.0038416413590312004
22.0,0.003561761463060975
24.0,0.003405787283554673
26.0,0.0032952316105365753
28.0,0.0030638715252280235
30.0,0.0028500258922576904
32.0,0.0027192095294594765
36.0,0.0023817589972168207
40.0,0.002463200129568577
44.0,0.002431583357974887
48.0,0.002442130586132407
52.0,0.002272501587867737
56.0,0.0020116004161536694
60.0,0.0018058011773973703
64.0,0.0013410730753093958
72.0,0.0009198420448228717
80.0,0.0006147358217276633
88.0,0.0005658708978444338
96.0,0.00041385862277820706
104.0,0.0002687315864022821
112.0,3.31079208990559e-05
120.0,0.00015003937005531043
128.0,0.00046358330291695893
144.0,0.0002350497234147042
160.0,0.00023122652783058584
176.0,8.99396400200203e-05
192.0,0.00011647197970887646
208.0,-9.615947055863217e-05
224.0,0.00018522598838899285
240.0,0.0006592755671590567
256.0,0.0006371360504999757
288.0,0.0005904494901187718
320.0,0.000833618629258126
352.0,0.00044029971468262374
384.0,1.1384183380869217e-05
416.0,0.00011672456457745284
448.0,-3.6048559195478447e-06
480.0,-0.00016045226948335767
512.0,-0.0006859449786134064
576.0,-0.00035818168544210494
640.0,0.0004039335763081908
704.0,0.0002150741929654032
768.0,-0.000651126611046493
832.0,-0.0006296176579780877
896.0,0.00018512012320570648
960.0,0.0003607220423873514
1024.0,0.0005237938021309674
1152.0,-0.00023004259855952114
1280.0,-0.0003829253255389631
1408.0,-0.00018138789164368063
1536.0,-0.00024217210011556745
1664.0,0.00011347288091201335
1792.0,-3.977545566158369e-05
1920.0,0.0001079280482372269
2048.0,0.0005977560067549348
2304.0,6.27785557298921e-05
2560.0,-0.00021923391614109278
2816.0,-8.218864240916446e-05
3072.0,0.0003613872977439314
3328.0,0.00012711055751424283
3584.0,0.00015624606749042869
3840.0,6.855552055640146e-05
4096.0,-0.000158834780449979
4608.0,-0.0002787326229736209
5120.0,-0.0003040659357793629
5632.0,0.00012770872854162008
6144.0,-0.00028839625883847475
6656.0,0.00031880009919404984
7168.0,-0.00011564298620214686
7680.0,-0.00024715400650165975
8192.0,-0.00051494175568223
9216.0,-4.145985712966649e-06
10240.0,-0.0002668500237632543
11264.0,-0.0001625549339223653
12288.0,0.0004835363943129778
13312.0,-0.0002833051548805088
14336.0,0.0007028596010059118
end
