version,3.0
numOfCh,1
type,point
parent_name,4-cuts
ch_type,1_1
kcount,1
numberNandB,1
brightnessNandB,1
carpet pos,0
pc,0
Time (ms),CH1 Auto-Correlation
1.0,0.015877407044172287
2.0,0.01305744145065546
3.0,0.01121668703854084
4.0,0.009846463799476624
5.0,0.00876616220921278
6.0,0.007786596193909645
7.0,0.006925485096871853
8.0,0.0061986432410776615
9.0,0.0056694271042943
10.0,0.005181348882615566
11.0,0.004639448132365942
12.0,0.004167058505117893
13.0,0.003750237636268139
14.0,0.0034787626937031746
15.0,0.0032819027546793222
16.0,0.003078943118453026
18.0,0.0027203469071537256
20.0,0.002644158201292157
22.0,0.0026242032181471586
24.0,0.002632039599120617
26.0,0.0025640863459557295
28.0,0.002462775679305196
30.0,0.0023643060121685266
32.0,0.0023009213618934155
36.0,0.0020751352421939373
40.0,0.0016529567074030638
44.0,0.001310750376433134
48.0,0.0012001771247014403
52.0,0.0009940310847014189
56.0,0.0006980712059885263
60.0,0.0003920240269508213
64.0,0.0001582583790877834
72.0,0.0002618372382130474
80.0,0.0005684500210918486
88.0,0.00033735373290255666
96.0,-0.0002191214734921232
104.0,-1.4668251424154732e-05
112.0,0.00047574270865879953
120.0,0.00034412177046760917
128.0,0.0002412975300103426
144.0,0.00038413304719142616
160.0,6.050147203495726e-05
176.0,0.00020225449407007545
192.0,-3.163679502904415e-05
208.0,0.000389559892937541
224.0,0.00038273437530733645
240.0,0.0005235736607573926
256.0,0.0009751454927027225
288.0,0.0012143137864768505
320.0,0.000621073879301548
352.0,0.00027366005815565586
384.0,-0.0001406706724083051
416.0,0.00018723838729783893
448.0,0.0006156240124255419
480.0,0.00032046070555225015
512.0,0.00018888874910771847
576.0,0.0002542897709645331
640.0,-2.5239110982511193e-05
704.0,-0.00034540536580607295
768.0,0.0001924647658597678
832.0,0.0004964584950357676
896.0,7.143574748624815e-06
960.0,0.0002497660170774907
1024.0,0.0005703242495656013
1152.0,3.517512959660962e-05
1280.0,0.00027139027952216566
1408.0,-8.651098323753104e-05
1536.0,-0.0002567537594586611
1664.0,-0.0006490243249572814
1792.0,-0.0003755593206733465
1920.0,-0.000317301630275324
2048.0,-0.00021356993238441646
2304.0,7.147598807932809e-05
2560.0,-7.022769568720832e-05
2816.0,-0.00020673137623816729
3072.0,0.0002743504592217505
3328.0,0.0004386359651107341
3584.0,0.00027257492183707654
3840.0,0.00018872400687541813
4096.0,7.248606561915949e-05
4608.0,-2.0092806153115816e-05
5120.0,-0.0005183151224628091
5632.0,-0.00021658430341631174
6144.0,-9.823402797337621e-05
6656.0,0.0001101818197639659
7168.0,0.00021068574278615415
7680.0,-0.00011725878721335903
8192.0,-0.000207791686989367
9216.0,-0.0006155226146802306
10240.0,0.00039958686102181673
11264.0,6.343689165078104e-05
12288.0,-0.0005888530286028981
13312.0,-3.412773003219627e-05
14336.0,0.0011009181616827846
end
