version,3.0
numOfCh,1
type,point
parent_name,4-cuts
ch_type,1_1
kcount,1
numberNandB,1
brightnessNandB,1
carpet pos,0
pc,0
Time (ms),CH1 Auto-Correlation
1.0,0.01712745614349842
2.0,0.014088443480432034
3.0,0.011965546756982803
4.0,0.010330311954021454
5.0,0.009052463807165623
6.0,0.008144943974912167
7.0,0.007356824818998575
8.0,0.006855867337435484
9.0,0.006504257209599018
10.0,0.006165064871311188
11.0,0.005756480153650045
12.0,0.005431425292044878
13.0,0.005163450259715319
14.0,0.0048724026419222355
15.0,0.004438317846506834
16.0,0.004254309460520744
18.0,0.0037532260175794363
20.0,0.0033285534009337425
22.0,0.0028936248272657394
24.0,0.002753492444753647
26.0,0.002670748857781291
28.0,0.0025428214576095343
30.0,0.002436551032587886
32.0,0.002370555652305484
36.0,0.002189143095165491
40.0,0.0023958717938512564
44.0,0.0022482359781861305
48.0,0.0020687535870820284
52.0,0.001912164269015193
56.0,0.0018038838170468807
60.0,0.0016190143069252372
64.0,0.0015482582384720445
72.0,0.0012185079976916313
80.0,0.0011739748297259212
88.0,0.0010587249416857958
96.0,0.0009307655273005366
104.0,0.0007559428340755403
112.0,0.0003744967107195407
120.0,0.0003794077492784709
128.0,0.00012113878619857132
144.0,0.00025578823988325894
160.0,0.00044057134073227644
176.0,1.739817344059702e-05
192.0,0.0001197713500005193
208.0,0.00014740746701136231
224.0,9.57332958932966e-05
240.0,0.0005155143444426358
256.0,0.00025945884408429265
288.0,-0.0001831911358749494
320.0,-0.0005288245738483965
352.0,-0.0005149927455931902
384.0,-0.0006512669497169554
416.0,-0.00031859840964898467
448.0,-0.0005041942931711674
480.0,-0.0004873256548307836
512.0,1.3298656995175406e-05
576.0,3.0884759325999767e-05
640.0,0.00016714971570763737
704.0,4.429641558090225e-05
768.0,0.00034360980498604476
832.0,0.0006072173709981143
896.0,0.0005745355738326907
960.0,0.0004655693774111569
1024.0,0.00031336606480181217
1152.0,9.866111213341355e-05
1280.0,5.2272866014391184e-05
1408.0,-4.448100662557408e-05
1536.0,-0.00016591884195804596
1664.0,0.00010364315676270053
1792.0,6.297537765931338e-05
1920.0,5.525611049961299e-05
2048.0,-0.00016050141130108386
2304.0,0.0001378639426548034
2560.0,0.0003249904839321971
2816.0,-0.00023266425705514848
3072.0,-0.0003559345204848796
3328.0,-9.685270015324932e-06
3584.0,0.00014961851411499083
3840.0,-6.811473576817662e-05
4096.0,-0.000512722646817565
4608.0,0.0001025717647280544
5120.0,-3.13442615151871e-06
5632.0,-0.00014959866530261934
6144.0,-0.00019018127932213247
6656.0,-0.00029500245000235736
7168.0,0.0001092272432288155
7680.0,8.484951104037464e-05
8192.0,0.0002283543726662174
9216.0,0.0001580545649630949
10240.0,0.00017861431115306914
11264.0,3.845099490717985e-05
12288.0,-1.3383642908593174e-05
13312.0,-0.0003528962843120098
14336.0,-0.0014606841141358018
end
