version,3.0
numOfCh,1
type,point
parent_name,4-cuts
ch_type,1_1
kcount,1
numberNandB,1
brightnessNandB,1
carpet pos,0
pc,0
Time (ms),CH1 Auto-Correlation
1.0,0.017190011218190193
2.0,0.014119264669716358
3.0,0.011876264587044716
4.0,0.010278097353875637
5.0,0.009025324136018753
6.0,0.008007730357348919
7.0,0.007154469843953848
8.0,0.00652988301590085
9.0,0.005985347554087639
10.0,0.005493393167853355
11.0,0.005055518355220556
12.0,0.004700802266597748
13.0,0.004364707972854376
14.0,0.004157190211117268
15.0,0.003816944546997547
16.0,0.003562670201063156
18.0,0.0032944325357675552
20.0,0.003047812730073929
22.0,0.0026454213075339794
24.0,0.0022869515232741833
26.0,0.0019474414875730872
28.0,0.0018949529621750116
30.0,0.0017754756845533848
32.0,0.0016750774811953306
36.0,0.0015230606077238917
40.0,0.0013709894847124815
44.0,0.0011256729485467076
48.0,0.000822993170004338
52.0,0.0007316104602068663
56.0,0.00048704363871365786
60.0,0.00037668048753403127
64.0,0.0003086338401772082
72.0,0.0007624547579325736
80.0,0.001004589255899191
88.0,0.0010811190586537123
96.0,0.0007863919017836452
104.0,0.0008728886605240405
112.0,0.0010823281481862068
120.0,0.000692459347192198
128.0,0.00038044265238568187
144.0,0.0004013254656456411
160.0,0.00010316895350115374
176.0,0.00048541693831793964
192.0,0.000536368926987052
208.0,0.00026749627431854606
224.0,-0.000175731023773551
240.0,-0.00038181556737981737
256.0,-0.00014238835137803108
288.0,0.00018219780758954585
320.0,-0.00014327523240353912
352.0,-9.022672020364553e-05
384.0,0.00040632253512740135
416.0,-0.0002945959276985377
448.0,-3.859658681903966e-05
480.0,0.00039376766653731465
512.0,0.00015641619393136352
576.0,-3.905914127244614e-05
640.0,0.00029033044120296836
704.0,0.0004064718959853053
768.0,-3.7587513361359015e-05
832.0,0.00030910223722457886
896.0,0.00034343352308496833
960.0,-0.00016027908714022487
1024.0,-0.00011822234955616295
1152.0,0.00017394449969287962
1280.0,-1.6186166249099188e-05
1408.0,0.0001036645844578743
1536.0,-1.917377085192129e-05
1664.0,-0.0006982244667597115
1792.0,-0.0002117184194503352
1920.0,-9.628022962715477e-05
2048.0,-0.00023297793813981116
2304.0,-0.00019794522086158395
2560.0,-0.00018193644064012915
2816.0,4.2750732973217964e-05
3072.0,0.00010195370123255998
3328.0,-8.425583655480295e-05
3584.0,-0.00022219294623937458
3840.0,0.0004896749742329121
4096.0,-0.0003620881761889905
4608.0,0.0003131369303446263
5120.0,0.0002889223105739802
5632.0,-0.0002750599232967943
6144.0,-0.0003421856090426445
6656.0,-0.00011369574349373579
7168.0,-0.0003592063731048256
7680.0,0.0001443581422790885
8192.0,0.00017565653251949698
9216.0,-7.13705740054138e-05
10240.0,1.6150177543750033e-05
11264.0,-0.00013257309910841286
12288.0,-9.189273259835318e-05
13312.0,0.00010691431089071557
14336.0,6.501967436634004e-05
end
