version,3.0
numOfCh,1
type,point
parent_name,4-cuts
ch_type,1_1
kcount,1
numberNandB,1
brightnessNandB,1
carpet pos,0
pc,0
Time (ms),CH1 Auto-Correlation
1.0,0.015794599428772926
2.0,0.013007031753659248
3.0,0.01097180973738432
4.0,0.009493065997958183
5.0,0.00830126367509365
6.0,0.007273946423083544
7.0,0.006425839848816395
8.0,0.0058012064546346664
9.0,0.005287197884172201
10.0,0.004889680538326502
11.0,0.004486063960939646
12.0,0.004126149695366621
13.0,0.0038229990750551224
14.0,0.003543962724506855
15.0,0.003429505741223693
16.0,0.003229304915294051
18.0,0.0029482704121619463
20.0,0.002562711713835597
22.0,0.002425064565613866
24.0,0.002424485981464386
26.0,0.0022029131650924683
28.0,0.0020231897942721844
30.0,0.001844347920268774
32.0,0.001921074464917183
36.0,0.0017131344648078084
40.0,0.0013944600941613317
44.0,0.001239065546542406
48.0,0.0011978979455307126
52.0,0.0012856642715632915
56.0,0.0012767877196893096
60.0,0.0013467841781675816
64.0,0.001277256989851594
72.0,0.0014615836553275585
80.0,0.0010790368542075157
88.0,0.0009654270834289491
96.0,0.001202271319925785
104.0,0.0008692497503943741
112.0,0.0008722044294700027
120.0,0.0008387413108721375
128.0,0.0004981289966963232
144.0,0.00012867824989371002
160.0,0.00013373445835895836
176.0,0.00014390541764441878
192.0,-9.610966662876308e-05
208.0,0.00012540265743155032
224.0,-3.308118539280258e-05
240.0,9.549584501655772e-05
256.0,7.808189548086375e-05
288.0,-0.0003028815845027566
320.0,3.246574124204926e-05
352.0,-0.0003044782788492739
384.0,-0.00046039323206059635
416.0,0.00011239912419114262
448.0,0.00027484120801091194
480.0,0.00037719527608715
512.0,0.00021512316016014665
576.0,0.0006477636052295566
640.0,0.00018834347429219633
704.0,7.457940955646336e-05
768.0,-0.00018266199913341552
832.0,0.00027053343364968896
896.0,0.00013438731548376381
960.0,-0.00026556034572422504
1024.0,-3.3654130675131455e-05
1152.0,0.0001974900224013254
1280.0,0.00034763847361318767
1408.0,-2.985483661177568e-05
1536.0,-0.0003710402233991772
1664.0,-0.00029916572384536266
1792.0,-9.272801253246143e-05
1920.0,-0.0001825677027227357
2048.0,-0.0003377721586730331
2304.0,0.0003188536793459207
2560.0,-0.00019301105930935591
2816.0,-6.267378466873197e-06
3072.0,3.950175232603215e-05
3328.0,0.00010462122008902952
3584.0,9.895693801809102e-05
3840.0,0.0003771907649934292
4096.0,-0.00041057085036300123
4608.0,-0.00013030464469920844
5120.0,-4.388756860862486e-05
5632.0,-0.0001067596094799228
6144.0,8.25997194624506e-05
6656.0,-0.00033150368835777044
7168.0,0.00014423357788473368
7680.0,-0.00019313179655000567
8192.0,3.1214047339744866e-05
9216.0,0.0003210269205737859
10240.0,6.988877430558205e-05
11264.0,6.392977229552343e-05
12288.0,-0.00024412838683929294
13312.0,-0.0005766116082668304
14336.0,-0.0004494584572967142
end
