version,3.0
numOfCh,1
type,point
parent_name,4-cuts
ch_type,1_1
kcount,1
numberNandB,1
brightnessNandB,1
carpet pos,0
pc,0
Time (ms),CH1 Auto-Correlation
1.0,0.016090646386146545
2.0,0.0132097527384758
3.0,0.011273927055299282
4.0,0.009743514470756054
5.0,0.008519405499100685
6.0,0.007622054778039455
7.0,0.0068228840827941895
8.0,0.006207991391420364
9.0,0.005623186472803354
10.0,0.005143478978425264
11.0,0.00473799929022789
12.0,0.004535788204520941
13.0,0.00429813377559185
14.0,0.003927982412278652
15.0,0.00371629954315722
16.0,0.003543325699865818
18.0,0.0031405531335622072
20.0,0.002886260859668255
22.0,0.002640585647895932
24.0,0.002334612887352705
26.0,0.0020439056679606438
28.0,0.0019783317111432552
30.0,0.0019194959895685315
32.0,0.0017389063723385334
36.0,0.0012922505848109722
40.0,0.0010448385728523135
44.0,0.0009998597670346498
48.0,0.0009072310640476644
52.0,0.0009503915207460523
56.0,0.0008448504377156496
60.0,0.0009827188914641738
64.0,0.0011543295113369823
72.0,0.0013074507005512714
80.0,0.001128663308918476
88.0,0.0010919286869466305
96.0,0.000873353099450469
104.0,0.0010381905594840646
112.0,0.0006767591694369912
120.0,0.0002997459378093481
128.0,0.00013289044727571309
144.0,0.00042600670713
160.0,0.000633294926956296
176.0,0.00023724466154817492
192.0,0.0004266661708243191
208.0,-0.0002789280842989683
224.0,-0.0006429089116863906
240.0,-0.0007478686748072505
256.0,-0.0004455871239770204
288.0,0.0003489595837891102
320.0,0.0005170544609427452
352.0,-0.0001565114507684484
384.0,0.00017519498942419887
416.0,0.000526596384588629
448.0,2.1528127035708167e-05
480.0,0.0004770982777699828
512.0,0.0003766149457078427
576.0,0.00034511875128373504
640.0,-7.5318239396438e-05
704.0,5.280305413180031e-05
768.0,-0.0008257728186435997
832.0,-0.0004912663716822863
896.0,-0.0001568193983985111
960.0,-0.00013781596499029547
1024.0,0.0004258319386281073
1152.0,2.4331955501111224e-05
1280.0,-0.00021887425100430846
1408.0,0.00011338174226693809
1536.0,0.0004850274126511067
1664.0,0.0002049112372333184
1792.0,-0.0005312222638167441
1920.0,-0.00022828372311778367
2048.0,0.0002761277719400823
2304.0,-0.00014320372429210693
2560.0,-0.00019136340415570885
2816.0,-9.545445936964825e-05
3072.0,-0.0005104734445922077
3328.0,1.9959847122663632e-05
3584.0,6.892084638820961e-05
3840.0,0.00016938665066845715
4096.0,0.0001558269141241908
4608.0,0.0001430535630788654
5120.0,0.0001779444282874465
5632.0,-7.383722550002858e-05
6144.0,0.00021998050215188414
6656.0,-0.0002560845168773085
7168.0,-0.0007739359280094504
7680.0,-0.0002024423301918432
8192.0,0.00013680804113391787
9216.0,0.00017162991571240127
10240.0,6.570157711394131e-05
11264.0,-0.00012082563625881448
12288.0,-0.00047522730892524123
13312.0,1.0110361472470686e-05
14336.0,0.00042270447011105716
end
