version,3.0
numOfCh,1
type,point
parent_name,4-cuts
ch_type,1_1
kcount,1
numberNandB,1
brightnessNandB,1
carpet pos,0
pc,0
Time (ms),CH1 Auto-Correlation
1.0,0.027626466006040573
2.0,0.022832991555333138
3.0,0.019415980204939842
4.0,0.016861340031027794
5.0,0.01470397412776947
6.0,0.013022361323237419
7.0,0.011726552620530128
8.0,0.010762057267129421
9.0,0.009766688570380211
10.0,0.008851738646626472
11.0,0.007940790615975857
12.0,0.007247466128319502
13.0,0.006844198331236839
14.0,0.0064098103903234005
15.0,0.006126192398369312
16.0,0.00599988317117095
18.0,0.0055800508707761765
20.0,0.0050210366025567055
22.0,0.0047249263152480125
24.0,0.004295265767723322
26.0,0.0038818474858999252
28.0,0.0033778580836951733
30.0,0.0030647406820207834
32.0,0.002838475862517953
36.0,0.002828859956935048
40.0,0.0026035229675471783
44.0,0.0022183225955814123
48.0,0.002698799828067422
52.0,0.0029606155585497618
56.0,0.002862324472516775
60.0,0.0025986956898123026
64.0,0.002275204984471202
72.0,0.0021420943085104227
80.0,0.0016792770475149155
88.0,0.00121330376714468
96.0,0.0016345013864338398
104.0,0.0018274486064910889
112.0,0.0021491823717951775
120.0,0.0019139500800520182
128.0,0.0018625640077516437
144.0,0.0013749070931226015
160.0,0.0015480484580621123
176.0,0.0009507678332738578
192.0,8.786354737821966e-05
208.0,0.0003193895099684596
224.0,0.001272583962418139
240.0,0.001223909785039723
256.0,0.0010176178766414523
288.0,0.0008740617195144296
320.0,0.0009049391956068575
352.0,0.00033738065394572914
384.0,-4.606950096786022e-05
416.0,-7.61175760999322e-05
448.0,0.0006238855421543121
480.0,0.0006130899419076741
512.0,0.0005946785677224398
576.0,0.0004394172574393451
640.0,0.000834178295917809
704.0,-0.0004925206885673106
768.0,0.0001861707860371098
832.0,-0.00016412764671258628
896.0,0.00021706968254875392
960.0,-0.000585809932090342
1024.0,-0.0011218365980312228
1152.0,-0.0003036389534827322
1280.0,3.6260746128391474e-05
1408.0,-0.00014250494132284075
1536.0,-0.0001933786552399397
1664.0,-3.55171287083067e-05
1792.0,-0.00035663211019709706
1920.0,0.0002327311085537076
2048.0,-6.55223338981159e-05
2304.0,-0.00026545842410996556
2560.0,0.0005210229428485036
2816.0,-0.0006631141295656562
3072.0,8.609715587226674e-05
3328.0,0.00029564928263425827
3584.0,-0.00036445914884097874
3840.0,0.0003592396096792072
4096.0,0.000761187169700861
4608.0,0.00018743591499514878
5120.0,-0.0003761045809369534
5632.0,-9.959113958757371e-05
6144.0,0.0006620645872317255
6656.0,0.0002455142966937274
7168.0,-0.0003099891764577478
7680.0,-0.0005418081418611109
8192.0,-0.0005625775665976107
9216.0,-0.00015938124852254987
10240.0,0.00010785287304315716
11264.0,-0.0004400086763780564
12288.0,-0.0002914611832238734
13312.0,-0.0015180677874013782
14336.0,-0.0006179019110277295
end
