version,3.0
numOfCh,1
type,point
parent_name,4-cuts
ch_type,1_1
kcount,1
numberNandB,1
brightnessNandB,1
carpet pos,0
pc,0
Time (ms),CH1 Auto-Correlation
1.0,0.015517069958150387
2.0,0.012586025521159172
3.0,0.010645966045558453
4.0,0.009249809198081493
5.0,0.008182242512702942
6.0,0.007287307642400265
7.0,0.00653134984895587
8.0,0.005987291689962149
9.0,0.005410459358245134
10.0,0.004827429540455341
11.0,0.004290157463401556
12.0,0.003807386150583625
13.0,0.0034821266308426857
14.0,0.0032616080716252327
15.0,0.003064148360863328
16.0,0.0029592702630907297
18.0,0.00269016670063138
20.0,0.002291192766278982
22.0,0.0019729011692106724
24.0,0.001845739083364606
26.0,0.001643127528950572
28.0,0.0013281484134495258
30.0,0.0010411099065095186
32.0,0.0009552775882184505
36.0,0.0010231217602267861
40.0,0.0009597475291229784
44.0,0.0007788368966430426
48.0,0.0007009959081187844
52.0,0.0005608659121207893
56.0,0.00031284382566809654
60.0,2.093352668453008e-05
64.0,-4.8169658839469776e-05
72.0,-0.0002077745011774823
80.0,-0.0001940023066708818
88.0,6.664999818895012e-05
96.0,0.00019993996829725802
104.0,0.00035289430525153875
112.0,0.00033613081905059516
120.0,0.00019057421013712883
128.0,-8.432421600446105e-05
144.0,-0.0005802781670354307
160.0,-0.0008334084996022284
176.0,-0.0007480777567252517
192.0,-0.0004341373860370368
208.0,-0.0007218091050162911
224.0,-0.00043578498298302293
240.0,-0.0003774566575884819
256.0,-0.0002239294844912365
288.0,0.00021308392751961946
320.0,0.0003293298650532961
352.0,0.00032387147075496614
384.0,0.00043488768278621137
416.0,0.0002962060971185565
448.0,-0.0001311876840190962
480.0,-0.00013829185627400875
512.0,0.00039842259138822556
576.0,-0.00013057464093435556
640.0,-0.0006221079383976758
704.0,-5.0627266318770126e-05
768.0,2.27788659685757e-05
832.0,0.0002940815465990454
896.0,0.00010016542364610359
960.0,-0.0002936477540060878
1024.0,0.00010376345016993582
1152.0,-7.884441583883017e-05
1280.0,0.00021921783627476543
1408.0,0.00015449900820385665
1536.0,-0.0005094861844554543
1664.0,0.00010388222290202975
1792.0,1.9799292203970253e-05
1920.0,-0.0001730469084577635
2048.0,-0.00021486575133167207
2304.0,1.8249496633870876e-06
2560.0,1.72869986272417e-05
2816.0,1.5633008842996787e-06
3072.0,9.084043267648667e-05
3328.0,-5.41971530765295e-05
3584.0,-0.00013089351705275476
3840.0,4.057702244608663e-05
4096.0,-6.0875270719407126e-05
4608.0,-3.510155147523619e-05
5120.0,-3.3928477932931855e-05
5632.0,-3.96718860429246e-05
6144.0,5.8914924011332914e-05
6656.0,0.00012027408956782892
7168.0,3.075388667639345e-05
7680.0,0.0001440757478121668
8192.0,-1.823460297600832e-05
9216.0,-0.00014152211952023208
10240.0,-0.0001933066378114745
11264.0,2.9268654543557204e-05
12288.0,-0.00014962328714318573
13312.0,2.8057967938366346e-05
14336.0,0.0001597452792339027
end
