version,3.0
numOfCh,1
type,point
parent_name,4-cuts
ch_type,1_1
kcount,1
numberNandB,1
brightnessNandB,1
carpet pos,0
pc,0
Time (ms),CH1 Auto-Correlation
1.0,0.015704985707998276
2.0,0.012761170044541359
3.0,0.010764057748019695
4.0,0.009200949221849442
5.0,0.00809155497699976
6.0,0.007144661154597998
7.0,0.00633185263723135
8.0,0.0056631010957062244
9.0,0.005082190968096256
10.0,0.004750036634504795
11.0,0.004283529706299305
12.0,0.0038872479926794767
13.0,0.0034363570157438517
14.0,0.003101180773228407
15.0,0.002755568828433752
16.0,0.0024272201117128134
18.0,0.0020968203898519278
20.0,0.0015848492039367557
22.0,0.0012799152173101902
24.0,0.0011037716176360846
26.0,0.001036341185681522
28.0,0.0009984680218622088
30.0,0.0008406763663515449
32.0,0.0007358635775744915
36.0,0.0007596556679345667
40.0,0.0006514768465422094
44.0,0.0004870642442256212
48.0,0.0005697016604244709
52.0,0.0006782574928365648
56.0,0.0006290539167821407
60.0,0.0007183504640124738
64.0,0.0006497139693237841
72.0,0.0003680058289319277
80.0,2.714088259381242e-05
88.0,4.365259155747481e-05
96.0,8.35166429169476e-05
104.0,0.00033599050948396325
112.0,0.00046646123519167304
120.0,8.316638559335843e-05
128.0,-0.00010005689546233043
144.0,-0.0002634208940435201
160.0,-5.432561374618672e-05
176.0,0.00014443439431488514
192.0,0.00040334442746825516
208.0,0.0002538279804866761
224.0,0.00012214852904435247
240.0,3.3022074603650253e-06
256.0,0.0002621038001962006
288.0,-0.00013822039181832224
320.0,-0.00030708545818924904
352.0,-0.0001561919489176944
384.0,-0.00041094503831118345
416.0,-5.684220013790764e-05
448.0,-7.141370588215068e-05
480.0,-3.3925887692021206e-05
512.0,-3.9400056266458705e-05
576.0,-0.00037124488153494895
640.0,-8.74951365403831e-05
704.0,-6.469817890319973e-05
768.0,0.0002769308921415359
832.0,-0.00012034978135488927
896.0,0.00019295520905870944
960.0,0.00030286909895949066
1024.0,-0.0002092887880280614
1152.0,-4.997041742171859e-06
1280.0,-0.00013221226981841028
1408.0,-0.0002356937766307965
1536.0,-0.00012993256677873433
1664.0,-0.00016584148397669196
1792.0,-1.6751191651565023e-05
1920.0,0.00022044972865842283
2048.0,0.0002442974073346704
2304.0,-0.00012663468078244478
2560.0,-0.0002867733419407159
2816.0,0.00029188001644797623
3072.0,-2.595901969471015e-05
3328.0,0.00010243010183330625
3584.0,0.00013940967619419098
3840.0,0.00010845773067558184
4096.0,-0.00010507928527658805
4608.0,-0.00021019700216129422
5120.0,2.7823089112644084e-05
5632.0,0.00027216513990424573
6144.0,-1.8976275896420702e-05
6656.0,-0.00019152923778165132
7168.0,0.00012889034405816346
7680.0,-0.0002155340334866196
8192.0,-3.7158355553401634e-05
9216.0,0.0001048445119522512
10240.0,-0.00011246775829931721
11264.0,0.00013351523375604302
12288.0,-0.00019838198204524815
13312.0,-0.00011045418796129525
14336.0,-0.00020826169929932803
end
