version,3.0
numOfCh,1
type,point
parent_name,4-cuts
ch_type,1_1
kcount,1
numberNandB,1
brightnessNandB,1
carpet pos,0
pc,0
Time (ms),CH1 Auto-Correlation
1.0,0.0175662562251091
2.0,0.014582212083041668
3.0,0.012455417774617672
4.0,0.010915685445070267
5.0,0.009641087613999844
6.0,0.008696271106600761
7.0,0.007998195476830006
8.0,0.007378534879535437
9.0,0.006826832890510559
10.0,0.006381525192409754
11.0,0.0059262840077281
12.0,0.005463857203722
13.0,0.00494844326749444
14.0,0.004576144739985466
15.0,0.004302674438804388
16.0,0.004054910968989134
18.0,0.003639760660007596
20.0,0.0033335546031594276
22.0,0.0031779820565134287
24.0,0.0031101363711059093
26.0,0.0030769670847803354
28.0,0.003031742526218295
30.0,0.0028827707283198833
32.0,0.0025903466157615185
36.0,0.0025000625755637884
40.0,0.002409299835562706
44.0,0.0019630552269518375
48.0,0.0016246424056589603
52.0,0.0014967701863497496
56.0,0.00127114774659276
60.0,0.0008464453858323395
64.0,0.0009982725605368614
72.0,0.0006983558996580541
80.0,0.0008661234751343727
88.0,0.0010232481872662902
96.0,0.0008969053742475808
104.0,0.0012376123340800405
112.0,0.0012775759678333998
120.0,0.0016815232811495662
128.0,0.0015544516500085592
144.0,0.0012474141549319029
160.0,0.0009121456532739103
176.0,0.00045577867422252893
192.0,0.0004921274958178401
208.0,0.0005298033938743174
224.0,0.0004135585331823677
240.0,0.0005225210916250944
256.0,0.0007104116957634687
288.0,0.000211940539884381
320.0,-0.00021352442854549736
352.0,-4.8634545237291604e-05
384.0,-0.0006496451096609235
416.0,-0.0006390879862010479
448.0,-3.9917289541335776e-05
480.0,-0.00012951834651175886
512.0,-0.0011212860699743032
576.0,-0.00043823831947520375
640.0,-0.00040643903776071966
704.0,-0.0002999174757860601
768.0,6.803177257097559e-06
832.0,-0.00016667797171976417
896.0,4.0199279283115175e-06
960.0,8.886766408977564e-06
1024.0,-0.0002731368876993656
1152.0,0.00010228181054117158
1280.0,0.00014018853835295886
1408.0,8.529125807399396e-06
1536.0,-0.00043376232497394085
1664.0,-0.0004405491054058075
1792.0,-0.0002735670132096857
1920.0,-0.00044877344043925405
2048.0,-0.0003154329606331885
2304.0,-0.00042904450674541295
2560.0,0.0004097892378922552
2816.0,0.00015819909458514303
3072.0,0.0003324893768876791
3328.0,-6.127002416178584e-05
3584.0,0.000308842834783718
3840.0,0.0004580563399940729
4096.0,-8.032919868128374e-05
4608.0,-0.00014284950157161802
5120.0,-0.00044618689571507275
5632.0,0.0003805580490734428
6144.0,-0.0005120231071487069
6656.0,1.46892671182286e-05
7168.0,9.202317596646026e-05
7680.0,-0.00047146473661996424
8192.0,0.0003778091922868043
9216.0,-4.2906045564450324e-05
10240.0,-0.0002788411802612245
11264.0,0.0003130167897325009
12288.0,0.00012360821710899472
13312.0,2.1973590264678933e-05
14336.0,-5.027318184147589e-05
end
