version,3.0
numOfCh,1
type,point
parent_name,4-cuts
ch_type,1_1
kcount,1
numberNandB,1
brightnessNandB,1
carpet pos,0
pc,0
Time (ms),CH1 Auto-Correlation
1.0,0.014555733650922775
2.0,0.011695552617311478
3.0,0.009674740955233574
4.0,0.008245721459388733
5.0,0.0070899915881454945
6.0,0.006104792933911085
7.0,0.005370494443923235
8.0,0.0047372253611683846
9.0,0.004208971280604601
10.0,0.0037921746261417866
11.0,0.003373639192432165
12.0,0.0030343609396368265
13.0,0.00278235855512321
14.0,0.0026177314575761557
15.0,0.0023219012655317783
16.0,0.002163482364267111
18.0,0.001991725992411375
20.0,0.001748697366565466
22.0,0.001517364289611578
24.0,0.0012382188579067588
26.0,0.0010560909286141396
28.0,0.0009301059762947261
30.0,0.0008961219573393464
32.0,0.0009045503102242947
36.0,0.00073302659438923
40.0,0.0007622978300787508
44.0,0.0008588064229115844
48.0,0.0008381627849303186
52.0,0.0008117352845147252
56.0,0.0007822341285645962
60.0,0.0008472390472888947
64.0,0.0007725282339379191
72.0,0.000850779062602669
80.0,0.0010040482738986611
88.0,0.0011360126081854105
96.0,0.000705168058630079
104.0,0.00044876447645947337
112.0,0.00010233416105620563
120.0,-0.0004370149108581245
128.0,-0.0003074189880862832
144.0,-0.000169723920407705
160.0,0.00017360755009576678
176.0,0.00030686211539432406
192.0,-0.00030769288423471153
208.0,-0.00023860771034378558
224.0,-7.802230538800359e-05
240.0,-6.941580795682967e-05
256.0,-0.0002783317759167403
288.0,-9.961419891624246e-06
320.0,-5.458926170831546e-05
352.0,-0.00018734725017566234
384.0,0.0003282990655861795
416.0,-0.00022681242262478918
448.0,0.00013722268340643495
480.0,-6.789208418922499e-05
512.0,-0.0002088432083837688
576.0,0.00014872012252453715
640.0,-0.0001362236071145162
704.0,-0.00020977178064640611
768.0,-0.00014219827426131815
832.0,3.342178388265893e-06
896.0,0.0001964144903467968
960.0,0.00015858003462199122
1024.0,-0.0001524971448816359
1152.0,-0.00025818904396146536
1280.0,3.761240077437833e-05
1408.0,0.00020914216293022037
1536.0,6.339667743304744e-05
1664.0,0.0002156488917535171
1792.0,0.000371160771464929
1920.0,0.00016645413415972143
2048.0,-8.842610441206489e-06
2304.0,-8.110581256914884e-05
2560.0,8.229920058511198e-05
2816.0,-3.712420220836066e-05
3072.0,-0.0001388805394526571
3328.0,-0.0002291961427545175
3584.0,-8.413451723754406e-05
3840.0,-6.943969492567703e-05
4096.0,0.00020144121663179249
4608.0,-0.00037925346987321973
5120.0,-0.0001329114893451333
5632.0,-4.4235915993340313e-05
6144.0,-6.279518856899813e-05
6656.0,-8.31441575428471e-05
7168.0,-9.1241963673383e-05
7680.0,4.281783549231477e-05
8192.0,0.00019157618226017803
9216.0,7.70391125115566e-05
10240.0,0.00023841997608542442
11264.0,3.615098466980271e-05
12288.0,-0.000132833665702492
13312.0,-0.00017382290388923138
14336.0,-0.0002496209926903248
end
