version,3.0
numOfCh,1
type,point
parent_name,4-cuts
ch_type,1_1
kcount,1
numberNandB,1
brightnessNandB,1
carpet pos,0
pc,0
Time (ms),CH1 Auto-Correlation
1.0,0.01674788072705269
2.0,0.013743818737566471
3.0,0.011675365269184113
4.0,0.010211638174951077
5.0,0.008967763744294643
6.0,0.00793234072625637
7.0,0.007143632508814335
8.0,0.006509806495159864
9.0,0.005897941999137402
10.0,0.005368477664887905
11.0,0.004990856628865004
12.0,0.004550236277282238
13.0,0.004181277938187122
14.0,0.003916911315172911
15.0,0.00359847373329103
16.0,0.00340255256742239
18.0,0.0030777875799685717
20.0,0.0026524935383349657
22.0,0.0023533436469733715
24.0,0.0022291995119303465
26.0,0.002092977287247777
28.0,0.0017714358400553465
30.0,0.0015334025956690311
32.0,0.0014147245092317462
36.0,0.0009360671974718571
40.0,0.0006786559824831784
44.0,0.0006815960514359176
48.0,0.00044899771455675364
52.0,0.0004219550173729658
56.0,0.0002854140184354037
60.0,0.0001536678901175037
64.0,0.00022143736714497209
72.0,0.0004022164212074131
80.0,0.0005937159294262528
88.0,0.0003947391815017909
96.0,0.00021085189655423164
104.0,6.912097887834534e-05
112.0,0.0001350826205452904
120.0,-6.998027674853802e-05
128.0,-0.00014930259203538299
144.0,-3.4986616810783744e-05
160.0,0.0001949533907463774
176.0,0.00011406839621486142
192.0,1.3752531231148168e-05
208.0,0.0003959195746574551
224.0,5.6827146181603894e-05
240.0,0.0001638840330997482
256.0,0.00045415543718263507
288.0,3.996427039965056e-05
320.0,0.00038848022813908756
352.0,-0.00019360209989827126
384.0,-0.0001379234017804265
416.0,0.00020435180340427905
448.0,0.0003740827669389546
480.0,0.0004358431906439364
512.0,0.0004310864896979183
576.0,-8.723464816284832e-06
640.0,-0.00038898279308341444
704.0,0.0005058221868239343
768.0,-0.00032337690936401486
832.0,-0.0002829588484019041
896.0,-0.00044119672384113073
960.0,0.0001706664334051311
1024.0,0.00014142309373710304
1152.0,-0.0005047122831456363
1280.0,-0.00029207649640738964
1408.0,0.0004084142274223268
1536.0,0.00023023820540402085
1664.0,-0.0002596713602542877
1792.0,-0.0005714344442822039
1920.0,-0.0001602448319317773
2048.0,-0.0002961390418931842
2304.0,7.124648982426152e-05
2560.0,5.5469005019403994e-05
2816.0,0.00039003530400805175
3072.0,0.0002599001454655081
3328.0,-0.00017382738587912172
3584.0,5.650012826663442e-05
3840.0,-4.8673460696591064e-05
4096.0,-1.8498749341233633e-05
4608.0,1.9257673557149246e-05
5120.0,0.0001568054867675528
5632.0,-5.837086064275354e-05
6144.0,-3.558725802577101e-05
6656.0,-0.00014524025027640164
7168.0,7.64219366828911e-05
7680.0,3.82508005714044e-05
8192.0,-0.000145657904795371
9216.0,-0.0001180094841402024
10240.0,2.6334259018767625e-05
11264.0,-3.994336657342501e-05
12288.0,-0.0001458583865314722
13312.0,-8.770838030613959e-05
14336.0,-3.462678796495311e-05
end
