version,3.0
numOfCh,1
type,point
parent_name,4-cuts
ch_type,1_1
kcount,1
numberNandB,1
brightnessNandB,1
carpet pos,0
pc,0
Time (ms),CH1 Auto-Correlation
1.0,0.026614686474204063
2.0,0.02174416184425354
3.0,0.01822616346180439
4.0,0.01577996276319027
5.0,0.013895156793296337
6.0,0.012310583144426346
7.0,0.01125011034309864
8.0,0.010411634109914303
9.0,0.009647756814956665
10.0,0.008982154540717602
11.0,0.00855566468089819
12.0,0.008028101176023483
13.0,0.007493952289223671
14.0,0.007041217293590307
15.0,0.006602647714316845
16.0,0.006380257196724415
18.0,0.005881114862859249
20.0,0.005196528974920511
22.0,0.0049219592474401
24.0,0.004614990670233965
26.0,0.00422021234408021
28.0,0.0038375286385416985
30.0,0.0035738933365792036
32.0,0.0034173137973994017
36.0,0.0027038464322686195
40.0,0.002341243904083967
44.0,0.0022222574334591627
48.0,0.001860364223830402
52.0,0.00145715253893286
56.0,0.001542415702715516
60.0,0.0012345145223662257
64.0,0.0013335749972611666
72.0,0.000686928047798574
80.0,0.00041959359077736735
88.0,0.00043462918256409466
96.0,0.0005503926076926291
104.0,0.0006324665155261755
112.0,0.0006283461698330939
120.0,0.001035191584378481
128.0,0.0011580830905586481
144.0,0.000448867998784408
160.0,0.0005273105343803763
176.0,0.0001830150285968557
192.0,-0.0005381495575420558
208.0,-0.0006199474446475506
224.0,-7.190460746642202e-05
240.0,0.00010728207416832447
256.0,0.0003404669987503439
288.0,0.00033823002013377845
320.0,-0.00024131387181114405
352.0,-0.0003486720670480281
384.0,0.0001527534332126379
416.0,-0.0005378046189434826
448.0,0.00017855664191301912
480.0,0.0012789375614374876
512.0,0.0007788852672092617
576.0,0.000287145929178223
640.0,0.00044001065543852746
704.0,-0.000634555472061038
768.0,-0.0006057139835320413
832.0,-0.0004560139204841107
896.0,-0.0012112637050449848
960.0,-2.8193910111440346e-05
1024.0,-0.00034454651176929474
1152.0,-5.094045263831504e-05
1280.0,-4.368118607089855e-05
1408.0,0.00015655321476515383
1536.0,-0.00015807649469934404
1664.0,0.00036328949499875307
1792.0,0.00020749714167322963
1920.0,2.7284322641207837e-05
2048.0,-0.00046030068187974393
2304.0,-0.000260932429227978
2560.0,-0.00018754634947981685
2816.0,5.0610178732313216e-05
3072.0,2.7675236196955666e-05
3328.0,-0.00011269266542512923
3584.0,4.832119157072157e-05
3840.0,-0.0005397633649408817
4096.0,0.00028815321275033057
4608.0,-8.655111741973087e-05
5120.0,-0.0003738052328117192
5632.0,-0.00015547257498838007
6144.0,0.0002928494941443205
6656.0,0.00017093465430662036
7168.0,-0.0003102112386841327
7680.0,-0.00023957756638992578
8192.0,0.0005681078182533383
9216.0,0.0002745624806266278
10240.0,-0.0001593426859471947
11264.0,-0.00018695578910410404
12288.0,-6.815377855673432e-05
13312.0,6.406771717593074e-05
14336.0,4.278600954421563e-06
end
