version,3.0
numOfCh,1
type,point
parent_name,4-cuts
ch_type,1_1
kcount,1
numberNandB,1
brightnessNandB,1
carpet pos,0
pc,0
Time (ms),CH1 Auto-Correlation
1.0,0.01608053222298622
2.0,0.013165083713829517
3.0,0.011100368574261665
4.0,0.009426264092326164
5.0,0.008175982162356377
6.0,0.0071914903819561005
7.0,0.0063775209710001945
8.0,0.0057469080202281475
9.0,0.005260095000267029
10.0,0.004841311369091272
11.0,0.00466754287481308
12.0,0.004451993852853775
13.0,0.004246351774781942
14.0,0.004049336537718773
15.0,0.0038417638279497623
16.0,0.003627162892371416
18.0,0.0032532624900341034
20.0,0.0029805894009768963
22.0,0.0026835124008357525
24.0,0.002309247385710478
26.0,0.00200832262635231
28.0,0.0018130579264834523
30.0,0.0016793216345831752
32.0,0.001392167410813272
36.0,0.0012328347656875849
40.0,0.0013083403464406729
44.0,0.0014252697583287954
48.0,0.0012050371151417494
52.0,0.001005123951472342
56.0,0.000726868340279907
60.0,0.0005794126773253083
64.0,0.0004452666616998613
72.0,0.0003506209177430719
80.0,0.0005852978792972863
88.0,0.00019473349675536156
96.0,0.000240126988501288
104.0,0.00026138979592360556
112.0,0.00029091123724356294
120.0,0.0002495716616977006
128.0,0.00012238248018547893
144.0,-0.00035512653994373977
160.0,-0.00031846907222643495
176.0,-0.00022813335817772895
192.0,-5.3570474847219884e-05
208.0,-0.00048183900071308017
224.0,-0.00047337490832433105
240.0,-0.0002990337379742414
256.0,-9.939227311406285e-05
288.0,-0.0006842098664492369
320.0,-0.0004725050530396402
352.0,-0.00010663791908882558
384.0,0.0002649002999532968
416.0,6.395548552973196e-05
448.0,0.0003240796213503927
480.0,-9.393156506121159e-05
512.0,-0.0003484213666524738
576.0,-0.00014595568063668907
640.0,-0.0002587932103779167
704.0,-0.0002957928809337318
768.0,0.00015213475853670388
832.0,0.000405442580813542
896.0,0.00046522830962203443
960.0,-0.00021017741528339684
1024.0,-1.5606174201820977e-06
1152.0,-0.00035367239615879953
1280.0,0.00031165857217274606
1408.0,0.00027557494468055665
1536.0,0.00011269954848103225
1664.0,-5.047316335549112e-06
1792.0,-0.00022127016563899815
1920.0,-0.00010784565529320389
2048.0,3.1920881156111136e-05
2304.0,5.173078898224048e-05
2560.0,-8.397625060752034e-05
2816.0,-0.00012683536624535918
3072.0,-0.00026207187329418957
3328.0,-0.00010545260010985658
3584.0,-0.0001563722180435434
3840.0,0.00023903757391963154
4096.0,-0.0001570393651491031
4608.0,-0.00016092359146568924
5120.0,0.00013569100701715797
5632.0,-1.783504558261484e-05
6144.0,5.2111223340034485e-05
6656.0,0.00014084162830840796
7168.0,-0.00021983029728289694
7680.0,0.00021339382510632277
8192.0,-0.00013101955119054765
9216.0,-4.400752004585229e-05
10240.0,-0.00010453956929268315
11264.0,4.6872450184309855e-05
12288.0,6.045466579962522e-05
13312.0,0.00010800662130350247
14336.0,5.0299582653678954e-05
end
