version,3.0
numOfCh,1
type,point
parent_name,4-cuts
ch_type,1_1
kcount,1
numberNandB,1
brightnessNandB,1
carpet pos,0
pc,0
Time (ms),CH1 Auto-Correlation
1.0,0.01587064377963543
2.0,0.012989504262804985
3.0,0.010915608145296574
4.0,0.009474752470850945
5.0,0.008417482487857342
6.0,0.00771363265812397
7.0,0.007088945712894201
8.0,0.006609238218516111
9.0,0.006079194601625204
10.0,0.005582776386290789
11.0,0.0051930807530879974
12.0,0.004862506873905659
13.0,0.004655496682971716
14.0,0.0043750242330133915
15.0,0.004096705466508865
16.0,0.0038219403941184282
18.0,0.003307453589513898
20.0,0.002933550626039505
22.0,0.002676577540114522
24.0,0.0025689757894724607
26.0,0.002330754417926073
28.0,0.0020532880444079638
30.0,0.0018960541347041726
32.0,0.0017012901371344924
36.0,0.0014221844030544162
40.0,0.001716752303764224
44.0,0.0018448950722813606
48.0,0.0019589075818657875
52.0,0.0018963109469041228
56.0,0.0015590980183333158
60.0,0.0012622219510376453
64.0,0.0009689073776826262
72.0,0.0011539817787706852
80.0,0.0013806232018396258
88.0,0.0014977528480812907
96.0,0.0012032382655888796
104.0,0.0010950872674584389
112.0,0.0008268505334854126
120.0,0.0007097219349816442
128.0,0.0006922149332240224
144.0,0.0004551950842142105
160.0,0.0002133636735379696
176.0,8.94825643626973e-05
192.0,0.000151350861415267
208.0,-1.649415207793936e-05
224.0,-0.0003985674411524087
240.0,9.263859101338312e-05
256.0,0.0004143575206398964
288.0,0.00026281221653334796
320.0,5.171229349798523e-05
352.0,6.225049583008513e-05
384.0,-6.4815380028449e-05
416.0,-0.00022497989994008094
448.0,8.931299817049876e-05
480.0,-9.964985656552017e-05
512.0,-0.00040437598363496363
576.0,-0.0004227579047437757
640.0,-0.0002905327419284731
704.0,0.00019893005082849413
768.0,0.0005006818100810051
832.0,0.0003563275677151978
896.0,-0.00019918092584703118
960.0,-0.0001518007629783824
1024.0,-0.00046068246592767537
1152.0,-0.00036484727752394974
1280.0,-0.0006682163802906871
1408.0,-6.70339577482082e-05
1536.0,0.00019077550678048283
1664.0,0.00023622962180525064
1792.0,-0.00016181387763936073
1920.0,0.0002180638548452407
2048.0,0.00024006346939131618
2304.0,-4.6544151700800285e-05
2560.0,-0.0002518251712899655
2816.0,-0.00012122067710151896
3072.0,3.18516104016453e-05
3328.0,-0.0006319236126728356
3584.0,-0.00028398726135492325
3840.0,0.0005372955347411335
4096.0,0.00028272104100324214
4608.0,6.071119787520729e-05
5120.0,-7.738664135104045e-05
5632.0,-0.0003276542411185801
6144.0,-0.00022417759464588016
6656.0,0.0004949894500896335
7168.0,-0.0002477939415257424
7680.0,-0.0005457829684019089
8192.0,0.00034274099743925035
9216.0,0.0003972300037276
10240.0,-0.0002208263031207025
11264.0,-2.8730764825013466e-05
12288.0,-0.00016258153482340276
13312.0,0.00038691359804943204
14336.0,-0.000669491826556623
end
