version,3.0
numOfCh,1
type,point
parent_name,4-cuts
ch_type,1_1
kcount,1
numberNandB,1
brightnessNandB,1
carpet pos,0
pc,0
Time (ms),CH1 Auto-Correlation
1.0,0.01736011914908886
2.0,0.014428661204874516
3.0,0.012365898117423058
4.0,0.01068760734051466
5.0,0.00921874213963747
6.0,0.008125875145196915
7.0,0.0073092421516776085
8.0,0.006770181003957987
9.0,0.006158049218356609
10.0,0.005705918185412884
11.0,0.005261504091322422
12.0,0.004919048398733139
13.0,0.004621013067662716
14.0,0.004257323686033487
15.0,0.003972991835325956
16.0,0.0037954687140882015
18.0,0.003459966741502285
20.0,0.0033207337837666273
22.0,0.0030995376873761415
24.0,0.002695823786780238
26.0,0.0022413788828998804
28.0,0.0020311446860432625
30.0,0.002074629068374634
32.0,0.0021393150091171265
36.0,0.0019430554239079356
40.0,0.0016288154292851686
44.0,0.001592742744833231
48.0,0.001486047520302236
52.0,0.0014361708890646696
56.0,0.0014393215533345938
60.0,0.0011574620148167014
64.0,0.0010868065292015672
72.0,0.0009023149032145739
80.0,0.0008445823332294822
88.0,0.0005339670460671186
96.0,6.216431938810274e-05
104.0,0.0005290347617119551
112.0,0.0009623363730497658
120.0,0.0005431166500784457
128.0,0.000816520769149065
144.0,0.0010135956108570099
160.0,0.0005526106106117368
176.0,0.00023238772701006383
192.0,-7.246632594615221e-05
208.0,-0.00013151731400284916
224.0,0.00016001012409105897
240.0,0.00014904126874171197
256.0,0.0005153713864274323
288.0,8.613035788584966e-06
320.0,-0.00023661383602302521
352.0,-0.00029926904244348407
384.0,-4.7719058784423396e-05
416.0,-0.0002839477965608239
448.0,6.943791231606156e-05
480.0,9.007631888380274e-05
512.0,0.00044928662828169763
576.0,0.0003642732626758516
640.0,0.00036183279007673264
704.0,-5.689970203093253e-05
768.0,-0.0001119539956562221
832.0,-0.00043052530963905156
896.0,-0.00021232957078609616
960.0,-0.00016997696366161108
1024.0,0.00032144051510840654
1152.0,0.0005093460786156356
1280.0,-0.0002567281771916896
1408.0,-0.0004321173473726958
1536.0,-0.00016983470413833857
1664.0,0.00035352472332306206
1792.0,-0.00022847088985145092
1920.0,-0.0006794524379074574
2048.0,-0.0008523860014975071
2304.0,-0.00030828246963210404
2560.0,-0.00022493512369692326
2816.0,-0.00024902549921534956
3072.0,-0.0003210972063243389
3328.0,-0.00017846697301138192
3584.0,-0.0002906738664023578
3840.0,0.000243800415773876
4096.0,-0.00011752144928323105
4608.0,2.515983214834705e-05
5120.0,0.00022031528351362795
5632.0,0.00035933099570684135
6144.0,0.00024690607096999884
6656.0,-1.738050013955217e-05
7168.0,-5.730077828047797e-05
7680.0,-8.583816088503227e-05
8192.0,-0.0004057090845890343
9216.0,-0.00015401076234411448
10240.0,0.0003152152639813721
11264.0,0.00028388845385052264
12288.0,-8.98728976608254e-05
13312.0,-0.00022372632520273328
14336.0,-8.460384560748935e-05
end
