version,3.0
numOfCh,1
type,point
parent_name,fe81d_0dot4-1dot0
ch_type,1_1
kcount,1
numberNandB,1
brightnessNandB,1
carpet pos,0
pc,0
Time (ms),CH1 Auto-Correlation
1.0,0.10601044446229935
2.0,0.10165008157491684
3.0,0.09781324118375778
4.0,0.09426508843898773
5.0,0.09120046347379684
6.0,0.0881812572479248
7.0,0.08525959402322769
8.0,0.08247745037078857
9.0,0.07990209758281708
10.0,0.07754326611757278
11.0,0.0751141682267189
12.0,0.07282576709985733
13.0,0.07070835679769516
14.0,0.06873831897974014
15.0,0.06688320636749268
16.0,0.06512708961963654
18.0,0.06207972764968872
20.0,0.05921470746397972
22.0,0.05678120255470276
24.0,0.05456063896417618
26.0,0.052456289529800415
28.0,0.050440363585948944
30.0,0.04852263256907463
32.0,0.04706082493066788
36.0,0.044125381857156754
40.0,0.04175227880477905
44.0,0.039008546620607376
48.0,0.03590712696313858
52.0,0.03246333450078964
56.0,0.029487287625670433
60.0,0.02675633318722248
64.0,0.024876805022358894
72.0,0.021333178505301476
80.0,0.01802689954638481
88.0,0.016276890411973
96.0,0.015569604001939297
104.0,0.015491107478737831
112.0,0.015566246584057808
120.0,0.015619125217199326
128.0,0.015047780238091946
144.0,0.015197750180959702
160.0,0.015044532716274261
176.0,0.01284786593168974
192.0,0.009240985848009586
208.0,0.0076582832261919975
224.0,0.007246749009937048
240.0,0.008121298626065254
256.0,0.008849404752254486
288.0,0.0069405799731612206
320.0,0.004720545373857021
352.0,0.0008093280484899879
384.0,-0.004774437285959721
416.0,-0.0092038344591856
448.0,-0.007018134463578463
480.0,-0.004466009791940451
512.0,-0.00532376067712903
576.0,-0.0034749775659292936
640.0,-0.0011749069672077894
704.0,0.004848163109272718
768.0,0.002902658423408866
832.0,0.004809427075088024
896.0,0.004346855450421572
960.0,0.0003826567844953388
1024.0,-0.0002105965540977195
1152.0,-0.008219105191528797
1280.0,-0.00794909056276083
1408.0,-0.008656946942210197
1536.0,0.0023755731526762247
1664.0,0.0065034436993300915
1792.0,0.0037450045347213745
1920.0,0.000723407429177314
2048.0,0.000305518857203424
2304.0,0.001488257315941155
2560.0,0.005075981840491295
2816.0,-0.00512061920017004
3072.0,-0.007124192081391811
3328.0,0.006196410860866308
3584.0,0.001746632275171578
3840.0,-0.006619727239012718
4096.0,0.006584024988114834
4608.0,0.0008332201396115124
5120.0,-0.010464814491569996
5632.0,-0.00597381591796875
6144.0,0.0016393659170717
6656.0,0.005842343904078007
7168.0,-0.0023998445831239223
7680.0,0.009153828024864197
8192.0,0.0052536181174218655
end
