version,3.0
numOfCh,1
type,point
parent_name,fe81d_0dot4-1dot0
ch_type,1_1
kcount,1
numberNandB,1
brightnessNandB,1
carpet pos,0
pc,0
Time (ms),CH1 Auto-Correlation
1.0,0.11164234578609467
2.0,0.10790074616670609
3.0,0.10452981293201447
4.0,0.10132735222578049
5.0,0.09826334565877914
6.0,0.09539507329463959
7.0,0.09274986386299133
8.0,0.09029073268175125
9.0,0.08793385326862335
10.0,0.0857897624373436
11.0,0.08380083739757538
12.0,0.08197377622127533
13.0,0.08033610135316849
14.0,0.07867199182510376
15.0,0.07715341448783875
16.0,0.07563979923725128
18.0,0.07297159731388092
20.0,0.07062801718711853
22.0,0.06838212162256241
24.0,0.06603003293275833
26.0,0.0639335960149765
28.0,0.06176389381289482
30.0,0.05953685939311981
32.0,0.05735202506184578
36.0,0.05389120802283287
40.0,0.05070653557777405
44.0,0.047445036470890045
48.0,0.04497433826327324
52.0,0.04303755238652229
56.0,0.04108695313334465
60.0,0.03914594277739525
64.0,0.03740331903100014
72.0,0.034045636653900146
80.0,0.030587609857320786
88.0,0.028387069702148438
96.0,0.026282232254743576
104.0,0.024809980764985085
112.0,0.02336420863866806
120.0,0.022680141031742096
128.0,0.02188207395374775
144.0,0.020205698907375336
160.0,0.019679928198456764
176.0,0.017979063093662262
192.0,0.01603088714182377
208.0,0.01418246142566204
224.0,0.010438531637191772
240.0,0.006119260564446449
256.0,0.0028709869366139174
288.0,0.0012833066284656525
320.0,0.0018134558340534568
352.0,0.0004086469707544893
384.0,-0.0015170546248555183
416.0,0.0002487704623490572
448.0,0.001664476003497839
480.0,0.001655674772337079
512.0,-0.00017330136324744672
576.0,-0.002623381558805704
640.0,-0.0021799772512167692
704.0,-0.004955986514687538
768.0,-0.0030258693732321262
832.0,0.005495487246662378
896.0,0.004098010715097189
960.0,0.007033021654933691
1024.0,0.0037942284252494574
1152.0,-0.00016876561858225614
1280.0,-0.005099073518067598
1408.0,-0.012020527385175228
1536.0,-0.011812740005552769
1664.0,-0.002263106172904372
1792.0,0.004383480176329613
1920.0,0.01365399919450283
2048.0,0.014620976522564888
2304.0,0.003569024382159114
2560.0,0.0005446842988021672
2816.0,0.004569489508867264
3072.0,-0.0005785560351796448
3328.0,-0.003818585304543376
3584.0,-0.0038628997281193733
3840.0,0.0028322848957031965
4096.0,0.007873806171119213
4608.0,0.0064314668998122215
5120.0,-0.003494332078844309
5632.0,-0.005091103725135326
6144.0,-0.004793140571564436
6656.0,-0.002312414813786745
7168.0,-0.0010771483648568392
7680.0,0.006100927013903856
8192.0,-0.0018608453683555126
end
