version,3.0
numOfCh,1
type,point
parent_name,fe81d_0dot4-1dot0
ch_type,1_1
kcount,1
numberNandB,1
brightnessNandB,1
carpet pos,0
pc,0
Time (ms),CH1 Auto-Correlation
1.0,0.10849758237600327
2.0,0.1043359786272049
3.0,0.10070227831602097
4.0,0.09742693603038788
5.0,0.09455481916666031
6.0,0.09183657169342041
7.0,0.08922959119081497
8.0,0.08668407052755356
9.0,0.08437047153711319
10.0,0.08196070790290833
11.0,0.0797860249876976
12.0,0.0777435451745987
13.0,0.07581517845392227
14.0,0.07394851744174957
15.0,0.07213728874921799
16.0,0.07039287686347961
18.0,0.06733281165361404
20.0,0.06459752470254898
22.0,0.06204383820295334
24.0,0.059905972331762314
26.0,0.05818336457014084
28.0,0.0562175028026104
30.0,0.05430294945836067
32.0,0.052450403571128845
36.0,0.04926997795701027
40.0,0.04639997333288193
44.0,0.04359513893723488
48.0,0.04159430414438248
52.0,0.04021283984184265
56.0,0.039125602692365646
60.0,0.03846629336476326
64.0,0.03795048967003822
72.0,0.03704877197742462
80.0,0.03575894236564636
88.0,0.033350709825754166
96.0,0.03103146143257618
104.0,0.028361616656184196
112.0,0.02621285244822502
120.0,0.02511989139020443
128.0,0.0247776098549366
144.0,0.02416306547820568
160.0,0.022214848548173904
176.0,0.020077837631106377
192.0,0.01784363202750683
208.0,0.01822221465408802
224.0,0.019444577395915985
240.0,0.020646827295422554
256.0,0.01777609810233116
288.0,0.016142696142196655
320.0,0.016148535534739494
352.0,0.016861364245414734
384.0,0.015177848748862743
416.0,0.012840843759477139
448.0,0.008861273527145386
480.0,0.0061240061186254025
512.0,0.0013175681233406067
576.0,0.0011164506431668997
640.0,0.004591705277562141
704.0,0.004780895542353392
768.0,0.005612899549305439
832.0,0.0017437945352867246
896.0,-0.006112371105700731
960.0,-0.004098956473171711
1024.0,-0.009092334657907486
1152.0,-0.008266477845609188
1280.0,-0.007279619108885527
1408.0,-0.004952453542500734
1536.0,-0.006547277327626944
1664.0,-0.010555914603173733
1792.0,-0.012062020599842072
1920.0,-0.012242346070706844
2048.0,-0.006426556967198849
2304.0,-0.009593323804438114
2560.0,-0.0018872383516281843
2816.0,-0.0029888481367379427
3072.0,-0.004258566070348024
3328.0,0.004716096445918083
3584.0,0.007258794270455837
3840.0,0.007005377672612667
4096.0,0.008976021781563759
4608.0,0.0014223450561985373
5120.0,-0.0031894324347376823
5632.0,0.004767073784023523
6144.0,0.003961990587413311
6656.0,-0.010806150734424591
7168.0,-0.011373582296073437
7680.0,-0.006311447825282812
8192.0,-0.0013565493281930685
end
