version,3.0
numOfCh,1
type,point
parent_name,fe81d_0dot4-1dot0
ch_type,1_1
kcount,1
numberNandB,1
brightnessNandB,1
carpet pos,0
pc,0
Time (ms),CH1 Auto-Correlation
1.0,0.10199838876724243
2.0,0.09820016473531723
3.0,0.09470342099666595
4.0,0.09144820272922516
5.0,0.08847330510616302
6.0,0.08569592237472534
7.0,0.08317834138870239
8.0,0.08073984086513519
9.0,0.07853030413389206
10.0,0.07645032554864883
11.0,0.07447966188192368
12.0,0.07256877422332764
13.0,0.07083212584257126
14.0,0.06915760040283203
15.0,0.06761565059423447
16.0,0.06594245135784149
18.0,0.06269445270299911
20.0,0.05980599299073219
22.0,0.05726946145296097
24.0,0.05488576367497444
26.0,0.052731625735759735
28.0,0.05090360715985298
30.0,0.049173351377248764
32.0,0.04744018241763115
36.0,0.04426156356930733
40.0,0.04096345603466034
44.0,0.03839429095387459
48.0,0.03649448603391647
52.0,0.03460756689310074
56.0,0.03232245892286301
60.0,0.030061136931180954
64.0,0.028039835393428802
72.0,0.02534732222557068
80.0,0.02271386608481407
88.0,0.02045547217130661
96.0,0.01775461807847023
104.0,0.014981593005359173
112.0,0.013213581405580044
120.0,0.012715812772512436
128.0,0.011000089347362518
144.0,0.006047060247510672
160.0,0.002067588036879897
176.0,0.0005066052544862032
192.0,-0.002505991142243147
208.0,-0.0015450220089405775
224.0,8.721901394892484e-05
240.0,0.0014319958863779902
256.0,0.002995588816702366
288.0,0.0029755281284451485
320.0,0.003799940925091505
352.0,0.0034977083560079336
384.0,0.004281861707568169
416.0,0.0021382090635597706
448.0,0.0009923316538333893
480.0,0.0024513150565326214
512.0,0.0030231729615479708
576.0,0.004068312235176563
640.0,-0.000823262264020741
704.0,-0.004431968089193106
768.0,-0.0045762695372104645
832.0,-0.0044451686553657055
896.0,-0.00297681987285614
960.0,-0.003897834336385131
1024.0,-0.004321393556892872
1152.0,0.0031401452142745256
1280.0,0.008633195422589779
1408.0,0.009958159178495407
1536.0,0.0004278117557987571
1664.0,-0.005277808755636215
1792.0,0.0056715770624578
1920.0,-0.001844537677243352
2048.0,-0.006736384704709053
2304.0,-0.001236943993717432
2560.0,-0.004795609042048454
2816.0,-0.0029111988842487335
3072.0,-0.002478507813066244
3328.0,-0.0028893505223095417
3584.0,-0.0013567358255386353
3840.0,-0.00511510344222188
4096.0,-0.005384712014347315
4608.0,-0.003261951496824622
5120.0,-0.004528258461505175
5632.0,-0.00315814814530313
6144.0,0.0008881413377821445
6656.0,-0.00014976169040892273
7168.0,0.0017681727185845375
7680.0,0.0057698930613696575
8192.0,0.006025324575603008
end
