version,3.0
numOfCh,1
type,point
parent_name,fe81d_0dot4-1dot0
ch_type,1_1
kcount,1
numberNandB,1
brightnessNandB,1
carpet pos,0
pc,0
Time (ms),CH1 Auto-Correlation
1.0,0.10437430441379547
2.0,0.09946033358573914
3.0,0.09490785002708435
4.0,0.09080693870782852
5.0,0.08730393648147583
6.0,0.08427106589078903
7.0,0.08141716569662094
8.0,0.07868695259094238
9.0,0.07624094188213348
10.0,0.07399288564920425
11.0,0.07181254774332047
12.0,0.06972427666187286
13.0,0.06790920346975327
14.0,0.06600356847047806
15.0,0.06416946649551392
16.0,0.06241200491786003
18.0,0.05908219888806343
20.0,0.056015245616436005
22.0,0.0531654916703701
24.0,0.05064526945352554
26.0,0.048234883695840836
28.0,0.04595516622066498
30.0,0.04369138926267624
32.0,0.041292473673820496
36.0,0.03761838749051094
40.0,0.034710872918367386
44.0,0.03162532299757004
48.0,0.028965014964342117
52.0,0.027021722868084908
56.0,0.02492447756230831
60.0,0.02313428744673729
64.0,0.021417712792754173
72.0,0.01870308443903923
80.0,0.015902049839496613
88.0,0.01458088681101799
96.0,0.01471787504851818
104.0,0.01545284315943718
112.0,0.013808014802634716
120.0,0.011797810904681683
128.0,0.01064817700535059
144.0,0.010609782300889492
160.0,0.008967178873717785
176.0,0.008817106485366821
192.0,0.009639843367040157
208.0,0.009420142509043217
224.0,0.008351655676960945
240.0,0.007552595343440771
256.0,0.005238642916083336
288.0,0.0038457599002867937
320.0,0.00604808796197176
352.0,0.0037398121785372496
384.0,-0.0011779682245105505
416.0,-0.004704978317022324
448.0,-0.0070457058027386665
480.0,-0.005962573457509279
512.0,-0.00489721167832613
576.0,-0.002302094828337431
640.0,-0.0012275916524231434
704.0,-0.0037136184982955456
768.0,-0.0013456327142193913
832.0,-0.005104787647724152
896.0,0.0004939438076689839
960.0,0.002761328127235174
1024.0,0.002139480784535408
1152.0,0.0006804493023082614
1280.0,-0.0059217126108706
1408.0,-0.010324019007384777
1536.0,-0.00727683212608099
1664.0,-0.006840505171567202
1792.0,-0.0021485553588718176
1920.0,0.001092405873350799
2048.0,0.0023991523776203394
2304.0,-0.0008072719792835414
2560.0,0.00044823167263530195
2816.0,0.006007530726492405
3072.0,-0.0009194141020998359
3328.0,-0.0026614852249622345
3584.0,-0.0021977797150611877
3840.0,-0.0013427394442260265
4096.0,-0.004461674019694328
4608.0,0.003302345983684063
5120.0,-0.004062197171151638
5632.0,-0.0017285568173974752
6144.0,-0.002735160756856203
6656.0,-0.007180508226156235
7168.0,0.004854734521359205
7680.0,0.002220672555267811
8192.0,0.007407762575894594
end
