version,3.0
numOfCh,1
type,point
parent_name,fe81d_0dot4-1dot0
ch_type,1_1
kcount,1
numberNandB,1
brightnessNandB,1
carpet pos,0
pc,0
Time (ms),CH1 Auto-Correlation
1.0,0.12832537293434143
2.0,0.1236049085855484
3.0,0.11931144446134567
4.0,0.11561215668916702
5.0,0.11231006681919098
6.0,0.10924284160137177
7.0,0.106369249522686
8.0,0.10386591404676437
9.0,0.10146916657686234
10.0,0.09931670129299164
11.0,0.0973346158862114
12.0,0.09548187255859375
13.0,0.0936235785484314
14.0,0.09190475195646286
15.0,0.09027720987796783
16.0,0.08864645659923553
18.0,0.08530787378549576
20.0,0.0820704773068428
22.0,0.07899688929319382
24.0,0.0760970339179039
26.0,0.07376891374588013
28.0,0.07170399278402328
30.0,0.06956885755062103
32.0,0.06740642338991165
36.0,0.06370693445205688
40.0,0.060150761157274246
44.0,0.05729479342699051
48.0,0.05549837648868561
52.0,0.05371156334877014
56.0,0.051853813230991364
60.0,0.05024104192852974
64.0,0.04906703904271126
72.0,0.046209074556827545
80.0,0.04342731833457947
88.0,0.03974376991391182
96.0,0.03630376234650612
104.0,0.034054674208164215
112.0,0.0320461243391037
120.0,0.03219659999012947
128.0,0.031276822090148926
144.0,0.03065180405974388
160.0,0.027558954432606697
176.0,0.024969516322016716
192.0,0.021213119849562645
208.0,0.018736666068434715
224.0,0.01682860404253006
240.0,0.01281678769737482
256.0,0.009648858569562435
288.0,0.008853264153003693
320.0,0.0068777273409068584
352.0,0.004532146733254194
384.0,0.006410345435142517
416.0,0.0037993527948856354
448.0,0.006312918849289417
480.0,0.008911947719752789
512.0,0.008413335308432579
576.0,0.00827784463763237
640.0,0.009418915957212448
704.0,0.003636880312114954
768.0,0.0035688518546521664
832.0,0.006188004277646542
896.0,0.005083959549665451
960.0,0.0017897888319566846
1024.0,-0.0011653139954432845
1152.0,-0.005616394802927971
1280.0,-0.010718710720539093
1408.0,-0.007142083253711462
1536.0,-0.012590907514095306
1664.0,-0.012776386924088001
1792.0,-0.015345283783972263
1920.0,-0.010773404501378536
2048.0,-0.012094870209693909
2304.0,-0.014040966518223286
2560.0,-0.005291609559208155
2816.0,-0.00016265118028968573
3072.0,0.006527631543576717
3328.0,0.008958970196545124
3584.0,0.01475103572010994
3840.0,-0.0012281957315281034
4096.0,0.0004053535230923444
4608.0,-0.0004959044163115323
5120.0,-0.009037425741553307
5632.0,-0.005015442613512278
6144.0,0.007757765240967274
6656.0,0.008853161707520485
7168.0,0.0018480169819667935
7680.0,-0.011636333540081978
8192.0,-0.008339031599462032
end
