version,3.0
numOfCh,1
type,point
parent_name,fe81d_0dot4-1dot0
ch_type,1_1
kcount,1
numberNandB,1
brightnessNandB,1
carpet pos,0
pc,0
Time (ms),CH1 Auto-Correlation
1.0,0.10937919467687607
2.0,0.10518188029527664
3.0,0.10133025795221329
4.0,0.09815603494644165
5.0,0.09508448839187622
6.0,0.09211097657680511
7.0,0.08937813341617584
8.0,0.0867733433842659
9.0,0.08408217132091522
10.0,0.08171586692333221
11.0,0.0793277695775032
12.0,0.07703235745429993
13.0,0.07486284524202347
14.0,0.07295877486467361
15.0,0.07113705575466156
16.0,0.06942012906074524
18.0,0.06624531000852585
20.0,0.06356320530176163
22.0,0.06112892925739288
24.0,0.05860835313796997
26.0,0.05608915910124779
28.0,0.05407299846410751
30.0,0.051798488944768906
32.0,0.0496051162481308
36.0,0.04605577886104584
40.0,0.04298023134469986
44.0,0.03992675617337227
48.0,0.037200942635536194
52.0,0.034646738320589066
56.0,0.03181872144341469
60.0,0.028997400775551796
64.0,0.027166901156306267
72.0,0.02478937990963459
80.0,0.0224593635648489
88.0,0.02004358358681202
96.0,0.01839056797325611
104.0,0.017043180763721466
112.0,0.01654527522623539
120.0,0.01672685705125332
128.0,0.017031125724315643
144.0,0.013807742856442928
160.0,0.009929216466844082
176.0,0.009260344319045544
192.0,0.009911268949508667
208.0,0.01023002527654171
224.0,0.007675836328417063
240.0,0.00727222952991724
256.0,0.008543901145458221
288.0,0.011108560487627983
320.0,0.007679317612200975
352.0,0.005557412747293711
384.0,0.0033456641249358654
416.0,0.001300995470955968
448.0,0.0008266991353593767
480.0,0.000886094116140157
512.0,-0.0019734769593924284
576.0,-0.0021514883264899254
640.0,-0.0028275141958147287
704.0,-0.0013425059150904417
768.0,-0.001106624724343419
832.0,0.0023915262427181005
896.0,-0.0042611644603312016
960.0,-0.0006779309478588402
1024.0,0.0008408171706832945
1152.0,-0.002505573909729719
1280.0,0.0004507380654104054
1408.0,-0.0012474852846935391
1536.0,-0.007046694401651621
1664.0,-0.00257967971265316
1792.0,-0.0014861440286040306
1920.0,-0.009784894995391369
2048.0,-0.005245631095021963
2304.0,-0.0006821592105552554
2560.0,-0.003394082188606262
2816.0,-0.00342176272533834
3072.0,-0.0006404684390872717
3328.0,-0.004229983780533075
3584.0,0.0002225890930276364
3840.0,-0.00254277465865016
4096.0,0.004113033879548311
4608.0,0.003030785359442234
5120.0,0.00015940633602440357
5632.0,-0.0015204675728455186
6144.0,-0.010358693078160286
6656.0,-0.004956014920026064
7168.0,-0.0032472291495651007
7680.0,-0.0022924342192709446
8192.0,0.0034581595100462437
end
