version,3.0
numOfCh,1
type,point
parent_name,fe81d_0dot4-1dot0
ch_type,1_1
kcount,1
numberNandB,1
brightnessNandB,1
carpet pos,0
pc,0
Time (ms),CH1 Auto-Correlation
1.0,0.1131725087761879
2.0,0.10896198451519012
3.0,0.10528282821178436
4.0,0.1020369827747345
5.0,0.09896394610404968
6.0,0.09607034176588058
7.0,0.09343339502811432
8.0,0.09097353368997574
9.0,0.08853687345981598
10.0,0.08615705370903015
11.0,0.08397695422172546
12.0,0.08199693262577057
13.0,0.08021203428506851
14.0,0.07827822864055634
15.0,0.07656069844961166
16.0,0.07492902874946594
18.0,0.07166368514299393
20.0,0.06867478787899017
22.0,0.0657748356461525
24.0,0.0633373036980629
26.0,0.061190005391836166
28.0,0.059199653565883636
30.0,0.05744948983192444
32.0,0.05563349276781082
36.0,0.052260417491197586
40.0,0.04954815283417702
44.0,0.04716211557388306
48.0,0.044381219893693924
52.0,0.04196044057607651
56.0,0.03949586674571037
60.0,0.037513554096221924
64.0,0.036281850188970566
72.0,0.03368081897497177
80.0,0.03075304627418518
88.0,0.028191985562443733
96.0,0.025827303528785706
104.0,0.02410491555929184
112.0,0.021671831607818604
120.0,0.020801356062293053
128.0,0.020294083282351494
144.0,0.015703199431300163
160.0,0.01330250222235918
176.0,0.011489886790513992
192.0,0.007551117334514856
208.0,0.0049772621132433414
224.0,0.0024480142164975405
240.0,0.0038043493404984474
256.0,0.00609235092997551
288.0,0.00790043268352747
320.0,0.008683893829584122
352.0,0.007572755683213472
384.0,0.0066744135692715645
416.0,0.010223531164228916
448.0,0.009007075801491737
480.0,0.005523728206753731
512.0,0.0019509239355102181
576.0,-0.000837771687656641
640.0,-0.00411120755597949
704.0,-0.007722289301455021
768.0,-0.002986167324706912
832.0,0.004550613462924957
896.0,0.00802669022232294
960.0,0.00650058826431632
1024.0,0.0005183485918678343
1152.0,-0.006041858345270157
1280.0,-0.0028585977852344513
1408.0,-0.005253041163086891
1536.0,-0.0016686796443536878
1664.0,-0.0005136436666361988
1792.0,0.004811236634850502
1920.0,0.001980389002710581
2048.0,-0.008799158036708832
2304.0,-0.0017419952200725675
2560.0,0.006094417069107294
2816.0,0.005810614675283432
3072.0,-0.0008530777413398027
3328.0,-0.008462254889309406
3584.0,-0.0005873008049093187
3840.0,-0.0034677640069276094
4096.0,-0.004155995789915323
4608.0,0.006843468639999628
5120.0,-0.004930283408612013
5632.0,-0.0016822227044031024
6144.0,-0.010883473791182041
6656.0,-0.0097336545586586
7168.0,-0.0008520439732819796
7680.0,-0.004290794022381306
8192.0,0.003137950785458088
end
