version,3.0
numOfCh,1
type,point
parent_name,fe81d_0dot4-1dot0
ch_type,1_1
kcount,1
numberNandB,1
brightnessNandB,1
carpet pos,0
pc,0
Time (ms),CH1 Auto-Correlation
1.0,0.10411274433135986
2.0,0.09967871755361557
3.0,0.09579344093799591
4.0,0.0922304019331932
5.0,0.08899279683828354
6.0,0.08619166910648346
7.0,0.0833839476108551
8.0,0.08074454218149185
9.0,0.07824937999248505
10.0,0.07590875774621964
11.0,0.0737852230668068
12.0,0.07184083014726639
13.0,0.06988546252250671
14.0,0.06796801835298538
15.0,0.0659930408000946
16.0,0.06416787952184677
18.0,0.06092095375061035
20.0,0.057900648564100266
22.0,0.055158331990242004
24.0,0.052542343735694885
26.0,0.05003132298588753
28.0,0.04791516065597534
30.0,0.04585394263267517
32.0,0.04394925758242607
36.0,0.0405442975461483
40.0,0.03749255836009979
44.0,0.034852102398872375
48.0,0.0331013984978199
52.0,0.031583271920681
56.0,0.02948485128581524
60.0,0.02780144102871418
64.0,0.02647428587079048
72.0,0.024249205365777016
80.0,0.021886412054300308
88.0,0.02006942220032215
96.0,0.01859205961227417
104.0,0.017125513404607773
112.0,0.016579080373048782
120.0,0.01711357943713665
128.0,0.017164623364806175
144.0,0.018917251378297806
160.0,0.019400127232074738
176.0,0.01821173168718815
192.0,0.01427457109093666
208.0,0.010729140602052212
224.0,0.0077791521325707436
240.0,0.006058794911950827
256.0,0.004468562547117472
288.0,0.004140573088079691
320.0,0.006110394839197397
352.0,0.006592371966689825
384.0,0.0034660305827856064
416.0,-0.0005194744444452226
448.0,-0.0004386087821330875
480.0,0.001218777266331017
512.0,0.0007235897937789559
576.0,0.0045412336476147175
640.0,0.00538803543895483
704.0,-0.0005253531271591783
768.0,-0.0017635355470702052
832.0,-0.000477077643154189
896.0,0.0008750940905883908
960.0,0.0005330687272362411
1024.0,-0.0007521144580096006
1152.0,-0.0035959493834525347
1280.0,-0.0022411178797483444
1408.0,-0.007864512503147125
1536.0,-0.00595892546698451
1664.0,-0.004769384395331144
1792.0,-0.00017365027451887727
1920.0,0.0013451188569888473
2048.0,0.0051205833442509174
2304.0,-0.005478628911077976
2560.0,-0.006748693063855171
2816.0,-0.0050098770298063755
3072.0,-0.004339542705565691
3328.0,-0.003335012821480632
3584.0,0.0024288746062666178
3840.0,-0.002590307965874672
4096.0,0.0006746913422830403
4608.0,0.0012766747968271375
5120.0,-0.007459602318704128
5632.0,-0.0007086523110046983
6144.0,0.003207356436178088
6656.0,0.006977991666644812
7168.0,0.0068551357835531235
7680.0,-0.0007374455453827977
8192.0,0.008010424673557281
end
