version,3.0
numOfCh,1
type,point
parent_name,fe81d_0dot4-1dot0
ch_type,1_1
kcount,1
numberNandB,1
brightnessNandB,1
carpet pos,0
pc,0
Time (ms),CH1 Auto-Correlation
1.0,0.09426586329936981
2.0,0.09034992754459381
3.0,0.08665145933628082
4.0,0.08339740335941315
5.0,0.08024399727582932
6.0,0.07742965966463089
7.0,0.07490568608045578
8.0,0.07249473035335541
9.0,0.07007700949907303
10.0,0.0679861307144165
11.0,0.06605114042758942
12.0,0.06413576751947403
13.0,0.06229177117347717
14.0,0.0604635588824749
15.0,0.05866328626871109
16.0,0.056890904903411865
18.0,0.053757671266794205
20.0,0.05078578740358353
22.0,0.04842261224985123
24.0,0.04602460563182831
26.0,0.04375247657299042
28.0,0.04146312549710274
30.0,0.03947882354259491
32.0,0.03735174611210823
36.0,0.033501751720905304
40.0,0.030972128733992577
44.0,0.02899334207177162
48.0,0.02703707478940487
52.0,0.025219768285751343
56.0,0.02378883771598339
60.0,0.022718027234077454
64.0,0.021726682782173157
72.0,0.01973889023065567
80.0,0.017718160524964333
88.0,0.015380091033875942
96.0,0.013973377645015717
104.0,0.013422234915196896
112.0,0.013210992328822613
120.0,0.012585463002324104
128.0,0.011627049185335636
144.0,0.010768433101475239
160.0,0.009107591584324837
176.0,0.00902014970779419
192.0,0.01067806314677
208.0,0.011409838683903217
224.0,0.012125436216592789
240.0,0.013671410270035267
256.0,0.013180878944694996
288.0,0.007001878228038549
320.0,0.005372014362365007
352.0,0.003032110631465912
384.0,0.003821474267169833
416.0,0.0027906126342713833
448.0,0.003011958207935095
480.0,0.0038165845908224583
512.0,0.0008439061930403113
576.0,-0.00446435296908021
640.0,-0.008564635179936886
704.0,-0.00534483976662159
768.0,-0.00016804473125375807
832.0,-0.00018946091586258262
896.0,-0.0007957544294185936
960.0,-0.0014386329567059875
1024.0,0.0028437639120966196
1152.0,0.007298857904970646
1280.0,0.0016100603388622403
1408.0,0.0020032087340950966
1536.0,0.0035121310502290726
1664.0,0.0019919166807085276
1792.0,0.001328790676780045
1920.0,-0.006038472056388855
2048.0,-0.007471270859241486
2304.0,-0.01104958076030016
2560.0,-0.0064727626740932465
2816.0,-0.0016690939664840698
3072.0,-0.003233459545299411
3328.0,-0.006417371332645416
3584.0,-0.01060220692306757
3840.0,-0.0034063789062201977
4096.0,0.002125062979757786
4608.0,0.006535826250910759
5120.0,0.0028584536630660295
5632.0,-0.0013325599720701575
6144.0,0.004986091051250696
6656.0,0.0010787341743707657
7168.0,-0.0021688828710466623
7680.0,0.0023925830610096455
8192.0,-0.008203721605241299
end
