version,3.0
numOfCh,1
type,point
parent_name,fe81d_0dot4-1dot0
ch_type,1_1
kcount,1
numberNandB,1
brightnessNandB,1
carpet pos,0
pc,0
Time (ms),CH1 Auto-Correlation
1.0,0.09489074349403381
2.0,0.09119290113449097
3.0,0.08783663064241409
4.0,0.08458421379327774
5.0,0.08147243410348892
6.0,0.07866477966308594
7.0,0.07608558237552643
8.0,0.07370004057884216
9.0,0.07149402052164078
10.0,0.06945664435625076
11.0,0.06761990487575531
12.0,0.06587168574333191
13.0,0.06421052664518356
14.0,0.06266839802265167
15.0,0.06123553216457367
16.0,0.05990419164299965
18.0,0.05720863863825798
20.0,0.05447943136096001
22.0,0.051774706691503525
24.0,0.049171749502420425
26.0,0.04685652628540993
28.0,0.04479227215051651
30.0,0.04287457466125488
32.0,0.04084937646985054
36.0,0.037701211869716644
40.0,0.035044629126787186
44.0,0.032385747879743576
48.0,0.03018779680132866
52.0,0.028791269287467003
56.0,0.027648111805319786
60.0,0.026471735909581184
64.0,0.024617373943328857
72.0,0.021638059988617897
80.0,0.019813397899270058
88.0,0.018707171082496643
96.0,0.017362017184495926
104.0,0.01567929796874523
112.0,0.013875643722712994
120.0,0.012693678960204124
128.0,0.011386776342988014
144.0,0.0070239463821053505
160.0,0.005660459864884615
176.0,0.007136637344956398
192.0,0.008096995763480663
208.0,0.0054748388938605785
224.0,0.004535228945314884
240.0,0.004301545675843954
256.0,0.004216141067445278
288.0,0.004418972879648209
320.0,0.0033999073784798384
352.0,-0.0003281474346294999
384.0,0.0010709974449127913
416.0,0.004623311571776867
448.0,0.003921824507415295
480.0,0.0035245113540440798
512.0,0.005742433946579695
576.0,0.004790609702467918
640.0,0.005416659638285637
704.0,0.0023646000772714615
768.0,0.0046803876757621765
832.0,0.005064147058874369
896.0,0.001676736050285399
960.0,0.0008370191790163517
1024.0,-0.0011247583897784352
1152.0,-0.004075013101100922
1280.0,-0.007795195560902357
1408.0,-0.00486065074801445
1536.0,0.00013437819143291563
1664.0,0.0015467519406229258
1792.0,0.003958229441195726
1920.0,0.0040015182457864285
2048.0,0.006751412991434336
2304.0,0.008650880306959152
2560.0,0.0036976130213588476
2816.0,-0.0025734056252986193
3072.0,-0.0015400692354887724
3328.0,-0.00802783202379942
3584.0,-0.004676884040236473
3840.0,-0.001577223651111126
4096.0,0.001372503349557519
4608.0,0.0035540300887078047
5120.0,-0.0045874700881540775
5632.0,-0.0071299211122095585
6144.0,-0.003389656776562333
6656.0,0.007085546385496855
7168.0,0.008889850229024887
7680.0,-0.005624167621135712
8192.0,-0.0039084176532924175
end
