version,3.0
numOfCh,1
type,point
parent_name,fe81d_0dot4-1dot0
ch_type,1_1
kcount,1
numberNandB,1
brightnessNandB,1
carpet pos,0
pc,0
Time (ms),CH1 Auto-Correlation
1.0,0.09641086310148239
2.0,0.09240886569023132
3.0,0.08875909447669983
4.0,0.08547171205282211
5.0,0.08239290863275528
6.0,0.07952509820461273
7.0,0.0768447294831276
8.0,0.07435712218284607
9.0,0.07197271287441254
10.0,0.06972561776638031
11.0,0.06753715872764587
12.0,0.06551019847393036
13.0,0.06342805176973343
14.0,0.06158449873328209
15.0,0.059798724949359894
16.0,0.058098115026950836
18.0,0.05462978407740593
20.0,0.051481302827596664
22.0,0.04865109175443649
24.0,0.046377748250961304
26.0,0.04430043324828148
28.0,0.042382434010505676
30.0,0.04082658514380455
32.0,0.03946133330464363
36.0,0.036969177424907684
40.0,0.034544937312603
44.0,0.03248187154531479
48.0,0.03009609878063202
52.0,0.0274515338242054
56.0,0.025034211575984955
60.0,0.022982683032751083
64.0,0.02088172547519207
72.0,0.017621001228690147
80.0,0.015618438832461834
88.0,0.01346688624471426
96.0,0.010965150780975819
104.0,0.009008729830384254
112.0,0.008195484057068825
120.0,0.007529229391366243
128.0,0.006461705081164837
144.0,0.005514814052730799
160.0,0.004166226834058762
176.0,0.0018787888111546636
192.0,0.002899998566135764
208.0,0.00322259240783751
224.0,0.0037622174713760614
240.0,0.003834410337731242
256.0,0.0027130681555718184
288.0,-0.0012988036032766104
320.0,-0.00345098739489913
352.0,-0.0036817044019699097
384.0,-0.0016322446754202247
416.0,-0.0038968324661254883
448.0,-0.0036740945652127266
480.0,-0.0008881494286470115
512.0,0.0040382747538387775
576.0,0.002453792840242386
640.0,-0.0008579767891205847
704.0,-0.0023226053453981876
768.0,0.0015888165216892958
832.0,0.006751549895852804
896.0,0.009771069511771202
960.0,0.007422590162605047
1024.0,0.002500742906704545
1152.0,0.000268047209829092
1280.0,-0.00021687378466594964
1408.0,0.003310467815026641
1536.0,0.0005954821826890111
1664.0,-0.0012719909427687526
1792.0,0.0033403930719941854
1920.0,-0.0017465304117649794
2048.0,0.003196885110810399
2304.0,0.004751420114189386
2560.0,-0.0013647432206198573
2816.0,-0.007828688248991966
3072.0,0.004960391670465469
3328.0,-0.0009637682815082371
3584.0,-0.008714712224900723
3840.0,-0.007099694572389126
4096.0,0.0005935669760219753
4608.0,0.0007853215211071074
5120.0,-0.0037963055074214935
5632.0,-0.0035037340130656958
6144.0,6.749625754309818e-05
6656.0,0.0016419946914538741
7168.0,-0.0012836959213018417
7680.0,0.00017653971735853702
8192.0,-0.0036335892509669065
end
