version,3.0
numOfCh,1
type,point
parent_name,34a6d_10dot0-0dot1
ch_type,1_1
kcount,1
numberNandB,1
brightnessNandB,1
carpet pos,0
pc,0
Time (ms),CH1 Auto-Correlation
1.0,0.0337112620472908
2.0,0.02565036714076996
3.0,0.021781617775559425
4.0,0.019037283957004547
5.0,0.017015308141708374
6.0,0.01568656787276268
7.0,0.01461984496563673
8.0,0.013578924350440502
9.0,0.012701651081442833
10.0,0.011885802261531353
11.0,0.011108564212918282
12.0,0.010624945163726807
13.0,0.010315238498151302
14.0,0.01010116096585989
15.0,0.010160000063478947
16.0,0.009739436209201813
18.0,0.009323610924184322
20.0,0.008546310476958752
22.0,0.008034471422433853
24.0,0.00750293442979455
26.0,0.006433292292058468
28.0,0.0060287099331617355
30.0,0.005614996422082186
32.0,0.005262145306915045
36.0,0.005139053799211979
40.0,0.00515486067160964
44.0,0.004981173202395439
48.0,0.004720055498182774
52.0,0.0042902142740786076
56.0,0.004076437558978796
60.0,0.0034250239841639996
64.0,0.0033854509238153696
72.0,0.0031574482563883066
80.0,0.002791458275169134
88.0,0.0029652928933501244
96.0,0.004069335293024778
104.0,0.004482033662497997
112.0,0.0038456893526017666
120.0,0.003123985370621085
128.0,0.003931406885385513
144.0,0.005080980248749256
160.0,0.004564628936350346
176.0,0.0038941088132560253
192.0,0.00264168344438076
208.0,0.0020918166264891624
224.0,0.001278753043152392
240.0,0.0013249876210466027
256.0,0.0011900888057425618
288.0,0.0016370584489777684
320.0,0.0016833859262987971
352.0,0.001284839934669435
384.0,-0.00015862683358136564
416.0,0.00012055244587827474
448.0,0.000730685074813664
480.0,0.0010115376207977533
512.0,-0.000294882949674502
576.0,-0.00047482590889558196
640.0,0.0009420884889550507
704.0,0.0004917263286188245
768.0,0.001638622721657157
832.0,0.0014986227033659816
896.0,0.001218200079165399
960.0,0.0018277596682310104
1024.0,0.0015706114936619997
1152.0,0.0010686068562790751
1280.0,0.0007741281879134476
1408.0,-0.00022564690152648836
1536.0,-0.0007103013340383768
1664.0,-0.0006277936627157032
1792.0,-0.0009605683735571802
1920.0,-0.00073383713606745
2048.0,-0.00031157853663899004
2304.0,0.00022617151262238622
2560.0,0.00031244143610820174
2816.0,7.46706427889876e-05
3072.0,-2.828220203809906e-06
3328.0,-0.00020268643856979907
3584.0,0.00011052635818487033
3840.0,0.0003427376504987478
4096.0,-0.0007774550467729568
4608.0,-0.0006266869022510946
5120.0,-0.000900379556696862
5632.0,7.70141286920989e-06
6144.0,-0.001199073507450521
6656.0,6.658573693130165e-05
7168.0,-0.0018166227964684367
7680.0,-0.0014288151869550347
8192.0,-0.0016126151895150542
end
