version,3.0
numOfCh,1
type,point
parent_name,34a6d_10dot0-0dot1
ch_type,1_1
kcount,1
numberNandB,1
brightnessNandB,1
carpet pos,0
pc,0
Time (ms),CH1 Auto-Correlation
1.0,0.05096720531582832
2.0,0.042763132601976395
3.0,0.03884893283247948
4.0,0.03596844896674156
5.0,0.033055633306503296
6.0,0.031568173319101334
7.0,0.03051675297319889
8.0,0.02936900593340397
9.0,0.028360076248645782
10.0,0.027471981942653656
11.0,0.02651149593293667
12.0,0.02573966607451439
13.0,0.024806028231978416
14.0,0.02377161756157875
15.0,0.02267180196940899
16.0,0.022034725174307823
18.0,0.021060697734355927
20.0,0.019907066598534584
22.0,0.019154267385601997
24.0,0.018105674535036087
26.0,0.016561035066843033
28.0,0.014699324034154415
30.0,0.013844733126461506
32.0,0.012880663387477398
36.0,0.01036344189196825
40.0,0.008841700851917267
44.0,0.00800401158630848
48.0,0.0064489576034247875
52.0,0.005996317602694035
56.0,0.006173673085868359
60.0,0.006812628358602524
64.0,0.006843496114015579
72.0,0.00694162305444479
80.0,0.0062046232633292675
88.0,0.007114993408322334
96.0,0.007607887964695692
104.0,0.007315458729863167
112.0,0.006708076689392328
120.0,0.005098632536828518
128.0,0.004203364253044128
144.0,0.003235497511923313
160.0,0.0036470978520810604
176.0,0.0027015991508960724
192.0,0.0023835941683501005
208.0,0.0033670130651444197
224.0,0.002692805603146553
240.0,0.001684298855252564
256.0,0.001026024343445897
288.0,0.0007212712662294507
320.0,3.861506229441147e-06
352.0,9.356241207569838e-05
384.0,0.0023064918350428343
416.0,0.0017000434454530478
448.0,0.00249072490260005
480.0,0.0009975159773603082
512.0,0.0019382952013984323
576.0,0.0025196156930178404
640.0,0.002218647627159953
704.0,0.001686072675511241
768.0,0.0011916561052203178
832.0,0.0014713960699737072
896.0,-0.0002657099685166031
960.0,0.0005843646940775216
1024.0,-0.00038688196218572557
1152.0,-0.0013060522032901645
1280.0,-0.0005974936066195369
1408.0,-0.0005400152876973152
1536.0,-0.0015147115336731076
1664.0,-0.0017955719958990812
1792.0,-0.001773105701431632
1920.0,-0.0016466850647702813
2048.0,-0.0015898848650977015
2304.0,-0.0008261687471531332
2560.0,0.0004948976566083729
2816.0,-0.00010352169920224696
3072.0,0.00046746147563681006
3328.0,-0.00044382104533724487
3584.0,0.0016745078610256314
3840.0,5.6492430303478613e-05
4096.0,-0.0008107675239443779
4608.0,-0.0016860191244632006
5120.0,-0.00022734884987585247
5632.0,0.001013145549222827
6144.0,0.0014069475000724196
6656.0,0.00016347126802429557
7168.0,-0.0008879125234670937
7680.0,-0.0012223608791828156
8192.0,-0.000672964786645025
end
