version,3.0
numOfCh,1
type,point
parent_name,34a6d_10dot0-0dot1
ch_type,1_1
kcount,1
numberNandB,1
brightnessNandB,1
carpet pos,0
pc,0
Time (ms),CH1 Auto-Correlation
1.0,0.024026544764637947
2.0,0.016134321689605713
3.0,0.011937576346099377
4.0,0.009681489318609238
5.0,0.008220511488616467
6.0,0.006948110647499561
7.0,0.0060857548378407955
8.0,0.005410145968198776
9.0,0.004955075681209564
10.0,0.004415486473590136
11.0,0.0038934042677283287
12.0,0.0037031795363873243
13.0,0.0034014093689620495
14.0,0.003338608657941222
15.0,0.0032454354222863913
16.0,0.0029747311491519213
18.0,0.0032200622372329235
20.0,0.0029389294795691967
22.0,0.0024065873585641384
24.0,0.0017238827422261238
26.0,0.0012764220591634512
28.0,0.0012157325400039554
30.0,0.001072833314538002
32.0,0.00131229218095541
36.0,0.0014668399235233665
40.0,0.0010682691354304552
44.0,0.0006389758200384676
48.0,0.0005895245703868568
52.0,0.0003465876798145473
56.0,0.00014684059715364128
60.0,-2.5160066797980107e-05
64.0,-3.193608790752478e-05
72.0,-0.0006131067639216781
80.0,-0.0007230330957099795
88.0,-0.0005190186202526093
96.0,-0.0002641775645315647
104.0,-0.0005240475875325501
112.0,-0.0006244571413844824
120.0,5.037946903030388e-05
128.0,4.4457559852162376e-05
144.0,0.0001520769001217559
160.0,6.042412860551849e-05
176.0,0.00019206517026759684
192.0,0.0014926104340702295
208.0,0.0009543306659907103
224.0,0.0004879819753114134
240.0,0.00023165871971286833
256.0,-8.001676178537309e-05
288.0,-3.58031720679719e-05
320.0,0.00022966580581851304
352.0,0.0006565068033523858
384.0,0.0005655409186147153
416.0,0.0004880224587395787
448.0,0.00019843634800054133
480.0,-0.00010273420775774866
512.0,4.986987914890051e-05
576.0,0.00012383746798150241
640.0,-5.391662398324115e-06
704.0,-2.0383671653689817e-05
768.0,-0.0001553558249725029
832.0,-0.00034062229678966105
896.0,9.477241837885231e-05
960.0,7.185095455497503e-06
1024.0,-9.078234143089503e-05
1152.0,9.438142296858132e-05
1280.0,-8.06978641776368e-05
1408.0,-0.00027604811475612223
1536.0,0.0003814170486293733
1664.0,-0.0003887906495947391
1792.0,-0.00019637992954812944
1920.0,-0.00021455303067341447
2048.0,-0.00022861245088279247
2304.0,0.00020502318511717021
2560.0,-2.281618981214706e-05
2816.0,0.00018719336367212236
3072.0,0.00015475638792850077
3328.0,-0.00013441400369629264
3584.0,0.00044104046537540853
3840.0,0.00011926180741284043
4096.0,-0.0004084627435076982
4608.0,-0.00027796471840701997
5120.0,0.00011658284347504377
5632.0,-0.0002283791109221056
6144.0,1.6783060345915146e-05
6656.0,-8.47882402013056e-05
7168.0,5.640084168589965e-07
7680.0,-0.0001559233060106635
8192.0,-0.0006250875885598361
end
