version,3.0
numOfCh,1
type,point
parent_name,80-cuts
ch_type,1_1
kcount,1
numberNandB,1
brightnessNandB,1
carpet pos,0
pc,0
Time (ms),CH1 Auto-Correlation
1.0,0.02733934111893177
2.0,0.025046993046998978
3.0,0.02308017946779728
4.0,0.021311568096280098
5.0,0.019808653742074966
6.0,0.018442606553435326
7.0,0.017248867079615593
8.0,0.016178131103515625
9.0,0.015225803479552269
10.0,0.014414332807064056
11.0,0.013616670854389668
12.0,0.012941698543727398
13.0,0.012323549948632717
14.0,0.011758497916162014
15.0,0.011184907518327236
16.0,0.010651689022779465
18.0,0.00979634653776884
20.0,0.009116838686168194
22.0,0.008428588509559631
24.0,0.0078123570419847965
26.0,0.007205567322671413
28.0,0.006670083850622177
30.0,0.006169717293232679
32.0,0.005802560597658157
36.0,0.00487273745238781
40.0,0.004242490977048874
44.0,0.004012310411781073
48.0,0.0035767611116170883
52.0,0.0031379475258290768
56.0,0.0027114918921142817
60.0,0.002619936130940914
64.0,0.002654178300872445
72.0,0.0021363524720072746
80.0,0.0015260572545230389
88.0,0.0011004311963915825
96.0,0.0004976318450644612
104.0,2.877740735129919e-05
112.0,-1.988116309803445e-05
120.0,0.0005807660054415464
128.0,0.0013565178960561752
144.0,0.002801524940878153
160.0,0.002799837151542306
176.0,0.0018461100989952683
192.0,0.0016454841243103147
208.0,0.0011023656697943807
224.0,0.0002469771134201437
240.0,-0.0003012985398527235
256.0,-0.0004452490829862654
288.0,-0.0004940101644024253
320.0,-0.00020736263832077384
352.0,-0.0003227551933377981
384.0,-0.0006441159057430923
416.0,-0.0008842073730193079
448.0,-0.0010998790385201573
480.0,-0.0010596314677968621
512.0,-0.0009253566968254745
576.0,-0.00038989956374280155
640.0,7.264486339408904e-05
704.0,5.036090442445129e-05
768.0,-0.0012671552831307054
832.0,0.00042783727985806763
896.0,-0.0006458626594394445
960.0,-0.0010182405821979046
1024.0,-0.00042574977851472795
1152.0,0.0012689866125583649
1280.0,2.6846479158848524e-05
1408.0,-0.00044326268834993243
1536.0,-0.00010328675125492737
1664.0,-4.501954754232429e-05
1792.0,-0.0006695839110761881
1920.0,-0.0009687456768006086
2048.0,0.0007010700646787882
2304.0,0.0018025466706603765
2560.0,-0.00028055725852027535
2816.0,-0.0010961976367980242
3072.0,-0.0009943550685420632
3328.0,0.001268169959075749
3584.0,-0.00021363644918892533
3840.0,-0.000933414208702743
4096.0,-0.0006075444398447871
4608.0,0.0009739682427607477
5120.0,-0.0006157477619126439
5632.0,0.0004693040973506868
6144.0,-0.0003924325865227729
6656.0,0.0007129048462957144
7168.0,-0.0014566936297342181
7680.0,-0.0008506413432769477
8192.0,0.00018193204596173018
9216.0,-0.00045987535850144923
10240.0,0.0001624817814445123
11264.0,-9.96027811197564e-05
12288.0,-0.00012757307558786124
13312.0,-0.00019776452973019332
14336.0,0.00018652671133168042
end
