version,3.0
numOfCh,1
type,point
parent_name,80-cuts
ch_type,1_1
kcount,1
numberNandB,1
brightnessNandB,1
carpet pos,0
pc,0
Time (ms),CH1 Auto-Correlation
1.0,0.028992051258683205
2.0,0.02672836370766163
3.0,0.024767756462097168
4.0,0.023092424497008324
5.0,0.021617740392684937
6.0,0.020305460318922997
7.0,0.019152933731675148
8.0,0.018137240782380104
9.0,0.01714077778160572
10.0,0.016244523227214813
11.0,0.015396944247186184
12.0,0.014588844031095505
13.0,0.013866246677935123
14.0,0.013178694061934948
15.0,0.012602838687598705
16.0,0.01204752828925848
18.0,0.011027160100638866
20.0,0.010136878117918968
22.0,0.009326349943876266
24.0,0.00867322739213705
26.0,0.008153878152370453
28.0,0.007521684281527996
30.0,0.006892106495797634
32.0,0.006256308406591415
36.0,0.005136021412909031
40.0,0.004429444670677185
44.0,0.0038421358913183212
48.0,0.003678227076306939
52.0,0.003610648214817047
56.0,0.003422176232561469
60.0,0.003259690711274743
64.0,0.003052130341529846
72.0,0.0026017180643975735
80.0,0.0028276166412979364
88.0,0.002859646687284112
96.0,0.0023881851229816675
104.0,0.0015427593607455492
112.0,0.0012875234242528677
120.0,0.00104348617605865
128.0,0.0005594046087935567
144.0,-0.0001818742894101888
160.0,-0.0005037935334257782
176.0,-0.0003355167282279581
192.0,-0.00016486695676576346
208.0,-3.092435508733615e-05
224.0,0.00037555446033366024
240.0,-0.0001586402504472062
256.0,-0.0010233205975964665
288.0,-0.0009186945389956236
320.0,-0.001529479748569429
352.0,-0.002013790188357234
384.0,-0.002449878491461277
416.0,-0.0007962579256854951
448.0,-0.0005713900900445879
480.0,-0.0001904713426483795
512.0,-0.0007373359985649586
576.0,-0.0013407337246462703
640.0,-0.00021440800628624856
704.0,-0.0015327067812904716
768.0,-0.0016184078995138407
832.0,-0.001166340778581798
896.0,-5.066134690423496e-06
960.0,0.0003611197171267122
1024.0,0.000949590525124222
1152.0,0.0010485476814210415
1280.0,0.0003405135648790747
1408.0,0.00011791354336310178
1536.0,0.0004255998646840453
1664.0,-0.0007494989549741149
1792.0,-0.0010714026866480708
1920.0,0.00015226723917294294
2048.0,0.0012400728883221745
2304.0,-0.00032123998971655965
2560.0,0.0005105335148982704
2816.0,-6.424214370781556e-05
3072.0,0.0002153364912373945
3328.0,-0.00041076866909861565
3584.0,-0.0010485955281183124
3840.0,-3.210691284039058e-05
4096.0,0.000512543658260256
4608.0,-0.00045446553849615157
5120.0,-5.796740879304707e-05
5632.0,-0.000142680000863038
6144.0,0.00012361377594061196
6656.0,0.00020470653544180095
7168.0,0.00029127465677447617
7680.0,-0.0002437998482491821
8192.0,-0.00018591538537293673
9216.0,-1.6155225239344873e-05
10240.0,9.325064456788823e-05
11264.0,-0.00026748201344162226
12288.0,-0.00018664749222807586
13312.0,-0.0003839291457552463
14336.0,-0.0004550879239104688
end
