version,3.0
numOfCh,1
type,point
parent_name,80-cuts
ch_type,1_1
kcount,1
numberNandB,1
brightnessNandB,1
carpet pos,0
pc,0
Time (ms),CH1 Auto-Correlation
1.0,0.027061467990279198
2.0,0.024788159877061844
3.0,0.022841811180114746
4.0,0.02117803692817688
5.0,0.019813552498817444
6.0,0.018509820103645325
7.0,0.017357468605041504
8.0,0.01635398343205452
9.0,0.015428276732563972
10.0,0.01466904953122139
11.0,0.013988402672111988
12.0,0.013302339240908623
13.0,0.012657198123633862
14.0,0.012057443149387836
15.0,0.01146794855594635
16.0,0.010961110703647137
18.0,0.010053686797618866
20.0,0.0092088608071208
22.0,0.00847818236798048
24.0,0.007881763391196728
26.0,0.007299759890884161
28.0,0.006724147126078606
30.0,0.006261961534619331
32.0,0.005783160217106342
36.0,0.004803292918950319
40.0,0.004074344877153635
44.0,0.0035474542528390884
48.0,0.0031796039547771215
52.0,0.002960068639367819
56.0,0.0027034457307308912
60.0,0.0023580591659992933
64.0,0.002097823191434145
72.0,0.001755716628395021
80.0,0.0012269106227904558
88.0,0.0016405547503381968
96.0,0.002003692090511322
104.0,0.001827079919166863
112.0,0.0017508943565189838
120.0,0.0015402474673464894
128.0,0.001396207488141954
144.0,0.0004556794883683324
160.0,0.0004282727895770222
176.0,-0.0003609604900702834
192.0,-0.0008041630499064922
208.0,-0.0008238477748818696
224.0,-0.001112853642553091
240.0,-0.0010900862980633974
256.0,-0.0010240402771160007
288.0,0.00037564345984719694
320.0,0.00035393296275287867
352.0,0.00040593661833554506
384.0,0.000497186731081456
416.0,-4.214559157844633e-05
448.0,0.0006833508959971368
480.0,0.0009593772701919079
512.0,-3.7840627555851825e-06
576.0,-0.00018919967988040298
640.0,0.00019507930846884847
704.0,-0.0002666130312718451
768.0,-0.0009007767075672746
832.0,8.91092568053864e-05
896.0,-9.102691547013819e-05
960.0,-5.237442019279115e-05
1024.0,-0.0007717670523561537
1152.0,0.00012547321966849267
1280.0,-0.00031939087784849107
1408.0,-0.0005553037626668811
1536.0,-0.00036684368387795985
1664.0,9.704779949970543e-05
1792.0,-0.0002773834567051381
1920.0,-0.0005760235362686217
2048.0,-0.0012496374547481537
2304.0,-6.102471161284484e-05
2560.0,-0.00030753941973671317
2816.0,-0.0007012944552116096
3072.0,-0.0003841313300654292
3328.0,-0.00010972273594234139
3584.0,-3.666221891762689e-05
3840.0,5.2881590818287805e-05
4096.0,0.00032931051100604236
4608.0,-1.684574999671895e-05
5120.0,0.0005568618653342128
5632.0,0.0002862100664060563
6144.0,-0.0006643509259447455
6656.0,-0.00010501404904061928
7168.0,0.00043615419417619705
7680.0,0.00027185663930140436
8192.0,-0.0007513062446378171
9216.0,0.00027632658020593226
10240.0,-0.0003215076867491007
11264.0,-0.00021791986364405602
12288.0,3.007893064932432e-05
13312.0,0.00022674167121294886
14336.0,0.00013346144987735897
end
