version,3.0
numOfCh,1
type,point
parent_name,80-cuts
ch_type,1_1
kcount,1
numberNandB,1
brightnessNandB,1
carpet pos,0
pc,0
Time (ms),CH1 Auto-Correlation
1.0,0.02848646230995655
2.0,0.026259850710630417
3.0,0.024331944063305855
4.0,0.0226353257894516
5.0,0.021066715940833092
6.0,0.019698897376656532
7.0,0.018491530790925026
8.0,0.017393112182617188
9.0,0.01642162911593914
10.0,0.01552340853959322
11.0,0.014706028625369072
12.0,0.013909428380429745
13.0,0.01317141205072403
14.0,0.01249299943447113
15.0,0.011845879256725311
16.0,0.011236749589443207
18.0,0.010088199749588966
20.0,0.009162001311779022
22.0,0.008336935192346573
24.0,0.007578774355351925
26.0,0.006806903053075075
28.0,0.00627126032486558
30.0,0.005935546476393938
32.0,0.005711523815989494
36.0,0.005365490913391113
40.0,0.0048827859573066235
44.0,0.004288455005735159
48.0,0.0038579916581511497
52.0,0.003299199277535081
56.0,0.0027060764841735363
60.0,0.0022870132233947515
64.0,0.0020840847864747047
72.0,0.0017883903346955776
80.0,0.0016907546669244766
88.0,0.002044839318841696
96.0,0.002262914553284645
104.0,0.001801320817321539
112.0,0.001561930519528687
120.0,0.0012308998266234994
128.0,0.0010332900565117598
144.0,0.0005719297332689166
160.0,0.0004670071939472109
176.0,9.298283112002537e-05
192.0,0.00027263013180345297
208.0,0.00025139274657703936
224.0,0.0002713299763854593
240.0,1.4375688806467224e-05
256.0,8.224273915402591e-05
288.0,-0.0003485393535811454
320.0,0.0011791589204221964
352.0,0.00201489869505167
384.0,0.001247542561031878
416.0,0.0011492056073620915
448.0,0.0006379801197908819
480.0,-0.0016181448008865118
512.0,-0.001914740540087223
576.0,-0.00033878174144774675
640.0,4.0498271118849516e-05
704.0,-0.0005297207389958203
768.0,-0.0013245402369648218
832.0,-0.0019604249391704798
896.0,-0.0024879886768758297
960.0,-0.0007574216579087079
1024.0,0.0012943914625793695
1152.0,0.0006138684693723917
1280.0,0.0006705141277052462
1408.0,0.0009192689321935177
1536.0,0.0006710548768751323
1664.0,0.0018496375996619463
1792.0,0.00032200198620557785
1920.0,-0.0007460640626959503
2048.0,-6.269956065807492e-05
2304.0,0.00023081815743353218
2560.0,-0.0013464584480971098
2816.0,0.000359703873982653
3072.0,0.0007557139033451676
3328.0,0.00047549515147693455
3584.0,-0.0005015424685552716
3840.0,-0.001704032183624804
4096.0,-0.0007163752452470362
4608.0,-0.00018678982451092452
5120.0,-0.0002882879925891757
5632.0,-0.0007578678778372705
6144.0,0.00021750223822891712
6656.0,-0.0002728293475229293
7168.0,-0.0004612279590219259
7680.0,0.0008476810180582106
8192.0,-0.0008782778168097138
9216.0,0.0003466956550255418
10240.0,-0.0003129823599010706
11264.0,0.00036979030119255185
12288.0,0.0006881266017444432
13312.0,-0.0002984267193824053
14336.0,-0.00044319144217297435
end
