version,3.0
numOfCh,1
type,point
parent_name,80-cuts
ch_type,1_1
kcount,1
numberNandB,1
brightnessNandB,1
carpet pos,0
pc,0
Time (ms),CH1 Auto-Correlation
1.0,0.09418196976184845
2.0,0.08673140406608582
3.0,0.08034221082925797
4.0,0.07488710433244705
5.0,0.0701741874217987
6.0,0.06592478603124619
7.0,0.062281135469675064
8.0,0.05887757986783981
9.0,0.05583653226494789
10.0,0.05295739695429802
11.0,0.050344932824373245
12.0,0.0477672815322876
13.0,0.0454074963927269
14.0,0.04314681515097618
15.0,0.04102896526455879
16.0,0.039169877767562866
18.0,0.036102544516325
20.0,0.03331094607710838
22.0,0.03056633286178112
24.0,0.02799249067902565
26.0,0.02586725354194641
28.0,0.024232279509305954
30.0,0.022976862266659737
32.0,0.021775884553790092
36.0,0.020305059850215912
40.0,0.018563104793429375
44.0,0.01686207391321659
48.0,0.015045028179883957
52.0,0.013352400623261929
56.0,0.011989991180598736
60.0,0.010732272639870644
64.0,0.009902795776724815
72.0,0.007742541842162609
80.0,0.007299201563000679
88.0,0.007226190529763699
96.0,0.0069197253324091434
104.0,0.007163221016526222
112.0,0.007569253444671631
120.0,0.006514866836369038
128.0,0.006670859642326832
144.0,0.006756644230335951
160.0,0.005864303559064865
176.0,0.0028860035818070173
192.0,0.0007170141325332224
208.0,0.0010728100314736366
224.0,0.002875192556530237
240.0,0.0035702595487236977
256.0,0.0022177433129400015
288.0,0.005946984048932791
320.0,0.0035129315219819546
352.0,-0.0008802253287285566
384.0,-0.0013073537265881896
416.0,0.0013329996727406979
448.0,0.0024655198212713003
480.0,0.002020198618993163
512.0,-0.0017279149033129215
576.0,0.0021970095112919807
640.0,0.0021009505726397038
704.0,5.2665822295239195e-05
768.0,0.003403134411200881
832.0,-0.00026789651019498706
896.0,-0.001351092243567109
960.0,-0.004136919509619474
1024.0,-0.002336208475753665
1152.0,0.0022980193607509136
1280.0,0.0037008211947977543
1408.0,-0.00019106293621007353
1536.0,-0.0006557478336617351
1664.0,-0.0005688965320587158
1792.0,-0.0005341669311746955
1920.0,-0.0037195244804024696
2048.0,-0.000659068173263222
2304.0,-0.0006530964164994657
2560.0,0.0016169727314263582
2816.0,-0.0007733340025879443
3072.0,0.0014008890138939023
3328.0,-0.0025230678729712963
3584.0,-0.001847876701503992
3840.0,0.005327999126166105
4096.0,0.0013072674628347158
4608.0,-0.00036268922849558294
5120.0,0.0017911327304318547
5632.0,0.000608630187343806
6144.0,-0.00023739728203509003
6656.0,0.0015852273209020495
7168.0,-0.001551270019263029
7680.0,0.0008021671674214303
8192.0,0.00034297225647605956
9216.0,-0.002196797402575612
10240.0,-0.0018611839041113853
11264.0,0.0014466193970292807
12288.0,-0.0035830603446811438
13312.0,-0.008343199267983437
14336.0,-0.0035856517497450113
end
