version,3.0
numOfCh,1
type,point
parent_name,80-cuts
ch_type,1_1
kcount,1
numberNandB,1
brightnessNandB,1
carpet pos,0
pc,0
Time (ms),CH1 Auto-Correlation
1.0,0.09412115067243576
2.0,0.086724191904068
3.0,0.08035978674888611
4.0,0.07458344846963882
5.0,0.06954086571931839
6.0,0.06515254825353622
7.0,0.06134645268321037
8.0,0.05808836966753006
9.0,0.05513274297118187
10.0,0.05220942944288254
11.0,0.049657952040433884
12.0,0.04739350080490112
13.0,0.045109618455171585
14.0,0.04291464760899544
15.0,0.040848176926374435
16.0,0.038978613913059235
18.0,0.03541785478591919
20.0,0.03251185640692711
22.0,0.03050251491367817
24.0,0.02905195765197277
26.0,0.027513442561030388
28.0,0.025884253904223442
30.0,0.0242304690182209
32.0,0.0225587897002697
36.0,0.01901874877512455
40.0,0.01595267280936241
44.0,0.013693748041987419
48.0,0.011558209545910358
52.0,0.009358825162053108
56.0,0.008142183534801006
60.0,0.007822232320904732
64.0,0.008126934990286827
72.0,0.009122754447162151
80.0,0.0089334137737751
88.0,0.00824339035898447
96.0,0.00778120057657361
104.0,0.007332801353186369
112.0,0.006155695300549269
120.0,0.004604635294526815
128.0,0.0021785416174679995
144.0,-0.00021173917048145086
160.0,-0.0012860838323831558
176.0,-0.0017480296082794666
192.0,-0.0026494490448385477
208.0,-0.004520499147474766
224.0,-0.0030201785266399384
240.0,-0.0022582365199923515
256.0,-0.0022113400045782328
288.0,0.0017996885580942035
320.0,0.00038296892307698727
352.0,-0.0034024668857455254
384.0,0.0008474821224808693
416.0,0.0007975115440785885
448.0,-0.0036517377011477947
480.0,-0.002683867933228612
512.0,0.0007790199597366154
576.0,0.0016970605356618762
640.0,-0.0011919382959604263
704.0,-0.0034147100523114204
768.0,-0.0019589783623814583
832.0,0.001582188531756401
896.0,0.0031367740593850613
960.0,0.0019183893455192447
1024.0,-0.002535868203267455
1152.0,-0.004723707213997841
1280.0,-0.00317224464379251
1408.0,0.0038208712358027697
1536.0,-0.001125115086324513
1664.0,0.0030381418764591217
1792.0,0.005592992063611746
1920.0,-0.0005253457929939032
2048.0,0.0011049112072214484
2304.0,0.0012389905750751495
2560.0,-0.00023987401800695807
2816.0,-0.0005386647535488009
3072.0,-0.00020512379705905914
3328.0,0.002244114177301526
3584.0,0.0010152054019272327
3840.0,-0.002718783915042877
4096.0,-0.0007287616608664393
4608.0,-0.002280163811519742
5120.0,0.0030591730028390884
5632.0,0.00021455857495311648
6144.0,-0.0018351372564211488
6656.0,-0.000831743935123086
7168.0,-0.0007935694884508848
7680.0,0.0009875004179775715
8192.0,-0.0023262060713022947
9216.0,-0.00042995528201572597
10240.0,-0.0014140470884740353
11264.0,0.0005368274287320673
12288.0,-0.0008724234066903591
13312.0,-0.0002753316075541079
14336.0,0.0012288055149838328
end
