version,3.0
numOfCh,1
type,point
parent_name,80-cuts
ch_type,1_1
kcount,1
numberNandB,1
brightnessNandB,1
carpet pos,0
pc,0
Time (ms),CH1 Auto-Correlation
1.0,0.0874858871102333
2.0,0.08054978400468826
3.0,0.07462140172719955
4.0,0.06942055374383926
5.0,0.06514706462621689
6.0,0.06130426004528999
7.0,0.05777701735496521
8.0,0.05477046221494675
9.0,0.05216773971915245
10.0,0.049880947917699814
11.0,0.04805430397391319
12.0,0.04629501327872276
13.0,0.04448024556040764
14.0,0.042938482016325
15.0,0.04129340872168541
16.0,0.03976810723543167
18.0,0.037070102989673615
20.0,0.03472551703453064
22.0,0.0326269306242466
24.0,0.03052479587495327
26.0,0.02853882499039173
28.0,0.02671538107097149
30.0,0.025251559913158417
32.0,0.023889653384685516
36.0,0.022292103618383408
40.0,0.02023402228951454
44.0,0.018371671438217163
48.0,0.016504839062690735
52.0,0.01465015858411789
56.0,0.013064896687865257
60.0,0.01188020221889019
64.0,0.010526644997298717
72.0,0.007939807139337063
80.0,0.006818604655563831
88.0,0.006500997580587864
96.0,0.005885452032089233
104.0,0.004626307636499405
112.0,0.003149303374812007
120.0,0.0019771126098930836
128.0,-0.0001802555489121005
144.0,-0.0026964570861309767
160.0,8.963535947259516e-05
176.0,-0.0009557994781062007
192.0,-0.0005604238831438124
208.0,3.4409647923894227e-05
224.0,0.0008869420271366835
240.0,-0.00016861694166436791
256.0,-0.0007636126829311252
288.0,-0.0036334535107016563
320.0,-0.006902493070811033
352.0,-0.007191656623035669
384.0,-0.004867454990744591
416.0,-0.0024850796908140182
448.0,-0.002137615345418453
480.0,-0.002373430645093322
512.0,-0.00317586213350296
576.0,-0.0023994320072233677
640.0,1.7692438632366247e-05
704.0,0.0013115961337462068
768.0,0.0037582514341920614
832.0,0.0030634182039648294
896.0,0.00012193077418487519
960.0,0.0004443417419679463
1024.0,-0.003555974457412958
1152.0,-0.00015774797066114843
1280.0,-0.003831420326605439
1408.0,-0.002902098698541522
1536.0,0.00027977427816949785
1664.0,0.00016058819892350584
1792.0,-0.0020984120201319456
1920.0,0.0008661288302391768
2048.0,0.0008379268692806363
2304.0,0.0010167972650378942
2560.0,0.00028479649336077273
2816.0,-0.0012784330174326897
3072.0,-9.378836693940684e-05
3328.0,0.002439941046759486
3584.0,-0.0007909727864898741
3840.0,-0.004103862214833498
4096.0,0.00015201843052636832
4608.0,0.00031398425926454365
5120.0,-0.0018982358742505312
5632.0,-0.0007069443236105144
6144.0,-0.0014058672823011875
6656.0,0.0013810829259455204
7168.0,-0.000506059208419174
7680.0,-0.002219565911218524
8192.0,0.0018690426368266344
9216.0,0.0019115731120109558
10240.0,-0.0018125451169908047
11264.0,0.001973396632820368
12288.0,0.0005435295752249658
13312.0,-0.0006025776965543628
14336.0,0.0012571028200909495
end
