version,3.0
numOfCh,1
type,point
parent_name,80-cuts
ch_type,1_1
kcount,1
numberNandB,1
brightnessNandB,1
carpet pos,0
pc,0
Time (ms),CH1 Auto-Correlation
1.0,0.03976713865995407
2.0,0.03632441908121109
3.0,0.033377617597579956
4.0,0.030896881595253944
5.0,0.028690574690699577
6.0,0.026758771389722824
7.0,0.02507331408560276
8.0,0.023625541478395462
9.0,0.022244008257985115
10.0,0.020970264449715614
11.0,0.019829317927360535
12.0,0.018753791227936745
13.0,0.017760222777724266
14.0,0.016980137676000595
15.0,0.016373848542571068
16.0,0.015725089237093925
18.0,0.01451975479722023
20.0,0.01355571299791336
22.0,0.012659881263971329
24.0,0.011982139199972153
26.0,0.011407488025724888
28.0,0.010873145423829556
30.0,0.010182744823396206
32.0,0.009509783238172531
36.0,0.008229932747781277
40.0,0.006842834874987602
44.0,0.005751213524490595
48.0,0.005044207908213139
52.0,0.004897328559309244
56.0,0.004740430507808924
60.0,0.004094557836651802
64.0,0.003244422608986497
72.0,0.001803440391086042
80.0,0.0016209338791668415
88.0,0.0009304432896897197
96.0,9.053644316736609e-05
104.0,-0.0001095226252800785
112.0,-2.2929143597139046e-05
120.0,-4.44442848674953e-05
128.0,-6.220728391781449e-05
144.0,-0.0003238338395021856
160.0,-1.3278155165608041e-05
176.0,-0.0006767997401766479
192.0,-0.0008521083509549499
208.0,-0.0013761870795860887
224.0,-0.0006674800533801317
240.0,6.652069714618847e-06
256.0,-0.00026673226966522634
288.0,-0.0016043531941249967
320.0,-0.0010704390006139874
352.0,-0.0003778758691623807
384.0,0.0003266407875344157
416.0,0.0011191483354195952
448.0,0.0009883777238428593
480.0,0.0008734023431316018
512.0,3.311166665298515e-07
576.0,-0.0006701524253003299
640.0,-0.00037446286296471953
704.0,0.0008168075582943857
768.0,0.0012408056063577533
832.0,0.0016442871419712901
896.0,0.0006888046045787632
960.0,-0.0006956609431654215
1024.0,-0.00031653654878027737
1152.0,0.0003794195072259754
1280.0,0.0010377075523138046
1408.0,-0.0016551712760701776
1536.0,-0.0011817420599982142
1664.0,0.0006616821046918631
1792.0,-0.0014376640319824219
1920.0,-0.00020565127488225698
2048.0,-0.0013277027755975723
2304.0,-0.00023513671476393938
2560.0,-0.0001071327569661662
2816.0,-0.0008412067545577884
3072.0,-0.0007158791413530707
3328.0,-4.349584924057126e-05
3584.0,-0.00012490512744989246
3840.0,5.745147791458294e-05
4096.0,0.0016352746170014143
4608.0,0.0004974660696461797
5120.0,0.00044775864807888865
5632.0,-5.256297663436271e-05
6144.0,-0.0015059912111610174
6656.0,0.0008763448568060994
7168.0,-0.0017671756213530898
7680.0,-0.00010366733476985246
8192.0,-0.0008287100354209542
9216.0,-0.00020325060177128762
10240.0,-0.0002451797481626272
11264.0,0.0006341311964206398
12288.0,-0.0010600286768749356
13312.0,-0.00041256402619183064
14336.0,0.0015659764176234603
end
