version,3.0
numOfCh,1
type,point
parent_name,80-cuts
ch_type,1_1
kcount,1
numberNandB,1
brightnessNandB,1
carpet pos,0
pc,0
Time (ms),CH1 Auto-Correlation
1.0,0.03085499443113804
2.0,0.02866184152662754
3.0,0.026673780754208565
4.0,0.025060564279556274
5.0,0.023647751659154892
6.0,0.022394288331270218
7.0,0.02125794067978859
8.0,0.020228462293744087
9.0,0.01928924024105072
10.0,0.018377676606178284
11.0,0.017548492178320885
12.0,0.016814548522233963
13.0,0.016110561788082123
14.0,0.015442416071891785
15.0,0.014880706556141376
16.0,0.014306239783763885
18.0,0.013303529471158981
20.0,0.012505934573709965
22.0,0.011824051849544048
24.0,0.011313590221107006
26.0,0.010737001895904541
28.0,0.010064379312098026
30.0,0.009335101582109928
32.0,0.008656144142150879
36.0,0.00755469361320138
40.0,0.0067817820236086845
44.0,0.006143670529127121
48.0,0.005521470680832863
52.0,0.004772500600665808
56.0,0.0038299320731312037
60.0,0.00314556946977973
64.0,0.0027017558459192514
72.0,0.0024162144400179386
80.0,0.0020967309828847647
88.0,0.0019689975306391716
96.0,0.0022082191426306963
104.0,0.0021484605967998505
112.0,0.0018552157562226057
120.0,0.0020502712577581406
128.0,0.002309253206476569
144.0,0.002161540323868394
160.0,0.0008463117992505431
176.0,-7.938916678540409e-05
192.0,0.0003967741795349866
208.0,0.0009385856101289392
224.0,0.0009346735314466059
240.0,0.0011436250060796738
256.0,0.0013313484378159046
288.0,0.0010833709966391325
320.0,0.00041499274084344506
352.0,0.0006443007150664926
384.0,0.000317311700200662
416.0,-0.00074360630242154
448.0,-0.001423468580469489
480.0,-0.00028733344515785575
512.0,-0.00018864079902414232
576.0,-0.0013347493950277567
640.0,-0.0019235291983932257
704.0,-0.002474623965099454
768.0,-0.0014174144016578794
832.0,-0.0014265903737396002
896.0,-0.0009220426436513662
960.0,0.0008162889862433076
1024.0,0.0013770121149718761
1152.0,0.0012504530604928732
1280.0,0.0009410702041350305
1408.0,0.0012238940689712763
1536.0,-0.0001800218306016177
1664.0,-9.465828952670563e-06
1792.0,0.00027709483401849866
1920.0,0.0004102609527762979
2048.0,-0.0003454106335993856
2304.0,-0.0002457734663039446
2560.0,-0.0008019524975679815
2816.0,0.0006715281051583588
3072.0,0.0007367391954176128
3328.0,0.0014895800268277526
3584.0,-0.0006727678119204938
3840.0,-0.0014556250534951687
4096.0,-0.0007570062298327684
4608.0,0.000870825257152319
5120.0,-0.0011874870397150517
5632.0,0.0005685918731614947
6144.0,0.0005775701138190925
6656.0,-0.00020735831640195101
7168.0,-0.000198443973204121
7680.0,-0.0007105720578692853
8192.0,-2.181952731916681e-05
9216.0,0.00022675064974464476
10240.0,-5.092404899187386e-05
11264.0,-0.0010209402535110712
12288.0,0.0012290376471355557
13312.0,-0.0014966275775805116
14336.0,-0.0010105721885338426
end
