version,3.0
numOfCh,1
type,point
parent_name,80-cuts
ch_type,1_1
kcount,1
numberNandB,1
brightnessNandB,1
carpet pos,0
pc,0
Time (ms),CH1 Auto-Correlation
1.0,0.0825367271900177
2.0,0.07566063851118088
3.0,0.06956206262111664
4.0,0.06434430927038193
5.0,0.05997128039598465
6.0,0.05589320883154869
7.0,0.05246145278215408
8.0,0.049246806651353836
9.0,0.04661432281136513
10.0,0.04427269101142883
11.0,0.0420287549495697
12.0,0.04004311189055443
13.0,0.03831326588988304
14.0,0.03688911348581314
15.0,0.035700224339962006
16.0,0.034500326961278915
18.0,0.03178901970386505
20.0,0.029493536800146103
22.0,0.027084890753030777
24.0,0.02502403035759926
26.0,0.023157985880970955
28.0,0.02141302078962326
30.0,0.01995714381337166
32.0,0.018822642043232918
36.0,0.016510188579559326
40.0,0.015309573151171207
44.0,0.01514371670782566
48.0,0.015535173937678337
52.0,0.014553395099937916
56.0,0.013094713911414146
60.0,0.011734463274478912
64.0,0.010929176583886147
72.0,0.008078398182988167
80.0,0.006268274039030075
88.0,0.005133430473506451
96.0,0.005027339793741703
104.0,0.004169156309217215
112.0,0.003139504697173834
120.0,0.0023520786780864
128.0,0.0017473810585215688
144.0,0.0015503171598538756
160.0,0.0011114502558484674
176.0,-0.00035577212111093104
192.0,-8.348925621248782e-05
208.0,-0.00015548596275039017
224.0,-0.0007638372480869293
240.0,-0.0024871486239135265
256.0,-0.002449098974466324
288.0,-0.002553187543526292
320.0,-0.00175496528390795
352.0,-0.00039991739322431386
384.0,-0.0013534845784306526
416.0,-0.000651832262519747
448.0,-6.432251393562183e-05
480.0,0.0022784234024584293
512.0,0.0037010926753282547
576.0,0.0013254446676000953
640.0,0.0030840516556054354
704.0,0.0022877766750752926
768.0,0.0034637225326150656
832.0,-0.0019184260163456202
896.0,-0.005526572000235319
960.0,-0.005363296251744032
1024.0,-0.004063319880515337
1152.0,-0.0005533368675969541
1280.0,0.0019793545361608267
1408.0,-0.0011365250684320927
1536.0,-0.005609981250017881
1664.0,5.3450174164026976e-05
1792.0,0.0012731390306726098
1920.0,-0.0006732949987053871
2048.0,-0.0028686546720564365
2304.0,0.001372826867736876
2560.0,0.0014545555459335446
2816.0,-0.0019539780914783478
3072.0,0.0017891415627673268
3328.0,-0.0006053340621292591
3584.0,-0.0020146467722952366
3840.0,0.002428754698485136
4096.0,-0.0020374800078570843
4608.0,0.0008546001045033336
5120.0,0.0008071257616393268
5632.0,-0.0025068798568099737
6144.0,-0.002317418809980154
6656.0,-0.0003128339594695717
7168.0,0.001289227744564414
7680.0,0.0019840693566948175
8192.0,-0.0015541866887360811
9216.0,-0.001598163740709424
10240.0,-0.0015552990371361375
11264.0,0.000878022750839591
12288.0,0.0015576869482174516
13312.0,0.0014063769485801458
14336.0,0.0003225100808776915
end
