version,3.0
numOfCh,1
type,point
parent_name,80-cuts
ch_type,1_1
kcount,1
numberNandB,1
brightnessNandB,1
carpet pos,0
pc,0
Time (ms),CH1 Auto-Correlation
1.0,0.027051594108343124
2.0,0.02481507509946823
3.0,0.022904852405190468
4.0,0.021253136917948723
5.0,0.019730089232325554
6.0,0.01846342161297798
7.0,0.017363999038934708
8.0,0.016338201239705086
9.0,0.015411208383738995
10.0,0.014514020644128323
11.0,0.013649139553308487
12.0,0.012886317446827888
13.0,0.012199772521853447
14.0,0.011589969508349895
15.0,0.011005104519426823
16.0,0.010410962626338005
18.0,0.009347350336611271
20.0,0.008328080177307129
22.0,0.00745893269777298
24.0,0.006725713144987822
26.0,0.005953318905085325
28.0,0.0053285821340978146
30.0,0.004916138015687466
32.0,0.004444202408194542
36.0,0.0035364751238375902
40.0,0.002717121271416545
44.0,0.002290902193635702
48.0,0.0020264098420739174
52.0,0.001492051873356104
56.0,0.001217380166053772
60.0,0.001063777133822441
64.0,0.0007631808985024691
72.0,0.0005307229002937675
80.0,0.0004128699074499309
88.0,0.0005263823550194502
96.0,0.0008495308575220406
104.0,0.0015084363985806704
112.0,0.001699717016890645
120.0,0.0011679190210998058
128.0,0.0010498387273401022
144.0,0.00022249175526667386
160.0,-0.0003993755963165313
176.0,-3.422902227612212e-05
192.0,0.0007326744962483644
208.0,0.00043407551129348576
224.0,5.886052895220928e-05
240.0,0.00012093373516108841
256.0,0.00041791738476604223
288.0,-0.0009374258806928992
320.0,-0.0009767196606844664
352.0,2.251314617751632e-05
384.0,0.00013763537572231144
416.0,0.0001895157911349088
448.0,0.0007829248206689954
480.0,0.0005387897836044431
512.0,0.001074575469829142
576.0,0.0014415956102311611
640.0,0.0003347854071762413
704.0,-0.0006853978266008198
768.0,-0.0011390866711735725
832.0,-0.0004153104964643717
896.0,-0.0004144103731960058
960.0,0.00013718703121412545
1024.0,-8.405117114307359e-05
1152.0,-0.00048390342271886766
1280.0,0.00038952004979364574
1408.0,0.00038230750942602754
1536.0,-0.0001657291140872985
1664.0,-0.0005456408835016191
1792.0,-0.00013043520448263735
1920.0,0.0003817595716100186
2048.0,-0.00014122242282610387
2304.0,-0.00017105480947066098
2560.0,-0.0005882714176550508
2816.0,0.001427147537469864
3072.0,-0.00040452825487591326
3328.0,0.0008454385097138584
3584.0,-0.0008361719083040953
3840.0,-0.00014506137813441455
4096.0,-0.00022040915791876614
4608.0,-0.0003077627334278077
5120.0,-0.0004510622238740325
5632.0,0.00022191966127138585
6144.0,-0.00019493365834932774
6656.0,-1.1503542509672116e-06
7168.0,0.0005336613394320011
7680.0,-0.00017336000746581703
8192.0,-0.00048789227730594575
9216.0,0.0001880796771729365
10240.0,-0.00024194452271331102
11264.0,-0.0004470886487979442
12288.0,-0.00020090090401936322
13312.0,-0.00039383137482218444
14336.0,0.00027670912095345557
end
