version,3.0
numOfCh,1
type,point
parent_name,80-cuts
ch_type,1_1
kcount,1
numberNandB,1
brightnessNandB,1
carpet pos,0
pc,0
Time (ms),CH1 Auto-Correlation
1.0,0.0833248421549797
2.0,0.07614502310752869
3.0,0.06999870389699936
4.0,0.06471478939056396
5.0,0.059774383902549744
6.0,0.05541282147169113
7.0,0.05162915959954262
8.0,0.048311736434698105
9.0,0.04551101475954056
10.0,0.042923711240291595
11.0,0.04064343497157097
12.0,0.038460858166217804
13.0,0.03634136915206909
14.0,0.03470059484243393
15.0,0.03321152552962303
16.0,0.0318225733935833
18.0,0.029203882440924644
20.0,0.02694484405219555
22.0,0.02535855770111084
24.0,0.023938868194818497
26.0,0.02235274761915207
28.0,0.021291377022862434
30.0,0.02005588635802269
32.0,0.018601329997181892
36.0,0.01598419062793255
40.0,0.013383645564317703
44.0,0.011082879267632961
48.0,0.008182377554476261
52.0,0.0056093852035701275
56.0,0.0042559062130749226
60.0,0.0032818387262523174
64.0,0.002921751234680414
72.0,0.002666592365130782
80.0,0.001275538350455463
88.0,0.0013698767870664597
96.0,0.0036961562000215054
104.0,0.005154797341674566
112.0,0.004479675553739071
120.0,0.005765122827142477
128.0,0.006018430460244417
144.0,0.002460489748045802
160.0,0.0007384776254184544
176.0,0.0007097788038663566
192.0,0.00038279537693597376
208.0,0.0013184727868065238
224.0,0.0016198132652789354
240.0,0.0015889498172327876
256.0,0.002915207063779235
288.0,-0.0037769635673612356
320.0,-0.005810972303152084
352.0,-0.0018683585803955793
384.0,0.0009115070570260286
416.0,-0.0009784077992662787
448.0,-0.00015045370673760772
480.0,-0.0017544999718666077
512.0,-0.0016464028740301728
576.0,-0.0012363264104351401
640.0,0.002201234921813011
704.0,0.0007640382973477244
768.0,0.001618437236174941
832.0,0.0031636415515094995
896.0,0.002459940267726779
960.0,0.00045046958257444203
1024.0,-1.4776715033804066e-05
1152.0,-0.004160640295594931
1280.0,-0.0010556529741734266
1408.0,-0.0014308384852483869
1536.0,-0.0006590905832126737
1664.0,0.0009513450786471367
1792.0,-5.871624671272002e-05
1920.0,0.0009973441483452916
2048.0,0.0006315240752883255
2304.0,-0.002404054393991828
2560.0,0.0019329111091792583
2816.0,0.0024565428029745817
3072.0,-0.00491828378289938
3328.0,0.002530500991269946
3584.0,0.00041489495197311044
3840.0,-0.004241426009684801
4096.0,0.0005075492663308978
4608.0,0.001669366960413754
5120.0,0.00012436241377145052
5632.0,-0.0006618737825192511
6144.0,0.0003610628191381693
6656.0,0.0010918807238340378
7168.0,-0.00029146947781555355
7680.0,0.00048362393863499165
8192.0,-0.0010530130239203572
9216.0,-0.0012773816706612706
10240.0,-0.00010608090815367177
11264.0,7.57389425416477e-05
12288.0,-0.0011964858276769519
13312.0,-0.0003505430358927697
14336.0,-0.0002708144602365792
end
