version,3.0
numOfCh,1
type,point
parent_name,80-cuts
ch_type,1_1
kcount,1
numberNandB,1
brightnessNandB,1
carpet pos,0
pc,0
Time (ms),CH1 Auto-Correlation
1.0,0.08151740580797195
2.0,0.07419779151678085
3.0,0.06783945113420486
4.0,0.06234725937247276
5.0,0.057608138769865036
6.0,0.05370721593499184
7.0,0.05027805641293526
8.0,0.04743816703557968
9.0,0.04448710381984711
10.0,0.04190603271126747
11.0,0.039373476058244705
12.0,0.037087783217430115
13.0,0.03494148701429367
14.0,0.03314841911196709
15.0,0.03159736469388008
16.0,0.03009430505335331
18.0,0.02754376269876957
20.0,0.025248702615499496
22.0,0.02305908501148224
24.0,0.020873503759503365
26.0,0.018877536058425903
28.0,0.01701487973332405
30.0,0.015157175250351429
32.0,0.013206121511757374
36.0,0.010097211226820946
40.0,0.008065757341682911
44.0,0.007037600036710501
48.0,0.005636603105813265
52.0,0.0047853728756308556
56.0,0.004748934414237738
60.0,0.004978627432137728
64.0,0.004705761559307575
72.0,0.004291650373488665
80.0,0.002849849872291088
88.0,0.002016871003434062
96.0,0.001625168602913618
104.0,0.0016358926659449935
112.0,0.001969828736037016
120.0,0.0010019541950896382
128.0,0.0007482752553187311
144.0,-0.00048467048327438533
160.0,-0.003148405347019434
176.0,-0.0038877371698617935
192.0,-0.0039117466658353806
208.0,-0.003387595061212778
224.0,-0.00010464373917784542
240.0,0.0032218489795923233
256.0,0.0028407047502696514
288.0,0.0015070470981299877
320.0,0.00021592064877040684
352.0,-0.005106641910970211
384.0,-0.005792537704110146
416.0,-0.003659736830741167
448.0,-0.0023195480462163687
480.0,-0.002261725952848792
512.0,0.00041400332702323794
576.0,-0.00016307312762364745
640.0,-0.0019358519930392504
704.0,0.0006269385339692235
768.0,0.00190819357521832
832.0,0.0027361970860511065
896.0,0.0017275023274123669
960.0,0.00039095827378332615
1024.0,0.0016027853125706315
1152.0,0.00026241253362968564
1280.0,-0.00042984590982086957
1408.0,0.002567688934504986
1536.0,0.0018053160747513175
1664.0,-0.0016036888118833303
1792.0,-0.0019883294589817524
1920.0,-0.0004643651482183486
2048.0,0.00028495173319242895
2304.0,0.0015642072539776564
2560.0,-0.00105768209323287
2816.0,0.0009458067361265421
3072.0,-0.0007325786864385009
3328.0,-0.000497995933983475
3584.0,-0.0018844385631382465
3840.0,-0.0014244405319914222
4096.0,-0.0023780071642249823
4608.0,-0.0017395305912941694
5120.0,-0.0002983156591653824
5632.0,-0.0010360612068325281
6144.0,0.0009171553538180888
6656.0,-0.0014870271552354097
7168.0,0.002009492600336671
7680.0,-0.00015791702026035637
8192.0,0.0015502774622291327
9216.0,0.0006933628465048969
10240.0,0.0010227718157693744
11264.0,-0.0008205992635339499
12288.0,-0.0013854692224413157
13312.0,-0.0025320639833807945
14336.0,-0.001769623369909823
end
