version,3.0
numOfCh,1
type,point
parent_name,80-cuts
ch_type,1_1
kcount,1
numberNandB,1
brightnessNandB,1
carpet pos,0
pc,0
Time (ms),CH1 Auto-Correlation
1.0,0.027386732399463654
2.0,0.025114111602306366
3.0,0.02316068857908249
4.0,0.021547269076108932
5.0,0.020109383389353752
6.0,0.01884443685412407
7.0,0.017725739628076553
8.0,0.016672028228640556
9.0,0.015719613060355186
10.0,0.014917293563485146
11.0,0.014133753255009651
12.0,0.013474279083311558
13.0,0.012824342586100101
14.0,0.01216063741594553
15.0,0.011544588021934032
16.0,0.011033798567950726
18.0,0.010045775212347507
20.0,0.009083985351026058
22.0,0.008255348540842533
24.0,0.007518265396356583
26.0,0.006976820528507233
28.0,0.006439606659114361
30.0,0.005894420202821493
32.0,0.005582984071224928
36.0,0.004846171475946903
40.0,0.004177149385213852
44.0,0.003489520400762558
48.0,0.002701020101085305
52.0,0.002245232230052352
56.0,0.0022421821486204863
60.0,0.0021550192032009363
64.0,0.0018963577458634973
72.0,0.0014043130213394761
80.0,0.0011160956928506494
88.0,0.0008633499382995069
96.0,0.00048803092795424163
104.0,0.00017087558808270842
112.0,2.1886033209739253e-05
120.0,9.66321094892919e-05
128.0,7.969469152158126e-05
144.0,0.00028065836522728205
160.0,0.0009118037996813655
176.0,0.0009800302796065807
192.0,0.0009503960609436035
208.0,0.001105625182390213
224.0,0.0010202936828136444
240.0,0.000409611442591995
256.0,0.00025094192824326456
288.0,-0.0007911864086054265
320.0,-0.002374521689489484
352.0,-0.002750725019723177
384.0,-0.001582555822096765
416.0,-0.0007307347841560841
448.0,0.0003925799101125449
480.0,-0.0002755897876340896
512.0,-0.0005518575781024992
576.0,6.611068965867162e-05
640.0,-0.00017195130931213498
704.0,-5.234401214693207e-06
768.0,9.869816130958498e-05
832.0,-0.0005420563975349069
896.0,-0.0012383630964905024
960.0,2.9911066121712793e-06
1024.0,-0.00042459735414013267
1152.0,0.00033924850868061185
1280.0,-0.00011948951578233391
1408.0,-0.0006528772064484656
1536.0,-0.0006853426457382739
1664.0,-0.0005580977885983884
1792.0,-0.0011140245478600264
1920.0,-0.0002693970163818449
2048.0,-0.0003454723919276148
2304.0,0.001010326435789466
2560.0,0.0009112241677939892
2816.0,-0.0002946637396235019
3072.0,-0.00045149167999625206
3328.0,-0.00021378268138505518
3584.0,0.00015918149438221008
3840.0,0.00046149210538715124
4096.0,-0.0010569088626652956
4608.0,0.00017692199617158622
5120.0,0.0008490927866660058
5632.0,-0.000871877302415669
6144.0,0.0003882391902152449
6656.0,-0.0006008468335494399
7168.0,0.00025782149168662727
7680.0,-0.00021722211386077106
8192.0,-0.0004536113701760769
9216.0,0.00041272948146797717
10240.0,-0.00012818608956877142
11264.0,8.573130617151037e-05
12288.0,-0.00048744824016466737
13312.0,0.0006177701288834214
14336.0,-0.0004769613151438534
end
