version,3.0
numOfCh,1
type,point
parent_name,80-cuts
ch_type,1_1
kcount,1
numberNandB,1
brightnessNandB,1
carpet pos,0
pc,0
Time (ms),CH1 Auto-Correlation
1.0,0.08763617277145386
2.0,0.08056650310754776
3.0,0.07471095770597458
4.0,0.06969699263572693
5.0,0.06530314683914185
6.0,0.061414752155542374
7.0,0.058056022971868515
8.0,0.055026642978191376
9.0,0.05208353325724602
10.0,0.04943326488137245
11.0,0.04709344729781151
12.0,0.044998932629823685
13.0,0.04284590855240822
14.0,0.04104113578796387
15.0,0.03955342248082161
16.0,0.037987060844898224
18.0,0.03550385311245918
20.0,0.03349914774298668
22.0,0.03180014714598656
24.0,0.030089939013123512
26.0,0.028240326792001724
28.0,0.026519775390625
30.0,0.02468360774219036
32.0,0.02318342961370945
36.0,0.020921990275382996
40.0,0.018989529460668564
44.0,0.016756918281316757
48.0,0.014499831013381481
52.0,0.012986213900148869
56.0,0.011829160153865814
60.0,0.010602285154163837
64.0,0.009144891053438187
72.0,0.007277976255863905
80.0,0.0050896331667900085
88.0,0.0033794764894992113
96.0,0.001507388660684228
104.0,0.0003282116958871484
112.0,0.0004833435523323715
120.0,0.001179114100523293
128.0,0.0023405689280480146
144.0,0.002677532844245434
160.0,0.0027682234067469835
176.0,-0.00018559361342340708
192.0,-0.0006627716938965023
208.0,0.0009343597339466214
224.0,-0.00029698360594920814
240.0,5.506464003701694e-05
256.0,-0.00038011319702491164
288.0,-0.0023328119423240423
320.0,-0.002502989489585161
352.0,-6.783723074477166e-05
384.0,0.001151053817011416
416.0,-0.0006644869572483003
448.0,-0.0013937754556536674
480.0,-0.00022689423349220306
512.0,0.0008528715115971863
576.0,-0.0013345229672268033
640.0,-0.000932892260607332
704.0,0.0033842213451862335
768.0,0.005693728569895029
832.0,-0.0007561395759694278
896.0,0.0014053138438612223
960.0,0.0007959449430927634
1024.0,0.0029181945137679577
1152.0,2.0949144527548924e-05
1280.0,0.0002812171878758818
1408.0,-0.001914275693707168
1536.0,-0.0038698208518326283
1664.0,0.006349447648972273
1792.0,0.0017038227524608374
1920.0,-0.0005861938698217273
2048.0,-0.0016015090513974428
2304.0,0.0003535400319378823
2560.0,0.0034674217458814383
2816.0,0.00070923165185377
3072.0,-0.0011155834654346108
3328.0,-0.0016201315447688103
3584.0,-0.000321520579745993
3840.0,0.0005792173324152827
4096.0,-0.0006218047928996384
4608.0,0.0003010737709701061
5120.0,0.0015476166736334562
5632.0,6.129473331384361e-05
6144.0,-0.0009941229363903403
6656.0,0.00013158554793335497
7168.0,-0.0005276207812130451
7680.0,-0.003261574311181903
8192.0,-0.002668247325345874
9216.0,-0.0013557600323110819
10240.0,-0.001164574408903718
11264.0,-0.0001079874491551891
12288.0,-0.00024891149951145053
13312.0,-0.0003403885057196021
14336.0,-0.0017034447519108653
end
