version,3.0
numOfCh,1
type,point
parent_name,80-cuts
ch_type,1_1
kcount,1
numberNandB,1
brightnessNandB,1
carpet pos,0
pc,0
Time (ms),CH1 Auto-Correlation
1.0,0.09161577373743057
2.0,0.08426376432180405
3.0,0.07809199392795563
4.0,0.07266226410865784
5.0,0.06795671582221985
6.0,0.06372774392366409
7.0,0.05985972657799721
8.0,0.056328658014535904
9.0,0.05301335081458092
10.0,0.04996195435523987
11.0,0.047407183796167374
12.0,0.04507998377084732
13.0,0.04283829405903816
14.0,0.04094342887401581
15.0,0.039166443049907684
16.0,0.03746916726231575
18.0,0.03489867225289345
20.0,0.03256369009613991
22.0,0.03052571974694729
24.0,0.028748679906129837
26.0,0.0272784773260355
28.0,0.025899598374962807
30.0,0.024645628407597542
32.0,0.023287871852517128
36.0,0.020976267755031586
40.0,0.018815940245985985
44.0,0.01648549921810627
48.0,0.014989304356276989
52.0,0.01342063769698143
56.0,0.011393195949494839
60.0,0.010564279742538929
64.0,0.009958828799426556
72.0,0.010248442180454731
80.0,0.008913261815905571
88.0,0.008266804739832878
96.0,0.0077472045086324215
104.0,0.007022018078714609
112.0,0.004707144573330879
120.0,0.004173357971012592
128.0,0.004726221784949303
144.0,0.007048002909868956
160.0,0.004354247823357582
176.0,0.0034735221415758133
192.0,0.0005004098638892174
208.0,-0.002615996403619647
224.0,-0.0003438341664150357
240.0,0.0006558930617757142
256.0,0.0016092949081212282
288.0,0.004495690111070871
320.0,0.0033402233384549618
352.0,0.002020981628447771
384.0,0.0014609150821343064
416.0,0.003990738186985254
448.0,0.004947838839143515
480.0,0.0010975283803418279
512.0,-0.0006573408027179539
576.0,-0.004528835881501436
640.0,-0.002116147195920348
704.0,0.0004264394810888916
768.0,0.004100475925952196
832.0,-0.0004341872700024396
896.0,-0.0018081302987411618
960.0,-0.004547774791717529
1024.0,-0.0011863975087180734
1152.0,0.00017987043247558177
1280.0,-0.0032150610350072384
1408.0,-0.004238758701831102
1536.0,-0.0019137238850817084
1664.0,-0.004465996287763119
1792.0,-0.005150012671947479
1920.0,-0.0006847443873994052
2048.0,-0.003668154589831829
2304.0,-0.00012849386257585138
2560.0,0.0021399648394435644
2816.0,-0.001020093564875424
3072.0,-0.003921255469322205
3328.0,0.0023971707560122013
3584.0,0.0032130260951817036
3840.0,-0.002881819847971201
4096.0,-0.004122811369597912
4608.0,0.0005176498671062291
5120.0,0.0036611128598451614
5632.0,0.003990426193922758
6144.0,-0.0004829264071304351
6656.0,-0.0015398175455629826
7168.0,3.1633073376724496e-05
7680.0,-0.003414259059354663
8192.0,-0.003425504080951214
9216.0,0.0017197920242324471
10240.0,-0.001863938639871776
11264.0,0.0017540518892928958
12288.0,0.002335882745683193
13312.0,-0.008007354103028774
14336.0,0.004600015003234148
end
