version,3.0
numOfCh,1
type,point
parent_name,80-cuts
ch_type,1_1
kcount,1
numberNandB,1
brightnessNandB,1
carpet pos,0
pc,0
Time (ms),CH1 Auto-Correlation
1.0,0.0308461245149374
2.0,0.02863604947924614
3.0,0.026712916791439056
4.0,0.024998333305120468
5.0,0.02345636859536171
6.0,0.02204267308115959
7.0,0.02076095901429653
8.0,0.019609268754720688
9.0,0.018537817522883415
10.0,0.017582697793841362
11.0,0.01667260192334652
12.0,0.01588033325970173
13.0,0.015217829495668411
14.0,0.014661312103271484
15.0,0.014111479744315147
16.0,0.01354600302875042
18.0,0.012667419388890266
20.0,0.011985288932919502
22.0,0.011262628249824047
24.0,0.010524837300181389
26.0,0.009827332571148872
28.0,0.009225280955433846
30.0,0.00870276615023613
32.0,0.008259318768978119
36.0,0.007473539561033249
40.0,0.006536680739372969
44.0,0.00565883656963706
48.0,0.005148683674633503
52.0,0.004494556691497564
56.0,0.0039788540452718735
60.0,0.0034675162751227617
64.0,0.0026174660306423903
72.0,0.0012923239264637232
80.0,-4.223977884976193e-05
88.0,-0.0009554197895340621
96.0,-0.0009871554793789983
104.0,-0.0006481112795881927
112.0,-0.0006465008482336998
120.0,-0.0002708366373553872
128.0,0.00011091584747191519
144.0,0.0005009695305489004
160.0,0.00037703904672525823
176.0,-0.00019167493155691773
192.0,0.00046435545664280653
208.0,-0.0002636576828081161
224.0,-0.000325811211951077
240.0,7.528393325628713e-05
256.0,-0.00026402444927953184
288.0,-0.0005424015107564628
320.0,-0.00013009054237045348
352.0,-0.0005305714439600706
384.0,-0.0006914612022228539
416.0,-0.00045265135122463107
448.0,-0.00016808341024443507
480.0,-0.0006145075894892216
512.0,-6.782390846638009e-05
576.0,0.0007239547558128834
640.0,0.0013830128591507673
704.0,0.0009609434055164456
768.0,0.0008093861397355795
832.0,-0.0012722986284643412
896.0,0.00039793344330973923
960.0,-0.0001852470450103283
1024.0,-0.001044439384713769
1152.0,0.00012139337923144922
1280.0,0.0007663554861210287
1408.0,-0.0004494846216402948
1536.0,0.0004527988494373858
1664.0,-1.441909080313053e-05
1792.0,-6.849892815807834e-05
1920.0,0.00034744557342492044
2048.0,-0.0007323763566091657
2304.0,-0.0003158806939609349
2560.0,-0.0004708353662863374
2816.0,-8.208332292269915e-05
3072.0,-0.0002862382389139384
3328.0,-0.0002625030465424061
3584.0,0.0003208744456060231
3840.0,-0.000513620616402477
4096.0,-4.123821054236032e-05
4608.0,0.00010479079355718568
5120.0,-0.00019368909124750644
5632.0,-0.0004878836334683001
6144.0,-0.0008908600430004299
6656.0,-0.0006021627341397107
7168.0,-5.3717441915068775e-05
7680.0,-0.00019487860845401883
8192.0,9.824940207181498e-05
9216.0,0.00046102231135591865
10240.0,-0.0003578464384190738
11264.0,0.0002070544142043218
12288.0,0.0010101584484800696
13312.0,0.00019335643446538597
14336.0,-0.0013280364219099283
end
