version,3.0
numOfCh,1
type,point
parent_name,80-cuts
ch_type,1_1
kcount,1
numberNandB,1
brightnessNandB,1
carpet pos,0
pc,0
Time (ms),CH1 Auto-Correlation
1.0,0.041236553341150284
2.0,0.037847086787223816
3.0,0.034936755895614624
4.0,0.03241412714123726
5.0,0.030244100838899612
6.0,0.02835611253976822
7.0,0.026580989360809326
8.0,0.025044715031981468
9.0,0.023675521835684776
10.0,0.02249234914779663
11.0,0.0215167123824358
12.0,0.020515955984592438
13.0,0.019574759528040886
14.0,0.01864226907491684
15.0,0.017732048407197
16.0,0.016855135560035706
18.0,0.015429756604135036
20.0,0.014125307090580463
22.0,0.012920227833092213
24.0,0.011733275838196278
26.0,0.010715451091527939
28.0,0.009995209984481335
30.0,0.009358622133731842
32.0,0.008714870549738407
36.0,0.007705178577452898
40.0,0.007237444631755352
44.0,0.0067186555825173855
48.0,0.00564696965739131
52.0,0.004668231587857008
56.0,0.004260255489498377
60.0,0.003916294779628515
64.0,0.0036056500393897295
72.0,0.002748493105173111
80.0,0.001741885906085372
88.0,0.0013369520893320441
96.0,0.0015536071732640266
104.0,0.0011297086020931602
112.0,0.0007581554818898439
120.0,0.0007807990768924356
128.0,0.000544378359336406
144.0,0.0007797407452017069
160.0,0.0012049127835780382
176.0,0.001927387434989214
192.0,0.0025397450663149357
208.0,0.0022299629636108875
224.0,0.003131783101707697
240.0,0.0033706005197018385
256.0,0.00173117162194103
288.0,0.0021725476253777742
320.0,0.0005324183730408549
352.0,0.00012571385013870895
384.0,0.001570039545185864
416.0,-0.0004195731889922172
448.0,0.00012744267587549984
480.0,0.0001301680167671293
512.0,0.00044386376976035535
576.0,0.0005182119202800095
640.0,-0.0013016430893912911
704.0,0.00024720540386624634
768.0,0.0004355829441919923
832.0,-0.00290086236782372
896.0,-0.00044390166294761
960.0,-0.0010857994202524424
1024.0,-0.0018835655646398664
1152.0,-0.0008669304079376161
1280.0,-0.0011060343822464347
1408.0,-0.0025215575005859137
1536.0,-0.0008103474974632263
1664.0,7.031810673652217e-05
1792.0,0.0010068946285173297
1920.0,0.0016708828043192625
2048.0,-0.0002293409634148702
2304.0,0.0008377368794754148
2560.0,0.0010180436074733734
2816.0,-4.933499440085143e-05
3072.0,-0.0006165380473248661
3328.0,-0.0002904473221860826
3584.0,0.00010129961447091773
3840.0,0.00025409291265532374
4096.0,0.0006136769079603255
4608.0,0.0005914569483138621
5120.0,7.459788321284577e-05
5632.0,-0.0015418417751789093
6144.0,-0.0006800430128350854
6656.0,0.0003073991392739117
7168.0,0.0014559412375092506
7680.0,0.0007248125621117651
8192.0,-0.0015076223062351346
9216.0,0.00026183659792877734
10240.0,0.0006902036257088184
11264.0,-0.001627476536668837
12288.0,6.265931006055325e-05
13312.0,-0.0009815534576773643
14336.0,0.001336613204330206
end
