version,3.0
numOfCh,1
type,point
parent_name,80-cuts
ch_type,1_1
kcount,1
numberNandB,1
brightnessNandB,1
carpet pos,0
pc,0
Time (ms),CH1 Auto-Correlation
1.0,0.039445411413908005
2.0,0.03604705631732941
3.0,0.03311453387141228
4.0,0.030556440353393555
5.0,0.028353171423077583
6.0,0.026341907680034637
7.0,0.02464582584798336
8.0,0.023082852363586426
9.0,0.021531561389565468
10.0,0.020166030153632164
11.0,0.01901353895664215
12.0,0.017992548644542694
13.0,0.01710887812077999
14.0,0.016225770115852356
15.0,0.015446384437382221
16.0,0.014757541008293629
18.0,0.013646809384226799
20.0,0.012660698965191841
22.0,0.011769174598157406
24.0,0.011098973453044891
26.0,0.010575762949883938
28.0,0.01002257876098156
30.0,0.009607271291315556
32.0,0.009422819130122662
36.0,0.008584809489548206
40.0,0.00763245765119791
44.0,0.006742230616509914
48.0,0.0065528396517038345
52.0,0.00657065212726593
56.0,0.006493461783975363
60.0,0.005837757606059313
64.0,0.005030658561736345
72.0,0.004031266085803509
80.0,0.0031377028208225965
88.0,0.002242758171632886
96.0,0.0003915636334568262
104.0,-0.0004292368539609015
112.0,-0.00026976573280990124
120.0,-0.0005165556212887168
128.0,-0.0006257449858821929
144.0,-0.00035005886456929147
160.0,-0.00032865427783690393
176.0,-0.0005144125898368657
192.0,-0.0009346888982690871
208.0,-0.0011109011247754097
224.0,-0.0004954234464094043
240.0,-0.00017681503959465772
256.0,0.0012081407476216555
288.0,0.000823928858153522
320.0,-0.0001142645487561822
352.0,-0.00045609366497956216
384.0,-0.0005910245818085968
416.0,-0.0012934961123391986
448.0,7.084404933266342e-05
480.0,0.0008051255717873573
512.0,0.0009803558932617307
576.0,0.0005276143201626837
640.0,7.084539538482204e-05
704.0,-0.0004502472293097526
768.0,-0.0006314237252809107
832.0,0.00048088369658216834
896.0,0.0012103208573535085
960.0,0.000780315778683871
1024.0,0.0011414267355576158
1152.0,0.001131341210566461
1280.0,-0.0007701057475060225
1408.0,0.0014735908480361104
1536.0,-0.0003435789549257606
1664.0,0.00044005169183947146
1792.0,-0.0008741905330680311
1920.0,0.0009606434032320976
2048.0,-0.0005675166030414402
2304.0,-0.0017046359134837985
2560.0,0.00038290827069431543
2816.0,-8.479420648654923e-05
3072.0,-0.0010397022124379873
3328.0,-0.0005880083190277219
3584.0,0.0003480944433249533
3840.0,0.00011420655937399715
4096.0,3.653919338830747e-05
4608.0,-0.0006237095803953707
5120.0,-0.0006218691123649478
5632.0,-0.0002072005590889603
6144.0,-0.00046097818994894624
6656.0,-0.00021280629152897745
7168.0,-0.00017083702550735325
7680.0,0.0005033705965615809
8192.0,0.00010725432366598397
9216.0,0.00021532154642045498
10240.0,0.00047629885375499725
11264.0,0.00021011674834880978
12288.0,-0.000608628208283335
13312.0,-0.0010024785296991467
14336.0,-0.00047129689482972026
end
