version,3.0
numOfCh,1
type,point
parent_name,80-cuts
ch_type,1_1
kcount,1
numberNandB,1
brightnessNandB,1
carpet pos,0
pc,0
Time (ms),CH1 Auto-Correlation
1.0,0.04120103642344475
2.0,0.037863362580537796
3.0,0.03495155647397041
4.0,0.03247981518507004
5.0,0.03034217841923237
6.0,0.028414256870746613
7.0,0.026721768081188202
8.0,0.025034449994564056
9.0,0.02341233566403389
10.0,0.02191143110394478
11.0,0.02059183642268181
12.0,0.01946614310145378
13.0,0.018508799374103546
14.0,0.017601270228624344
15.0,0.016789602115750313
16.0,0.015974558889865875
18.0,0.014414073899388313
20.0,0.013079262338578701
22.0,0.01190097350627184
24.0,0.010903758928179741
26.0,0.009810828603804111
28.0,0.008729885332286358
30.0,0.007906694896519184
32.0,0.007160836830735207
36.0,0.006146612111479044
40.0,0.005200828425586224
44.0,0.0042948187328875065
48.0,0.0038794397842139006
52.0,0.003811701200902462
56.0,0.0035103382542729378
60.0,0.0032418575137853622
64.0,0.0031090877018868923
72.0,0.0032469562720507383
80.0,0.0030028061009943485
88.0,0.0026103504933416843
96.0,0.0022386680357158184
104.0,0.0021585903596132994
112.0,0.0014829644933342934
120.0,0.00017318125173915178
128.0,-0.0008763695950619876
144.0,-0.0006012045196257532
160.0,-0.0008772725122980773
176.0,-3.787917739828117e-05
192.0,0.000621953746303916
208.0,0.0002625226625241339
224.0,8.807230915408581e-05
240.0,-0.0003962821210734546
256.0,-0.0009526710491627455
288.0,-7.40556642995216e-05
320.0,-0.0012911385856568813
352.0,-0.002439365489408374
384.0,-0.002395506715402007
416.0,-0.0015085774939507246
448.0,-0.0010611155303195119
480.0,-0.00035308473161421716
512.0,0.00013768232020083815
576.0,0.001177252153865993
640.0,0.001586218480952084
704.0,0.0005114965606480837
768.0,-0.0005011885659769177
832.0,-0.0010548218851909041
896.0,-0.0010408058296889067
960.0,-0.001402426976710558
1024.0,-0.0017036806093528867
1152.0,-0.0017803648952394724
1280.0,0.0013808270450681448
1408.0,0.00011123266449430957
1536.0,0.00017314004071522504
1664.0,-0.0015886458568274975
1792.0,-0.0004985359846614301
1920.0,0.0017294042045250535
2048.0,-8.936080848798156e-05
2304.0,-0.0003468551149126142
2560.0,-0.0005290962872095406
2816.0,0.0006331449840217829
3072.0,5.4187894420465454e-06
3328.0,0.00012588605750352144
3584.0,0.0001746861671563238
3840.0,-0.0007812731782905757
4096.0,-0.00048061105189844966
4608.0,-0.00044181913835927844
5120.0,0.0004149179148953408
5632.0,0.00019841115863528103
6144.0,-0.00012264723773114383
6656.0,-0.0007548722787760198
7168.0,-3.307920997031033e-05
7680.0,0.00035143407876603305
8192.0,0.0006312616751529276
9216.0,0.0003791015187744051
10240.0,-0.0007098333444446325
11264.0,-1.265436912945006e-05
12288.0,0.00076955312397331
13312.0,7.374131382675841e-05
14336.0,-0.0009502880275249481
end
