version,3.0
numOfCh,1
type,point
parent_name,80-cuts
ch_type,1_1
kcount,1
numberNandB,1
brightnessNandB,1
carpet pos,0
pc,0
Time (ms),CH1 Auto-Correlation
1.0,0.02737448364496231
2.0,0.025076979771256447
3.0,0.02312822826206684
4.0,0.02146226540207863
5.0,0.019948001950979233
6.0,0.01858888752758503
7.0,0.017375018447637558
8.0,0.0162617489695549
9.0,0.015316959470510483
10.0,0.014470269903540611
11.0,0.013696541078388691
12.0,0.012913527898490429
13.0,0.012142926454544067
14.0,0.011437354609370232
15.0,0.010847331024706364
16.0,0.01032762136310339
18.0,0.009400879964232445
20.0,0.008653265424072742
22.0,0.008063571527600288
24.0,0.007573320064693689
26.0,0.007123265881091356
28.0,0.0066626062616705894
30.0,0.006356844212859869
32.0,0.006046471185982227
36.0,0.0055188522674143314
40.0,0.004936650861054659
44.0,0.004377768374979496
48.0,0.0037234718911349773
52.0,0.0032644658349454403
56.0,0.0028136970940977335
60.0,0.002273346995934844
64.0,0.0020880394149571657
72.0,0.002147705527022481
80.0,0.002093902323395014
88.0,0.001975974766537547
96.0,0.00195848336443305
104.0,0.0020369160920381546
112.0,0.001587979611940682
120.0,0.0009375752997584641
128.0,0.0007185810245573521
144.0,-0.0004436651070136577
160.0,-0.0017379984492436051
176.0,-0.002335360972210765
192.0,-0.002302609384059906
208.0,-0.001132827834226191
224.0,-0.0002077323879348114
240.0,-0.0007206310401670635
256.0,0.00013131240848451853
288.0,-0.00013158518413547426
320.0,2.4935094188549556e-05
352.0,-0.0005642325268127024
384.0,-0.00011201838788110763
416.0,-0.0007418861496262252
448.0,-0.0018267764244228601
480.0,-0.0023083144333213568
512.0,-0.0020264785271137953
576.0,-0.0017064743442460895
640.0,-0.0002975220268126577
704.0,0.0018406850285828114
768.0,0.0012349550379440188
832.0,0.0011426692362874746
896.0,-0.0001193391508422792
960.0,0.0008446601568721235
1024.0,0.0005858505610376596
1152.0,-1.1617004929576069e-05
1280.0,-0.0008560139103792608
1408.0,0.00032493326580151916
1536.0,0.00020116755331400782
1664.0,0.00028982546064071357
1792.0,0.0005115078529343009
1920.0,-0.0008399076759815216
2048.0,-0.000624137173872441
2304.0,-0.0008760833879932761
2560.0,0.0003816103853750974
2816.0,-0.00016523944213986397
3072.0,-0.0009700214141048491
3328.0,-0.00027679713093675673
3584.0,0.0003136325685773045
3840.0,-0.00029916607309132814
4096.0,-0.00046786502934992313
4608.0,-0.00025095290038734674
5120.0,-0.00012651736324187368
5632.0,1.2459170193324098e-06
6144.0,0.000598240876570344
6656.0,0.00034432453685440123
7168.0,-0.0004278453125152737
7680.0,9.479274740442634e-05
8192.0,0.000339463003911078
9216.0,-0.0003731546748895198
10240.0,0.0006517187575809658
11264.0,0.0002445259306114167
12288.0,0.0004970841109752655
13312.0,-0.0007230448536574841
14336.0,-0.00010455743176862597
end
