version,3.0
numOfCh,1
type,point
parent_name,80-cuts
ch_type,1_1
kcount,1
numberNandB,1
brightnessNandB,1
carpet pos,0
pc,0
Time (ms),CH1 Auto-Correlation
1.0,0.026466181501746178
2.0,0.024284187704324722
3.0,0.02237248606979847
4.0,0.020625673234462738
5.0,0.019065868109464645
6.0,0.017710333690047264
7.0,0.016491994261741638
8.0,0.015371572226285934
9.0,0.014386641792953014
10.0,0.013527601025998592
11.0,0.012811051681637764
12.0,0.012156839482486248
13.0,0.01154722087085247
14.0,0.011036972515285015
15.0,0.010549797676503658
16.0,0.010068905539810658
18.0,0.009177821688354015
20.0,0.008420929312705994
22.0,0.0077143143862485886
24.0,0.00711855199187994
26.0,0.006584874354302883
28.0,0.0061195604503154755
30.0,0.005694960243999958
32.0,0.005242379382252693
36.0,0.0043518273159861565
40.0,0.0034525718074291945
44.0,0.0029762277845293283
48.0,0.0029532078187912703
52.0,0.0030967032071202993
56.0,0.0030200656037777662
60.0,0.0026014663744717836
64.0,0.002324608387425542
72.0,0.0019800029695034027
80.0,0.0016531313303858042
88.0,0.001461182488128543
96.0,0.001222075428813696
104.0,0.0012330184690654278
112.0,0.00137192418333143
120.0,0.0014799104537814856
128.0,0.0010353452526032925
144.0,0.0010006377706304193
160.0,0.0005363236414268613
176.0,-7.566488056909293e-05
192.0,-1.1998752597719431e-05
208.0,-0.00031782235600985587
224.0,-0.0003009203355759382
240.0,-0.0008011693134903908
256.0,-0.0006494006374850869
288.0,0.00016506797692272812
320.0,0.000383166188839823
352.0,0.0018636462045833468
384.0,0.0008039245731197298
416.0,0.0008738639298826456
448.0,0.0013692618813365698
480.0,0.0018199121113866568
512.0,0.001457309816032648
576.0,1.4593029845855199e-05
640.0,0.00010495611059013754
704.0,0.00031590816797688603
768.0,-0.0003655008040368557
832.0,9.766826406121254e-05
896.0,0.0003457549028098583
960.0,0.00037984768277965486
1024.0,0.000299645442282781
1152.0,-0.000175824185134843
1280.0,-0.0004933172021992505
1408.0,0.00044812526903115213
1536.0,-0.0008236076682806015
1664.0,0.00012036669795634225
1792.0,-9.143518400378525e-05
1920.0,-0.00039369435398839414
2048.0,-0.000565135502256453
2304.0,0.0007719866116531193
2560.0,-3.26611079799477e-05
2816.0,0.000603229331318289
3072.0,-0.0005701537593267858
3328.0,0.0004404666251502931
3584.0,-0.0007187420851550996
3840.0,3.359018955961801e-05
4096.0,-0.00032919796649366617
4608.0,-0.0001732468226691708
5120.0,-0.00019196986977476627
5632.0,-0.0003196291218046099
6144.0,-0.0009351429180242121
6656.0,-0.0007674939115531743
7168.0,-0.00015336272190324962
7680.0,0.00024368063895963132
8192.0,-0.0003563605132512748
9216.0,-0.0001986353163374588
10240.0,0.0001492977316956967
11264.0,-2.8249478418729268e-05
12288.0,0.001241864520125091
13312.0,0.0013340224977582693
14336.0,-0.0010951710864901543
end
