version,3.0
numOfCh,1
type,point
parent_name,80-cuts
ch_type,1_1
kcount,1
numberNandB,1
brightnessNandB,1
carpet pos,0
pc,0
Time (ms),CH1 Auto-Correlation
1.0,0.09041377156972885
2.0,0.08303891122341156
3.0,0.07699864357709885
4.0,0.07170656323432922
5.0,0.0669642761349678
6.0,0.06292494386434555
7.0,0.05941687896847725
8.0,0.0562761127948761
9.0,0.05356946960091591
10.0,0.0510047972202301
11.0,0.04854521155357361
12.0,0.04638379439711571
13.0,0.044447991997003555
14.0,0.04259248077869415
15.0,0.04067964479327202
16.0,0.03905685991048813
18.0,0.036704789847135544
20.0,0.03470630198717117
22.0,0.033101096749305725
24.0,0.031562380492687225
26.0,0.029995553195476532
28.0,0.028455734252929688
30.0,0.027393614873290062
32.0,0.026750473305583
36.0,0.025621281936764717
40.0,0.025101207196712494
44.0,0.023694250732660294
48.0,0.021273205056786537
52.0,0.019151363521814346
56.0,0.017654739320278168
60.0,0.016393935307860374
64.0,0.015496404841542244
72.0,0.013266492635011673
80.0,0.01152463536709547
88.0,0.009111971594393253
96.0,0.007979800924658775
104.0,0.007803845219314098
112.0,0.00606541195884347
120.0,0.00382621050812304
128.0,0.0013902757782489061
144.0,0.0017105627339333296
160.0,0.0022527500987052917
176.0,0.0017362249782308936
192.0,-0.0018149552633985877
208.0,-0.002112895017489791
224.0,-0.0013174875639379025
240.0,-0.002092585898935795
256.0,-0.001153298537246883
288.0,-0.00416593998670578
320.0,-0.0037366861943155527
352.0,-0.001630584360100329
384.0,-0.0029260485898703337
416.0,-0.002243333961814642
448.0,-0.003140575485303998
480.0,-0.0011211574310436845
512.0,0.0013089783024042845
576.0,6.729417509632185e-05
640.0,-0.0031342555303126574
704.0,-0.0016022969502955675
768.0,-0.0010743285529315472
832.0,0.0002096423995681107
896.0,0.0034199494402855635
960.0,0.0044991979375481606
1024.0,0.0029649585485458374
1152.0,-0.0011247217189520597
1280.0,-0.0036101562436670065
1408.0,-0.0027436830569058657
1536.0,0.0030632605776190758
1664.0,0.0038673412054777145
1792.0,0.001294219633564353
1920.0,-0.0015657867770642042
2048.0,-0.0021507490891963243
2304.0,-0.0029701648745685816
2560.0,0.003197145415470004
2816.0,-0.0059332032687962055
3072.0,0.0004760211450047791
3328.0,-0.0013683938886970282
3584.0,9.702748502604663e-05
3840.0,-0.004951937589794397
4096.0,7.434282451868057e-05
4608.0,-0.0006894696271046996
5120.0,-0.0008472389308735728
5632.0,0.0007592284237034619
6144.0,0.0015263129025697708
6656.0,0.0021622315980494022
7168.0,0.0032968660816550255
7680.0,0.0016937064938247204
8192.0,-0.0010349496733397245
9216.0,-0.001896649831905961
10240.0,0.00029225824982859194
11264.0,-0.006146757863461971
12288.0,0.0033176743891090155
13312.0,0.0013909474946558475
14336.0,0.002405766164883971
end
