version,3.0
numOfCh,1
type,point
parent_name,80-cuts
ch_type,1_1
kcount,1
numberNandB,1
brightnessNandB,1
carpet pos,0
pc,0
Time (ms),CH1 Auto-Correlation
1.0,0.026648076251149178
2.0,0.024407895281910896
3.0,0.02253362350165844
4.0,0.020892342552542686
5.0,0.019444487988948822
6.0,0.01818801835179329
7.0,0.01709824427962303
8.0,0.016123628243803978
9.0,0.015256787650287151
10.0,0.014441296458244324
11.0,0.01373777724802494
12.0,0.013107427395880222
13.0,0.012599128298461437
14.0,0.01212168950587511
15.0,0.011699479073286057
16.0,0.011281495913863182
18.0,0.010414385236799717
20.0,0.009564004838466644
22.0,0.008767738938331604
24.0,0.008053362369537354
26.0,0.007502546068280935
28.0,0.0070934598334133625
30.0,0.006717704236507416
32.0,0.0062434789724648
36.0,0.005350224673748016
40.0,0.004643620923161507
44.0,0.004012550227344036
48.0,0.0034260654356330633
52.0,0.003099807072430849
56.0,0.0029138484969735146
60.0,0.0027954503893852234
64.0,0.002455503912642598
72.0,0.001788800349459052
80.0,0.0014376586768776178
88.0,0.0011143914889544249
96.0,0.0009546965011395514
104.0,0.0008585313335061073
112.0,0.0009205077076330781
120.0,0.0013687091413885355
128.0,0.0017038666410371661
144.0,0.0012548074591904879
160.0,0.0004623713612090796
176.0,0.00016896358283702284
192.0,-0.00019052266725338995
208.0,-0.0004435605078469962
224.0,-0.0010012314887717366
240.0,-0.0012140196049585938
256.0,-0.0007857215823605657
288.0,-0.00019661815895233303
320.0,-0.0006459880387410522
352.0,-0.0004346857313066721
384.0,0.0006928408402018249
416.0,0.0008176842238754034
448.0,-5.1011767936870456e-05
480.0,-0.001086064730770886
512.0,-0.0011666420614346862
576.0,-0.0009506843634881079
640.0,-0.0011616419069468975
704.0,-0.0003144498623441905
768.0,0.0008563799783587456
832.0,0.0012144658248871565
896.0,0.001351298182271421
960.0,0.00035544345155358315
1024.0,-0.0008705944055691361
1152.0,0.0002497024252079427
1280.0,0.0006965306820347905
1408.0,-0.00023399264318868518
1536.0,-0.000870434392709285
1664.0,-0.0008912315242923796
1792.0,-0.0008542358409613371
1920.0,0.00027867077733390033
2048.0,0.0005167172639630735
2304.0,-0.0008414634503424168
2560.0,-7.423174974974245e-05
2816.0,-0.0005274074501357973
3072.0,-0.0007957132183946669
3328.0,0.0008496363880112767
3584.0,-0.0008419962832704186
3840.0,-0.0006007760530337691
4096.0,4.9815145757747814e-05
4608.0,0.0002172084350604564
5120.0,-0.00031924841459840536
5632.0,0.0002440136595396325
6144.0,-0.000334648706484586
6656.0,0.0005066267331130803
7168.0,4.18038725911174e-05
7680.0,0.00027183847851119936
8192.0,5.315468297339976e-05
9216.0,-0.0002454565546941012
10240.0,-0.0003236717311665416
11264.0,0.0004419165779836476
12288.0,-0.0006456454284489155
13312.0,-0.0007970856386236846
14336.0,0.0009150484693236649
end
