version,3.0
numOfCh,1
type,point
parent_name,80-cuts
ch_type,1_1
kcount,1
numberNandB,1
brightnessNandB,1
carpet pos,0
pc,0
Time (ms),CH1 Auto-Correlation
1.0,0.08959624916315079
2.0,0.08222601562738419
3.0,0.07564323395490646
4.0,0.06946118921041489
5.0,0.06394055485725403
6.0,0.059147633612155914
7.0,0.05487259104847908
8.0,0.05101879686117172
9.0,0.047450654208660126
10.0,0.044210463762283325
11.0,0.0411948561668396
12.0,0.03839299455285072
13.0,0.03612856939435005
14.0,0.03419768810272217
15.0,0.032624926418066025
16.0,0.03104948066174984
18.0,0.02811812423169613
20.0,0.025795938447117805
22.0,0.02390860952436924
24.0,0.022209135815501213
26.0,0.02039260044693947
28.0,0.018575629219412804
30.0,0.016964390873908997
32.0,0.01545040775090456
36.0,0.013290870934724808
40.0,0.012166560627520084
44.0,0.011697333306074142
48.0,0.011823678389191628
52.0,0.012928130105137825
56.0,0.013558040373027325
60.0,0.012876726686954498
64.0,0.01202800590544939
72.0,0.008462214842438698
80.0,0.006626627873629332
88.0,0.004622597247362137
96.0,0.003712958889082074
104.0,0.004094847943633795
112.0,0.003500427817925811
120.0,0.0023727542720735073
128.0,0.003982928581535816
144.0,0.005088719539344311
160.0,0.004878952633589506
176.0,0.0035021447110921144
192.0,0.003009773325175047
208.0,0.002376728458330035
224.0,0.0006953470874577761
240.0,-0.00011404041288187727
256.0,-0.0013048147084191442
288.0,0.0006125157233327627
320.0,0.0024435454979538918
352.0,0.0032454049214720726
384.0,0.0067704832181334496
416.0,0.004161316901445389
448.0,0.003910284489393234
480.0,0.00011167782213306054
512.0,0.0009038918651640415
576.0,-0.001408601296134293
640.0,0.0009710590238682926
704.0,0.002127663930878043
768.0,0.004707747139036655
832.0,0.0020751263946294785
896.0,-0.0005334772286005318
960.0,-0.001111139659769833
1024.0,0.0009099562303163111
1152.0,0.0013063428923487663
1280.0,0.00015206974057946354
1408.0,-0.0006425344035960734
1536.0,0.002202229108661413
1664.0,-0.0004509056161623448
1792.0,-0.0018342412076890469
1920.0,-0.0009147365926764905
2048.0,-0.0027426923625171185
2304.0,-0.002779546193778515
2560.0,-0.002879396779462695
2816.0,0.0005984444287605584
3072.0,0.0017937575466930866
3328.0,0.0006994679570198059
3584.0,0.0018853339133784175
3840.0,-0.0010974010219797492
4096.0,-0.0006278143846429884
4608.0,0.0017527600284665823
5120.0,-0.0007119554211385548
5632.0,-0.000296837737550959
6144.0,0.00021388627646956593
6656.0,-0.0006941274623386562
7168.0,0.0019185200799256563
7680.0,-0.0006104861386120319
8192.0,-0.002761035691946745
9216.0,-0.0021878473926335573
10240.0,0.0022804595064371824
11264.0,0.0023502397816628218
12288.0,-0.003330774372443557
13312.0,-0.00766429677605629
14336.0,-0.002133450470864773
end
