version,3.0
numOfCh,1
type,point
parent_name,80-cuts
ch_type,1_1
kcount,1
numberNandB,1
brightnessNandB,1
carpet pos,0
pc,0
Time (ms),CH1 Auto-Correlation
1.0,0.029768209904432297
2.0,0.027424775063991547
3.0,0.025393910706043243
4.0,0.02361614815890789
5.0,0.02196689322590828
6.0,0.02052333392202854
7.0,0.019266098737716675
8.0,0.0181630440056324
9.0,0.01718318648636341
10.0,0.01630871742963791
11.0,0.015500826761126518
12.0,0.014802813529968262
13.0,0.014193435199558735
14.0,0.013606615364551544
15.0,0.013044515624642372
16.0,0.012510617263615131
18.0,0.011625941842794418
20.0,0.010890229605138302
22.0,0.010238409042358398
24.0,0.009675486013293266
26.0,0.009266268461942673
28.0,0.00881690252572298
30.0,0.008241032250225544
32.0,0.007704653311520815
36.0,0.006695297081023455
40.0,0.005983094219118357
44.0,0.005381200462579727
48.0,0.005102936644107103
52.0,0.004959382116794586
56.0,0.0047008381225168705
60.0,0.004581877961754799
64.0,0.004222790244966745
72.0,0.003915955312550068
80.0,0.003409830154851079
88.0,0.0028857532888650894
96.0,0.002493060426786542
104.0,0.002012041164562106
112.0,0.0018259786302223802
120.0,0.001918323920108378
128.0,0.0020129673648625612
144.0,0.0010410478571429849
160.0,0.0004488835111260414
176.0,5.875143688172102e-05
192.0,-1.0105270121130161e-05
208.0,0.00041553995106369257
224.0,0.0013582403771579266
240.0,0.0012361055705696344
256.0,0.0008198769064620137
288.0,0.00014549630577675998
320.0,0.00029106545844115317
352.0,-0.00012950396921951324
384.0,-0.0003599014016799629
416.0,-0.0003721963439602405
448.0,2.852515990525717e-06
480.0,0.0003534493735060096
512.0,0.0010356662096455693
576.0,0.0005087032914161682
640.0,0.0004671166243497282
704.0,0.0011198901338502765
768.0,0.0008901931578293443
832.0,0.0002506083401385695
896.0,0.0006286099087446928
960.0,0.0009763154084794223
1024.0,0.0007974299369379878
1152.0,0.0008014202467165887
1280.0,0.0009473147802054882
1408.0,0.000172872852999717
1536.0,-0.00021140373428352177
1664.0,-0.00011125783930765465
1792.0,-0.00043227412970736623
1920.0,-0.0002611450618132949
2048.0,-0.0001606579462531954
2304.0,0.0003707630094140768
2560.0,-8.276585140265524e-05
2816.0,0.0008807340054772794
3072.0,-0.00098038325086236
3328.0,0.00011589392670430243
3584.0,-0.00013545423280447721
3840.0,-0.0004881482745986432
4096.0,-0.0008004035335034132
4608.0,-0.0003802715218625963
5120.0,-0.00039586395723745227
5632.0,0.00015887762128841132
6144.0,0.0006342301494441926
6656.0,0.00014809933782089502
7168.0,0.0004704404273070395
7680.0,0.0006505055353045464
8192.0,0.0004712302179541439
9216.0,-0.0015200893394649029
10240.0,-0.0009620995260775089
11264.0,-0.0009197418112307787
12288.0,-0.0006450085202232003
13312.0,-8.436170901404694e-05
14336.0,-0.00012200128549011424
end
