version,3.0
numOfCh,1
type,point
parent_name,80-cuts
ch_type,1_1
kcount,1
numberNandB,1
brightnessNandB,1
carpet pos,0
pc,0
Time (ms),CH1 Auto-Correlation
1.0,0.03918042406439781
2.0,0.03588211163878441
3.0,0.03305843472480774
4.0,0.030611103400588036
5.0,0.02844606339931488
6.0,0.0266327615827322
7.0,0.02489379048347473
8.0,0.023403262719511986
9.0,0.022026464343070984
10.0,0.020838718861341476
11.0,0.01983320526778698
12.0,0.018907450139522552
13.0,0.018161112442612648
14.0,0.017458470538258553
15.0,0.01681283861398697
16.0,0.016223885118961334
18.0,0.014992830343544483
20.0,0.013597043231129646
22.0,0.012314447201788425
24.0,0.011539126746356487
26.0,0.010757040232419968
28.0,0.01003070455044508
30.0,0.009461247362196445
32.0,0.008902010507881641
36.0,0.007688460871577263
40.0,0.006501020397990942
44.0,0.005590513348579407
48.0,0.004926710855215788
52.0,0.00438101589679718
56.0,0.003859724150970578
60.0,0.003622443415224552
64.0,0.0031940732151269913
72.0,0.0021307053975760937
80.0,0.0010265841847285628
88.0,-0.00033382585388608277
96.0,-0.0011944135185331106
104.0,-0.0012605164665728807
112.0,-0.0010925413807854056
120.0,-0.0010943843517452478
128.0,-0.0015019221464172006
144.0,-0.0016128986608237028
160.0,-0.0012235972099006176
176.0,-0.0002176816196879372
192.0,0.0005356734036467969
208.0,0.0004601958207786083
224.0,0.0005668546655215323
240.0,-0.00015520125452894717
256.0,0.0003202267980668694
288.0,-9.861548460321501e-05
320.0,4.615981742972508e-05
352.0,-0.0009472090750932693
384.0,-0.0012563156196847558
416.0,-0.0008781776996329427
448.0,-0.0015718486392870545
480.0,-0.000958781864028424
512.0,-0.00021189977996982634
576.0,0.0006700742524117231
640.0,0.0009489657240919769
704.0,0.0002751713909674436
768.0,0.0012680061627179384
832.0,0.0013654590584337711
896.0,0.0008092268835753202
960.0,0.0014686915092170238
1024.0,-0.0003381914575584233
1152.0,0.00038038400816731155
1280.0,-0.0009816616075113416
1408.0,-0.001548210741020739
1536.0,-3.67128559446428e-05
1664.0,0.0009856353281065822
1792.0,-0.000558355066459626
1920.0,0.00021208573889452964
2048.0,-0.0009535811841487885
2304.0,-0.0015008131740614772
2560.0,0.0011371007421985269
2816.0,-0.0004075707111041993
3072.0,-0.0024537588469684124
3328.0,-0.00013519724598154426
3584.0,0.00037629209691658616
3840.0,-0.0012885649921372533
4096.0,-0.0008558387053199112
4608.0,8.883503323886544e-05
5120.0,0.0007574614719487727
5632.0,3.809288318734616e-05
6144.0,0.0013353514950722456
6656.0,0.00022801352315582335
7168.0,0.000383049831725657
7680.0,1.2082881767128129e-05
8192.0,-0.00025817580171860754
9216.0,-0.0007622907869517803
10240.0,-0.0002898981038015336
11264.0,0.0005137357511557639
12288.0,0.00046440018923021853
13312.0,0.0001079654466593638
14336.0,-0.0006041339947842062
end
