version,3.0
numOfCh,1
type,point
parent_name,80-cuts
ch_type,1_1
kcount,1
numberNandB,1
brightnessNandB,1
carpet pos,0
pc,0
Time (ms),CH1 Auto-Correlation
1.0,0.027965685352683067
2.0,0.0258280448615551
3.0,0.023982303217053413
4.0,0.022378738969564438
5.0,0.020940588787198067
6.0,0.019673533737659454
7.0,0.01848559081554413
8.0,0.01745619811117649
9.0,0.016541441902518272
10.0,0.015689803287386894
11.0,0.01495722122490406
12.0,0.01432115864008665
13.0,0.013771817088127136
14.0,0.013210691511631012
15.0,0.01268477737903595
16.0,0.012190060690045357
18.0,0.011263394728302956
20.0,0.010372307151556015
22.0,0.00955287180840969
24.0,0.008854378946125507
26.0,0.008198020979762077
28.0,0.007529243361204863
30.0,0.0070000216364860535
32.0,0.006428809370845556
36.0,0.005741110071539879
40.0,0.005334998480975628
44.0,0.0049710460007190704
48.0,0.004875278566032648
52.0,0.0046969507820904255
56.0,0.004388280678540468
60.0,0.004056545440107584
64.0,0.00364902731962502
72.0,0.003072581021115184
80.0,0.002533674705773592
88.0,0.0022875205613672733
96.0,0.002022478496655822
104.0,0.0019862791523337364
112.0,0.0017576571553945541
120.0,0.0013388714287430048
128.0,0.0009301481186412275
144.0,0.0006577383610419929
160.0,0.0006077394355088472
176.0,0.0009537388104945421
192.0,0.0013531839940696955
208.0,0.0011819456703960896
224.0,0.00022754121164325625
240.0,-0.0003199086058884859
256.0,1.6102138033602387e-05
288.0,-0.0002749151608441025
320.0,3.7478985177585855e-05
352.0,0.0002775933244265616
384.0,-0.00016709209012333304
416.0,-0.0006695781485177577
448.0,-0.0007193285273388028
480.0,-0.0011155570391565561
512.0,-6.32654846413061e-05
576.0,-0.00018002858269028366
640.0,-0.001067597884684801
704.0,-0.0008921503904275596
768.0,-0.001480506150983274
832.0,-0.0007969840080477297
896.0,0.0011278942693024874
960.0,0.0001867942337412387
1024.0,0.001008138875477016
1152.0,0.0008149073692038655
1280.0,0.0005623325705528259
1408.0,-0.00018851077766157687
1536.0,-0.0010986370034515858
1664.0,-0.0006145749357528985
1792.0,-0.0005036712973378599
1920.0,0.0006376720266416669
2048.0,-0.0007186791626736522
2304.0,7.168084266595542e-05
2560.0,-7.750853546895087e-05
2816.0,5.147909905645065e-05
3072.0,0.00022193406766746193
3328.0,0.00034619876532815397
3584.0,0.0004134892369620502
3840.0,0.0007061996730044484
4096.0,0.0005307890824042261
4608.0,-0.00015401355631183833
5120.0,0.0005848970031365752
5632.0,-0.0006680576479993761
6144.0,0.00010992490570060909
6656.0,-8.81418091012165e-05
7168.0,-0.00019995277398265898
7680.0,-0.0011574021773412824
8192.0,-3.092111001024023e-05
9216.0,4.798800728167407e-05
10240.0,-0.0003037707065232098
11264.0,-0.0008473505731672049
12288.0,-0.00017799904162529856
13312.0,3.8894715544302016e-05
14336.0,-0.001265370869077742
end
