version,3.0
numOfCh,1
type,point
parent_name,80-cuts
ch_type,1_1
kcount,1
numberNandB,1
brightnessNandB,1
carpet pos,0
pc,0
Time (ms),CH1 Auto-Correlation
1.0,0.04651239514350891
2.0,0.04287928342819214
3.0,0.039743147790431976
4.0,0.03697546198964119
5.0,0.03460174426436424
6.0,0.0325855128467083
7.0,0.03073573112487793
8.0,0.02902364172041416
9.0,0.027563825249671936
10.0,0.02625453658401966
11.0,0.025078024715185165
12.0,0.023989984765648842
13.0,0.022826673462986946
14.0,0.021743789315223694
15.0,0.020827602595090866
16.0,0.019905604422092438
18.0,0.018301337957382202
20.0,0.016895312815904617
22.0,0.015583423897624016
24.0,0.014390118420124054
26.0,0.013233516365289688
28.0,0.012282505631446838
30.0,0.011649483814835548
32.0,0.011041242629289627
36.0,0.009857545606791973
40.0,0.008774702437222004
44.0,0.008182428777217865
48.0,0.008084168657660484
52.0,0.007986285723745823
56.0,0.00785157736390829
60.0,0.007974800653755665
64.0,0.008335279300808907
72.0,0.007804581429809332
80.0,0.006758703850209713
88.0,0.00563129922375083
96.0,0.004023284651339054
104.0,0.0030306014232337475
112.0,0.0027100942097604275
120.0,0.0024146554060280323
128.0,0.0024138824082911015
144.0,0.0021587591618299484
160.0,0.0020447068382054567
176.0,0.0020191355142742395
192.0,0.0025987534318119287
208.0,0.0030397081281989813
224.0,0.002320753177627921
240.0,0.0007039475603960454
256.0,0.000657414726447314
288.0,0.0011301959166303277
320.0,0.0005072111380286515
352.0,0.00020157979452051222
384.0,0.001034218817949295
416.0,0.0016181619139388204
448.0,0.0015029641799628735
480.0,0.0012155880685895681
512.0,0.0015245978720486164
576.0,-0.0008621319429948926
640.0,-0.0013107068371027708
704.0,-0.0014624089235439897
768.0,-0.0030181272886693478
832.0,-0.0041854544542729855
896.0,-0.002939583733677864
960.0,-0.004084370099008083
1024.0,-0.0030046552419662476
1152.0,-0.000739362440072
1280.0,0.00034196238266304135
1408.0,0.0014305049553513527
1536.0,0.0013754145475104451
1664.0,0.0017677542055025697
1792.0,0.0029026539996266365
1920.0,0.0011973804794251919
2048.0,0.0018629013793542981
2304.0,-0.0007351866806857288
2560.0,-0.0016759197460487485
2816.0,-0.0026894754264503717
3072.0,0.0008152526570484042
3328.0,0.0019514758605509996
3584.0,0.0018849599873647094
3840.0,0.0009136653970927
4096.0,-0.002698632888495922
4608.0,-0.0033547542989253998
5120.0,0.0012948877410963178
5632.0,0.0017896322533488274
6144.0,-0.001998467603698373
6656.0,-0.0006305278511717916
7168.0,0.0010627482552081347
7680.0,-0.0021922357846051455
8192.0,-0.0006782789714634418
9216.0,-0.0005722580244764686
10240.0,0.0009478297433815897
11264.0,-4.160964454058558e-05
12288.0,-0.00022513928706757724
13312.0,-5.0803304475266486e-05
14336.0,-4.339414954301901e-05
end
