version,3.0
numOfCh,1
type,point
parent_name,80-cuts
ch_type,1_1
kcount,1
numberNandB,1
brightnessNandB,1
carpet pos,0
pc,0
Time (ms),CH1 Auto-Correlation
1.0,0.02682355046272278
2.0,0.024604739621281624
3.0,0.022646136581897736
4.0,0.02102193608880043
5.0,0.019568586722016335
6.0,0.018306732177734375
7.0,0.01710769720375538
8.0,0.01606692746281624
9.0,0.015083631500601768
10.0,0.014161822386085987
11.0,0.013280113227665424
12.0,0.01247831154614687
13.0,0.011765131726861
14.0,0.011039987206459045
15.0,0.01037218514829874
16.0,0.009816398844122887
18.0,0.00890097301453352
20.0,0.008072076365351677
22.0,0.007359256502240896
24.0,0.006708389613777399
26.0,0.006050052121281624
28.0,0.0054459115490317345
30.0,0.004889954347163439
32.0,0.004371181596070528
36.0,0.003495061071589589
40.0,0.002853989601135254
44.0,0.002127987565472722
48.0,0.0015274446923285723
52.0,0.0012254129396751523
56.0,0.0012695571640506387
60.0,0.0015543195186182857
64.0,0.0017353956354781985
72.0,0.001553951296955347
80.0,0.001900186063721776
88.0,0.001985521987080574
96.0,0.002056581899523735
104.0,0.0020786577370017767
112.0,0.001835047616623342
120.0,0.0014657445717602968
128.0,0.0008758640615269542
144.0,0.0005254282150417566
160.0,0.00013359470176510513
176.0,0.0010016808519139886
192.0,0.0016320188296958804
208.0,0.0011694199638441205
224.0,0.001158839208073914
240.0,0.0011339138727635145
256.0,0.0006562140770256519
288.0,-0.00026508531300351024
320.0,0.0001634762156754732
352.0,0.0009777529630810022
384.0,0.0003181620850227773
416.0,0.0005870742024853826
448.0,0.0002804850519169122
480.0,0.000228532386245206
512.0,0.0011187468189746141
576.0,0.0005200090818107128
640.0,0.0012928283540531993
704.0,0.0007643193239346147
768.0,0.0005321811768226326
832.0,0.0010056074243038893
896.0,-0.0003786325396504253
960.0,0.00043699893285520375
1024.0,0.0001312453969148919
1152.0,0.0004408908134792
1280.0,0.0002994817914441228
1408.0,-0.0001991336903301999
1536.0,-0.0008575239917263389
1664.0,-0.00046247110003605485
1792.0,-0.00016895608860068023
1920.0,-7.76613742345944e-05
2048.0,0.00046428240602836013
2304.0,-0.00044185720616951585
2560.0,-0.0010268389014527202
2816.0,-1.3897854842070956e-05
3072.0,-0.00023492251057177782
3328.0,0.0005773785524070263
3584.0,-0.0006442019948735833
3840.0,0.000253141246503219
4096.0,0.0007286754553206265
4608.0,-0.000249476550379768
5120.0,-0.0007565334672108293
5632.0,-0.0010284243617206812
6144.0,-0.0006686571869067848
6656.0,-0.0004613625060301274
7168.0,0.00010959424253087491
7680.0,-0.0001783716434147209
8192.0,-5.1493538194336e-05
9216.0,8.91200834303163e-05
10240.0,0.00026970208273269236
11264.0,0.0009195316233672202
12288.0,0.00030958501156419516
13312.0,-0.0005831685848534107
14336.0,-0.0012455431278795004
end
