version,3.0
numOfCh,1
type,point
parent_name,80-cuts
ch_type,1_1
kcount,1
numberNandB,1
brightnessNandB,1
carpet pos,0
pc,0
Time (ms),CH1 Auto-Correlation
1.0,0.08487454801797867
2.0,0.0778360590338707
3.0,0.07174716889858246
4.0,0.0664076879620552
5.0,0.06193627044558525
6.0,0.057772062718868256
7.0,0.05383501946926117
8.0,0.050444651395082474
9.0,0.0473715215921402
10.0,0.044663675129413605
11.0,0.042292214930057526
12.0,0.0399746410548687
13.0,0.03775021806359291
14.0,0.03582210838794708
15.0,0.034123361110687256
16.0,0.03250289335846901
18.0,0.029893530532717705
20.0,0.027213895693421364
22.0,0.025004252791404724
24.0,0.02329351007938385
26.0,0.022105485200881958
28.0,0.021167142316699028
30.0,0.020233159884810448
32.0,0.01949159801006317
36.0,0.01851988211274147
40.0,0.017439063638448715
44.0,0.01658163219690323
48.0,0.015629811212420464
52.0,0.013501823879778385
56.0,0.010887276381254196
60.0,0.008677192963659763
64.0,0.007472857367247343
72.0,0.006445036735385656
80.0,0.005896070506423712
88.0,0.0051584187895059586
96.0,0.004463293589651585
104.0,0.0039040762931108475
112.0,0.002602310385555029
120.0,0.0013588786823675036
128.0,0.0021206915844231844
144.0,0.0028233372140675783
160.0,0.001442405628040433
176.0,0.0007295520044863224
192.0,0.0002669486857485026
208.0,0.0021550620440393686
224.0,0.00484981294721365
240.0,0.007299703545868397
256.0,0.006527953315526247
288.0,0.0011163930175825953
320.0,-0.0036051268689334393
352.0,-0.001862875185906887
384.0,-0.00015203414659481496
416.0,0.0005301306955516338
448.0,-0.0029452103190124035
480.0,-0.00510672340169549
512.0,-0.002329103648662567
576.0,-0.003460606327280402
640.0,-0.0029861426446586847
704.0,-0.008142375387251377
768.0,-0.005821647122502327
832.0,-0.0006990927504375577
896.0,-0.0002742741780821234
960.0,-0.0015658978372812271
1024.0,0.0021366598084568977
1152.0,0.0008104224689304829
1280.0,-0.0013997070491313934
1408.0,-0.0017932808259502053
1536.0,-0.0026805817615240812
1664.0,-0.000253029924351722
1792.0,0.002067785244435072
1920.0,0.0029154636431485415
2048.0,0.0008673415868543088
2304.0,-0.001893759472295642
2560.0,-0.0025362831074744463
2816.0,0.0002513539220672101
3072.0,0.0032609107438474894
3328.0,-0.00014114577788859606
3584.0,-0.0018297124188393354
3840.0,0.0009767753072082996
4096.0,0.001985013484954834
4608.0,-0.0005941703566350043
5120.0,-0.0009411225328221917
5632.0,0.0032039720099419355
6144.0,-0.0026468702126294374
6656.0,-0.0012272794265300035
7168.0,0.0008341174107044935
7680.0,5.8530797105049714e-05
8192.0,0.00021550909150391817
9216.0,0.00010297889821231365
10240.0,-0.0009917023126035929
11264.0,0.0007211959455162287
12288.0,-0.0021164012141525745
13312.0,0.0013439197791740298
14336.0,-0.00199770275503397
end
