version,3.0
numOfCh,1
type,point
parent_name,80-cuts
ch_type,1_1
kcount,1
numberNandB,1
brightnessNandB,1
carpet pos,0
pc,0
Time (ms),CH1 Auto-Correlation
1.0,0.027140937745571136
2.0,0.024831071496009827
3.0,0.022880233824253082
4.0,0.02119237370789051
5.0,0.01974341832101345
6.0,0.018498657271265984
7.0,0.017408229410648346
8.0,0.0164174884557724
9.0,0.0154788913205266
10.0,0.01457213144749403
11.0,0.01376698911190033
12.0,0.013049337081611156
13.0,0.012407856993377209
14.0,0.011823379434645176
15.0,0.011291000992059708
16.0,0.010837124660611153
18.0,0.00999193824827671
20.0,0.009268505498766899
22.0,0.008698721416294575
24.0,0.008260800503194332
26.0,0.007724959868937731
28.0,0.007218705955892801
30.0,0.006860851775854826
32.0,0.00660673389211297
36.0,0.006151500158011913
40.0,0.005736113991588354
44.0,0.00539045175537467
48.0,0.0049043502658605576
52.0,0.0044165607541799545
56.0,0.0042157550342381
60.0,0.00387376151047647
64.0,0.0037928023375570774
72.0,0.00337990652769804
80.0,0.0031281497795134783
88.0,0.0027602924965322018
96.0,0.002457138616591692
104.0,0.0027489762287586927
112.0,0.0025690824259072542
120.0,0.002321807434782386
128.0,0.002123469254001975
144.0,0.0019172907341271639
160.0,0.000938741082791239
176.0,0.0009365000878460705
192.0,0.00067236548056826
208.0,0.0003497261495795101
224.0,0.0007573236944153905
240.0,0.0008876028005033731
256.0,0.00036351667949929833
288.0,-0.0003346085431985557
320.0,-0.0006152747664600611
352.0,6.420465797418728e-05
384.0,0.00018292057211510837
416.0,-0.0005742248613387346
448.0,-0.0013289813650771976
480.0,-0.0019183607073500752
512.0,-0.0022531382273882627
576.0,-0.002846251940354705
640.0,-0.0012482308084145188
704.0,-0.0013026873348280787
768.0,-0.0009426670731045306
832.0,-0.0009393998770974576
896.0,-0.00015156326116994023
960.0,0.0005855988711118698
1024.0,0.0010331306839361787
1152.0,0.0008583769085817039
1280.0,5.155499093234539e-05
1408.0,9.509409210295416e-06
1536.0,0.00016516647883690894
1664.0,-0.00046623486559838057
1792.0,-0.001341910450719297
1920.0,-0.00023107611923478544
2048.0,0.00025010781246237457
2304.0,-7.762287714285776e-05
2560.0,0.0010072430595755577
2816.0,-0.0013102855300530791
3072.0,-0.000660007237456739
3328.0,0.0005814286414533854
3584.0,0.00041386488010175526
3840.0,-0.0006869649514555931
4096.0,-0.0002973486843984574
4608.0,0.0003559206088539213
5120.0,-0.00026187035837210715
5632.0,-0.00010233094508294016
6144.0,-0.0009489745134487748
6656.0,0.0003958476008847356
7168.0,-0.0003466094785835594
7680.0,0.0007556494674645364
8192.0,0.00040349707705900073
9216.0,0.0001688108895905316
10240.0,-0.0001774634001776576
11264.0,0.00037179799983277917
12288.0,-0.0003578515606932342
13312.0,-2.9358254323597066e-05
14336.0,2.1772175387013704e-05
end
