version,3.0
numOfCh,1
type,point
parent_name,80-cuts
ch_type,1_1
kcount,1
numberNandB,1
brightnessNandB,1
carpet pos,0
pc,0
Time (ms),CH1 Auto-Correlation
1.0,0.04401491954922676
2.0,0.04069572314620018
3.0,0.03790980949997902
4.0,0.0354832299053669
5.0,0.033274151384830475
6.0,0.03131597861647606
7.0,0.029540229588747025
8.0,0.02789744921028614
9.0,0.02645372785627842
10.0,0.025158731266856194
11.0,0.024130461737513542
12.0,0.023203371092677116
13.0,0.02225285768508911
14.0,0.02136486954987049
15.0,0.02043289504945278
16.0,0.019510358572006226
18.0,0.01805422268807888
20.0,0.016816219314932823
22.0,0.015682771801948547
24.0,0.014766071923077106
26.0,0.0139397494494915
28.0,0.01327767688781023
30.0,0.012805579230189323
32.0,0.012278775684535503
36.0,0.011313742026686668
40.0,0.010608634911477566
44.0,0.009677363559603691
48.0,0.00879268441349268
52.0,0.00794703233987093
56.0,0.007355948444455862
60.0,0.006695263087749481
64.0,0.006102459505200386
72.0,0.004716562107205391
80.0,0.004262140020728111
88.0,0.0033604693599045277
96.0,0.0030413914937525988
104.0,0.002772645791992545
112.0,0.002288843970745802
120.0,0.0021051836665719748
128.0,0.001962093636393547
144.0,0.0015820282278582454
160.0,0.0009484267793595791
176.0,0.0015720598166808486
192.0,0.00045418142690323293
208.0,0.0008528901962563396
224.0,0.0009917948627844453
240.0,0.0001093308674171567
256.0,0.0003728569427039474
288.0,-0.0013812421821057796
320.0,-0.0016784410690888762
352.0,-0.0010572128230705857
384.0,-0.00041283617611043155
416.0,-0.0010013256687670946
448.0,-0.0014296089066192508
480.0,0.00051667116349563
512.0,0.002002486726269126
576.0,6.735566421411932e-05
640.0,-0.0012027944903820753
704.0,-0.0027279634959995747
768.0,0.0009487515198998153
832.0,0.003520119469612837
896.0,0.002437884220853448
960.0,0.0006137661403045058
1024.0,0.003105886746197939
1152.0,0.0001202211860800162
1280.0,-0.0005946416058577597
1408.0,-0.00014510499022435397
1536.0,-0.001262896810658276
1664.0,0.0013149604201316833
1792.0,1.7261587345274165e-05
1920.0,0.0006145785446278751
2048.0,-0.000641951453872025
2304.0,-0.0011335327289998531
2560.0,-0.0007947725243866444
2816.0,-0.0014686088543385267
3072.0,0.0008668648079037666
3328.0,0.0003285280545242131
3584.0,-0.0016720094718039036
3840.0,0.0011438733199611306
4096.0,0.0005735423183068633
4608.0,-0.0008640778833068907
5120.0,0.0016707186587154865
5632.0,-0.0003251717134844512
6144.0,0.0005245935171842575
6656.0,-0.0002632695250213146
7168.0,7.454625301761553e-05
7680.0,-0.0022695132065564394
8192.0,-0.001220694393850863
9216.0,-0.000599936640355736
10240.0,0.0003983974165748805
11264.0,0.0008481157128699124
12288.0,-0.0006346283480525017
13312.0,-0.0011053151683881879
14336.0,0.00024248045519925654
end
