version,3.0
numOfCh,1
type,point
parent_name,80-cuts
ch_type,1_1
kcount,1
numberNandB,1
brightnessNandB,1
carpet pos,0
pc,0
Time (ms),CH1 Auto-Correlation
1.0,0.09396069496870041
2.0,0.08640235662460327
3.0,0.07988514006137848
4.0,0.07424329221248627
5.0,0.0692138820886612
6.0,0.06494057923555374
7.0,0.06106765195727348
8.0,0.05741271749138832
9.0,0.05409957841038704
10.0,0.051259104162454605
11.0,0.048678841441869736
12.0,0.04632921516895294
13.0,0.04429388418793678
14.0,0.0420633926987648
15.0,0.04002576321363449
16.0,0.0384102426469326
18.0,0.03540917858481407
20.0,0.0323290079832077
22.0,0.029706375673413277
24.0,0.027546405792236328
26.0,0.02530168928205967
28.0,0.023044686764478683
30.0,0.020830633118748665
32.0,0.019277574494481087
36.0,0.017146741971373558
40.0,0.015865467488765717
44.0,0.014604217372834682
48.0,0.013473660685122013
52.0,0.012041364796459675
56.0,0.010735833086073399
60.0,0.010066958144307137
64.0,0.009182359091937542
72.0,0.007360463030636311
80.0,0.005633074790239334
88.0,0.0035811676643788815
96.0,0.0010874877916648984
104.0,0.0009930320084095001
112.0,0.0029597796965390444
120.0,0.004023445304483175
128.0,0.0041513280011713505
144.0,0.00346410577185452
160.0,0.005563855171203613
176.0,0.0032552822958678007
192.0,0.002386535983532667
208.0,0.00339522585272789
224.0,0.0026011469308286905
240.0,0.002247689990326762
256.0,-0.0011048457818105817
288.0,0.0038052473682910204
320.0,0.004488500766456127
352.0,0.006053290329873562
384.0,0.0017501941183581948
416.0,-0.00037686951691284776
448.0,-0.0010105259716510773
480.0,-0.0030754695180803537
512.0,-0.004433572292327881
576.0,-0.0011201428715139627
640.0,-0.0006363299326039851
704.0,-0.0005920614930801094
768.0,-0.0017491246107965708
832.0,-0.0009648181730881333
896.0,-0.0013610079186037183
960.0,-0.0030628519598394632
1024.0,-0.004826882388442755
1152.0,-0.008012456819415092
1280.0,0.000519485620316118
1408.0,-0.004895794205367565
1536.0,-0.003256297903135419
1664.0,0.003403727663680911
1792.0,0.0014224303886294365
1920.0,-8.423533290624619e-05
2048.0,0.0005009850137867033
2304.0,-0.0013356964336708188
2560.0,0.0004563420661725104
2816.0,0.002253050683066249
3072.0,0.001609513652510941
3328.0,0.001135419588536024
3584.0,-0.001797288772650063
3840.0,-0.0013857570011168718
4096.0,-0.00021721822849940509
4608.0,-0.001303369295783341
5120.0,0.0017296690493822098
5632.0,0.0007353777764365077
6144.0,0.0010470349807292223
6656.0,-0.0008475271752104163
7168.0,0.0008050198084674776
7680.0,-0.0027913260273635387
8192.0,-0.0015838100807741284
9216.0,0.00010514356836210936
10240.0,-0.0006135701551102102
11264.0,0.0015044615138322115
12288.0,-0.00031052346457727253
13312.0,-0.0023840691428631544
14336.0,-0.0007089253049343824
end
