version,3.0
numOfCh,1
type,point
parent_name,80-cuts
ch_type,1_1
kcount,1
numberNandB,1
brightnessNandB,1
carpet pos,0
pc,0
Time (ms),CH1 Auto-Correlation
1.0,0.04076403006911278
2.0,0.03747575730085373
3.0,0.03477175906300545
4.0,0.03238603100180626
5.0,0.03030504286289215
6.0,0.028462152928113937
7.0,0.026712661609053612
8.0,0.02507849596440792
9.0,0.023649707436561584
10.0,0.022306151688098907
11.0,0.021225491538643837
12.0,0.020192604511976242
13.0,0.019291138276457787
14.0,0.01842312142252922
15.0,0.017628781497478485
16.0,0.016853030771017075
18.0,0.015582568012177944
20.0,0.014376244507730007
22.0,0.013416754081845284
24.0,0.012439322657883167
26.0,0.011583223938941956
28.0,0.010909385979175568
30.0,0.01021492201834917
32.0,0.009501253254711628
36.0,0.00787673145532608
40.0,0.006826578639447689
44.0,0.006085479632019997
48.0,0.0055603813380002975
52.0,0.005206814035773277
56.0,0.004573672078549862
60.0,0.0038729123771190643
64.0,0.0031372152734547853
72.0,0.0021910679060965776
80.0,0.0016983733512461185
88.0,0.0017881690291687846
96.0,0.0013795490376651287
104.0,0.0007368356455117464
112.0,0.0003831805079244077
120.0,-0.00026956392684951425
128.0,-0.0006878464482724667
144.0,-4.865161463385448e-05
160.0,0.0002636051212903112
176.0,0.0009174636797979474
192.0,0.002356712706387043
208.0,0.003180690575391054
224.0,0.0031530752312391996
240.0,0.0030223941430449486
256.0,0.0026420517824590206
288.0,0.001171977142803371
320.0,-4.991822788724676e-05
352.0,-6.552783452207223e-05
384.0,-0.0012312147300690413
416.0,-0.001252028509043157
448.0,0.0010086942929774523
480.0,0.001483094529248774
512.0,0.0005101034184917808
576.0,-0.0011860271915793419
640.0,-0.00183464540168643
704.0,-0.0008771998691372573
768.0,-0.0008580141002312303
832.0,-0.00038956094067543745
896.0,-0.0004969252622686327
960.0,-0.0014667079085484147
1024.0,-0.0012742779217660427
1152.0,0.0009278707439079881
1280.0,0.000654122675769031
1408.0,0.0003872712841257453
1536.0,0.0022740475833415985
1664.0,0.001243261736817658
1792.0,0.0006003533490002155
1920.0,-0.0001524982653791085
2048.0,-0.0015101702883839607
2304.0,-0.00017188744095619768
2560.0,0.0014195108087733388
2816.0,0.0017859613290056586
3072.0,0.0026331415865570307
3328.0,-0.00040046690264716744
3584.0,-0.002202508505433798
3840.0,-0.0006387407775036991
4096.0,-0.0006785785662941635
4608.0,-0.00023505913850385696
5120.0,-0.0012598654720932245
5632.0,0.0013386025093495846
6144.0,-0.00017389428103342652
6656.0,-0.002038348466157913
7168.0,0.0002609027724247426
7680.0,-0.00047273296513594687
8192.0,-0.001237698015756905
9216.0,-0.0002024256973527372
10240.0,-0.00021613070566672832
11264.0,8.669700036989525e-05
12288.0,-0.000779363967012614
13312.0,-0.000667005660943687
14336.0,-0.0017900944221764803
end
