version,3.0
numOfCh,1
type,point
parent_name,80-cuts
ch_type,1_1
kcount,1
numberNandB,1
brightnessNandB,1
carpet pos,0
pc,0
Time (ms),CH1 Auto-Correlation
1.0,0.08681328594684601
2.0,0.07962504029273987
3.0,0.0733669325709343
4.0,0.06798507273197174
5.0,0.06336790323257446
6.0,0.05936732515692711
7.0,0.055790599435567856
8.0,0.052654627710580826
9.0,0.050045087933540344
10.0,0.04781940206885338
11.0,0.045836638659238815
12.0,0.04377729073166847
13.0,0.041687771677970886
14.0,0.03982672467827797
15.0,0.03799109533429146
16.0,0.036180779337882996
18.0,0.03303553909063339
20.0,0.03057951107621193
22.0,0.0281660333275795
24.0,0.026110172271728516
26.0,0.02390560321509838
28.0,0.021795855835080147
30.0,0.019853565841913223
32.0,0.01867968589067459
36.0,0.016460953280329704
40.0,0.015564986504614353
44.0,0.015270112082362175
48.0,0.014510108157992363
52.0,0.013372884131968021
56.0,0.01193047221750021
60.0,0.010148756206035614
64.0,0.009179484099149704
72.0,0.008215462788939476
80.0,0.006485385820269585
88.0,0.005441103596240282
96.0,0.0054135131649672985
104.0,0.005173255689442158
112.0,0.004800461232662201
120.0,0.005329536274075508
128.0,0.004890912678092718
144.0,0.004177592229098082
160.0,0.004432290326803923
176.0,0.00444132462143898
192.0,0.0045681060291826725
208.0,0.003109199460595846
224.0,0.0016020674956962466
240.0,0.0005437051295302808
256.0,0.0008260139729827642
288.0,-0.00032938161166384816
320.0,0.00385563843883574
352.0,0.0017811862053349614
384.0,0.0013455768348649144
416.0,-0.0004986187559552491
448.0,-0.003154406324028969
480.0,-0.0012011175276711583
512.0,-0.0010150946909561753
576.0,-0.00386770605109632
640.0,-0.0010954884346574545
704.0,-0.0017674973933026195
768.0,-0.00014625936455558985
832.0,0.0004038246988784522
896.0,-4.7814639401622117e-05
960.0,-0.000977500807493925
1024.0,0.00023957304074428976
1152.0,-0.0008426920976489782
1280.0,-0.0005249262903816998
1408.0,-0.0004629780014511198
1536.0,-0.0013475376181304455
1664.0,-0.001711737597361207
1792.0,-0.0009824204025790095
1920.0,-0.0012961747124791145
2048.0,0.002398447133600712
2304.0,-0.0007627320010215044
2560.0,-0.0035191266797482967
2816.0,-0.002726476639509201
3072.0,0.0006656718323938549
3328.0,-0.0006473007379099727
3584.0,0.00021716862102039158
3840.0,-0.002520512090995908
4096.0,-0.000955891446210444
4608.0,-8.115813216136303e-06
5120.0,0.0034719640389084816
5632.0,0.0032379175536334515
6144.0,-0.000545429065823555
6656.0,-0.002726009115576744
7168.0,-0.0016869063256308436
7680.0,-0.0011391652515158057
8192.0,-0.0012338903034105897
9216.0,-0.00042936595855280757
10240.0,0.0002796434855554253
11264.0,0.003103487426415086
12288.0,-0.001413859659805894
13312.0,0.0012637636391445994
14336.0,-0.004675376228988171
end
