version,3.0
numOfCh,1
type,point
parent_name,80-cuts
ch_type,1_1
kcount,1
numberNandB,1
brightnessNandB,1
carpet pos,0
pc,0
Time (ms),CH1 Auto-Correlation
1.0,0.04174961522221565
2.0,0.03838728740811348
3.0,0.03550773113965988
4.0,0.032967936247587204
5.0,0.030888397246599197
6.0,0.029018916189670563
7.0,0.02739190310239792
8.0,0.02595139667391777
9.0,0.024639030918478966
10.0,0.02355434186756611
11.0,0.022450579330325127
12.0,0.02145087532699108
13.0,0.020448314025998116
14.0,0.019487397745251656
15.0,0.018592745065689087
16.0,0.017759649083018303
18.0,0.016471797600388527
20.0,0.015232343226671219
22.0,0.014126903377473354
24.0,0.013136892579495907
26.0,0.012310711666941643
28.0,0.011475009843707085
30.0,0.010754219256341457
32.0,0.010331416502594948
36.0,0.009636937640607357
40.0,0.00897106621414423
44.0,0.008131935261189938
48.0,0.007187273818999529
52.0,0.006280046887695789
56.0,0.005792235489934683
60.0,0.0054021356627345085
64.0,0.0052106031216681
72.0,0.0036301652435213327
80.0,0.0026208427734673023
88.0,0.0018656370230019093
96.0,0.0015093940310180187
104.0,0.001456853118725121
112.0,0.0012509179068729281
120.0,0.000640329672023654
128.0,-0.00033408685703761876
144.0,-9.373488137498498e-05
160.0,0.0005817927303723991
176.0,7.87302924436517e-05
192.0,0.0003348065947648138
208.0,0.0010245145531371236
224.0,0.0003814506344497204
240.0,0.0014750963309779763
256.0,0.0023690308444201946
288.0,0.00017330389528069645
320.0,-0.0005898210220038891
352.0,-0.0012513184919953346
384.0,-0.0015266946284100413
416.0,-0.0008071837946772575
448.0,-0.0014348563272505999
480.0,-0.0020530896726995707
512.0,-0.0008110749768093228
576.0,-0.0030976419802755117
640.0,-0.0007372601539827883
704.0,-0.001117429113946855
768.0,-0.000658383418340236
832.0,0.00030161559698171914
896.0,0.0002420698874630034
960.0,0.0009046540362760425
1024.0,0.0015791184268891811
1152.0,0.0024748879950493574
1280.0,0.0014360607601702213
1408.0,0.0011121295392513275
1536.0,-0.0019839522428810596
1664.0,-0.0008292889106087387
1792.0,-0.0003595494490582496
1920.0,-2.7684516680892557e-05
2048.0,-0.000188331920071505
2304.0,0.0019016022561118007
2560.0,-8.618187712272629e-05
2816.0,-0.002069348469376564
3072.0,-0.0008860597154125571
3328.0,0.0024999117013067007
3584.0,0.0019639262463897467
3840.0,-0.0026914558839052916
4096.0,-0.0015934393741190434
4608.0,0.0008034617640078068
5120.0,-0.0005897393566556275
5632.0,0.0008920193067751825
6144.0,-0.0005398595822043717
6656.0,0.0005249555688351393
7168.0,-0.001123257796280086
7680.0,-0.00036498013650998473
8192.0,-0.0005326840910129249
9216.0,-0.0002471772604621947
10240.0,-0.00044502559467218816
11264.0,0.0003258758515585214
12288.0,-0.0006211113650351763
13312.0,-0.0005683406488969922
14336.0,-0.001461140112951398
end
