version,3.0
numOfCh,1
type,point
parent_name,80-cuts
ch_type,1_1
kcount,1
numberNandB,1
brightnessNandB,1
carpet pos,0
pc,0
Time (ms),CH1 Auto-Correlation
1.0,0.039778970181941986
2.0,0.036331839859485626
3.0,0.03332727402448654
4.0,0.03065432235598564
5.0,0.028373919427394867
6.0,0.026377717033028603
7.0,0.024661585688591003
8.0,0.02312382310628891
9.0,0.021667489781975746
10.0,0.0203986968845129
11.0,0.01918347179889679
12.0,0.018040452152490616
13.0,0.01691191829741001
14.0,0.015950743108987808
15.0,0.01505301520228386
16.0,0.014221099205315113
18.0,0.012755144387483597
20.0,0.011433948762714863
22.0,0.010208535008132458
24.0,0.009203439578413963
26.0,0.008356704376637936
28.0,0.007482737768441439
30.0,0.006721259094774723
32.0,0.006064704619348049
36.0,0.005080005619674921
40.0,0.004246260970830917
44.0,0.0037326114252209663
48.0,0.0031906417571008205
52.0,0.0028046558145433664
56.0,0.0025769080966711044
60.0,0.002356022596359253
64.0,0.002242071321234107
72.0,0.001839425414800644
80.0,0.0020045898854732513
88.0,0.002026593079790473
96.0,0.0017851301236078143
104.0,0.0015926900086924434
112.0,0.0009828268084675074
120.0,0.0006869205390103161
128.0,0.0004209105100017041
144.0,0.0009771338663995266
160.0,0.0022503016516566277
176.0,0.002166332444176078
192.0,0.002186948899179697
208.0,0.001730030751787126
224.0,0.0008193158428184688
240.0,0.001451726071536541
256.0,0.0017302213236689568
288.0,0.0008204731857404113
320.0,-2.0380577552714385e-05
352.0,-0.0010041685309261084
384.0,-0.0008769115665927529
416.0,-0.0002444510464556515
448.0,-0.00015787385927978903
480.0,-0.0016173445619642735
512.0,-0.0005757101462222636
576.0,-0.0009455536492168903
640.0,-0.002886243164539337
704.0,0.00017577686230652034
768.0,-0.00039874602225609124
832.0,-0.0003648774290923029
896.0,0.0006337504601106048
960.0,-0.0008123303996399045
1024.0,0.00041278896969743073
1152.0,-0.0005785563844256103
1280.0,-0.0011482139816507697
1408.0,-0.002351536648347974
1536.0,-0.0016518238699063659
1664.0,-0.0018087856005877256
1792.0,0.0004810839600395411
1920.0,0.0014276092406362295
2048.0,0.002212521620094776
2304.0,0.0013601548271253705
2560.0,0.0001614756474737078
2816.0,-0.0006515186978504062
3072.0,-0.0009640001226216555
3328.0,-0.0007138822693377733
3584.0,-0.0009989143582060933
3840.0,-0.000400560355046764
4096.0,0.0012930530356243253
4608.0,0.0010655330261215568
5120.0,-0.0005711547564715147
5632.0,-0.0010151525493711233
6144.0,0.00020404868701007217
6656.0,0.0009018449927680194
7168.0,-0.0003516972064971924
7680.0,-0.00041841351776383817
8192.0,0.0006033144891262054
9216.0,-0.0006922472384758294
10240.0,-0.00022032650304026902
11264.0,-7.833381823729724e-05
12288.0,-0.00015623669605702162
13312.0,0.0012665451504290104
14336.0,-0.0017761761555448174
end
