version,3.0
numOfCh,1
type,point
parent_name,80-cuts
ch_type,1_1
kcount,1
numberNandB,1
brightnessNandB,1
carpet pos,0
pc,0
Time (ms),CH1 Auto-Correlation
1.0,0.04487905651330948
2.0,0.04144558683037758
3.0,0.03848252072930336
4.0,0.035938456654548645
5.0,0.0336637981235981
6.0,0.031616419553756714
7.0,0.029728388413786888
8.0,0.028028877452015877
9.0,0.02646758407354355
10.0,0.02506742812693119
11.0,0.023808876052498817
12.0,0.022577963769435883
13.0,0.021358855068683624
14.0,0.02024414949119091
15.0,0.019186967983841896
16.0,0.018152642995119095
18.0,0.01642477884888649
20.0,0.014939726330339909
22.0,0.01360546238720417
24.0,0.012330814264714718
26.0,0.011333738453686237
28.0,0.010609571821987629
30.0,0.009968137368559837
32.0,0.009330596774816513
36.0,0.008610446937382221
40.0,0.007584134582430124
44.0,0.006820710841566324
48.0,0.006041856482625008
52.0,0.00536474259570241
56.0,0.00525823887437582
60.0,0.00490791629999876
64.0,0.004608181770890951
72.0,0.004486173391342163
80.0,0.004750065505504608
88.0,0.004696306772530079
96.0,0.0042819674126803875
104.0,0.0039002529811114073
112.0,0.0034554803278297186
120.0,0.00318344053812325
128.0,0.0032472156453877687
144.0,0.003901325399056077
160.0,0.0026422208175063133
176.0,0.0016751831863075495
192.0,0.0005457902443595231
208.0,0.0006098946323618293
224.0,0.00041927932761609554
240.0,0.0008830781443975866
256.0,-1.2860915376222692e-05
288.0,-8.785127283772454e-05
320.0,-4.516454282565974e-05
352.0,-0.00047315165284089744
384.0,-0.0011169158387929201
416.0,-0.0013807232026010752
448.0,0.0005809537833556533
480.0,0.0017810323042795062
512.0,-0.0005119527340866625
576.0,0.0012817601673305035
640.0,0.001036971341818571
704.0,-6.863068847451359e-05
768.0,-0.00010586956341285259
832.0,0.0001990527380257845
896.0,0.0022578176576644182
960.0,0.0014669556403532624
1024.0,-0.0006410752539522946
1152.0,-0.0003252583264838904
1280.0,-0.0008555079693906009
1408.0,-0.0019283763831481338
1536.0,-0.002656267024576664
1664.0,-0.0007368146907538176
1792.0,-3.5244949685875326e-05
1920.0,-0.0014299426693469286
2048.0,-0.00029898801585659385
2304.0,-0.0005799882928840816
2560.0,0.0006490566302090883
2816.0,0.00036698926123790443
3072.0,-9.408874757355079e-05
3328.0,-0.000746683799661696
3584.0,0.0013095979811623693
3840.0,0.0006829177145846188
4096.0,0.0008746683015488088
4608.0,-0.0004246608295943588
5120.0,-0.001570013351738453
5632.0,-0.002613652031868696
6144.0,-0.0009819099213927984
6656.0,0.0014180507278069854
7168.0,0.0016879003960639238
7680.0,0.0006361679988913238
8192.0,-0.0009836290264502168
9216.0,-0.0002578654093667865
10240.0,0.000428030762122944
11264.0,0.0009704399271868169
12288.0,-0.0010498189367353916
13312.0,-0.0011217298451811075
14336.0,-0.0011230196105316281
end
