version,3.0
numOfCh,1
type,point
parent_name,80-cuts
ch_type,1_1
kcount,1
numberNandB,1
brightnessNandB,1
carpet pos,0
pc,0
Time (ms),CH1 Auto-Correlation
1.0,0.08404888212680817
2.0,0.07685061544179916
3.0,0.07095068693161011
4.0,0.06578987091779709
5.0,0.06121435761451721
6.0,0.057194750756025314
7.0,0.053346939384937286
8.0,0.04993206635117531
9.0,0.04695308208465576
10.0,0.04441049322485924
11.0,0.04216572642326355
12.0,0.040011025965213776
13.0,0.03809145465493202
14.0,0.036314018070697784
15.0,0.03446464240550995
16.0,0.03278530761599541
18.0,0.02982768975198269
20.0,0.02769104577600956
22.0,0.025797782465815544
24.0,0.024261927232146263
26.0,0.022755974903702736
28.0,0.0213188286870718
30.0,0.02015661634504795
32.0,0.018871327862143517
36.0,0.016710441559553146
40.0,0.014826486818492413
44.0,0.013520641252398491
48.0,0.012133396230638027
52.0,0.011512338183820248
56.0,0.011251794174313545
60.0,0.010599445551633835
64.0,0.008948449045419693
72.0,0.007048893254250288
80.0,0.00444602919742465
88.0,0.004349574446678162
96.0,0.005736996419727802
104.0,0.006794412154704332
112.0,0.007077072747051716
120.0,0.005504267290234566
128.0,0.004546598996967077
144.0,0.0039046418387442827
160.0,0.0019437239971011877
176.0,-0.000673550006467849
192.0,-0.0022671592887490988
208.0,-0.002184051787480712
224.0,-0.0015386921586468816
240.0,-0.002964464947581291
256.0,-0.003942793235182762
288.0,-0.002684658858925104
320.0,-0.0017122958088293672
352.0,0.0003072194231208414
384.0,-0.001210364862345159
416.0,-0.0005431704921647906
448.0,0.0010639054235070944
480.0,0.003847513347864151
512.0,0.002331026829779148
576.0,-0.00012311903992667794
640.0,-0.001820837613195181
704.0,0.0020460321102291346
768.0,0.0005595553084276617
832.0,0.0056618740782141685
896.0,0.0028825777117162943
960.0,0.0031139219645410776
1024.0,-0.0015253679594025016
1152.0,0.0010486916871741414
1280.0,-0.0014265466015785933
1408.0,-0.0002210350940003991
1536.0,0.0014029128942638636
1664.0,-0.0008328771218657494
1792.0,-0.0011352815199643373
1920.0,0.0018672511214390397
2048.0,-0.001914364518597722
2304.0,-0.002242189599201083
2560.0,-0.0002553551457822323
2816.0,-0.002427872968837619
3072.0,-0.0009443971212022007
3328.0,-0.005187286529690027
3584.0,0.0006771604530513287
3840.0,0.0015625430969521403
4096.0,0.00021736134658567607
4608.0,0.002738411771133542
5120.0,0.001665630959905684
5632.0,0.0014731307746842504
6144.0,0.002575875259935856
6656.0,-0.00021405851293820888
7168.0,-0.00031913770362734795
7680.0,0.0005200436571612954
8192.0,-0.0028795339167118073
9216.0,-0.0024655372835695744
10240.0,0.0005813316674903035
11264.0,0.0010993186151608825
12288.0,0.00047972737229429185
13312.0,-0.003119681729003787
14336.0,-0.007387612946331501
end
