version,3.0
numOfCh,1
type,point
parent_name,80-cuts
ch_type,1_1
kcount,1
numberNandB,1
brightnessNandB,1
carpet pos,0
pc,0
Time (ms),CH1 Auto-Correlation
1.0,0.09148257970809937
2.0,0.08436130732297897
3.0,0.07829661667346954
4.0,0.07281219214200974
5.0,0.0679534524679184
6.0,0.06384602189064026
7.0,0.06008651480078697
8.0,0.05666676536202431
9.0,0.05343319848179817
10.0,0.05038284510374069
11.0,0.04772688448429108
12.0,0.04516461864113808
13.0,0.04298585280776024
14.0,0.04091810807585716
15.0,0.039071690291166306
16.0,0.03741312026977539
18.0,0.03428995981812477
20.0,0.031535375863313675
22.0,0.028773358091711998
24.0,0.026349596679210663
26.0,0.02424163557589054
28.0,0.02260407991707325
30.0,0.02124478481709957
32.0,0.020108725875616074
36.0,0.01745268888771534
40.0,0.01598525419831276
44.0,0.0153545206412673
48.0,0.014743559993803501
52.0,0.013739029876887798
56.0,0.013830428011715412
60.0,0.013586192391812801
64.0,0.013505055569112301
72.0,0.013355601578950882
80.0,0.012893985956907272
88.0,0.011561010032892227
96.0,0.011012475937604904
104.0,0.010559286922216415
112.0,0.008126020431518555
120.0,0.004968017805367708
128.0,0.0032303358893841505
144.0,0.004888829775154591
160.0,0.004901016131043434
176.0,0.0032027033157646656
192.0,0.0023964226711541414
208.0,-0.00021929730428382754
224.0,0.00013641467376146466
240.0,0.00019757366681005806
256.0,0.0008340597851201892
288.0,-0.0011633367976173759
320.0,-0.000685464998241514
352.0,0.0008828059071674943
384.0,0.0023192407097667456
416.0,0.0016649614553898573
448.0,0.0015937054995447397
480.0,0.0015402972931042314
512.0,-0.0006389642949216068
576.0,-0.0017468598671257496
640.0,-0.0012718922225758433
704.0,-0.0032061198726296425
768.0,-0.0014749572146683931
832.0,-0.0002235461724922061
896.0,0.0016636501532047987
960.0,0.00145802553743124
1024.0,0.0015621243510395288
1152.0,-0.0036973359528928995
1280.0,-0.004756918642669916
1408.0,0.0005449066520668566
1536.0,0.002122913021594286
1664.0,-0.0026114473585039377
1792.0,0.0012901253066956997
1920.0,0.0033589540980756283
2048.0,0.0008927693124860525
2304.0,-0.0042294831946492195
2560.0,-0.005837050266563892
2816.0,-0.003082697046920657
3072.0,-0.0008478625095449388
3328.0,-0.0025107080582529306
3584.0,0.0018020197749137878
3840.0,0.0026273371186107397
4096.0,0.003637830726802349
4608.0,-2.446181679260917e-05
5120.0,-0.0010897846659645438
5632.0,0.0007710525533184409
6144.0,0.0007121196249499917
6656.0,-0.0020776898600161076
7168.0,-0.0022496161982417107
7680.0,0.0013104163808748126
8192.0,0.002673997776582837
9216.0,-0.00021538714645430446
10240.0,-0.0007194514619186521
11264.0,0.0026347327511757612
12288.0,0.00017111815395765007
13312.0,-0.0018927096389234066
14336.0,-0.0035174007061868906
end
