version,3.0
numOfCh,1
type,point
parent_name,80-cuts
ch_type,1_1
kcount,1
numberNandB,1
brightnessNandB,1
carpet pos,0
pc,0
Time (ms),CH1 Auto-Correlation
1.0,0.040765099227428436
2.0,0.03743823245167732
3.0,0.03456671163439751
4.0,0.03207579627633095
5.0,0.029830290004611015
6.0,0.027830660343170166
7.0,0.026084113866090775
8.0,0.02452763170003891
9.0,0.02315841056406498
10.0,0.021858567371964455
11.0,0.020592479035258293
12.0,0.01947380043566227
13.0,0.018515344709157944
14.0,0.01754622533917427
15.0,0.01662331074476242
16.0,0.015795433893799782
18.0,0.014315149746835232
20.0,0.01308396551758051
22.0,0.012115254998207092
24.0,0.011332640424370766
26.0,0.010674255900084972
28.0,0.01003186870366335
30.0,0.00938860047608614
32.0,0.00887082889676094
36.0,0.007842712104320526
40.0,0.007227111142128706
44.0,0.006562400609254837
48.0,0.00616420665755868
52.0,0.005580475088208914
56.0,0.005050773732364178
60.0,0.0048687574453651905
64.0,0.004471165128052235
72.0,0.003853896167129278
80.0,0.003856678493320942
88.0,0.003856243332847953
96.0,0.003576183458790183
104.0,0.0027462744619697332
112.0,0.0019864216446876526
120.0,0.001701331464573741
128.0,0.0011983864242210984
144.0,0.0010749169159680605
160.0,0.0015541266184300184
176.0,0.0015729825245216489
192.0,0.0012795820366591215
208.0,0.000607269408646971
224.0,-0.00042221060721203685
240.0,-0.0012592741986736655
256.0,-0.00044827116653323174
288.0,-0.0008071201154962182
320.0,-0.0013705719029530883
352.0,-0.0011176810367032886
384.0,-0.0008211350068449974
416.0,-2.587972085166257e-05
448.0,0.00012389842595439404
480.0,-9.160837066701788e-07
512.0,0.0007567902212031186
576.0,0.00042656774166971445
640.0,-0.0005853496259078383
704.0,4.883674409938976e-05
768.0,0.0008321882924064994
832.0,0.0005532950744964182
896.0,0.0001020841664285399
960.0,0.00045464455615729094
1024.0,0.00019387667998671532
1152.0,0.0016584339318796992
1280.0,0.001081379596143961
1408.0,0.0007277302211150527
1536.0,-0.0016668735770508647
1664.0,-0.00043980745249427855
1792.0,0.00017836112238001078
1920.0,-0.0004963306128047407
2048.0,-0.00016343830793630332
2304.0,8.693267591297626e-05
2560.0,-0.00038242561277002096
2816.0,-0.0005194052937440574
3072.0,-0.00030247302493080497
3328.0,3.0533519748132676e-05
3584.0,-0.0008192980894818902
3840.0,-0.0006041301530785859
4096.0,0.0010724517051130533
4608.0,-0.0007176769431680441
5120.0,-0.00027957733254879713
5632.0,0.0006983370403759181
6144.0,-0.0009417638066224754
6656.0,0.0013604811392724514
7168.0,-0.0008282825583592057
7680.0,-0.001300634816288948
8192.0,0.00035544944694265723
9216.0,-0.000670488050673157
10240.0,-0.000975246774032712
11264.0,-0.0007708582561463118
12288.0,0.00135575863532722
13312.0,0.002916224068030715
14336.0,-0.0005483981221914291
end
