version,3.0
numOfCh,1
type,point
parent_name,80-cuts
ch_type,1_1
kcount,1
numberNandB,1
brightnessNandB,1
carpet pos,0
pc,0
Time (ms),CH1 Auto-Correlation
1.0,0.08806516975164413
2.0,0.08108538389205933
3.0,0.07521703094244003
4.0,0.0702463909983635
5.0,0.06587743014097214
6.0,0.06194375082850456
7.0,0.058391112834215164
8.0,0.055144861340522766
9.0,0.052416447550058365
10.0,0.049910664558410645
11.0,0.04776366427540779
12.0,0.04563801735639572
13.0,0.04362073168158531
14.0,0.041725900024175644
15.0,0.03981883078813553
16.0,0.03820999339222908
18.0,0.035301681607961655
20.0,0.03298021852970123
22.0,0.031139452010393143
24.0,0.029374346137046814
26.0,0.027720248326659203
28.0,0.026322752237319946
30.0,0.025209354236721992
32.0,0.024331849068403244
36.0,0.02228965237736702
40.0,0.020416468381881714
44.0,0.01898282580077648
48.0,0.01792776584625244
52.0,0.017339129000902176
56.0,0.016881054267287254
60.0,0.015572644770145416
64.0,0.014264119789004326
72.0,0.011776946485042572
80.0,0.00954030267894268
88.0,0.008822339586913586
96.0,0.0076671745628118515
104.0,0.005717802792787552
112.0,0.006861284840852022
120.0,0.006306885741651058
128.0,0.006076181307435036
144.0,0.0046937121078372
160.0,0.0037357162218540907
176.0,0.0021114801056683064
192.0,-0.00011754629667848349
208.0,-0.0020491748582571745
224.0,-0.0009083938784897327
240.0,-0.002277573337778449
256.0,-0.0021247186232358217
288.0,-0.005778222344815731
320.0,-0.0052162595093250275
352.0,-0.004388168454170227
384.0,-0.0030443412251770496
416.0,-0.0004831987607758492
448.0,0.000534270191565156
480.0,0.0005628024227917194
512.0,-0.005152168218046427
576.0,-0.004917088896036148
640.0,-0.003645336488261819
704.0,-0.005326676648110151
768.0,-0.0027223811484873295
832.0,-0.00024775631027296185
896.0,-0.0016259017866104841
960.0,0.0015285873087123036
1024.0,0.0009644307428970933
1152.0,-3.1361018045572564e-05
1280.0,-0.0006460800650529563
1408.0,0.0011992754880338907
1536.0,0.00429413141682744
1664.0,0.0038828032556921244
1792.0,-0.0009463746682740748
1920.0,-0.0013632745249196887
2048.0,-0.0018730884185060859
2304.0,-0.001002041855826974
2560.0,5.5069165682652965e-05
2816.0,0.0001661870046518743
3072.0,-0.0003488839720375836
3328.0,-0.0016289263730868697
3584.0,0.0006397433462552726
3840.0,0.0028864985797554255
4096.0,-0.0016657710075378418
4608.0,-0.002681633224710822
5120.0,0.0028328392654657364
5632.0,-0.0033442808780819178
6144.0,0.0003947117947973311
6656.0,0.0003643759700935334
7168.0,-0.0009415565291419625
7680.0,0.005291488021612167
8192.0,-0.003570131491869688
9216.0,0.0005334556335583329
10240.0,-0.0019770602229982615
11264.0,-0.0008839759393595159
12288.0,-0.0004655144875869155
13312.0,-0.0014445545384660363
14336.0,0.00235020206309855
end
