version,3.0
numOfCh,1
type,point
parent_name,80-cuts
ch_type,1_1
kcount,1
numberNandB,1
brightnessNandB,1
carpet pos,0
pc,0
Time (ms),CH1 Auto-Correlation
1.0,0.028101149946451187
2.0,0.025937022641301155
3.0,0.02408355288207531
4.0,0.022488821297883987
5.0,0.021090928465127945
6.0,0.019873756915330887
7.0,0.01873723231256008
8.0,0.017700741067528725
9.0,0.016722779721021652
10.0,0.015814345329999924
11.0,0.014991658739745617
12.0,0.014164356514811516
13.0,0.013449479825794697
14.0,0.01273280754685402
15.0,0.012098429724574089
16.0,0.011506523005664349
18.0,0.010483802296221256
20.0,0.009553180076181889
22.0,0.008714788593351841
24.0,0.007990110665559769
26.0,0.007398912683129311
28.0,0.006741379853338003
30.0,0.0061869933269917965
32.0,0.005775903817266226
36.0,0.00514233997091651
40.0,0.004618791397660971
44.0,0.004221633076667786
48.0,0.0038813778664916754
52.0,0.0037985886447131634
56.0,0.003659650916233659
60.0,0.0033709362614899874
64.0,0.0031660171225667
72.0,0.0025984246749430895
80.0,0.0021150954999029636
88.0,0.0013085020473226905
96.0,0.0009180950582958758
104.0,0.0013039412442594767
112.0,0.0011168544879183173
120.0,0.0013375484850257635
128.0,0.001337684690952301
144.0,0.0018330288585275412
160.0,0.0010799015872180462
176.0,0.0006313020130619407
192.0,0.0009278932120651007
208.0,0.00028132167062722147
224.0,-0.00034080896875821054
240.0,-0.0002212021208833903
256.0,-0.0006344776484183967
288.0,0.0001806489599402994
320.0,-0.00018649829144123942
352.0,-0.0007381433970294893
384.0,-0.0008427071152254939
416.0,-0.00023532357590738684
448.0,0.0006010041106492281
480.0,0.0016186422435566783
512.0,0.0009194815647788346
576.0,-0.0005691973492503166
640.0,0.000370350549928844
704.0,0.0007176199578680098
768.0,-0.0004344714106991887
832.0,0.0008220908348448575
896.0,0.001454591634683311
960.0,0.0008391533046960831
1024.0,-0.0003452942182775587
1152.0,-0.0020807860419154167
1280.0,-0.00022545360843650997
1408.0,0.0005251934053376317
1536.0,-0.0003868149360641837
1664.0,-0.0003600937779992819
1792.0,-0.00018723659741226584
1920.0,-7.990564336068928e-05
2048.0,-0.0007887354004196823
2304.0,-0.00030861797858960927
2560.0,-0.0003165037778671831
2816.0,1.6655258150422014e-05
3072.0,-1.1396479749237187e-05
3328.0,-0.0005735083832405508
3584.0,0.000522799848113209
3840.0,0.0004891547723673284
4096.0,-0.0013556439662352204
4608.0,-0.00030371127650141716
5120.0,0.00038359753671102226
5632.0,-0.0004194252542220056
6144.0,0.001110372133553028
6656.0,0.0006668282439932227
7168.0,-0.0002466203586664051
7680.0,-0.0006066474015824497
8192.0,-0.0005645884666591883
9216.0,-0.00036916587851010263
10240.0,-0.0002322325308341533
11264.0,6.506227509817109e-05
12288.0,4.8282989155268297e-05
13312.0,-0.0003524614148773253
14336.0,-0.00035280908923596144
end
