version,3.0
numOfCh,1
type,point
parent_name,80-cuts
ch_type,1_1
kcount,1
numberNandB,1
brightnessNandB,1
carpet pos,0
pc,0
Time (ms),CH1 Auto-Correlation
1.0,0.08330719918012619
2.0,0.07627030462026596
3.0,0.07008852064609528
4.0,0.06494734436273575
5.0,0.060524892061948776
6.0,0.05660193786025047
7.0,0.053225092589855194
8.0,0.05034412443637848
9.0,0.047543443739414215
10.0,0.0450245700776577
11.0,0.04283953830599785
12.0,0.04084337130188942
13.0,0.03934504836797714
14.0,0.03786865249276161
15.0,0.036486074328422546
16.0,0.03511860966682434
18.0,0.032443977892398834
20.0,0.029885150492191315
22.0,0.02750769630074501
24.0,0.025295205414295197
26.0,0.02345990762114525
28.0,0.022318003699183464
30.0,0.021504122763872147
32.0,0.021010542288422585
36.0,0.019491905346512794
40.0,0.017856642603874207
44.0,0.016677051782608032
48.0,0.015161043033003807
52.0,0.013862108811736107
56.0,0.012884289026260376
60.0,0.010930986143648624
64.0,0.008894984610378742
72.0,0.007413449231535196
80.0,0.006388053763657808
88.0,0.005645326804369688
96.0,0.00425794767215848
104.0,0.0028928981628268957
112.0,0.0012293115723878145
120.0,-0.0004326102789491415
128.0,-0.0015894019743427634
144.0,-0.002146509476006031
160.0,0.00020613556262105703
176.0,0.0015998439630493522
192.0,0.0022203829139471054
208.0,0.004731627181172371
224.0,0.005433883983641863
240.0,0.0038367121014744043
256.0,0.0013996391789987683
288.0,0.0005408019642345607
320.0,-0.002259629312902689
352.0,-0.002186916070058942
384.0,-0.0007804342312738299
416.0,-0.00017555043450556695
448.0,0.0015976272989064455
480.0,-0.0025425839703530073
512.0,-0.0009814073564484715
576.0,-0.0010340267326682806
640.0,0.0023652571253478527
704.0,0.003917863592505455
768.0,0.0003086893993895501
832.0,-0.003475710516795516
896.0,-0.0023627381306141615
960.0,-0.002515491796657443
1024.0,-0.0014172019436955452
1152.0,-0.00031219099764712155
1280.0,0.0013436354929581285
1408.0,-0.0003628600388765335
1536.0,-0.002639448968693614
1664.0,-0.0018262203084304929
1792.0,-0.0008108402835205197
1920.0,0.0009499770239926875
2048.0,0.0001336985151283443
2304.0,0.001962728099897504
2560.0,-0.002744504949077964
2816.0,-0.0019118610071018338
3072.0,0.00132177141495049
3328.0,-0.0011010535527020693
3584.0,-0.001536208437755704
3840.0,-0.00044960962259210646
4096.0,-1.6525629689567722e-05
4608.0,0.0013068236876279116
5120.0,0.00234685349278152
5632.0,-0.0003540641628205776
6144.0,-0.003179962746798992
6656.0,-0.0015930780209600925
7168.0,3.2785006624180824e-05
7680.0,-0.00220472551882267
8192.0,7.967692363308743e-05
9216.0,0.0012516757706180215
10240.0,0.00068410619860515
11264.0,-0.0026025886181741953
12288.0,0.001090418198145926
13312.0,-0.0017265098867937922
14336.0,0.0024750500451773405
end
