version,3.0
numOfCh,1
type,point
parent_name,80-cuts
ch_type,1_1
kcount,1
numberNandB,1
brightnessNandB,1
carpet pos,0
pc,0
Time (ms),CH1 Auto-Correlation
1.0,0.04676038771867752
2.0,0.043169036507606506
3.0,0.040068142116069794
4.0,0.03725183755159378
5.0,0.034824639558792114
6.0,0.03266511857509613
7.0,0.030728530138731003
8.0,0.02904267981648445
9.0,0.027540281414985657
10.0,0.026245802640914917
11.0,0.02509157732129097
12.0,0.023977719247341156
13.0,0.022992165759205818
14.0,0.02207723818719387
15.0,0.021183522418141365
16.0,0.02032478153705597
18.0,0.018768036738038063
20.0,0.01738816313445568
22.0,0.015988675877451897
24.0,0.014842203818261623
26.0,0.013998723588883877
28.0,0.013110282830893993
30.0,0.012311933562159538
32.0,0.011761938221752644
36.0,0.011168339289724827
40.0,0.010612196289002895
44.0,0.009723666124045849
48.0,0.009336571209132671
52.0,0.008977380581200123
56.0,0.00850475113838911
60.0,0.00811381358653307
64.0,0.007686381693929434
72.0,0.007724395953118801
80.0,0.007450802717357874
88.0,0.0071140616200864315
96.0,0.006507453974336386
104.0,0.005604384001344442
112.0,0.005765511188656092
120.0,0.005476534366607666
128.0,0.00414638314396143
144.0,0.0024115154519677162
160.0,0.0023768367245793343
176.0,0.0018506280612200499
192.0,0.001375906285829842
208.0,0.0026934249326586723
224.0,0.003175003221258521
240.0,0.0015231769066303968
256.0,0.0015232465229928493
288.0,0.0025584024842828512
320.0,0.00012113073171349242
352.0,-0.00044150077155791223
384.0,-0.0008389921276830137
416.0,-0.0008886194555088878
448.0,-0.0008761450881138444
480.0,-0.000840698485262692
512.0,-0.00044887737021781504
576.0,0.0003961726324632764
640.0,0.0004574755730573088
704.0,0.0017822294030338526
768.0,0.0009291180758737028
832.0,-0.00040008709765970707
896.0,-0.0010061992798000574
960.0,-0.0011537070386111736
1024.0,-0.0019071466522291303
1152.0,-0.0011061684926971793
1280.0,-0.00021926102635916322
1408.0,0.0020919630769640207
1536.0,0.0015529899392277002
1664.0,3.357577952556312e-05
1792.0,-0.0016658023232594132
1920.0,-0.002185273449867964
2048.0,-0.0007995328051038086
2304.0,-0.00015155068831518292
2560.0,-0.0014810641296207905
2816.0,0.0013850611867383122
3072.0,0.0008328321855515242
3328.0,-0.0025751690845936537
3584.0,-0.0025119406636804342
3840.0,-0.0016657450469210744
4096.0,-0.00035341043258085847
4608.0,0.0003796941018663347
5120.0,-1.0174877616009326e-06
5632.0,0.0006408836343325675
6144.0,-0.0006375489174388349
6656.0,-0.0005598139832727611
7168.0,0.0010266485624015331
7680.0,-0.00030823491397313774
8192.0,-0.00073007692117244
9216.0,-0.000516737753059715
10240.0,-0.0007533881580457091
11264.0,0.0015040087746456265
12288.0,0.0006505915662273765
13312.0,-0.003933294676244259
14336.0,0.003501010360196233
end
