version,3.0
numOfCh,1
type,point
parent_name,80-cuts
ch_type,1_1
kcount,1
numberNandB,1
brightnessNandB,1
carpet pos,0
pc,0
Time (ms),CH1 Auto-Correlation
1.0,0.04425116628408432
2.0,0.04088852182030678
3.0,0.03800342604517937
4.0,0.035600051283836365
5.0,0.0335058756172657
6.0,0.031660813838243484
7.0,0.029939915984869003
8.0,0.02841688133776188
9.0,0.0270451158285141
10.0,0.025828132405877113
11.0,0.024685131385922432
12.0,0.023535333573818207
13.0,0.022460807114839554
14.0,0.021497895941138268
15.0,0.02060963585972786
16.0,0.019791075959801674
18.0,0.01821110211312771
20.0,0.016964813694357872
22.0,0.015941455960273743
24.0,0.015243586152791977
26.0,0.014475962147116661
28.0,0.013528426177799702
30.0,0.012675730511546135
32.0,0.011931742541491985
36.0,0.01073957234621048
40.0,0.009444468654692173
44.0,0.008324157446622849
48.0,0.007176405284553766
52.0,0.005916344001889229
56.0,0.005225044675171375
60.0,0.005115890875458717
64.0,0.004831546451896429
72.0,0.004630128387361765
80.0,0.004405298735946417
88.0,0.004150341730564833
96.0,0.004089714027941227
104.0,0.003248136956244707
112.0,0.0024925253819674253
120.0,0.0022174434270709753
128.0,0.0019702448043972254
144.0,0.002618728205561638
160.0,0.0024107948411256075
176.0,0.0019208870362490416
192.0,0.001809553476050496
208.0,0.0016957909101620317
224.0,0.0008614385733380914
240.0,0.000959052995312959
256.0,0.0011536467354744673
288.0,-0.0004696276446338743
320.0,-0.00037546211387962103
352.0,0.0004941670340485871
384.0,0.001190926763229072
416.0,0.0007270616479218006
448.0,0.0008572833612561226
480.0,0.0008913148194551468
512.0,0.0009409585036337376
576.0,-0.000763428513891995
640.0,-0.001726208021864295
704.0,-0.0010477186879143119
768.0,-0.002501030918210745
832.0,-0.0030839089304208755
896.0,-0.002760422881692648
960.0,-0.002641507890075445
1024.0,-0.003191555617377162
1152.0,-0.001198307378217578
1280.0,0.0006931730313226581
1408.0,0.0027258512564003468
1536.0,0.0024334415793418884
1664.0,0.0020217634737491608
1792.0,6.705125269945711e-05
1920.0,0.0008955162484198809
2048.0,0.0001307617058046162
2304.0,-0.0004037926555611193
2560.0,-0.0008592996746301651
2816.0,-0.00010323550668545067
3072.0,-0.00013722761650569737
3328.0,-2.1601356365863467e-06
3584.0,-7.430633559124544e-05
3840.0,0.0008831946761347353
4096.0,0.0006052615935914218
4608.0,-0.003202753374353051
5120.0,-0.0003746183938346803
5632.0,0.002303018933162093
6144.0,-0.0010648788884282112
6656.0,-0.0005301243509165943
7168.0,-0.0005956987733952701
7680.0,0.0003390886995475739
8192.0,0.0006559690809808671
9216.0,0.0022351632360368967
10240.0,-0.001478056889027357
11264.0,0.0008903127745725214
12288.0,-0.0009780339896678925
13312.0,-0.0012908920180052519
14336.0,3.676144115161151e-05
end
