version,3.0
numOfCh,1
type,point
parent_name,80-cuts
ch_type,1_1
kcount,1
numberNandB,1
brightnessNandB,1
carpet pos,0
pc,0
Time (ms),CH1 Auto-Correlation
1.0,0.08781316876411438
2.0,0.08074036985635757
3.0,0.07446510344743729
4.0,0.06923238933086395
5.0,0.06482839584350586
6.0,0.060986265540122986
7.0,0.057621728628873825
8.0,0.054601941257715225
9.0,0.051991719752550125
10.0,0.04959097132086754
11.0,0.047448623925447464
12.0,0.045387353748083115
13.0,0.04331602528691292
14.0,0.04133205488324165
15.0,0.039517488330602646
16.0,0.037826381623744965
18.0,0.034936659038066864
20.0,0.03256954252719879
22.0,0.030919091776013374
24.0,0.029245750978589058
26.0,0.02785015106201172
28.0,0.02651497721672058
30.0,0.02547026239335537
32.0,0.024756072089076042
36.0,0.023534471169114113
40.0,0.022323451936244965
44.0,0.02117985114455223
48.0,0.019586989656090736
52.0,0.01747152954339981
56.0,0.015403911471366882
60.0,0.013903847895562649
64.0,0.012140115723013878
72.0,0.010135885328054428
80.0,0.00929076224565506
88.0,0.006719323340803385
96.0,0.004884254653006792
104.0,0.004249814432114363
112.0,0.0046138581819832325
120.0,0.005563043057918549
128.0,0.005078381393104792
144.0,0.003625742858275771
160.0,0.003300127573311329
176.0,0.004226819146424532
192.0,0.004733216483145952
208.0,0.00352854048833251
224.0,0.0023987835738807917
240.0,0.0019137660274282098
256.0,0.0018981203902512789
288.0,0.0023711996618658304
320.0,0.002554480219259858
352.0,-0.0015333647606894374
384.0,-0.0033682226203382015
416.0,-0.0025577216874808073
448.0,-0.0035120644606649876
480.0,-0.0013533839955925941
512.0,-0.0016523661324754357
576.0,-0.0006045092595741153
640.0,-3.570030821720138e-05
704.0,-0.00037653493927791715
768.0,0.002623207401484251
832.0,0.00238627172075212
896.0,0.0047956048510968685
960.0,0.005380402784794569
1024.0,0.0022540800273418427
1152.0,0.0012231406290084124
1280.0,0.0005002301768399775
1408.0,-0.0023926766589283943
1536.0,0.0009636630420573056
1664.0,-0.001133014797233045
1792.0,-0.0015206080861389637
1920.0,-0.003994908649474382
2048.0,-0.001733028911985457
2304.0,-0.0029506327118724585
2560.0,0.0009350795298814774
2816.0,-0.004443993326276541
3072.0,0.0007215806981548667
3328.0,-0.001178466365672648
3584.0,-0.00306208455003798
3840.0,-0.002047854708507657
4096.0,-0.0011053411290049553
4608.0,-0.0021378502715379
5120.0,0.0004494369786698371
5632.0,0.0006105221691541374
6144.0,0.00021408864995464683
6656.0,-0.00046323114656843245
7168.0,-0.0017949064495041966
7680.0,-0.003377405693754554
8192.0,-0.00017570046475157142
9216.0,0.004620624240487814
10240.0,0.0014820947544649243
11264.0,0.0010454592993482947
12288.0,-0.0004955503391101956
13312.0,-0.005170632619410753
14336.0,0.002023416804149747
end
