version,3.0
numOfCh,1
type,point
parent_name,80-cuts
ch_type,1_1
kcount,1
numberNandB,1
brightnessNandB,1
carpet pos,0
pc,0
Time (ms),CH1 Auto-Correlation
1.0,0.04727672412991524
2.0,0.0437915064394474
3.0,0.040815319865942
4.0,0.038155533373355865
5.0,0.03581012785434723
6.0,0.033730871975421906
7.0,0.031994353979825974
8.0,0.030484680086374283
9.0,0.0290721133351326
10.0,0.027814332395792007
11.0,0.026539891958236694
12.0,0.02533085271716118
13.0,0.024133211001753807
14.0,0.022975098341703415
15.0,0.02196386270225048
16.0,0.020994670689105988
18.0,0.019493699073791504
20.0,0.018160462379455566
22.0,0.01699122227728367
24.0,0.015999052673578262
26.0,0.015138626098632812
28.0,0.014389565214514732
30.0,0.013687820173799992
32.0,0.01308455504477024
36.0,0.012132730334997177
40.0,0.01095649041235447
44.0,0.010152998380362988
48.0,0.009575151838362217
52.0,0.009460469707846642
56.0,0.009274140931665897
60.0,0.008940706960856915
64.0,0.008030704222619534
72.0,0.006512058898806572
80.0,0.006498559843748808
88.0,0.0064353602938354015
96.0,0.006085371598601341
104.0,0.005844460800290108
112.0,0.006424844264984131
120.0,0.006030804943293333
128.0,0.005212346091866493
144.0,0.003915367182344198
160.0,0.002577263629063964
176.0,0.0021583265624940395
192.0,0.0011669732630252838
208.0,0.0010953666642308235
224.0,-0.0010981373488903046
240.0,-0.0015631839632987976
256.0,-0.0017375638708472252
288.0,-0.0021801767870783806
320.0,-0.002208609599620104
352.0,-0.0028611894231289625
384.0,-0.0017751860432326794
416.0,-0.0023481014650315046
448.0,-0.0003295640053693205
480.0,0.0010222512064501643
512.0,7.158588414313272e-05
576.0,0.002783187897875905
640.0,0.0023667586501687765
704.0,0.0002873493358492851
768.0,-0.0008079405524767935
832.0,-0.0002855162601917982
896.0,0.001198142534121871
960.0,0.0006591269047930837
1024.0,0.0016391242388635874
1152.0,0.0002972704533021897
1280.0,-0.001406643888913095
1408.0,-0.001554469927214086
1536.0,0.0011957676615566015
1664.0,-0.0018861137796193361
1792.0,-0.0032748214434832335
1920.0,-0.0015656027244403958
2048.0,-0.00018257480405736715
2304.0,-0.002888025250285864
2560.0,-0.00013739366841036826
2816.0,-0.002190574537962675
3072.0,0.00017358327750116587
3328.0,-0.0006916379788890481
3584.0,0.0007416603621095419
3840.0,0.0007312235538847744
4096.0,0.0032628593035042286
4608.0,0.00011022473336197436
5120.0,0.00193678995128721
5632.0,-0.002626229077577591
6144.0,0.0005356352194212377
6656.0,-0.0036142971366643906
7168.0,0.001454126089811325
7680.0,-0.00017366488464176655
8192.0,0.0013115064939484
9216.0,-0.00023866725678090006
10240.0,-0.002090232912451029
11264.0,-0.0007930203573778272
12288.0,0.001774633303284645
13312.0,0.0009028126369230449
14336.0,-0.0005368195124901831
end
