version,3.0
numOfCh,1
type,point
parent_name,80-cuts
ch_type,1_1
kcount,1
numberNandB,1
brightnessNandB,1
carpet pos,0
pc,0
Time (ms),CH1 Auto-Correlation
1.0,0.08402370661497116
2.0,0.0766945406794548
3.0,0.07034637778997421
4.0,0.06495711207389832
5.0,0.060214072465896606
6.0,0.055889032781124115
7.0,0.05216347053647041
8.0,0.04897379130125046
9.0,0.04609674960374832
10.0,0.04376071318984032
11.0,0.041756607592105865
12.0,0.03978089988231659
13.0,0.03791831433773041
14.0,0.03638289496302605
15.0,0.03479417786002159
16.0,0.0333988331258297
18.0,0.030599862337112427
20.0,0.02804858796298504
22.0,0.02601005509495735
24.0,0.02426096238195896
26.0,0.022452864795923233
28.0,0.020861202850937843
30.0,0.019359426572918892
32.0,0.018056398257613182
36.0,0.015988368541002274
40.0,0.015022135339677334
44.0,0.014074196107685566
48.0,0.01260147150605917
52.0,0.010461525060236454
56.0,0.009061756543815136
60.0,0.008408090099692345
64.0,0.007212943397462368
72.0,0.005319005809724331
80.0,0.004857697989791632
88.0,0.005724421236664057
96.0,0.005783157888799906
104.0,0.004863861948251724
112.0,0.004758519120514393
120.0,0.002468269085511565
128.0,0.002266892697662115
144.0,0.0032536524813622236
160.0,0.004831126891076565
176.0,0.004852296784520149
192.0,0.005098662339150906
208.0,0.005866546183824539
224.0,0.004186771344393492
240.0,0.002909129485487938
256.0,0.0013788931537419558
288.0,-2.2635660570813343e-05
320.0,0.002576901111751795
352.0,0.004079483449459076
384.0,0.004744420293718576
416.0,0.0019827610813081264
448.0,0.0037135151214897633
480.0,0.005296913906931877
512.0,0.0042682066559791565
576.0,0.001920483075082302
640.0,-0.000732982240151614
704.0,0.0021834843792021275
768.0,-0.000221662936382927
832.0,-0.0030920205172151327
896.0,0.0044348412193357944
960.0,0.0007596281357109547
1024.0,-0.0030618649907410145
1152.0,-0.0024992215912789106
1280.0,-0.00403904402628541
1408.0,-0.002068174770101905
1536.0,-0.0004479397612158209
1664.0,0.0003259414224885404
1792.0,-0.002870406722649932
1920.0,-0.0014739043544977903
2048.0,-0.0013081313809379935
2304.0,-0.0037664994597434998
2560.0,0.0013179692905396223
2816.0,-0.0007853128481656313
3072.0,1.9561859517125413e-05
3328.0,0.0005085656302981079
3584.0,0.0005542708095163107
3840.0,-0.003094026120379567
4096.0,0.0016707577742636204
4608.0,-0.0001667456526774913
5120.0,0.0008011845638975501
5632.0,-0.0007040839409455657
6144.0,-0.0006672736490145326
6656.0,-0.0013527279952540994
7168.0,0.0004944976535625756
7680.0,0.0003133266291115433
8192.0,-0.0015654683811590075
9216.0,-0.0038170814514160156
10240.0,0.0010274596279487014
11264.0,0.005432607606053352
12288.0,0.0004339069128036499
13312.0,-0.005020797252655029
14336.0,0.0005019511445425451
end
