version,3.0
numOfCh,1
type,point
parent_name,80-cuts
ch_type,1_1
kcount,1
numberNandB,1
brightnessNandB,1
carpet pos,0
pc,0
Time (ms),CH1 Auto-Correlation
1.0,0.0283170398324728
2.0,0.026074569672346115
3.0,0.024118153378367424
4.0,0.022340087220072746
5.0,0.020785920321941376
6.0,0.019459040835499763
7.0,0.018303465098142624
8.0,0.017276890575885773
9.0,0.016273748129606247
10.0,0.015329047106206417
11.0,0.014482539147138596
12.0,0.013719772920012474
13.0,0.013113372027873993
14.0,0.012452153488993645
15.0,0.011828763410449028
16.0,0.01131850853562355
18.0,0.0104901734739542
20.0,0.00978864450007677
22.0,0.009181162342429161
24.0,0.00864412635564804
26.0,0.00807880237698555
28.0,0.007465519942343235
30.0,0.006896499544382095
32.0,0.006482294294983149
36.0,0.005854000337421894
40.0,0.005447679199278355
44.0,0.005125340539962053
48.0,0.004687255714088678
52.0,0.0042230915278196335
56.0,0.0038080569356679916
60.0,0.0034710122272372246
64.0,0.003050777828320861
72.0,0.002767668105661869
80.0,0.0019588381983339787
88.0,0.0011856209021061659
96.0,0.0009410821949131787
104.0,0.0010050006676465273
112.0,0.0009795200312510133
120.0,0.0009475226397626102
128.0,0.0006852973601780832
144.0,0.0009218892664648592
160.0,0.0007696094689890742
176.0,0.00039118475979194045
192.0,0.0001780924794729799
208.0,-0.0003995290317106992
224.0,-0.00010378044680692255
240.0,2.935741940746084e-05
256.0,8.722913480596617e-05
288.0,0.0013784670736640692
320.0,0.0006991311092860997
352.0,0.0009052034583874047
384.0,0.0008371660369448364
416.0,0.0011253181146457791
448.0,0.000828050950076431
480.0,0.0013224021531641483
512.0,0.0009073303663171828
576.0,0.0003324877470731735
640.0,0.0006900987937115133
704.0,0.0008801991934888065
768.0,0.0004156216746196151
832.0,-0.0007183646084740758
896.0,-0.0006650884752161801
960.0,0.00027202555793337524
1024.0,0.0004981904639862478
1152.0,0.0012993444688618183
1280.0,0.0013762864982709289
1408.0,0.0021098931320011616
1536.0,0.0010998316574841738
1664.0,0.0007091757724992931
1792.0,0.0007044703816063702
1920.0,0.000385310995625332
2048.0,-0.0008917394443415105
2304.0,0.00046484629274345934
2560.0,0.00022424380586016923
2816.0,0.0011150646023452282
3072.0,0.0012149674585089087
3328.0,0.0003359986876603216
3584.0,0.0006130198016762733
3840.0,-0.0003396996471565217
4096.0,-0.0011863248655572534
4608.0,2.402105565124657e-06
5120.0,-0.0002662420738488436
5632.0,0.0002645339700393379
6144.0,-3.12176052830182e-06
6656.0,-0.0013458699686452746
7168.0,-0.0015760721871629357
7680.0,-0.0008396478951908648
8192.0,-0.0011679941089823842
9216.0,-0.000743088370654732
10240.0,-0.000946493586525321
11264.0,-0.0005750551354140043
12288.0,-0.0005132484948262572
13312.0,-0.0008535977685824037
14336.0,0.00025993786402978003
end
