version,3.0
numOfCh,1
type,point
parent_name,80-cuts
ch_type,1_1
kcount,1
numberNandB,1
brightnessNandB,1
carpet pos,0
pc,0
Time (ms),CH1 Auto-Correlation
1.0,0.08367937058210373
2.0,0.07690680027008057
3.0,0.07122976332902908
4.0,0.06615538895130157
5.0,0.06148342788219452
6.0,0.05738680437207222
7.0,0.053594063967466354
8.0,0.05025674030184746
9.0,0.04708152264356613
10.0,0.04403547942638397
11.0,0.04133782908320427
12.0,0.03902389481663704
13.0,0.037064358592033386
14.0,0.035369932651519775
15.0,0.03404946252703667
16.0,0.03284813091158867
18.0,0.030606774613261223
20.0,0.02850574627518654
22.0,0.026623237878084183
24.0,0.025207484140992165
26.0,0.023953713476657867
28.0,0.0226310882717371
30.0,0.020836347714066505
32.0,0.018848638981580734
36.0,0.015464138239622116
40.0,0.013222195208072662
44.0,0.012051787227392197
48.0,0.011107555590569973
52.0,0.010326982475817204
56.0,0.009641079232096672
60.0,0.008867050521075726
64.0,0.007806540932506323
72.0,0.006856265477836132
80.0,0.005899449810385704
88.0,0.0035449916031211615
96.0,0.0027429545298218727
104.0,0.0015765258576720953
112.0,0.0008091604104265571
120.0,0.0012643603840842843
128.0,0.0010289855999872088
144.0,-0.0010990286245942116
160.0,-0.002170298248529434
176.0,-0.004029979929327965
192.0,-0.004270727280527353
208.0,-0.002676432253792882
224.0,-0.0013750905636698008
240.0,-0.004273563623428345
256.0,-0.0053970422595739365
288.0,-0.0034913569688796997
320.0,0.00026027782587334514
352.0,0.002562362002208829
384.0,0.0011697199661284685
416.0,-0.0013549778377637267
448.0,0.0013617307413369417
480.0,0.0039425380527973175
512.0,-0.0002715741575229913
576.0,-0.0028755636885762215
640.0,-0.004357683937996626
704.0,0.0003803192521445453
768.0,-0.00040164554957300425
832.0,0.0008395241457037628
896.0,0.0027633856516331434
960.0,0.00010626391303958371
1024.0,-0.000432409142376855
1152.0,-0.0009728753357194364
1280.0,0.0011911968467757106
1408.0,-0.0008460467215627432
1536.0,-0.002573321107774973
1664.0,0.00023837848857510835
1792.0,-0.0010952987940981984
1920.0,-0.0034021749161183834
2048.0,-0.003298964351415634
2304.0,-0.002586736809462309
2560.0,0.00037347173201851547
2816.0,-0.0001866805978352204
3072.0,-0.00027545361081138253
3328.0,0.0019546274561434984
3584.0,0.0002403779944870621
3840.0,0.002888047369197011
4096.0,-0.0001828208041843027
4608.0,0.0007170435856096447
5120.0,-0.00014808720152359456
5632.0,-0.0010507110273465514
6144.0,-0.000636656244751066
6656.0,-0.0005870069144293666
7168.0,-0.00019464358047116548
7680.0,-0.000232958875130862
8192.0,0.0005412769969552755
9216.0,0.0008944504661485553
10240.0,-0.00021296701743267477
11264.0,-0.0015033133095130324
12288.0,0.00014234853733796626
13312.0,0.0021763360127806664
14336.0,-7.193659985205159e-05
end
