version,3.0
numOfCh,1
type,point
parent_name,80-cuts
ch_type,1_1
kcount,1
numberNandB,1
brightnessNandB,1
carpet pos,0
pc,0
Time (ms),CH1 Auto-Correlation
1.0,0.08892536163330078
2.0,0.08178164064884186
3.0,0.07575015723705292
4.0,0.07066287100315094
5.0,0.06629034876823425
6.0,0.06228774040937424
7.0,0.05858463793992996
8.0,0.05520188435912132
9.0,0.052071064710617065
10.0,0.049168072640895844
11.0,0.046670492738485336
12.0,0.04427235201001167
13.0,0.04219574108719826
14.0,0.04032082483172417
15.0,0.03863883391022682
16.0,0.03712629899382591
18.0,0.034578338265419006
20.0,0.03224857151508331
22.0,0.03003442846238613
24.0,0.02782420627772808
26.0,0.026104852557182312
28.0,0.024643857032060623
30.0,0.023044994100928307
32.0,0.021617619320750237
36.0,0.019441744312644005
40.0,0.01763542741537094
44.0,0.015700314193964005
48.0,0.013545691035687923
52.0,0.012017622590065002
56.0,0.011493420228362083
60.0,0.011500570923089981
64.0,0.011413690634071827
72.0,0.010623320937156677
80.0,0.008178912103176117
88.0,0.006270487327128649
96.0,0.005203785374760628
104.0,0.005180708598345518
112.0,0.005852328147739172
120.0,0.0058366162702441216
128.0,0.005899843294173479
144.0,0.006605856586247683
160.0,0.0054655540734529495
176.0,0.005955279804766178
192.0,0.0052587054669857025
208.0,0.00466167414560914
224.0,0.0021041652653366327
240.0,-0.001382246846333146
256.0,0.000753503933083266
288.0,0.002383281011134386
320.0,-0.0012386542512103915
352.0,-0.0013395384885370731
384.0,-0.005057597067207098
416.0,-0.0017027829308062792
448.0,0.00015569973038509488
480.0,0.0001246593747055158
512.0,0.0008386671543121338
576.0,0.0027298324275761843
640.0,0.0025672430638223886
704.0,0.0023443063255399466
768.0,-0.0008531759958714247
832.0,-0.001565248821862042
896.0,0.0020602988079190254
960.0,-0.00034766565659083426
1024.0,0.0037865699268877506
1152.0,0.004123364109545946
1280.0,0.00216868263669312
1408.0,-0.0023645469918847084
1536.0,-0.0015485839685425162
1664.0,0.0005373914027586579
1792.0,-0.0006495355046354234
1920.0,-0.00013942054647486657
2048.0,-0.004114512819796801
2304.0,0.0001481367216911167
2560.0,-0.0034705318976193666
2816.0,-0.000645449326839298
3072.0,0.0004865163064096123
3328.0,-0.0015990977408364415
3584.0,-0.00016673030040692538
3840.0,-0.004444957710802555
4096.0,0.003184304805472493
4608.0,-0.004527265205979347
5120.0,-0.0004377385776024312
5632.0,-0.0034575292374938726
6144.0,-0.0001646262244321406
6656.0,-0.0011732486309483647
7168.0,0.004615278448909521
7680.0,-0.002550350036472082
8192.0,0.002436660695821047
9216.0,0.00020526412117760628
10240.0,0.005448662210255861
11264.0,-0.0006622973596677184
12288.0,-0.003385400166735053
13312.0,-0.0005518358666449785
14336.0,-0.002515218686312437
end
