version,3.0
numOfCh,1
type,point
parent_name,80-cuts
ch_type,1_1
kcount,1
numberNandB,1
brightnessNandB,1
carpet pos,0
pc,0
Time (ms),CH1 Auto-Correlation
1.0,0.04060707986354828
2.0,0.03726986050605774
3.0,0.03435104340314865
4.0,0.03186337649822235
5.0,0.029602332040667534
6.0,0.027627622708678246
7.0,0.025823067873716354
8.0,0.024194808676838875
9.0,0.022758711129426956
10.0,0.021553585305809975
11.0,0.020395465195178986
12.0,0.019434724003076553
13.0,0.01847570389509201
14.0,0.017553824931383133
15.0,0.016713926568627357
16.0,0.015925250947475433
18.0,0.01440757978707552
20.0,0.012983706779778004
22.0,0.011959084309637547
24.0,0.011213555000722408
26.0,0.010624952614307404
28.0,0.010182404890656471
30.0,0.00981045700609684
32.0,0.009305994026362896
36.0,0.008145095780491829
40.0,0.006558020133525133
44.0,0.005618563387542963
48.0,0.004734511952847242
52.0,0.003957163542509079
56.0,0.0034729086328297853
60.0,0.0031036953441798687
64.0,0.0027240526396781206
72.0,0.001741852262057364
80.0,0.0006167112733237445
88.0,0.0007890146807767451
96.0,0.0010074730962514877
104.0,0.0012077933643013239
112.0,0.0015458620619028807
120.0,0.0015899469144642353
128.0,0.0012107848888263106
144.0,0.001472796080633998
160.0,0.0008053185301832855
176.0,0.0006838554400019348
192.0,0.00010372005635872483
208.0,0.0003594441222958267
224.0,-0.0005281424382701516
240.0,-0.0003332641499582678
256.0,0.0006809465703554451
288.0,0.0016700010746717453
320.0,0.0005436550709418952
352.0,0.0008816011250019073
384.0,0.0004384551430121064
416.0,-0.0007972315070219338
448.0,-8.193229587050155e-05
480.0,-0.0017864940455183387
512.0,-0.0006767875165678561
576.0,-0.001007542246952653
640.0,0.001825461396947503
704.0,0.0019395914860069752
768.0,0.0005057206144556403
832.0,0.0005002359976060688
896.0,0.00042836403008550406
960.0,0.00039650333928875625
1024.0,-0.0004364639171399176
1152.0,-0.000959313940256834
1280.0,-0.0004381441976875067
1408.0,-0.0010229642502963543
1536.0,-0.00031650642631575465
1664.0,-0.0008145857136696577
1792.0,0.0008008349104784429
1920.0,0.00034241078537888825
2048.0,-0.0006148848915472627
2304.0,-0.0006380929844453931
2560.0,-0.0003281872777733952
2816.0,0.0002027339651249349
3072.0,-0.0007999857189133763
3328.0,-0.0014500116230919957
3584.0,-0.0004928192938677967
3840.0,-7.929476851131767e-05
4096.0,-0.00031376798870041966
4608.0,-0.0004184464050922543
5120.0,-7.173540507210419e-05
5632.0,-0.0005974781233817339
6144.0,-0.00047869147965684533
6656.0,0.0006683274987153709
7168.0,0.00023598925326950848
7680.0,0.0010296243708580732
8192.0,0.0011107499012723565
9216.0,0.000449181447038427
10240.0,-0.0018799869576469064
11264.0,0.0011193560203537345
12288.0,-0.002199317794293165
13312.0,0.0027219923213124275
14336.0,-0.001519244397059083
end
