version,3.0
numOfCh,1
type,point
parent_name,80-cuts
ch_type,1_1
kcount,1
numberNandB,1
brightnessNandB,1
carpet pos,0
pc,0
Time (ms),CH1 Auto-Correlation
1.0,0.04010295495390892
2.0,0.03661782294511795
3.0,0.0337020643055439
4.0,0.03112909384071827
5.0,0.028888387605547905
6.0,0.026903679594397545
7.0,0.025218244642019272
8.0,0.02374020777642727
9.0,0.022436706349253654
10.0,0.02118738926947117
11.0,0.02002551779150963
12.0,0.018994256854057312
13.0,0.018128709867596626
14.0,0.017266742885112762
15.0,0.016473283991217613
16.0,0.01573670282959938
18.0,0.014427748508751392
20.0,0.013368681073188782
22.0,0.012548379600048065
24.0,0.01183879841119051
26.0,0.011071564629673958
28.0,0.010404643602669239
30.0,0.009766797535121441
32.0,0.009272935800254345
36.0,0.008247457444667816
40.0,0.007682204246520996
44.0,0.007725538685917854
48.0,0.007462142501026392
52.0,0.006704694591462612
56.0,0.0057140919379889965
60.0,0.005130878183990717
64.0,0.004818393848836422
72.0,0.00436238432303071
80.0,0.0033925152383744717
88.0,0.002903595333918929
96.0,0.0016506646061316133
104.0,0.000609715236350894
112.0,0.0008863725233823061
120.0,0.0010967351263388991
128.0,0.001436806283891201
144.0,0.0012746122665703297
160.0,0.0008096767705865204
176.0,0.000827459734864533
192.0,0.0005585250328294933
208.0,0.0006877355626784265
224.0,0.0009529517265036702
240.0,0.00041336315916851163
256.0,-0.000784326926805079
288.0,0.00010513898450881243
320.0,-0.0010555139742791653
352.0,-0.0012054280377924442
384.0,-0.0020578517578542233
416.0,-0.002073953626677394
448.0,-0.001679272623732686
480.0,-0.002025534398853779
512.0,-0.0015246182447299361
576.0,-0.0006776950322091579
640.0,-0.00010021636262536049
704.0,-0.001288550440222025
768.0,6.16191464359872e-05
832.0,5.250599315331783e-06
896.0,-0.00019816205895040184
960.0,-0.0016384234186261892
1024.0,-0.0012586163356900215
1152.0,0.0015219333581626415
1280.0,0.002105370396748185
1408.0,0.0012904604664072394
1536.0,0.00042250327533110976
1664.0,-4.533379524218617e-06
1792.0,-0.0013449047692120075
1920.0,-0.00046991585986688733
2048.0,-0.0005207250360399485
2304.0,0.001601892407052219
2560.0,-0.0007287996122613549
2816.0,5.569768472923897e-05
3072.0,-0.00011366914986865595
3328.0,-0.00174141360912472
3584.0,0.0017024780390784144
3840.0,0.0009409569320268929
4096.0,-0.001658641267567873
4608.0,-0.0005201056483201683
5120.0,0.0010631638579070568
5632.0,-0.0018743847031146288
6144.0,-9.28674216993386e-06
6656.0,4.7339988668682054e-05
7168.0,-0.001555998926050961
7680.0,-4.222651477903128e-05
8192.0,0.0005998144042678177
9216.0,-0.0009326928411610425
10240.0,-1.9075516320299357e-05
11264.0,0.00022129449644125998
12288.0,0.0005397675558924675
13312.0,0.000857930863276124
14336.0,0.00028037268202751875
end
