version,3.0
numOfCh,1
type,point
parent_name,80-cuts
ch_type,1_1
kcount,1
numberNandB,1
brightnessNandB,1
carpet pos,0
pc,0
Time (ms),CH1 Auto-Correlation
1.0,0.02844039909541607
2.0,0.026227138936519623
3.0,0.02427894063293934
4.0,0.022628216072916985
5.0,0.021217307075858116
6.0,0.019880181178450584
7.0,0.01873387023806572
8.0,0.017732011154294014
9.0,0.016781195998191833
10.0,0.01596151292324066
11.0,0.01526214461773634
12.0,0.014562752097845078
13.0,0.013872547075152397
14.0,0.013311716727912426
15.0,0.01272678468376398
16.0,0.01219757366925478
18.0,0.011323941871523857
20.0,0.01065729558467865
22.0,0.009865867905318737
24.0,0.0092312665656209
26.0,0.008567484095692635
28.0,0.007881931029260159
30.0,0.007337498944252729
32.0,0.006901847664266825
36.0,0.00604805164039135
40.0,0.0053780353628098965
44.0,0.0047870781272649765
48.0,0.004253815393894911
52.0,0.0038170823827385902
56.0,0.003492895746603608
60.0,0.0031437508296221495
64.0,0.0028539954219013453
72.0,0.002593529410660267
80.0,0.0020260903984308243
88.0,0.0015363101847469807
96.0,0.001139939296990633
104.0,0.0006907167262397707
112.0,0.000762689916882664
120.0,0.0005960655980743468
128.0,0.0005890821921639144
144.0,-2.1299229047144763e-05
160.0,-0.00012232395238243043
176.0,-0.00043564997031353414
192.0,-0.00168858643155545
208.0,-0.0016864623175933957
224.0,-0.0012897662818431854
240.0,-0.0016330087091773748
256.0,-0.001712988712824881
288.0,-0.0013188577722758055
320.0,-0.0014189979992806911
352.0,-0.0018003100994974375
384.0,-0.00038378240424208343
416.0,-0.00028226777794770896
448.0,-0.0005283921491354704
480.0,0.0002120280114468187
512.0,-0.00017740459588821977
576.0,0.0017201658338308334
640.0,0.0009894762188196182
704.0,0.0006018730928190053
768.0,0.0007404690841212869
832.0,0.0006296148640103638
896.0,-0.00039051464409567416
960.0,-0.0006315485225059092
1024.0,-0.0017433236353099346
1152.0,0.0004550297453533858
1280.0,0.0002185303601436317
1408.0,0.0004312414093874395
1536.0,0.0005153340171091259
1664.0,-0.0006169331609271467
1792.0,-2.226504875579849e-05
1920.0,-0.0006689109723083675
2048.0,-0.00047017759061418474
2304.0,-0.0006057634018361568
2560.0,-4.2882689740508795e-05
2816.0,-0.00013867900997865945
3072.0,-0.0006305970600806177
3328.0,-0.000245944393100217
3584.0,-0.0003291226166766137
3840.0,-0.00019944924861192703
4096.0,0.00013698561815544963
4608.0,-2.216334905824624e-05
5120.0,0.00044806566438637674
5632.0,0.0001648126053623855
6144.0,0.00041819291072897613
6656.0,-6.9678221734648105e-06
7168.0,-0.000166218145750463
7680.0,-0.00023334703291766346
8192.0,-0.001018744078464806
9216.0,-0.00020074188068974763
10240.0,1.0133202522411011e-05
11264.0,0.0003144984948448837
12288.0,0.00021781517716590315
13312.0,5.021121523895999e-06
14336.0,3.0762985261389986e-05
end
