version,3.0
numOfCh,1
type,point
parent_name,80-cuts
ch_type,1_1
kcount,1
numberNandB,1
brightnessNandB,1
carpet pos,0
pc,0
Time (ms),CH1 Auto-Correlation
1.0,0.04013805463910103
2.0,0.036587681621313095
3.0,0.033545468002557755
4.0,0.030984561890363693
5.0,0.028706006705760956
6.0,0.02661234140396118
7.0,0.02464623749256134
8.0,0.022866729646921158
9.0,0.021296165883541107
10.0,0.019899694249033928
11.0,0.018605999648571014
12.0,0.017454780638217926
13.0,0.016408847644925117
14.0,0.015431331470608711
15.0,0.014611954800784588
16.0,0.0138537073507905
18.0,0.012348717078566551
20.0,0.01111287996172905
22.0,0.010163066908717155
24.0,0.00918912049382925
26.0,0.008459821343421936
28.0,0.007854390889406204
30.0,0.007466701790690422
32.0,0.007180527318269014
36.0,0.006133392918854952
40.0,0.005250121932476759
44.0,0.004540357273072004
48.0,0.004350590519607067
52.0,0.0041513219475746155
56.0,0.004045106470584869
60.0,0.003496879246085882
64.0,0.0031200959347188473
72.0,0.003537760116159916
80.0,0.003342480631545186
88.0,0.002037696074694395
96.0,0.0010108569404110312
104.0,0.0009997750166803598
112.0,0.0014414999168366194
120.0,0.0015207012183964252
128.0,0.0017429868457838893
144.0,0.0016801878809928894
160.0,0.0006311956094577909
176.0,0.0008702448685653508
192.0,0.0006217592745088041
208.0,4.8490703193238005e-05
224.0,-0.0009329384192824364
240.0,-0.0007774198311381042
256.0,6.33947565802373e-05
288.0,-0.0005840091034770012
320.0,-0.0022489854600280523
352.0,-0.0017649095971137285
384.0,-0.000952451431658119
416.0,-0.00013181462418287992
448.0,-0.0007432785350829363
480.0,0.00023130798945203424
512.0,0.00034835896803997457
576.0,-4.243701187078841e-05
640.0,0.0016785525949671865
704.0,0.001045071054250002
768.0,-0.0003256435738876462
832.0,-0.0013174819760024548
896.0,0.0006141253979876637
960.0,7.278920384123921e-05
1024.0,-0.0006371422205120325
1152.0,6.977168231969699e-05
1280.0,-0.00037615408655256033
1408.0,-0.00011751880083465949
1536.0,0.0011587872868403792
1664.0,-0.00046642631059512496
1792.0,-0.0008976786048151553
1920.0,-0.00018886268662754446
2048.0,0.001624466385692358
2304.0,0.00024845864390954375
2560.0,-0.001020593335852027
2816.0,0.0008728899410925806
3072.0,-0.0004893071600235999
3328.0,-0.0008340110071003437
3584.0,0.0002981644938699901
3840.0,-0.0004657844256144017
4096.0,-0.0007557632634416223
4608.0,-0.0007509741699323058
5120.0,3.87030013371259e-05
5632.0,-0.0005199433071538806
6144.0,2.0952526028850116e-05
6656.0,0.0005760110798291862
7168.0,-0.00019144995894748718
7680.0,-0.0005115328822284937
8192.0,-0.00028694019420072436
9216.0,0.0004252239305060357
10240.0,9.014461829792708e-05
11264.0,-0.0008321122149936855
12288.0,-0.0005605811602436006
13312.0,0.0005516118835657835
14336.0,0.0010052449069917202
end
