version,3.0
numOfCh,1
type,point
parent_name,80-cuts
ch_type,1_1
kcount,1
numberNandB,1
brightnessNandB,1
carpet pos,0
pc,0
Time (ms),CH1 Auto-Correlation
1.0,0.029300348833203316
2.0,0.026990370824933052
3.0,0.02505522035062313
4.0,0.02336028404533863
5.0,0.021896537393331528
6.0,0.02056594006717205
7.0,0.01932419277727604
8.0,0.018259722739458084
9.0,0.017312686890363693
10.0,0.016501545906066895
11.0,0.01580786518752575
12.0,0.015213833190500736
13.0,0.014643635600805283
14.0,0.014116753824055195
15.0,0.013531588017940521
16.0,0.013006865978240967
18.0,0.012013998813927174
20.0,0.011118583381175995
22.0,0.010345669463276863
24.0,0.009623279795050621
26.0,0.009005831554532051
28.0,0.008447812870144844
30.0,0.008009214885532856
32.0,0.007663257420063019
36.0,0.007177845109254122
40.0,0.00661056162789464
44.0,0.006052518729120493
48.0,0.005626526661217213
52.0,0.005170854739844799
56.0,0.0047945911064744
60.0,0.004270381294190884
64.0,0.0037494234275072813
72.0,0.0030626796651631594
80.0,0.0024746304843574762
88.0,0.0022226450964808464
96.0,0.001932842773385346
104.0,0.001955833751708269
112.0,0.0015761922113597393
120.0,0.0016144320834428072
128.0,0.001453594071790576
144.0,0.0016881547635421157
160.0,0.001245079911313951
176.0,0.0012702501844614744
192.0,0.0012385169975459576
208.0,0.0007475349120795727
224.0,0.0009761425899341702
240.0,0.0009837468387559056
256.0,0.0007954840548336506
288.0,0.0014617048436775804
320.0,0.0010101899970322847
352.0,0.0014580694260075688
384.0,0.001284359605051577
416.0,0.0012721855891868472
448.0,0.0011924647260457277
480.0,0.00031620339723303914
512.0,-0.0005197828286327422
576.0,-0.0009518755250610411
640.0,-0.0002932367497123778
704.0,-0.0004593979683704674
768.0,-0.0005255975993350148
832.0,-0.0016098710475489497
896.0,-0.003250636626034975
960.0,-0.004519362468272448
1024.0,-0.003466183552518487
1152.0,-0.0014285813085734844
1280.0,-0.0012484464095905423
1408.0,-0.0011460351524874568
1536.0,-0.0010188374435529113
1664.0,0.0004378426820039749
1792.0,0.0011542638530954719
1920.0,0.0014310640981420875
2048.0,0.0006470239022746682
2304.0,0.0013663474237546325
2560.0,0.0011340143391862512
2816.0,0.000454876251751557
3072.0,0.0008808588609099388
3328.0,-0.0014954227954149246
3584.0,-0.0012286874698475003
3840.0,-0.0017959774704650044
4096.0,-0.0006617582403123379
4608.0,0.0008797035552561283
5120.0,0.000462899828562513
5632.0,-0.0010460757184773684
6144.0,-0.0007606001454405487
6656.0,7.80207192292437e-05
7168.0,-7.24308702046983e-05
7680.0,-9.148411481874064e-05
8192.0,0.000590113049838692
9216.0,-0.00028437934815883636
10240.0,0.0006303220288828015
11264.0,-2.9499899028451182e-05
12288.0,0.000272120232693851
13312.0,-0.00036024939618073404
14336.0,0.0015904740430414677
end
