version,3.0
numOfCh,1
type,point
parent_name,80-cuts
ch_type,1_1
kcount,1
numberNandB,1
brightnessNandB,1
carpet pos,0
pc,0
Time (ms),CH1 Auto-Correlation
1.0,0.02586602419614792
2.0,0.023710688576102257
3.0,0.021859347820281982
4.0,0.020229682326316833
5.0,0.018754182383418083
6.0,0.017445852980017662
7.0,0.016257286071777344
8.0,0.01515540573745966
9.0,0.01421012356877327
10.0,0.013328665867447853
11.0,0.012525209225714207
12.0,0.011730847880244255
13.0,0.01104076486080885
14.0,0.010421077720820904
15.0,0.009894970804452896
16.0,0.009425380267202854
18.0,0.008718334138393402
20.0,0.008048013783991337
22.0,0.0073621077463030815
24.0,0.006645352579653263
26.0,0.006032865960150957
28.0,0.005449994467198849
30.0,0.005069759674370289
32.0,0.0046871015802025795
36.0,0.004308283794671297
40.0,0.0036220347974449396
44.0,0.002957239979878068
48.0,0.002602907596156001
52.0,0.0026187156327068806
56.0,0.00271940091624856
60.0,0.00266484753228724
64.0,0.002389300614595413
72.0,0.0022109022829681635
80.0,0.0013347049243748188
88.0,0.0008975142845883965
96.0,0.0008248006924986839
104.0,0.0008184862672351301
112.0,0.00047045599785633385
120.0,0.0002924082218669355
128.0,0.0002352539449930191
144.0,0.0005997644038870931
160.0,0.0008861906244419515
176.0,0.001003349432721734
192.0,0.0009377083624713123
208.0,0.0010154389310628176
224.0,0.0007087920093908906
240.0,-5.984979907225352e-06
256.0,-0.000865640991833061
288.0,4.5894907088950276e-05
320.0,-0.0002789219724945724
352.0,-0.00027014195802621543
384.0,-7.670713239349425e-05
416.0,-0.0004608225426636636
448.0,-0.00017697381554171443
480.0,0.0005300458869896829
512.0,0.0003062548057641834
576.0,0.0003562049532774836
640.0,4.851220001000911e-05
704.0,-0.000656432646792382
768.0,-0.0005560665740631521
832.0,0.00013345046318136156
896.0,0.0005524496082216501
960.0,-0.00011829148570541292
1024.0,-0.0002824185648933053
1152.0,-0.000983945094048977
1280.0,-0.0003359407128300518
1408.0,0.0004345532797742635
1536.0,-0.00018639165500644594
1664.0,-0.0012379213003441691
1792.0,-0.00012553528358694166
1920.0,-3.454842953942716e-05
2048.0,-0.0008081065025180578
2304.0,0.00038243879680521786
2560.0,-0.0010185004211962223
2816.0,0.0005048287566751242
3072.0,0.0003854009264614433
3328.0,0.00046191285946406424
3584.0,2.812675120367203e-05
3840.0,0.0009088552906177938
4096.0,-0.0002789649006444961
4608.0,-6.203525117598474e-05
5120.0,-0.0005620410083793104
5632.0,-0.0005279116448946297
6144.0,0.0001805435895221308
6656.0,-0.00015661140787415206
7168.0,-0.00031391449738293886
7680.0,-6.922978354850784e-05
8192.0,0.0004869419790338725
9216.0,-0.00024722761008888483
10240.0,-0.00019019733008462936
11264.0,0.00013893365394324064
12288.0,-0.0002382714010309428
13312.0,0.00013606491847895086
14336.0,0.0002543422451708466
end
