version,3.0
numOfCh,1
type,point
parent_name,80-cuts
ch_type,1_1
kcount,1
numberNandB,1
brightnessNandB,1
carpet pos,0
pc,0
Time (ms),CH1 Auto-Correlation
1.0,0.08733662217855453
2.0,0.07991008460521698
3.0,0.0733291283249855
4.0,0.06767097115516663
5.0,0.06274676322937012
6.0,0.058478377759456635
7.0,0.054705165326595306
8.0,0.05120779201388359
9.0,0.04815112054347992
10.0,0.04556570574641228
11.0,0.043108515441417694
12.0,0.040764257311820984
13.0,0.03851831331849098
14.0,0.03625153377652168
15.0,0.034243181347846985
16.0,0.03256518393754959
18.0,0.029332920908927917
20.0,0.02654913440346718
22.0,0.023647110909223557
24.0,0.02096657082438469
26.0,0.018632812425494194
28.0,0.016667978838086128
30.0,0.015231514349579811
32.0,0.013936018571257591
36.0,0.011329148896038532
40.0,0.009056292474269867
44.0,0.007500008679926395
48.0,0.006772506982088089
52.0,0.006844871677458286
56.0,0.006229660473763943
60.0,0.0052419789135456085
64.0,0.00571164395660162
72.0,0.0057295276783406734
80.0,0.005065027624368668
88.0,0.002655153628438711
96.0,0.0010287882760167122
104.0,8.864297342370264e-06
112.0,0.001152846496552229
120.0,0.0004973377217538655
128.0,0.0011540616396814585
144.0,-8.785125828580931e-05
160.0,-0.00464596226811409
176.0,-0.006155434064567089
192.0,-0.0051668263040483
208.0,-0.004371960647404194
224.0,-0.004812086001038551
240.0,-0.004341762512922287
256.0,-0.004769584629684687
288.0,-0.0048969401977956295
320.0,-0.0024228713009506464
352.0,-0.0021516717970371246
384.0,-0.003327062353491783
416.0,-0.003181119216606021
448.0,0.002964520128443837
480.0,0.0033939876593649387
512.0,0.003619638504460454
576.0,0.002380689838901162
640.0,0.00012919089931529015
704.0,-0.001682274043560028
768.0,-0.0013584367698058486
832.0,-0.00039783684769645333
896.0,-0.002835110994055867
960.0,-0.0017919192323461175
1024.0,-0.0009762974223122001
1152.0,0.000132349508930929
1280.0,-0.0016221607802435756
1408.0,0.001007663318887353
1536.0,-0.0005659772432409227
1664.0,0.0005852435133419931
1792.0,0.0018345493590459228
1920.0,0.0010583214461803436
2048.0,0.0008074336219578981
2304.0,-0.0003625348617788404
2560.0,0.0015550795942544937
2816.0,-0.0016292512882500887
3072.0,-8.590196557634044e-06
3328.0,-2.9477165298885666e-05
3584.0,0.0003950290847569704
3840.0,0.00045771404984407127
4096.0,-0.002462809905409813
4608.0,-0.0012830994091928005
5120.0,-1.571153370605316e-05
5632.0,-0.00027155238785780966
6144.0,-0.001191345858387649
6656.0,0.0020637509878724813
7168.0,0.00035227418993599713
7680.0,-0.0020390870049595833
8192.0,0.00012468175555113703
9216.0,0.00016653144848532975
10240.0,0.0001958679495146498
11264.0,6.651449075434357e-05
12288.0,-0.0007029137923382223
13312.0,0.0005215767887420952
14336.0,-0.0013979324139654636
end
