version,3.0
numOfCh,1
type,point
parent_name,80-cuts
ch_type,1_1
kcount,1
numberNandB,1
brightnessNandB,1
carpet pos,0
pc,0
Time (ms),CH1 Auto-Correlation
1.0,0.04099268466234207
2.0,0.03755959868431091
3.0,0.034629594534635544
4.0,0.03214670717716217
5.0,0.02983723022043705
6.0,0.02774726040661335
7.0,0.02615966461598873
8.0,0.024685461074113846
9.0,0.02338501065969467
10.0,0.022178824990987778
11.0,0.021023476496338844
12.0,0.019892605021595955
13.0,0.018756259232759476
14.0,0.01773945614695549
15.0,0.01692347787320614
16.0,0.016114892438054085
18.0,0.014774088747799397
20.0,0.013715746812522411
22.0,0.012636762112379074
24.0,0.011640873737633228
26.0,0.01091468520462513
28.0,0.010251493193209171
30.0,0.009613417088985443
32.0,0.00906804483383894
36.0,0.00788870733231306
40.0,0.006650635506957769
44.0,0.005770058371126652
48.0,0.005169964861124754
52.0,0.004968438297510147
56.0,0.004697640426456928
60.0,0.004411883652210236
64.0,0.00446785893291235
72.0,0.0046380665153265
80.0,0.005229220259934664
88.0,0.005477606318891048
96.0,0.0052398741245269775
104.0,0.00518210930749774
112.0,0.004074943717569113
120.0,0.0032897626515477896
128.0,0.002901587402448058
144.0,0.003180250758305192
160.0,0.0026457859203219414
176.0,0.00293582770973444
192.0,0.003551640547811985
208.0,0.0016852954868227243
224.0,0.00016089712153188884
240.0,-1.2006158613075968e-05
256.0,0.0001616901863599196
288.0,0.002001886023208499
320.0,0.0009179668268188834
352.0,0.0004536734486464411
384.0,0.0007123746909201145
416.0,0.0006326073198579252
448.0,-0.00024017853138502687
480.0,-6.35578908259049e-05
512.0,-0.0003445821057539433
576.0,-0.0002977779367938638
640.0,0.00010811165702762082
704.0,0.0013946359977126122
768.0,0.0010459659388288856
832.0,0.000285287358565256
896.0,0.0007915660389699042
960.0,1.104520106309792e-05
1024.0,-0.0009078885777853429
1152.0,-0.001842975034378469
1280.0,-0.00048000089009292424
1408.0,0.00042257222230546176
1536.0,-0.0009130550897680223
1664.0,-0.0020280813332647085
1792.0,-0.0013240794651210308
1920.0,-0.0014225979102775455
2048.0,-0.0002762488438747823
2304.0,0.0016402082983404398
2560.0,0.0005963515141047537
2816.0,-0.0002382545790169388
3072.0,0.0006744285929016769
3328.0,-0.0009016343392431736
3584.0,-0.0012054909020662308
3840.0,-0.002344058593735099
4096.0,-0.0008189346990548074
4608.0,-0.0021446926984936
5120.0,-0.0007082933443598449
5632.0,0.0004610468167811632
6144.0,-0.0006958215381018817
6656.0,0.0006317475344985723
7168.0,-0.0007724747993052006
7680.0,0.0007678844849579036
8192.0,0.0014394825557246804
9216.0,0.000594691198784858
10240.0,-0.0008863035473041236
11264.0,2.0712539480882697e-05
12288.0,-0.0007513997843489051
13312.0,-0.0004924433887936175
14336.0,0.0010776782874017954
end
