version,3.0
numOfCh,1
type,point
parent_name,80-cuts
ch_type,1_1
kcount,1
numberNandB,1
brightnessNandB,1
carpet pos,0
pc,0
Time (ms),CH1 Auto-Correlation
1.0,0.026559559628367424
2.0,0.024315956979990005
3.0,0.022436682134866714
4.0,0.020841805264353752
5.0,0.019447369500994682
6.0,0.018256444483995438
7.0,0.01715124398469925
8.0,0.016143430024385452
9.0,0.015241277404129505
10.0,0.014387572184205055
11.0,0.013579343445599079
12.0,0.012829015962779522
13.0,0.012145839631557465
14.0,0.011578463017940521
15.0,0.011091194115579128
16.0,0.01060521136969328
18.0,0.009690356440842152
20.0,0.008827990852296352
22.0,0.008056960068643093
24.0,0.007410125806927681
26.0,0.00673708226531744
28.0,0.006276657804846764
30.0,0.005905132740736008
32.0,0.0055847615003585815
36.0,0.004934858065098524
40.0,0.004391927272081375
44.0,0.003932544030249119
48.0,0.0036046861205250025
52.0,0.0033327455166727304
56.0,0.0030992745887488127
60.0,0.002734437119215727
64.0,0.002313777804374695
72.0,0.0017494463827461004
80.0,0.0012527026701718569
88.0,0.001047860481776297
96.0,0.0011121637653559446
104.0,0.0013506322866305709
112.0,0.0012365730945020914
120.0,0.0010510326828807592
128.0,0.0006042325985617936
144.0,0.000314401084324345
160.0,-0.0004965866100974381
176.0,-0.0006453933892771602
192.0,9.338578092865646e-05
208.0,-0.00027403334388509393
224.0,2.614404547784943e-05
240.0,-0.0002757851325441152
256.0,-0.0007563907420262694
288.0,-0.0013063102960586548
320.0,-0.0014416470658034086
352.0,-0.001003012410365045
384.0,-0.0011767505202442408
416.0,-6.573114660568535e-05
448.0,-0.0005438014632090926
480.0,-0.0016494191950187087
512.0,-0.0011890459572896361
576.0,0.00024729303549975157
640.0,-0.0002874830679502338
704.0,0.0002711535489652306
768.0,0.0010491200955584645
832.0,0.0012844675220549107
896.0,7.27646765881218e-05
960.0,0.0002858366642612964
1024.0,-0.0006832659128122032
1152.0,-0.00012016894470434636
1280.0,0.00081733672413975
1408.0,0.0003113707643933594
1536.0,0.0009920716984197497
1664.0,-0.0005951436469331384
1792.0,-0.0007732451776973903
1920.0,-0.0006744550773873925
2048.0,-4.750508742290549e-05
2304.0,-0.0007161404355429113
2560.0,-0.0010420229518786073
2816.0,0.0007089694845490158
3072.0,-0.0006822726572863758
3328.0,0.0003522845508996397
3584.0,-0.0005864291451871395
3840.0,-0.00216570938937366
4096.0,0.00042523472802713513
4608.0,0.00015354205970652401
5120.0,-0.0006696192431263626
5632.0,0.0005226318608038127
6144.0,6.212739390321076e-05
6656.0,4.562228423310444e-05
7168.0,-5.3333467803895473e-05
7680.0,0.0003693888720590621
8192.0,-0.0003660375077743083
9216.0,1.4936300431145355e-05
10240.0,0.000248892669333145
11264.0,-0.0007252779905684292
12288.0,0.00028906433726660907
13312.0,-3.5072691389359534e-05
14336.0,0.001060302136465907
end
