version,3.0
numOfCh,1
type,point
parent_name,80-cuts
ch_type,1_1
kcount,1
numberNandB,1
brightnessNandB,1
carpet pos,0
pc,0
Time (ms),CH1 Auto-Correlation
1.0,0.046144355088472366
2.0,0.042659685015678406
3.0,0.03954607993364334
4.0,0.03679271787405014
5.0,0.034496236592531204
6.0,0.03242938965559006
7.0,0.03063979558646679
8.0,0.029043184593319893
9.0,0.02758258953690529
10.0,0.026273462921380997
11.0,0.02513337880373001
12.0,0.02397342398762703
13.0,0.023036714643239975
14.0,0.022107157856225967
15.0,0.021313907578587532
16.0,0.020627472549676895
18.0,0.019274700433015823
20.0,0.017910579219460487
22.0,0.016631655395030975
24.0,0.015375464223325253
26.0,0.014319916255772114
28.0,0.013463903218507767
30.0,0.01273213792592287
32.0,0.011843311600387096
36.0,0.010264119133353233
40.0,0.009499234147369862
44.0,0.008645132184028625
48.0,0.0075927842408418655
52.0,0.006228214595466852
56.0,0.00508791022002697
60.0,0.00433804327622056
64.0,0.0038818849716335535
72.0,0.003186441957950592
80.0,0.0021610886324197054
88.0,0.0017376329051330686
96.0,0.0003187145048286766
104.0,-9.999555186368525e-05
112.0,0.0005245055654086173
120.0,0.0013642357662320137
128.0,0.0022022093180567026
144.0,0.0020722285844385624
160.0,0.0012617511674761772
176.0,0.001084422692656517
192.0,0.0015219699125736952
208.0,0.0010272078216075897
224.0,0.00046556166489608586
240.0,-0.0005214900011196733
256.0,-0.001041520619764924
288.0,-0.0012271689483895898
320.0,-0.0017045362619683146
352.0,-0.0005510330083779991
384.0,-0.0008126669563353062
416.0,-0.0030156755819916725
448.0,-0.004959675017744303
480.0,-0.004020194988697767
512.0,-0.0008435457712039351
576.0,0.001687777228653431
640.0,0.0008506295853294432
704.0,-0.0007146709831431508
768.0,0.0010148740839213133
832.0,0.0023276195861399174
896.0,0.00023544715077150613
960.0,0.002332286210730672
1024.0,-0.0015460345894098282
1152.0,-0.0008848654688335955
1280.0,-0.00039236521115526557
1408.0,-0.00045553199015557766
1536.0,-0.00010518358612898737
1664.0,0.0007978334906511009
1792.0,0.0014914153143763542
1920.0,-0.0009227983537130058
2048.0,-0.00102899968624115
2304.0,-0.002045585075393319
2560.0,0.002027620794251561
2816.0,0.00043187671690247953
3072.0,-6.896096601849422e-05
3328.0,0.00048391372547484934
3584.0,-0.0007259381818585098
3840.0,0.00034659684752114117
4096.0,-0.0010381166357547045
4608.0,0.0005844673723913729
5120.0,0.000728748447727412
5632.0,0.000543134578038007
6144.0,-0.0011832596501335502
6656.0,-0.0003141776833217591
7168.0,-0.000422653800342232
7680.0,0.00032487788121216
8192.0,5.5560296459589154e-05
9216.0,-0.0007206412847153842
10240.0,-0.00013259275874588639
11264.0,-0.0003745822759810835
12288.0,-0.00041496401536278427
13312.0,-0.0008559994166716933
14336.0,-0.00010028544056694955
end
