version,3.0
numOfCh,1
type,point
parent_name,80-cuts
ch_type,1_1
kcount,1
numberNandB,1
brightnessNandB,1
carpet pos,0
pc,0
Time (ms),CH1 Auto-Correlation
1.0,0.09079400449991226
2.0,0.08340798318386078
3.0,0.07740630209445953
4.0,0.07204041630029678
5.0,0.0673452764749527
6.0,0.06313258409500122
7.0,0.059156037867069244
8.0,0.055596042424440384
9.0,0.052370328456163406
10.0,0.0495431013405323
11.0,0.04673284292221069
12.0,0.04415801167488098
13.0,0.041661329567432404
14.0,0.03948572278022766
15.0,0.03736139088869095
16.0,0.03562936559319496
18.0,0.03255223110318184
20.0,0.030108004808425903
22.0,0.02800782397389412
24.0,0.025985149666666985
26.0,0.024273453280329704
28.0,0.02278086356818676
30.0,0.02184947580099106
32.0,0.0211357232183218
36.0,0.02000429295003414
40.0,0.01871396042406559
44.0,0.017408989369869232
48.0,0.01602022536098957
52.0,0.014574590139091015
56.0,0.013680086471140385
60.0,0.012661333195865154
64.0,0.011339301243424416
72.0,0.008899819105863571
80.0,0.008377636782824993
88.0,0.007493225391954184
96.0,0.006804758682847023
104.0,0.0070119681768119335
112.0,0.005858172196894884
120.0,0.006679157260805368
128.0,0.004486413672566414
144.0,0.002506297081708908
160.0,0.0024627617094665766
176.0,0.003562713274732232
192.0,0.004369035363197327
208.0,0.003272727830335498
224.0,0.0003342165728099644
240.0,-0.0014743837527930737
256.0,-0.0006462211604230106
288.0,-0.0029080614913254976
320.0,-0.005810817237943411
352.0,-0.007967864163219929
384.0,-0.00362764997407794
416.0,-0.003228959161788225
448.0,-0.002926026936620474
480.0,-0.0006665270193479955
512.0,-0.0011189838405698538
576.0,-0.0028541709762066603
640.0,0.0009456684929318726
704.0,0.0008886537980288267
768.0,-8.848022116580978e-05
832.0,-0.004254576284438372
896.0,3.3188018278451636e-05
960.0,0.0004182554257567972
1024.0,0.0005093042855150998
1152.0,-0.0006158744799904525
1280.0,-0.0016347803175449371
1408.0,0.0007650344632565975
1536.0,0.0014297321904450655
1664.0,0.001411084900610149
1792.0,7.521500810980797e-05
1920.0,-0.0016697878018021584
2048.0,-0.005620485637336969
2304.0,-0.0022703479044139385
2560.0,0.0033374549821019173
2816.0,-0.0014086433220654726
3072.0,-0.001170663395896554
3328.0,0.0019321318250149488
3584.0,-0.0005348428385332227
3840.0,0.002107583684846759
4096.0,0.0003250518930144608
4608.0,-0.0031136192847043276
5120.0,0.00028219763771630824
5632.0,0.0003514690324664116
6144.0,-0.0022748636547476053
6656.0,0.0031839150469750166
7168.0,-0.0001250482746399939
7680.0,-0.0008003949769772589
8192.0,0.0019527358235791326
9216.0,0.0009174957522191107
10240.0,0.0003638899652287364
11264.0,-0.0015679500065743923
12288.0,0.000658228644169867
13312.0,-8.121279097395018e-05
14336.0,-0.00042677196324802935
end
