version,3.0
numOfCh,1
type,point
parent_name,80-cuts
ch_type,1_1
kcount,1
numberNandB,1
brightnessNandB,1
carpet pos,0
pc,0
Time (ms),CH1 Auto-Correlation
1.0,0.040277350693941116
2.0,0.03676193207502365
3.0,0.03368343785405159
4.0,0.03097683936357498
5.0,0.028632953763008118
6.0,0.026494212448596954
7.0,0.02458488568663597
8.0,0.022837763652205467
9.0,0.021167999133467674
10.0,0.01972094364464283
11.0,0.018449941650032997
12.0,0.01730210892856121
13.0,0.01627541519701481
14.0,0.015401216223835945
15.0,0.014686507172882557
16.0,0.013986269012093544
18.0,0.01265060342848301
20.0,0.01165890321135521
22.0,0.010745384730398655
24.0,0.010044658556580544
26.0,0.00965957622975111
28.0,0.009454927407205105
30.0,0.009178376756608486
32.0,0.008698823861777782
36.0,0.007468140684068203
40.0,0.006047938950359821
44.0,0.004868153017014265
48.0,0.004251426551491022
52.0,0.004273063037544489
56.0,0.003895443631336093
60.0,0.0031610457226634026
64.0,0.0023162050638347864
72.0,0.0009399278205819428
80.0,0.0002062538405880332
88.0,0.0008817306952551007
96.0,0.0019131741719320416
104.0,0.0020370506681501865
112.0,0.0017595954705029726
120.0,0.0011331704445183277
128.0,0.00036395841743797064
144.0,-0.0009318485390394926
160.0,-0.00018409155018161982
176.0,-2.5006260329973884e-05
192.0,0.00047179439570754766
208.0,0.0006570221157744527
224.0,0.00024951176601462066
240.0,-8.220772724598646e-05
256.0,-0.0006322373519651592
288.0,0.00031690302421338856
320.0,0.00011869040463352576
352.0,-0.001545997685752809
384.0,-0.002470103558152914
416.0,-0.0007506185793317854
448.0,-0.0008677357109263539
480.0,-0.001395461498759687
512.0,-0.0016897047171369195
576.0,-0.0011410759761929512
640.0,0.0003636356850620359
704.0,0.0004166269791312516
768.0,-0.000184599804924801
832.0,-0.00041018612682819366
896.0,-0.0006024040631018579
960.0,-0.00033850502222776413
1024.0,0.0006970298709347844
1152.0,0.002895596669986844
1280.0,0.0016953081358224154
1408.0,-0.0005179234431125224
1536.0,-0.0006246245466172695
1664.0,-0.0005383340758271515
1792.0,-0.00032778590684756637
1920.0,-0.0006265858537517488
2048.0,0.00046311161713674664
2304.0,-0.00025461128097958863
2560.0,0.0005602023447863758
2816.0,-0.00020743909408338368
3072.0,0.0005793213495053351
3328.0,-0.00012594906729646027
3584.0,-0.0006093287374824286
3840.0,-0.000582139240577817
4096.0,-0.00028195176855660975
4608.0,-0.0007863308419473469
5120.0,0.00019572865858208388
5632.0,-0.001396983047015965
6144.0,0.00094663753407076
6656.0,-0.0004976546624675393
7168.0,-9.471033081354108e-06
7680.0,0.0005847258144058287
8192.0,-0.0006595693412236869
9216.0,-7.3064467869699e-05
10240.0,-0.00027102811145596206
11264.0,-1.7286321963183582e-05
12288.0,7.652016211068258e-05
13312.0,0.00021275118342600763
14336.0,6.383600702974945e-05
end
