version,3.0
numOfCh,1
type,point
parent_name,80-cuts
ch_type,1_1
kcount,1
numberNandB,1
brightnessNandB,1
carpet pos,0
pc,0
Time (ms),CH1 Auto-Correlation
1.0,0.028138894587755203
2.0,0.02592206932604313
3.0,0.024023830890655518
4.0,0.022430842742323875
5.0,0.02105119079351425
6.0,0.019844552502036095
7.0,0.018749192357063293
8.0,0.017807520925998688
9.0,0.017008943483233452
10.0,0.01626969501376152
11.0,0.015622414648532867
12.0,0.014990833587944508
13.0,0.014394690282642841
14.0,0.013786577619612217
15.0,0.01324417069554329
16.0,0.012793095782399178
18.0,0.011999955400824547
20.0,0.011200535111129284
22.0,0.010507975704967976
24.0,0.0098389508202672
26.0,0.009163927286863327
28.0,0.008571622893214226
30.0,0.007945277728140354
32.0,0.007384334225207567
36.0,0.006362439598888159
40.0,0.0053690350614488125
44.0,0.004763314966112375
48.0,0.004211885388940573
52.0,0.0035761757753789425
56.0,0.0029339948669075966
60.0,0.002452365355566144
64.0,0.0018339523812755942
72.0,0.0012216721661388874
80.0,0.0012866453034803271
88.0,0.0009737535729072988
96.0,0.00042048984323628247
104.0,0.0005136767285875976
112.0,0.001012002700008452
120.0,0.0011606959160417318
128.0,0.0010839378228411078
144.0,0.0012808007886633277
160.0,0.0012802245328202844
176.0,0.0014535688096657395
192.0,0.0006128785316832364
208.0,-0.00046697360812686384
224.0,-0.0009781501721590757
240.0,-0.0009279337828047574
256.0,-0.0007197122904472053
288.0,-0.0005511207855306566
320.0,0.001232967129908502
352.0,0.0014307009987533092
384.0,0.0011045627761632204
416.0,0.0012448192574083805
448.0,0.0007147598662413657
480.0,0.00032042988459579647
512.0,0.0003385788877494633
576.0,0.00064699916401878
640.0,0.001075881882570684
704.0,0.000702998077031225
768.0,-0.0003783186839427799
832.0,-0.001104264403693378
896.0,3.4365673400316155e-06
960.0,-0.00012282832176424563
1024.0,0.00038720466545782983
1152.0,-0.0002714722650125623
1280.0,-0.000775565451476723
1408.0,-0.0009496952989138663
1536.0,-0.00014252809341996908
1664.0,0.001434752601198852
1792.0,-0.0002055534569080919
1920.0,-0.0003527902881614864
2048.0,0.0008845546981319785
2304.0,-0.0002164681936847046
2560.0,-4.587637522490695e-05
2816.0,-0.0006205348763614893
3072.0,0.0002163027529604733
3328.0,0.000528896227478981
3584.0,-0.00043087737867608666
3840.0,0.0006186697864905
4096.0,0.0004907729453407228
4608.0,-0.00034360334393568337
5120.0,-0.0006622775108553469
5632.0,-0.0008084296132437885
6144.0,-0.00034052555565722287
6656.0,-6.810441118432209e-05
7168.0,-0.00045051827328279614
7680.0,-0.0012165152002125978
8192.0,-0.00035524024860933423
9216.0,-4.407490268931724e-05
10240.0,0.0010298946872353554
11264.0,-0.0008199642179533839
12288.0,0.0007825880311429501
13312.0,0.0005184191395528615
14336.0,-0.00010372744145570323
end
