version,3.0
numOfCh,1
type,point
parent_name,80-cuts
ch_type,1_1
kcount,1
numberNandB,1
brightnessNandB,1
carpet pos,0
pc,0
Time (ms),CH1 Auto-Correlation
1.0,0.04012029618024826
2.0,0.036818936467170715
3.0,0.033973705023527145
4.0,0.03159770369529724
5.0,0.029518533498048782
6.0,0.02758057229220867
7.0,0.025901809334754944
8.0,0.024411488324403763
9.0,0.02303949184715748
10.0,0.021886000409722328
11.0,0.020867343991994858
12.0,0.019938919693231583
13.0,0.019150815904140472
14.0,0.018350286409258842
15.0,0.017580417916178703
16.0,0.016812484711408615
18.0,0.015513828955590725
20.0,0.014352363534271717
22.0,0.013180545531213284
24.0,0.012139198370277882
26.0,0.011184890754520893
28.0,0.010364670306444168
30.0,0.009681989438831806
32.0,0.008951744996011257
36.0,0.007852945476770401
40.0,0.006373416632413864
44.0,0.005378501955419779
48.0,0.0048707593232393265
52.0,0.004590664058923721
56.0,0.004135266412049532
60.0,0.003562184749171138
64.0,0.0033601252362132072
72.0,0.0031478083692491055
80.0,0.002572133671492338
88.0,0.0014494091738015413
96.0,0.0011257269652560353
104.0,0.0010996871860697865
112.0,0.001744908862747252
120.0,0.0020425713155418634
128.0,0.0023393314331769943
144.0,0.00194747734349221
160.0,0.0013583539985120296
176.0,0.0010745897889137268
192.0,0.0006018520798534155
208.0,-6.374211807269603e-05
224.0,-0.0003276066272519529
240.0,-0.000424074474722147
256.0,0.0017269960371777415
288.0,0.0018426192691549659
320.0,-0.0004601610417012125
352.0,0.00011626350897131488
384.0,-0.0009009209461510181
416.0,2.0502649931586348e-05
448.0,0.0006880420260131359
480.0,0.0008472496410831809
512.0,0.0006318555097095668
576.0,0.0011745562078431249
640.0,0.0009929320076480508
704.0,-9.294847404817119e-05
768.0,-0.001588441664353013
832.0,-0.0012124875793233514
896.0,-0.0011034391354769468
960.0,-0.0005695848958566785
1024.0,0.000501781702041626
1152.0,-0.000856892263982445
1280.0,-0.001710689626634121
1408.0,-0.0012987179215997458
1536.0,-7.020576595095918e-05
1664.0,-0.0004507152771111578
1792.0,-0.001879695919342339
1920.0,-0.000366494117770344
2048.0,0.000409074331400916
2304.0,-0.0001148888113675639
2560.0,0.00020544417202472687
2816.0,0.00027221496566198766
3072.0,-0.0005045384168624878
3328.0,2.15033160202438e-05
3584.0,-0.0002638413570821285
3840.0,0.0008544091833755374
4096.0,-0.00040774085209704936
4608.0,-0.0008377221529372036
5120.0,0.0005624796613119543
5632.0,0.0013787453062832355
6144.0,1.8836077288142405e-05
6656.0,-0.0003114482678938657
7168.0,-0.0012366973096504807
7680.0,-0.00015976454596966505
8192.0,-7.38014787202701e-05
9216.0,0.0011437563225626945
10240.0,-0.00041387902456335723
11264.0,1.2783370038960129e-05
12288.0,-0.00020689575467258692
13312.0,-0.0008396349148824811
14336.0,-0.0017834504833444953
end
