version,3.0
numOfCh,1
type,point
parent_name,80-cuts
ch_type,1_1
kcount,1
numberNandB,1
brightnessNandB,1
carpet pos,0
pc,0
Time (ms),CH1 Auto-Correlation
1.0,0.02588506229221821
2.0,0.023623401299118996
3.0,0.021730365231633186
4.0,0.02006845735013485
5.0,0.018615707755088806
6.0,0.0173247791826725
7.0,0.016173802316188812
8.0,0.015141237527132034
9.0,0.014168119058012962
10.0,0.013143030926585197
11.0,0.012232301756739616
12.0,0.011426550336182117
13.0,0.010625822469592094
14.0,0.009942907840013504
15.0,0.009308118373155594
16.0,0.008728320710361004
18.0,0.007775421254336834
20.0,0.006993947550654411
22.0,0.006336312275379896
24.0,0.005796901881694794
26.0,0.005270467605441809
28.0,0.00470818392932415
30.0,0.004193746950477362
32.0,0.0036406160797923803
36.0,0.002967553911730647
40.0,0.0025971336290240288
44.0,0.002331550931558013
48.0,0.0020958820823580027
52.0,0.0018592567648738623
56.0,0.0013949597487226129
60.0,0.0009357807575725019
64.0,0.0006756866350769997
72.0,0.00041698856512084603
80.0,0.00033977330895140767
88.0,0.00033321086084470153
96.0,0.0005563216400332749
104.0,0.0007814773125573993
112.0,0.0006395271047949791
120.0,0.0006126354564912617
128.0,0.0005158358253538609
144.0,0.0005992369842715561
160.0,0.0009838772239163518
176.0,0.0019152261083945632
192.0,0.0019054001895710826
208.0,0.0002975039242301136
224.0,-0.001224332838319242
240.0,-0.0011515594087541103
256.0,-0.0010351910023018718
288.0,0.00019258599786553532
320.0,0.0003644197713583708
352.0,9.282386599807069e-05
384.0,-0.00015445976168848574
416.0,0.0003900148731190711
448.0,0.00123724399600178
480.0,0.0001557979267090559
512.0,-9.416715329280123e-05
576.0,-0.00026003143284469843
640.0,0.0005338301416486502
704.0,-0.0009315754869021475
768.0,-0.00014159829879645258
832.0,-0.0010620534885674715
896.0,-0.0005239072488620877
960.0,-0.0009615347371436656
1024.0,-0.00014906110300216824
1152.0,0.0002861212124116719
1280.0,-0.0003122541238553822
1408.0,-0.0006677436758764088
1536.0,-7.970959268277511e-05
1664.0,0.0004960293881595135
1792.0,9.417295950697735e-05
1920.0,-0.00025732541689649224
2048.0,-0.0004292804514989257
2304.0,0.00015209941193461418
2560.0,0.0005569201894104481
2816.0,-0.0003373191866558045
3072.0,-0.0001211814524140209
3328.0,-0.0010388767113909125
3584.0,-0.00022363821335602552
3840.0,-0.0005492359632626176
4096.0,0.0004617371305357665
4608.0,0.00026049790903925896
5120.0,-0.00014469806046690792
5632.0,-0.0003272762696724385
6144.0,-0.00024814915377646685
6656.0,0.0005568068008869886
7168.0,0.0004903136868961155
7680.0,0.00011228870425838977
8192.0,-0.0003080098540522158
9216.0,-0.00052913639228791
10240.0,-5.816506381961517e-05
11264.0,0.0002277435560245067
12288.0,3.732832192326896e-05
13312.0,8.785241516306996e-05
14336.0,-0.00025765722966752946
end
