version,3.0
numOfCh,1
type,point
parent_name,80-cuts
ch_type,1_1
kcount,1
numberNandB,1
brightnessNandB,1
carpet pos,0
pc,0
Time (ms),CH1 Auto-Correlation
1.0,0.08441045880317688
2.0,0.07748260349035263
3.0,0.07160195708274841
4.0,0.06653095781803131
5.0,0.062144044786691666
6.0,0.05822660028934479
7.0,0.05479203164577484
8.0,0.05148908495903015
9.0,0.04863230139017105
10.0,0.0460023358464241
11.0,0.04363776743412018
12.0,0.04153761267662048
13.0,0.03943409398198128
14.0,0.037506166845560074
15.0,0.03564178943634033
16.0,0.03408345207571983
18.0,0.03158321604132652
20.0,0.029383355751633644
22.0,0.027664413675665855
24.0,0.026468999683856964
26.0,0.025059716776013374
28.0,0.02340400032699108
30.0,0.02197645977139473
32.0,0.02097831666469574
36.0,0.020061159506440163
40.0,0.018817687407135963
44.0,0.01751043274998665
48.0,0.015950551256537437
52.0,0.01413812581449747
56.0,0.012228861451148987
60.0,0.011778773739933968
64.0,0.01103025022894144
72.0,0.008514532819390297
80.0,0.006588863208889961
88.0,0.005564487539231777
96.0,0.004307103343307972
104.0,0.004277182277292013
112.0,0.0032653615344315767
120.0,0.0031650252640247345
128.0,0.003700136672705412
144.0,0.0015383565332740545
160.0,0.0015064890030771494
176.0,0.0015668931882828474
192.0,-0.001047914382070303
208.0,-0.0017985707381740212
224.0,-0.0033011268824338913
240.0,-0.004378003533929586
256.0,-0.0029173532966524363
288.0,-0.0014851944288238883
320.0,0.0010063699446618557
352.0,0.0022063665091991425
384.0,0.0033639417961239815
416.0,0.001912368112243712
448.0,0.0027689803391695023
480.0,0.0012252448359504342
512.0,-0.0022962165530771017
576.0,-0.0032306706998497248
640.0,-0.0016932589933276176
704.0,-0.0027836754452437162
768.0,0.002774272346869111
832.0,0.0038840000052005053
896.0,0.0015043439343571663
960.0,-0.0020077235531061888
1024.0,-0.004272214137017727
1152.0,-0.0022296998649835587
1280.0,-0.001110954093746841
1408.0,2.7523514290805906e-05
1536.0,-0.0007312091765925288
1664.0,0.0013935073511675
1792.0,-0.001583147794008255
1920.0,-0.001008391845971346
2048.0,0.0007697863038629293
2304.0,0.0011538766557350755
2560.0,0.000769919075537473
2816.0,-0.0009428387857042253
3072.0,0.0008679286693222821
3328.0,0.00016248975589405745
3584.0,-0.0012250201543793082
3840.0,-0.0020647512283176184
4096.0,-0.0014219197910279036
4608.0,-0.00014675264537800103
5120.0,0.00279898545704782
5632.0,0.00024968295474536717
6144.0,-0.001400104956701398
6656.0,-0.0020771557465195656
7168.0,-0.002343542641028762
7680.0,0.0007778202998451889
8192.0,0.0011104539735242724
9216.0,-0.0014029567828401923
10240.0,0.002335313707590103
11264.0,-0.0014075669459998608
12288.0,0.0006640950450673699
13312.0,0.0012299068039283156
14336.0,-0.003175804391503334
end
