version,3.0
numOfCh,1
type,point
parent_name,80-cuts
ch_type,1_1
kcount,1
numberNandB,1
brightnessNandB,1
carpet pos,0
pc,0
Time (ms),CH1 Auto-Correlation
1.0,0.08939428627490997
2.0,0.08180677890777588
3.0,0.07502254843711853
4.0,0.06911472231149673
5.0,0.06401100009679794
6.0,0.05949023738503456
7.0,0.05545177310705185
8.0,0.05182657390832901
9.0,0.04834119230508804
10.0,0.04526851326227188
11.0,0.042466819286346436
12.0,0.039895229041576385
13.0,0.03756007179617882
14.0,0.035320576280355453
15.0,0.03303778916597366
16.0,0.031059350818395615
18.0,0.027937499806284904
20.0,0.02561691403388977
22.0,0.023778213188052177
24.0,0.022018982097506523
26.0,0.020329805091023445
28.0,0.01892453245818615
30.0,0.017434358596801758
32.0,0.016557693481445312
36.0,0.015170052647590637
40.0,0.014305464923381805
44.0,0.013625454157590866
48.0,0.012836180627346039
52.0,0.01201189961284399
56.0,0.010595676489174366
60.0,0.00941108912229538
64.0,0.00846627913415432
72.0,0.008358810096979141
80.0,0.00795819517225027
88.0,0.00662675965577364
96.0,0.0047975885681807995
104.0,0.004416272975504398
112.0,0.005015699192881584
120.0,0.006801889277994633
128.0,0.005726771894842386
144.0,0.004842869937419891
160.0,0.005973181687295437
176.0,0.006632079835981131
192.0,0.00454236613586545
208.0,0.003636496840044856
224.0,0.0020858198404312134
240.0,-0.00029658025596290827
256.0,-0.0025567710399627686
288.0,-0.002804017160087824
320.0,0.000619813275989145
352.0,-0.0003815547388512641
384.0,-0.001279293792322278
416.0,-0.0032874038442969322
448.0,-0.0025143614038825035
480.0,0.0006370047922246158
512.0,0.0009476583800278604
576.0,-0.0009668512502685189
640.0,0.0018472647061571479
704.0,0.0011289010290056467
768.0,-0.0008595554972998798
832.0,0.0009846073808148503
896.0,-0.0010563739342615008
960.0,-6.422783917514607e-05
1024.0,0.0003655643668025732
1152.0,0.000748868566006422
1280.0,0.0010171211324632168
1408.0,0.000804419512860477
1536.0,0.0013573591131716967
1664.0,0.0005446457071229815
1792.0,0.0018350237514823675
1920.0,0.002614169381558895
2048.0,0.0030219971667975187
2304.0,0.0033244777005165815
2560.0,-0.0001838007301557809
2816.0,6.733893678756431e-05
3072.0,-0.0023216763511300087
3328.0,-0.0010034173028543591
3584.0,0.0016855851281434298
3840.0,-0.00032545655267313123
4096.0,-0.003103584051132202
4608.0,-0.0013466568198055029
5120.0,0.0012523438781499863
5632.0,-0.004551386460661888
6144.0,-0.000683576799929142
6656.0,-0.0028840466402471066
7168.0,-0.0007560906815342605
7680.0,-0.0030906382016837597
8192.0,-0.001554784830659628
9216.0,-0.0021922746673226357
10240.0,0.0007408923702314496
11264.0,0.00037841484299860895
12288.0,0.0002106411411659792
13312.0,0.004030692856758833
14336.0,-0.0015083468751981854
end
