version,3.0
numOfCh,1
type,point
parent_name,80-cuts
ch_type,1_1
kcount,1
numberNandB,1
brightnessNandB,1
carpet pos,0
pc,0
Time (ms),CH1 Auto-Correlation
1.0,0.0856524184346199
2.0,0.07857237011194229
3.0,0.07252722233533859
4.0,0.06737784296274185
5.0,0.06295441836118698
6.0,0.05882510915398598
7.0,0.05531582608819008
8.0,0.05214882269501686
9.0,0.04926760867238045
10.0,0.046653080731630325
11.0,0.04433497413992882
12.0,0.04213554412126541
13.0,0.03991594538092613
14.0,0.03806694597005844
15.0,0.03625895828008652
16.0,0.03447122499346733
18.0,0.031702522188425064
20.0,0.02930695191025734
22.0,0.026877278462052345
24.0,0.02482457645237446
26.0,0.022962654009461403
28.0,0.0214291550219059
30.0,0.020387843251228333
32.0,0.0194004587829113
36.0,0.01740145869553089
40.0,0.01563427969813347
44.0,0.014839434996247292
48.0,0.013207877986133099
52.0,0.011974764056503773
56.0,0.0113184479996562
60.0,0.01058138720691204
64.0,0.009511636570096016
72.0,0.005734963808208704
80.0,0.005256914533674717
88.0,0.005052389111369848
96.0,0.004086040426045656
104.0,0.00244131195358932
112.0,0.0014968684408813715
120.0,0.0015961304306983948
128.0,0.0013064233353361487
144.0,0.0034778760746121407
160.0,0.002654493087902665
176.0,0.0013411750551313162
192.0,-0.001340900082141161
208.0,-0.0035091242752969265
224.0,-0.0045689912512898445
240.0,-0.0026321709156036377
256.0,-0.0008690904942341149
288.0,-0.0006406924221664667
320.0,-0.0003974506398662925
352.0,-0.003890072926878929
384.0,-0.003772482741624117
416.0,-0.0021574466954916716
448.0,-0.0009530499810352921
480.0,-0.00024690423742868006
512.0,0.0004101871745660901
576.0,0.00010155181371374056
640.0,0.0016823679907247424
704.0,0.0008596820989623666
768.0,0.0007435712614096701
832.0,0.00021941108570899814
896.0,-0.0015859794802963734
960.0,0.000537807762157172
1024.0,-0.0031271721236407757
1152.0,-0.0013166136341169477
1280.0,0.0041321213357150555
1408.0,0.0022514720913022757
1536.0,-0.0013107705162838101
1664.0,-0.0005490452167578042
1792.0,-0.002588583156466484
1920.0,-0.0031017677392810583
2048.0,0.0027600417379289865
2304.0,-0.00017357600154355168
2560.0,0.0015859866980463266
2816.0,0.00030046989559195936
3072.0,0.002401727484539151
3328.0,-5.079001493868418e-05
3584.0,-0.002905919449403882
3840.0,-0.0007621331606060266
4096.0,-0.0005108536570332944
4608.0,-0.0009197735344059765
5120.0,-0.0017066362779587507
5632.0,-0.0011438025394454598
6144.0,-0.00025546070537529886
6656.0,0.0002991699439007789
7168.0,0.0011209826916456223
7680.0,0.000982661615125835
8192.0,-0.00022148201242089272
9216.0,0.0011492117773741484
10240.0,0.001070596044883132
11264.0,-0.0012727442663162947
12288.0,-0.00036868880852125585
13312.0,-0.002576215425506234
14336.0,-0.0028806182090193033
end
