version,3.0
numOfCh,1
type,point
parent_name,80-cuts
ch_type,1_1
kcount,1
numberNandB,1
brightnessNandB,1
carpet pos,0
pc,0
Time (ms),CH1 Auto-Correlation
1.0,0.04377283155918121
2.0,0.04029248282313347
3.0,0.037340231239795685
4.0,0.03476943075656891
5.0,0.03252899646759033
6.0,0.03052949532866478
7.0,0.02872038446366787
8.0,0.027080081403255463
9.0,0.025542354211211205
10.0,0.024139778688549995
11.0,0.02290825918316841
12.0,0.02186698652803898
13.0,0.020833605900406837
14.0,0.019847920164465904
15.0,0.01886826567351818
16.0,0.01792977750301361
18.0,0.016511833295226097
20.0,0.01526727620512247
22.0,0.0142086585983634
24.0,0.013448096811771393
26.0,0.012881132774055004
28.0,0.012396036647260189
30.0,0.011945648118853569
32.0,0.011517820879817009
36.0,0.010754147544503212
40.0,0.009850582107901573
44.0,0.009065679274499416
48.0,0.008299767971038818
52.0,0.007707814686000347
56.0,0.007219061255455017
60.0,0.006548970006406307
64.0,0.005742170382291079
72.0,0.00497578177601099
80.0,0.0041106753051280975
88.0,0.003935180604457855
96.0,0.0042147161439061165
104.0,0.0038476104382425547
112.0,0.003330290550366044
120.0,0.0027694767341017723
128.0,0.0020766619127243757
144.0,0.0012389038456603885
160.0,0.0008671580580994487
176.0,0.0016598767833784223
192.0,0.0008822563104331493
208.0,-0.00036097055999562144
224.0,-5.515785960596986e-05
240.0,-0.0010707168839871883
256.0,-0.0016876815352588892
288.0,-0.0001927330158650875
320.0,0.0016900793416425586
352.0,0.0007967884303070605
384.0,-0.00035947002470493317
416.0,-0.00022308016195893288
448.0,-0.0008711632690392435
480.0,-0.0019632140174508095
512.0,-0.001354600884951651
576.0,-0.0009668013663031161
640.0,0.0009660618961788714
704.0,5.381278242566623e-05
768.0,-0.0015825735172256827
832.0,-0.0020447666756808758
896.0,-0.002576109254732728
960.0,-0.00019885567598976195
1024.0,-0.0010551413288339972
1152.0,-0.0016377880237996578
1280.0,-0.0006917284918017685
1408.0,-0.0007028771215118468
1536.0,8.687675290275365e-05
1664.0,-0.00010723411833168939
1792.0,0.001376915373839438
1920.0,0.0013946173712611198
2048.0,-0.0006592009449377656
2304.0,0.0007131852325983346
2560.0,0.0002980780554935336
2816.0,-0.0005296170711517334
3072.0,0.00038937191129662097
3328.0,-0.001172480871900916
3584.0,-0.0019929041154682636
3840.0,-0.0010286596370860934
4096.0,-0.0003413573431316763
4608.0,0.0011558870319277048
5120.0,0.0008467711741104722
5632.0,1.5940391676849686e-05
6144.0,-8.858675573719665e-05
6656.0,0.000731426349375397
7168.0,0.0008687748922966421
7680.0,-0.0014952360652387142
8192.0,-0.00028321301215328276
9216.0,-0.00033924085437320173
10240.0,-8.080912084551528e-05
11264.0,0.000939914199989289
12288.0,-0.0007605930441059172
13312.0,0.0016286559402942657
14336.0,-0.0017042477848008275
end
