version,3.0
numOfCh,1
type,point
parent_name,dirty_50dot0-1dot0
ch_type,1_1
kcount,1
numberNandB,1
brightnessNandB,1
carpet pos,0
pc,0
Time (ms),CH1 Auto-Correlation
1.0,0.09674806147813797
2.0,0.08740375936031342
3.0,0.08097560703754425
4.0,0.07562181353569031
5.0,0.07067576050758362
6.0,0.06613347679376602
7.0,0.06305572390556335
8.0,0.05992383509874344
9.0,0.05675935000181198
10.0,0.054048217833042145
11.0,0.05172404646873474
12.0,0.04948543757200241
13.0,0.04744059592485428
14.0,0.04528143256902695
15.0,0.04430677741765976
16.0,0.04285683482885361
18.0,0.03904924541711807
20.0,0.03524331748485565
22.0,0.032710667699575424
24.0,0.030478740110993385
26.0,0.028232939541339874
28.0,0.025773808360099792
30.0,0.022541824728250504
32.0,0.019741704687476158
36.0,0.016526618972420692
40.0,0.014493206515908241
44.0,0.013657807372510433
48.0,0.012857484631240368
52.0,0.013313655741512775
56.0,0.012501911260187626
60.0,0.013522402383387089
64.0,0.012683693319559097
72.0,0.010893036611378193
80.0,0.009271148592233658
88.0,0.006234786938875914
96.0,0.004545499570667744
104.0,0.0036022986751049757
112.0,0.004597995895892382
120.0,0.005784923676401377
128.0,0.00482099037617445
144.0,0.0033905014861375093
160.0,0.0024682506918907166
176.0,0.002477460540831089
192.0,0.0023759587202221155
208.0,0.0007003623177297413
224.0,0.0007039548363536596
240.0,0.0018172545824199915
256.0,0.0022681087721139193
288.0,-0.0002580696891527623
320.0,0.0006704654661007226
352.0,-0.0023443205282092094
384.0,-0.0032184638548642397
416.0,-0.001211866969242692
448.0,0.0020860524382442236
480.0,0.00709915766492486
512.0,0.00014807970728725195
576.0,0.001115409773774445
640.0,0.0015638996846973896
704.0,0.0024438011460006237
768.0,-0.0008116986136883497
832.0,-0.002216714434325695
896.0,0.0008449492743238807
960.0,0.003224897664040327
1024.0,0.0033323834650218487
1152.0,0.0024508838541805744
1280.0,-0.000987241044640541
1408.0,-0.0006675407639704645
1536.0,0.002861754270270467
1664.0,0.0035561607219278812
1792.0,0.0009998173918575048
1920.0,-0.0033309010323137045
2048.0,-0.0007142084650695324
2304.0,-0.0009761166293174028
2560.0,-0.002146312966942787
2816.0,-0.0028929514810442924
3072.0,-0.004721412900835276
3328.0,-0.0017499129753559828
3584.0,0.000726440513972193
3840.0,-0.004777960479259491
4096.0,0.0010714710224419832
4608.0,-0.002376129385083914
5120.0,-0.0010943931993097067
5632.0,-0.0009518325095996261
6144.0,-0.0026952656917274
6656.0,-0.0012980717001482844
7168.0,-0.0015020681312307715
7680.0,0.003618472721427679
8192.0,-0.0011645184131339192
9216.0,0.005775025114417076
10240.0,0.0026666100602597
11264.0,-0.0007804010529071093
12288.0,-0.0034283874556422234
13312.0,-0.00286495522595942
14336.0,-0.0015247734263539314
end
