version,3.0
numOfCh,1
type,point
parent_name,dirty_50dot0-1dot0
ch_type,1_1
kcount,1
numberNandB,1
brightnessNandB,1
carpet pos,0
pc,0
Time (ms),CH1 Auto-Correlation
1.0,0.070813849568367
2.0,0.06435827910900116
3.0,0.059472087770700455
4.0,0.0562627948820591
5.0,0.05388953164219856
6.0,0.051276449114084244
7.0,0.0492769330739975
8.0,0.0472157821059227
9.0,0.045489877462387085
10.0,0.04340939223766327
11.0,0.04134407639503479
12.0,0.040387846529483795
13.0,0.038689833134412766
14.0,0.03721236437559128
15.0,0.03613109514117241
16.0,0.034968867897987366
18.0,0.03319114074110985
20.0,0.03142893314361572
22.0,0.029357897117733955
24.0,0.028210798278450966
26.0,0.027020186185836792
28.0,0.025365689769387245
30.0,0.025167126208543777
32.0,0.025073876604437828
36.0,0.024497926235198975
40.0,0.024504460394382477
44.0,0.024596931412816048
48.0,0.023822961375117302
52.0,0.022550761699676514
56.0,0.021135523915290833
60.0,0.019770236685872078
64.0,0.01832110807299614
72.0,0.015490015968680382
80.0,0.013079301454126835
88.0,0.011749989353120327
96.0,0.00952682364732027
104.0,0.008093263022601604
112.0,0.007457550149410963
120.0,0.0078058792278170586
128.0,0.006636124104261398
144.0,0.003532775677740574
160.0,0.0015181199414655566
176.0,0.002528091659769416
192.0,0.006100108847022057
208.0,0.0050669568590819836
224.0,0.0033511058427393436
240.0,0.0035180493723601103
256.0,0.0023390909191221
288.0,-0.0003014836984220892
320.0,-0.0020490416791290045
352.0,-0.002141963690519333
384.0,-0.0010163099505007267
416.0,0.0005800338694825768
448.0,0.0003187704423908144
480.0,0.0012050492223352194
512.0,0.0006828968762420118
576.0,0.0008894693455658853
640.0,-0.0014040537644177675
704.0,-0.001162900123745203
768.0,0.0011603818275034428
832.0,0.00035007100086659193
896.0,-0.0006272232858464122
960.0,-0.00046695067430846393
1024.0,-0.0014604339376091957
1152.0,-0.0038330687675625086
1280.0,-0.0026272109244018793
1408.0,0.00048725775559432805
1536.0,0.0019599245861172676
1664.0,-0.0012208445696160197
1792.0,-0.006512934807687998
1920.0,-0.0055975476279854774
2048.0,-0.003003644058480859
2304.0,0.0008772442233748734
2560.0,-0.004027852788567543
2816.0,-0.0008048609597608447
3072.0,0.0015238404739648104
3328.0,-0.0020214293617755175
3584.0,0.001775499782525003
3840.0,0.002630789065733552
4096.0,-0.00016032594430726022
4608.0,0.0011342529905959964
5120.0,-0.0010849937098100781
5632.0,0.0001426808739779517
6144.0,0.0025533470325171947
6656.0,-0.0018137708539143205
7168.0,-0.0012366725131869316
7680.0,0.0015518937725573778
8192.0,-0.000228288205107674
9216.0,-0.001962892711162567
10240.0,-0.0011701190378516912
11264.0,0.005048728082329035
12288.0,0.0010194976348429918
13312.0,-0.007635234855115414
14336.0,-0.00045373575994744897
end
