version,3.0
numOfCh,1
type,point
parent_name,dirty_50dot0-1dot0
ch_type,1_1
kcount,1
numberNandB,1
brightnessNandB,1
carpet pos,0
pc,0
Time (ms),CH1 Auto-Correlation
1.0,0.07232533395290375
2.0,0.06426407396793365
3.0,0.05788136273622513
4.0,0.05237729847431183
5.0,0.0477394163608551
6.0,0.04466211423277855
7.0,0.041721854358911514
8.0,0.03868572413921356
9.0,0.035763636231422424
10.0,0.034238871186971664
11.0,0.03375895693898201
12.0,0.03244021162390709
13.0,0.030895154923200607
14.0,0.029505310580134392
15.0,0.028014812618494034
16.0,0.02583092451095581
18.0,0.022975517436861992
20.0,0.02054991014301777
22.0,0.01817953586578369
24.0,0.015574939548969269
26.0,0.012769095599651337
28.0,0.010695347562432289
30.0,0.009555751457810402
32.0,0.008518246933817863
36.0,0.005764827132225037
40.0,0.00490272743627429
44.0,0.0030750585719943047
48.0,0.0022080824710428715
52.0,0.0012835848610848188
56.0,0.000478435424156487
60.0,0.0007828703382983804
64.0,0.0013802906032651663
72.0,0.0028619705699384212
80.0,0.002788405865430832
88.0,0.006388148758560419
96.0,0.0076673077419400215
104.0,0.00857304036617279
112.0,0.0058210683055222034
120.0,0.004666280001401901
128.0,0.005278594326227903
144.0,0.002687647705897689
160.0,-0.00023599938140250742
176.0,-0.0002257445885334164
192.0,0.001086793839931488
208.0,0.004465640056878328
224.0,0.0027052785735577345
240.0,0.0007420600159093738
256.0,-0.00028307148022577167
288.0,0.0009898146381601691
320.0,9.909505752148107e-05
352.0,0.0007228335598483682
384.0,0.0021820757538080215
416.0,0.00021251769794616848
448.0,0.0007423636270686984
480.0,0.0014879116788506508
512.0,0.0002833439502865076
576.0,0.003946550190448761
640.0,0.0013009478570893407
704.0,0.001837528427131474
768.0,-0.0007194018689915538
832.0,-0.0018881246214732528
896.0,-0.0004491055151447654
960.0,0.00017418022616766393
1024.0,0.0018258847994729877
1152.0,-0.0006194355082698166
1280.0,-0.0017585628665983677
1408.0,-0.0008952952921390533
1536.0,-0.0005946935852989554
1664.0,-0.0017713430570438504
1792.0,-0.00011740797344828025
1920.0,0.0005276943556964397
2048.0,-0.0008875866769813001
2304.0,6.172564462758601e-05
2560.0,-0.0003922934702131897
2816.0,-0.0020487713627517223
3072.0,-0.0017552864737808704
3328.0,-0.0021721236407756805
3584.0,-0.0014187943888828158
3840.0,-0.0007127461140044034
4096.0,-0.0007164773996919394
4608.0,0.0004065320536028594
5120.0,0.0010373067343607545
5632.0,0.0006764093413949013
6144.0,0.001641470124013722
6656.0,3.0498005799017847e-05
7168.0,0.0006512160180136561
7680.0,-0.0020628671627491713
8192.0,-0.0027481617871671915
9216.0,-0.0005391711019910872
10240.0,0.0003574078727979213
11264.0,0.0022669960744678974
12288.0,-0.0007505555404350162
13312.0,0.0008344349334947765
14336.0,-0.0027508351486176252
end
