version,3.0
numOfCh,1
type,point
parent_name,dirty_50dot0-1dot0
ch_type,1_1
kcount,1
numberNandB,1
brightnessNandB,1
carpet pos,0
pc,0
Time (ms),CH1 Auto-Correlation
1.0,0.05251144990324974
2.0,0.04771240055561066
3.0,0.04361990466713905
4.0,0.04054016247391701
5.0,0.03796142339706421
6.0,0.03553213179111481
7.0,0.03345983847975731
8.0,0.03182832524180412
9.0,0.029437294229865074
10.0,0.027643166482448578
11.0,0.026145540177822113
12.0,0.02495677024126053
13.0,0.023599747568368912
14.0,0.023003315553069115
15.0,0.02186930552124977
16.0,0.020694103091955185
18.0,0.01901441253721714
20.0,0.018010159954428673
22.0,0.017417771741747856
24.0,0.01648622564971447
26.0,0.015267720445990562
28.0,0.013733325526118279
30.0,0.013150226324796677
32.0,0.012833457440137863
36.0,0.011550146155059338
40.0,0.010279222391545773
44.0,0.010261962190270424
48.0,0.010316395200788975
52.0,0.009761705994606018
56.0,0.009175673127174377
60.0,0.008856337517499924
64.0,0.007740214932709932
72.0,0.007536453194916248
80.0,0.0062311990186572075
88.0,0.006360108498483896
96.0,0.004954300355166197
104.0,0.004263626877218485
112.0,0.0036779625806957483
120.0,0.003859384683892131
128.0,0.0032997147645801306
144.0,0.0029751539696007967
160.0,0.003180606057867408
176.0,0.003422754118219018
192.0,0.0024973489344120026
208.0,0.0014636527048423886
224.0,0.0018800620455294847
240.0,0.002320160623639822
256.0,0.002171590691432357
288.0,0.006240743678063154
320.0,0.005583377089351416
352.0,0.0021794631611555815
384.0,0.0012501036981120706
416.0,0.0005155602702870965
448.0,0.00098358781542629
480.0,0.0013366129714995623
512.0,-0.00022583114332519472
576.0,0.0010595365893095732
640.0,0.001113249803893268
704.0,-0.0010158699005842209
768.0,-0.0013005011714994907
832.0,-0.0005166104529052973
896.0,0.0002218565932707861
960.0,-0.0011604800820350647
1024.0,8.467454608762637e-05
1152.0,-0.00012244268145877868
1280.0,0.0007026062230579555
1408.0,-0.00034068612148985267
1536.0,-0.00027519313152879477
1664.0,-0.00031701376428827643
1792.0,0.001296534901484847
1920.0,0.0020986844319850206
2048.0,0.0016913769068196416
2304.0,0.0020614080131053925
2560.0,0.000748933816794306
2816.0,-0.000593879958614707
3072.0,0.00021073898824397475
3328.0,0.0009484245092608035
3584.0,0.0009261925588361919
3840.0,-0.0009455562685616314
4096.0,-0.0007390922401100397
4608.0,-0.0007984345429576933
5120.0,-0.0005366361583583057
5632.0,0.002191332634538412
6144.0,0.00034037037403322756
6656.0,-0.0019310808274894953
7168.0,-0.00019963849626947194
7680.0,0.0034801920410245657
8192.0,-0.0005001723184250295
9216.0,-0.0018543304177001119
10240.0,-0.0015978512819856405
11264.0,-0.0022049574181437492
12288.0,-0.002769720507785678
13312.0,-0.0029547943267971277
14336.0,-0.00415440509095788
end
