version,3.0
numOfCh,1
type,point
parent_name,dirty_50dot0-1dot0
ch_type,1_1
kcount,1
numberNandB,1
brightnessNandB,1
carpet pos,0
pc,0
Time (ms),CH1 Auto-Correlation
1.0,0.025994915515184402
2.0,0.02254435606300831
3.0,0.020030004903674126
4.0,0.01822783425450325
5.0,0.01707281358540058
6.0,0.016025561839342117
7.0,0.014689573086798191
8.0,0.01384503673762083
9.0,0.013050585985183716
10.0,0.011988465674221516
11.0,0.011532786302268505
12.0,0.011110344901680946
13.0,0.010954645462334156
14.0,0.010377415455877781
15.0,0.010051741264760494
16.0,0.009422814473509789
18.0,0.009063638746738434
20.0,0.008766138926148415
22.0,0.008271846920251846
24.0,0.008250479586422443
26.0,0.008187226951122284
28.0,0.007374179549515247
30.0,0.006411273498088121
32.0,0.006423569284379482
36.0,0.00550827058032155
40.0,0.004931106232106686
44.0,0.004076418001204729
48.0,0.0033795838244259357
52.0,0.0031382739543914795
56.0,0.0030421740375459194
60.0,0.0024342022370547056
64.0,0.0018947749631479383
72.0,0.0017396078910678625
80.0,0.001712597208097577
88.0,0.0011966287856921554
96.0,0.001153746503405273
104.0,0.0010685583110898733
112.0,0.001415226492099464
120.0,0.001600007526576519
128.0,0.0014767979737371206
144.0,0.0010015403386205435
160.0,0.0002789255231618881
176.0,0.0004475549212656915
192.0,0.000769135425798595
208.0,0.0015352772315964103
224.0,0.0005085159209556878
240.0,0.0009078162256628275
256.0,0.001121938112191856
288.0,0.0007294185925275087
320.0,0.0019281733548268676
352.0,0.0022992189042270184
384.0,0.0017708714585751295
416.0,0.0009230002178810537
448.0,0.0015110690146684647
480.0,0.001271587796509266
512.0,0.00019171081657987088
576.0,-0.000584674475248903
640.0,-0.0005937828682363033
704.0,-0.0006175534217618406
768.0,-0.0003137101011816412
832.0,-0.0005708609824068844
896.0,-0.0005563719314523041
960.0,-0.0007033923175185919
1024.0,-0.0002607765491120517
1152.0,0.0001759458682499826
1280.0,-0.0002259150642203167
1408.0,-0.00010293762170476839
1536.0,-1.8112634279532358e-05
1664.0,-0.0004119275836274028
1792.0,-0.000507781864143908
1920.0,-0.0010895372834056616
2048.0,-0.0008559751440770924
2304.0,-0.000684238679241389
2560.0,-0.0002299382904311642
2816.0,-4.5144217438064516e-05
3072.0,-0.0007978703361004591
3328.0,-0.0002795483451336622
3584.0,6.43332241452299e-05
3840.0,2.7803898774436675e-05
4096.0,-0.0004090486327186227
4608.0,-0.00024472427321597934
5120.0,0.00032309553353115916
5632.0,0.0016679033869877458
6144.0,0.0007520365179516375
6656.0,-0.0005812088493257761
7168.0,1.2865558346675243e-05
7680.0,-0.0008336098399013281
8192.0,-0.0006644543609581888
9216.0,-0.0001375707215629518
10240.0,1.0050433957076166e-05
11264.0,-0.000414850190281868
12288.0,0.00038376112934201956
13312.0,0.00019023519416805357
14336.0,8.683749183546752e-05
end
