version,3.0
numOfCh,1
type,point
parent_name,dirty_50dot0-1dot0
ch_type,1_1
kcount,1
numberNandB,1
brightnessNandB,1
carpet pos,0
pc,0
Time (ms),CH1 Auto-Correlation
1.0,0.07099983096122742
2.0,0.06505174934864044
3.0,0.05992348864674568
4.0,0.05488256365060806
5.0,0.0510563999414444
6.0,0.04808422923088074
7.0,0.04431900009512901
8.0,0.04181312769651413
9.0,0.039648253470659256
10.0,0.03748244047164917
11.0,0.03558656945824623
12.0,0.03443366661667824
13.0,0.033322516828775406
14.0,0.03276512026786804
15.0,0.03224600479006767
16.0,0.031539518386125565
18.0,0.029325077310204506
20.0,0.02678733691573143
22.0,0.023969393223524094
24.0,0.02083691954612732
26.0,0.01832842454314232
28.0,0.016177598387002945
30.0,0.014320047572255135
32.0,0.012177756987512112
36.0,0.008277656510472298
40.0,0.006634722463786602
44.0,0.005041228607296944
48.0,0.003631139174103737
52.0,0.0020686029456555843
56.0,0.00093879085034132
60.0,0.0006861198344267905
64.0,0.0020132968202233315
72.0,0.003172997385263443
80.0,0.003228777786716819
88.0,0.003073641564697027
96.0,0.003945663571357727
104.0,0.004436069168150425
112.0,0.0053090122528374195
120.0,0.005375091452151537
128.0,0.006660330109298229
144.0,0.006889624986797571
160.0,0.006183193996548653
176.0,0.0035141673870384693
192.0,-0.0004815835563931614
208.0,-0.000366625958122313
224.0,0.0028790165670216084
240.0,0.004964776337146759
256.0,0.004189633764326572
288.0,0.0007287445478141308
320.0,-0.000560902466531843
352.0,-0.00021133093105163425
384.0,-0.0002438624360365793
416.0,-0.0022308442275971174
448.0,-0.0022384398616850376
480.0,-0.0020892901811748743
512.0,-0.0011247863294556737
576.0,-0.0012300809612497687
640.0,-0.0013184257550165057
704.0,-0.0019957437179982662
768.0,-0.0012677343329414725
832.0,-0.002377947559580207
896.0,-0.0021337654907256365
960.0,-0.0018431197386234999
1024.0,-0.003499534446746111
1152.0,-0.0012468553613871336
1280.0,-0.0004980036756023765
1408.0,-0.0012958269799128175
1536.0,-0.0008333183941431344
1664.0,0.0016459469916298985
1792.0,0.002018359489738941
1920.0,0.0011998822446912527
2048.0,0.0006728346925228834
2304.0,-0.0008576743421144783
2560.0,-0.0010583994444459677
2816.0,-0.0002724604564718902
3072.0,-0.0009890388464555144
3328.0,0.0007017216412350535
3584.0,0.0015131502877920866
3840.0,0.0009544049389660358
4096.0,-0.0005640394520014524
4608.0,-0.001200785511173308
5120.0,0.0012418953701853752
5632.0,-0.0018147258087992668
6144.0,7.418980385409668e-05
6656.0,0.00015122412878554314
7168.0,-0.0008334412705153227
7680.0,0.0015002904692664742
8192.0,0.0018831000197678804
9216.0,-0.0014508983585983515
10240.0,-7.825883949408308e-05
11264.0,0.0003481765743345022
12288.0,-0.0002562491281423718
13312.0,-0.002802178030833602
14336.0,0.0026494234334677458
end
