version,3.0
numOfCh,1
type,point
parent_name,dirty_50dot0-1dot0
ch_type,1_1
kcount,1
numberNandB,1
brightnessNandB,1
carpet pos,0
pc,0
Time (ms),CH1 Auto-Correlation
1.0,0.073212631046772
2.0,0.06685992330312729
3.0,0.062159668654203415
4.0,0.05800406634807587
5.0,0.0549766980111599
6.0,0.052211932837963104
7.0,0.05000628903508186
8.0,0.04792339354753494
9.0,0.04632413014769554
10.0,0.04456840828061104
11.0,0.04326314851641655
12.0,0.04182673618197441
13.0,0.040856797248125076
14.0,0.03974680230021477
15.0,0.03793961554765701
16.0,0.037098050117492676
18.0,0.035215187817811966
20.0,0.033932097256183624
22.0,0.032949186861515045
24.0,0.03254294395446777
26.0,0.03162379935383797
28.0,0.029984058812260628
30.0,0.028573641553521156
32.0,0.027784164994955063
36.0,0.02655167318880558
40.0,0.023516716435551643
44.0,0.020200476050376892
48.0,0.017903391271829605
52.0,0.015536395832896233
56.0,0.014616899192333221
60.0,0.015157031826674938
64.0,0.014904916286468506
72.0,0.010712631046772003
80.0,0.007057380396872759
88.0,0.005529921967536211
96.0,0.006017560604959726
104.0,0.005070251412689686
112.0,0.0012292086612433195
120.0,0.00084119284292683
128.0,0.0008501082775183022
144.0,-0.0017590116476640105
160.0,-0.0019916517194360495
176.0,-0.0007588451262563467
192.0,0.0002967491454910487
208.0,0.003059541108086705
224.0,0.0039013822097331285
240.0,0.0023249906953424215
256.0,0.00040591449942439795
288.0,-0.00047396516310982406
320.0,-0.0016617977526038885
352.0,-0.002186336787417531
384.0,-0.0006780113908462226
416.0,0.0024786938447505236
448.0,0.0041704317554831505
480.0,0.00277013354934752
512.0,0.0003724613634403795
576.0,-0.0024043358862400055
640.0,-0.0028536226600408554
704.0,-0.002386459382250905
768.0,-0.0025532005820423365
832.0,-0.0020844743121415377
896.0,-0.0020648916251957417
960.0,-0.0016162606189027429
1024.0,-0.003320104442536831
1152.0,-0.002749573439359665
1280.0,-0.0026805123779922724
1408.0,-0.0019268783507868648
1536.0,-0.0012590686092153192
1664.0,-0.0006506214267574251
1792.0,0.00035654977546073496
1920.0,0.00476045161485672
2048.0,0.0033503402955830097
2304.0,-0.0008893455960787833
2560.0,-0.00041482699452899396
2816.0,-0.0014232727698981762
3072.0,-0.00209472281858325
3328.0,-0.0009483781759627163
3584.0,-0.0011522724526003003
3840.0,-0.0009868958732113242
4096.0,-0.0025847668293863535
4608.0,-0.0006832880899310112
5120.0,0.0005160030559636652
5632.0,-0.0003325776488054544
6144.0,-0.0011752546997740865
6656.0,-0.0019042497733607888
7168.0,0.007173912599682808
7680.0,0.0016667949967086315
8192.0,-0.0028323845472186804
9216.0,-0.0005207412759773433
10240.0,-0.0003631165309343487
11264.0,-0.0015480074798688293
12288.0,0.0022689199540764093
13312.0,-0.004839970730245113
14336.0,0.005984349641948938
end
