version,3.0
numOfCh,1
type,point
parent_name,dirty_50dot0-1dot0
ch_type,1_1
kcount,1
numberNandB,1
brightnessNandB,1
carpet pos,0
pc,0
Time (ms),CH1 Auto-Correlation
1.0,0.031545743346214294
2.0,0.027454929426312447
3.0,0.024697206914424896
4.0,0.022675514221191406
5.0,0.020883353427052498
6.0,0.01982148364186287
7.0,0.018501760438084602
8.0,0.017262274399399757
9.0,0.01682240329682827
10.0,0.016039099544286728
11.0,0.01515209674835205
12.0,0.014662099070847034
13.0,0.014552969485521317
14.0,0.013895216397941113
15.0,0.013073437847197056
16.0,0.012315994128584862
18.0,0.01057666540145874
20.0,0.00912576075643301
22.0,0.008133139461278915
24.0,0.00713631184771657
26.0,0.0065774316899478436
28.0,0.005888735875487328
30.0,0.004978611133992672
32.0,0.004288036841899157
36.0,0.004263492301106453
40.0,0.004081975668668747
44.0,0.003798833815380931
48.0,0.0031227555591613054
52.0,0.002451204927638173
56.0,0.0022789607755839825
60.0,0.001976420870050788
64.0,0.0016051039565354586
72.0,0.0024478870909661055
80.0,0.0027838062960654497
88.0,0.0029793186113238335
96.0,0.002427947474643588
104.0,0.0013381412718445063
112.0,0.0008694696589373052
120.0,0.0007798543083481491
128.0,0.00019990226428490132
144.0,0.00012686334957834333
160.0,0.0007238644757308066
176.0,0.0010702116414904594
192.0,0.0005335318855941296
208.0,0.0003031041123904288
224.0,8.663770131533965e-05
240.0,0.0005094137159176171
256.0,0.0003410901699680835
288.0,-1.5834588339203037e-05
320.0,-0.0007554903859272599
352.0,-0.00047480748617090285
384.0,-0.0007300196448341012
416.0,-0.0009884836617857218
448.0,-0.0008229946251958609
480.0,-0.0006094967247918248
512.0,-0.0010645051952451468
576.0,-0.0010640399996191263
640.0,-0.0008063192362897098
704.0,0.0003407620533835143
768.0,0.001688994001597166
832.0,0.0007366103818640113
896.0,0.0006069638766348362
960.0,0.0019257488893344998
1024.0,0.001244915765710175
1152.0,0.0009356969967484474
1280.0,-0.0010679797269403934
1408.0,-0.0011190844234079123
1536.0,-0.001325454330071807
1664.0,-0.0011482926784083247
1792.0,0.00011755619198083878
1920.0,0.002242660615593195
2048.0,-0.0005491235642693937
2304.0,-0.0008196127600967884
2560.0,-1.73964181158226e-05
2816.0,-0.0004863084468524903
3072.0,-0.0005135806859470904
3328.0,0.0002938334655482322
3584.0,-5.5362314014928415e-05
3840.0,-0.0003443015448283404
4096.0,-0.0006630254210904241
4608.0,-0.00043284069397486746
5120.0,0.0005606736522167921
5632.0,0.0005729211843572557
6144.0,-0.00019280104606878012
6656.0,6.105553438828792e-06
7168.0,-0.0007977071800269186
7680.0,-0.00032725787605158985
8192.0,-1.8421151253278367e-05
9216.0,-0.0003825134481303394
10240.0,-0.00038319858140312135
11264.0,0.0008351997821591794
12288.0,0.0008033850463107228
13312.0,-0.0004359492741059512
14336.0,-0.0005348620470613241
end
