version,3.0
numOfCh,1
type,point
parent_name,dirty_50dot0-1dot0
ch_type,1_1
kcount,1
numberNandB,1
brightnessNandB,1
carpet pos,0
pc,0
Time (ms),CH1 Auto-Correlation
1.0,0.033939287066459656
2.0,0.029318932443857193
3.0,0.026092689484357834
4.0,0.023793738335371017
5.0,0.022200072184205055
6.0,0.020910903811454773
7.0,0.01969335973262787
8.0,0.018802357837557793
9.0,0.018266556784510612
10.0,0.017463592812418938
11.0,0.016829853877425194
12.0,0.016239481046795845
13.0,0.016012508422136307
14.0,0.016272563487291336
15.0,0.01648956723511219
16.0,0.01673901081085205
18.0,0.016547301784157753
20.0,0.015596802346408367
22.0,0.01474476046860218
24.0,0.013983871787786484
26.0,0.012798158451914787
28.0,0.012188508175313473
30.0,0.011658916249871254
32.0,0.011058139614760876
36.0,0.009936795569956303
40.0,0.008994006551802158
44.0,0.008299552835524082
48.0,0.007634604815393686
52.0,0.007732866331934929
56.0,0.008015371859073639
60.0,0.008017568849027157
64.0,0.006748952437192202
72.0,0.004701170139014721
80.0,0.0035486314445734024
88.0,0.0027279520872980356
96.0,0.002615389646962285
104.0,0.002904643304646015
112.0,0.0027467114850878716
120.0,0.003156280843541026
128.0,0.002900439780205488
144.0,0.00265453290194273
160.0,0.0035291940439492464
176.0,0.0034168597776442766
192.0,0.003078715642914176
208.0,0.0021155700087547302
224.0,0.0010891405399888754
240.0,-0.0004975796910002828
256.0,-2.5080345949390903e-05
288.0,0.0011966356541961432
320.0,0.0009308744338341057
352.0,-0.0004739651340059936
384.0,-0.0011450438760221004
416.0,-0.001106587122194469
448.0,-0.0009302084217779338
480.0,-0.0009206657996401191
512.0,-0.0007135396590456367
576.0,-0.0009232196025550365
640.0,-0.0008176129776984453
704.0,-0.0018643845105543733
768.0,-0.0007066673715598881
832.0,-0.000977317220531404
896.0,-0.00018510672089178115
960.0,-0.00013188643788453192
1024.0,-0.0003719651431310922
1152.0,-0.00042702702921815217
1280.0,-0.0008672319818288088
1408.0,-0.0009051783126778901
1536.0,-0.0011195275001227856
1664.0,-0.0004646331362891942
1792.0,-0.0003669392317533493
1920.0,-0.0006493089604191482
2048.0,-0.00024799047969281673
2304.0,0.0005519147380255163
2560.0,-0.0004886590177193284
2816.0,-0.0009267985005863011
3072.0,-0.0008968163165263832
3328.0,-0.0009542843326926231
3584.0,-0.0009230842115357518
3840.0,-0.00044481930672191083
4096.0,0.0004544659168459475
4608.0,0.0015810575569048524
5120.0,-0.00054793810704723
5632.0,0.00034643258550204337
6144.0,-0.00023983129358384758
6656.0,0.0008597564301453531
7168.0,0.0005309933330863714
7680.0,-0.00046380041749216616
8192.0,-0.0009762061526998878
9216.0,-0.0007438848842866719
10240.0,-0.0008276806329376996
11264.0,0.00043951874249614775
12288.0,-0.00016340943693649024
13312.0,0.0015732399187982082
14336.0,-0.00054545869352296
end
