version,3.0
numOfCh,1
type,point
parent_name,dirty_50dot0-1dot0
ch_type,1_1
kcount,1
numberNandB,1
brightnessNandB,1
carpet pos,0
pc,0
Time (ms),CH1 Auto-Correlation
1.0,0.11900554597377777
2.0,0.10803631693124771
3.0,0.09857620298862457
4.0,0.09029906243085861
5.0,0.08350372314453125
6.0,0.07870249450206757
7.0,0.07371502369642258
8.0,0.06915700435638428
9.0,0.06579674780368805
10.0,0.06310594081878662
11.0,0.05923718959093094
12.0,0.05620383471250534
13.0,0.054617833346128464
14.0,0.0520511269569397
15.0,0.04984797164797783
16.0,0.04812091961503029
18.0,0.04542263597249985
20.0,0.04362192377448082
22.0,0.04160614684224129
24.0,0.04133468493819237
26.0,0.041798774152994156
28.0,0.041537895798683167
30.0,0.0416874922811985
32.0,0.04105384275317192
36.0,0.04005549103021622
40.0,0.03691486641764641
44.0,0.033489882946014404
48.0,0.03125595673918724
52.0,0.02887064218521118
56.0,0.026928910985589027
60.0,0.023206207901239395
64.0,0.019811611622571945
72.0,0.018695538863539696
80.0,0.017400486394762993
88.0,0.016831615939736366
96.0,0.016198813915252686
104.0,0.01026845071464777
112.0,0.006606990471482277
120.0,0.00808893982321024
128.0,0.008475406095385551
144.0,0.0035477702040225267
160.0,0.0014672932447865605
176.0,0.000489371654111892
192.0,0.0018903877353295684
208.0,0.005816936492919922
224.0,0.010023679584264755
240.0,0.008002417162060738
256.0,0.00794155802577734
288.0,0.007006634026765823
320.0,0.003855732036754489
352.0,0.00574199203401804
384.0,0.005427652969956398
416.0,0.00618431530892849
448.0,0.0027489596977829933
480.0,0.0013139857910573483
512.0,0.0035916201304644346
576.0,-0.0029691646341234446
640.0,0.0011225203052163124
704.0,0.0007479084888473153
768.0,-0.0019610284361988306
832.0,-0.0032892259769141674
896.0,-0.0023988850880414248
960.0,-0.00292689329944551
1024.0,0.0010724241146817803
1152.0,-0.0027771953027695417
1280.0,-0.0019042876083403826
1408.0,-0.002145153470337391
1536.0,0.0006044609472155571
1664.0,0.0008065192960202694
1792.0,-0.0050508249551057816
1920.0,-0.0020797736942768097
2048.0,-0.004368565045297146
2304.0,-0.004105304833501577
2560.0,-0.005065872333943844
2816.0,-0.004961926955729723
3072.0,-0.003578854026272893
3328.0,-0.0043535977602005005
3584.0,-0.003865506500005722
3840.0,-0.0017465086420997977
4096.0,0.0023308806121349335
4608.0,0.0024587626103311777
5120.0,0.0017207653727382421
5632.0,0.006215070374310017
6144.0,0.0014974788064137101
6656.0,-0.004089027643203735
7168.0,-0.0040659732185304165
7680.0,-0.0020658003631979227
8192.0,-0.001902701216749847
9216.0,-0.0010265496093779802
10240.0,0.004806170705705881
11264.0,-0.0038288661744445562
12288.0,-0.0015790312318131328
13312.0,0.003841651137918234
14336.0,7.562553037132602e-06
end
