version,3.0
numOfCh,1
type,point
parent_name,dirty_50dot0-1dot0
ch_type,1_1
kcount,1
numberNandB,1
brightnessNandB,1
carpet pos,0
pc,0
Time (ms),CH1 Auto-Correlation
1.0,0.0369170643389225
2.0,0.03269024193286896
3.0,0.029465829953551292
4.0,0.027364540845155716
5.0,0.025036951526999474
6.0,0.023824213072657585
7.0,0.022918254137039185
8.0,0.021750042214989662
9.0,0.020770154893398285
10.0,0.019940948113799095
11.0,0.019240936264395714
12.0,0.018017586320638657
13.0,0.01680600829422474
14.0,0.01587575674057007
15.0,0.015302714891731739
16.0,0.014168194495141506
18.0,0.01297948881983757
20.0,0.012658110819756985
22.0,0.012106167152523994
24.0,0.011353670619428158
26.0,0.010445958003401756
28.0,0.010034320876002312
30.0,0.009721068665385246
32.0,0.009195690974593163
36.0,0.007753425277769566
40.0,0.006757417228072882
44.0,0.005709056276828051
48.0,0.004695670213550329
52.0,0.0036498934496194124
56.0,0.002827438060194254
60.0,0.0022538481280207634
64.0,0.0018678279593586922
72.0,0.0016169184818863869
80.0,0.002353847259655595
88.0,0.001921286340802908
96.0,0.0012772748013958335
104.0,0.0009233041782863438
112.0,0.001469757640734315
120.0,0.001460608677007258
128.0,0.0014918053057044744
144.0,0.0013250253396108747
160.0,0.0014554531080648303
176.0,0.002004808746278286
192.0,0.0017965903971344233
208.0,0.001843768171966076
224.0,0.0011768988333642483
240.0,-8.139191777445376e-05
256.0,-0.00038740623858757317
288.0,5.270300243864767e-05
320.0,-0.00016981959925033152
352.0,-0.00038967488217167556
384.0,-0.0006129599642008543
416.0,-0.00044304135371930897
448.0,-0.0006367049063555896
480.0,-0.0008346418617293239
512.0,-0.000668286404106766
576.0,-0.00032897520577535033
640.0,-0.0007551825838163495
704.0,-0.0009749948512762785
768.0,-0.0008405721746385098
832.0,-0.0008832187158986926
896.0,-0.0010923120426014066
960.0,-0.0011364180827513337
1024.0,-0.001630399259738624
1152.0,-0.0004430330591276288
1280.0,-0.0005601458833552897
1408.0,0.0001511965529061854
1536.0,-0.0001691214129095897
1664.0,-0.0009528581285849214
1792.0,-0.0007659274851903319
1920.0,-0.0010369388619437814
2048.0,-0.0005898171802982688
2304.0,0.0005549225606955588
2560.0,0.0005937227979302406
2816.0,0.0017652683891355991
3072.0,0.0009629536652937531
3328.0,-0.0011605453910306096
3584.0,-0.0010424096835777164
3840.0,-0.0012243440141901374
4096.0,-0.0005635498091578484
4608.0,-0.0008580746944062412
5120.0,0.0010972210438922048
5632.0,0.0007145219715312123
6144.0,-0.00011798879131674767
6656.0,0.0007377259316854179
7168.0,-0.0008701381739228964
7680.0,-0.0013674896908923984
8192.0,0.002586565213277936
9216.0,-0.00031079741893336177
10240.0,-0.0007261460414156318
11264.0,0.0004295464896131307
12288.0,0.000548737240023911
13312.0,-0.0008906378061510623
14336.0,0.0008727014646865427
end
