version,3.0
numOfCh,1
type,point
parent_name,dirty_50dot0-1dot0
ch_type,1_1
kcount,1
numberNandB,1
brightnessNandB,1
carpet pos,0
pc,0
Time (ms),CH1 Auto-Correlation
1.0,0.020562833175063133
2.0,0.01719731092453003
3.0,0.015044176019728184
4.0,0.013876396231353283
5.0,0.012660005129873753
6.0,0.011975313536822796
7.0,0.011386137455701828
8.0,0.010722342878580093
9.0,0.010342362336814404
10.0,0.009875229559838772
11.0,0.00930798426270485
12.0,0.009028446860611439
13.0,0.0086527019739151
14.0,0.00795298907905817
15.0,0.0073578013107180595
16.0,0.006770002190023661
18.0,0.0060704671777784824
20.0,0.005321338307112455
22.0,0.004984068218618631
24.0,0.004774098750203848
26.0,0.004351796582341194
28.0,0.004666054155677557
30.0,0.004691890440881252
32.0,0.004602820612490177
36.0,0.004654014483094215
40.0,0.004469654988497496
44.0,0.004566109739243984
48.0,0.004573574755340815
52.0,0.004532799124717712
56.0,0.004073618445545435
60.0,0.003065221244469285
64.0,0.0021391864866018295
72.0,0.0017189504578709602
80.0,0.0016968376003205776
88.0,0.0015164674259722233
96.0,0.0014074973296374083
104.0,0.001460396801121533
112.0,0.001149255782365799
120.0,0.00019745351164601743
128.0,-4.200164039502852e-05
144.0,2.053315938610467e-06
160.0,0.0001361230679322034
176.0,0.00024196907179430127
192.0,-0.000187678262591362
208.0,-0.00028122111689299345
224.0,-0.00018308513972442597
240.0,-0.00013442618364933878
256.0,-0.00010590706369839609
288.0,-0.000163452816195786
320.0,-4.9892089009517804e-05
352.0,-0.0007072458975017071
384.0,-0.00055624422384426
416.0,-0.00046407521585933864
448.0,-0.00011565520253498107
480.0,1.5004431588749867e-05
512.0,0.00012814880756195635
576.0,0.0008101650746539235
640.0,0.0008332017459906638
704.0,0.00011509541945997626
768.0,-0.00011491696932353079
832.0,-0.0002710421977099031
896.0,-0.0005658895242959261
960.0,3.345097502460703e-05
1024.0,0.00012598585453815758
1152.0,-6.874752580188215e-05
1280.0,-0.00033635046565905213
1408.0,0.00014859694056212902
1536.0,0.0008487930754199624
1664.0,5.234049240243621e-05
1792.0,-0.00012380455154925585
1920.0,3.877781273331493e-05
2048.0,0.00033044302836060524
2304.0,-0.00043549889232963324
2560.0,-0.0004799632297363132
2816.0,-7.695474050706252e-05
3072.0,-0.00031174320611171424
3328.0,-0.0004190793551970273
3584.0,-0.00023031378805171698
3840.0,-0.0004462958313524723
4096.0,-0.0005529175978153944
4608.0,0.0004650923074223101
5120.0,0.00038477001362480223
5632.0,3.4750406484818086e-05
6144.0,0.00035663292510434985
6656.0,-4.3725172872655094e-05
7168.0,-0.00020324000797700137
7680.0,-0.00016326150216627866
8192.0,-0.0002794578904286027
9216.0,-9.813338692765683e-07
10240.0,-0.00015911993978079408
11264.0,-3.705416384036653e-05
12288.0,-0.00025916926097124815
13312.0,-0.00035708799259737134
14336.0,-0.00021292755263857543
end
