version,3.0
numOfCh,1
type,point
parent_name,dirty_50dot0-1dot0
ch_type,1_1
kcount,1
numberNandB,1
brightnessNandB,1
carpet pos,0
pc,0
Time (ms),CH1 Auto-Correlation
1.0,0.06525999307632446
2.0,0.05947112664580345
3.0,0.05524836480617523
4.0,0.05165225639939308
5.0,0.048902399837970734
6.0,0.04654669016599655
7.0,0.04448007792234421
8.0,0.04299818351864815
9.0,0.04196292161941528
10.0,0.04089490696787834
11.0,0.03966135531663895
12.0,0.038362838327884674
13.0,0.03644249215722084
14.0,0.03495331108570099
15.0,0.033961568027734756
16.0,0.0327734500169754
18.0,0.030264856293797493
20.0,0.029143063351511955
22.0,0.028210045769810677
24.0,0.026985369622707367
26.0,0.025372743606567383
28.0,0.023485740646719933
30.0,0.022249331697821617
32.0,0.02100195735692978
36.0,0.01832675375044346
40.0,0.016146821901202202
44.0,0.014273762702941895
48.0,0.013293623924255371
52.0,0.011366319842636585
56.0,0.011980037204921246
60.0,0.012493575923144817
64.0,0.013164006173610687
72.0,0.013036771677434444
80.0,0.01430986076593399
88.0,0.016329960897564888
96.0,0.01812940277159214
104.0,0.018264034762978554
112.0,0.01977456919848919
120.0,0.02056548185646534
128.0,0.020143792033195496
144.0,0.01722158119082451
160.0,0.01520488504320383
176.0,0.013717936351895332
192.0,0.012064150534570217
208.0,0.009692538529634476
224.0,0.008949811570346355
240.0,0.009698362089693546
256.0,0.009672138839960098
288.0,0.007173785008490086
320.0,0.006827380508184433
352.0,0.005630694329738617
384.0,0.003893811022862792
416.0,0.0027765431441366673
448.0,0.007539205253124237
480.0,0.009124674834311008
512.0,0.00246388535015285
576.0,0.004015117418020964
640.0,0.0010504955425858498
704.0,-1.1750204066629522e-05
768.0,-0.0011553149670362473
832.0,-0.0019238021923229098
896.0,-0.0006222082301974297
960.0,-0.001126722665503621
1024.0,-0.00048410365707241
1152.0,-0.0021510880906134844
1280.0,-0.0025507581885904074
1408.0,-0.0019437266746535897
1536.0,-0.000951483438257128
1664.0,-0.002529734978452325
1792.0,-0.0029790978878736496
1920.0,-0.0028128791600465775
2048.0,-0.002850424265488982
2304.0,-0.003666396951302886
2560.0,-0.003764641936868429
2816.0,-0.0033633881248533726
3072.0,-0.0025941727217286825
3328.0,-0.0027137291617691517
3584.0,0.0021794948261231184
3840.0,0.002408232307061553
4096.0,0.002976456191390753
4608.0,0.001251625712029636
5120.0,-0.0024136630818247795
5632.0,-0.004797244444489479
6144.0,-0.001482622348703444
6656.0,-0.0018528237706050277
7168.0,-0.002774879103526473
7680.0,0.007936133071780205
8192.0,0.005072177853435278
9216.0,-0.003099487628787756
10240.0,-0.0029504592530429363
11264.0,0.0005487794987857342
12288.0,0.0009597030002623796
13312.0,0.00013842229964211583
14336.0,0.0029582709539681673
end
