version,3.0
numOfCh,1
type,point
parent_name,dirty_50dot0-1dot0
ch_type,1_1
kcount,1
numberNandB,1
brightnessNandB,1
carpet pos,0
pc,0
Time (ms),CH1 Auto-Correlation
1.0,0.1050812378525734
2.0,0.09641855210065842
3.0,0.08910220861434937
4.0,0.08283106237649918
5.0,0.0772264376282692
6.0,0.07178772240877151
7.0,0.06605999916791916
8.0,0.06101585552096367
9.0,0.05659383907914162
10.0,0.05252036452293396
11.0,0.0496065579354763
12.0,0.04740145429968834
13.0,0.045335233211517334
14.0,0.043710965663194656
15.0,0.04149400070309639
16.0,0.03950481489300728
18.0,0.036243513226509094
20.0,0.03382117301225662
22.0,0.030288204550743103
24.0,0.028173429891467094
26.0,0.026436230167746544
28.0,0.025189576670527458
30.0,0.02431602217257023
32.0,0.024110279977321625
36.0,0.023185333237051964
40.0,0.02272498607635498
44.0,0.024213463068008423
48.0,0.02574499323964119
52.0,0.024738261476159096
56.0,0.023145068436861038
60.0,0.021629685536026955
64.0,0.019068902358412743
72.0,0.014164878986775875
80.0,0.009669000282883644
88.0,0.007299373392015696
96.0,0.006024557165801525
104.0,0.005007897969335318
112.0,0.004719677846878767
120.0,0.004507505334913731
128.0,0.0013401382602751255
144.0,0.0003493230324238539
160.0,0.001254795934073627
176.0,-0.001046160701662302
192.0,-0.002114085713401437
208.0,-0.0016503902152180672
224.0,-0.0034568128176033497
240.0,-0.0035892671439796686
256.0,-0.0005617812275886536
288.0,0.0021416472736746073
320.0,-0.00017532747006043792
352.0,0.0032353007700294256
384.0,0.001247583655640483
416.0,0.003832477843388915
448.0,0.0006619529449380934
480.0,-0.0021060064900666475
512.0,-0.0025594416074454784
576.0,-0.0034760390408337116
640.0,-0.002915967023000121
704.0,0.0008806705591268837
768.0,0.0021274215541779995
832.0,-0.0025105902459472418
896.0,-0.0014064365532249212
960.0,0.0030334636103361845
1024.0,0.0027717631310224533
1152.0,0.00014783428923692554
1280.0,0.0007643218850716949
1408.0,0.0017809848068282008
1536.0,-0.0030864947475492954
1664.0,-0.004413891583681107
1792.0,-0.0021927552297711372
1920.0,-0.0012743686093017459
2048.0,0.0016648846212774515
2304.0,0.0032219605054706335
2560.0,-0.00139389478135854
2816.0,0.0017190368380397558
3072.0,-0.0008805690449662507
3328.0,-0.003138874424621463
3584.0,0.00321015901863575
3840.0,0.0003662488888949156
4096.0,-0.0002768394479062408
4608.0,-0.00047563776024617255
5120.0,-0.0021786519791930914
5632.0,-0.0032364511862397194
6144.0,-0.0006511359824799001
6656.0,0.0018735503545030951
7168.0,-0.0002956334501504898
7680.0,0.0002815211482811719
8192.0,-0.0021811702754348516
9216.0,-0.002962396014481783
10240.0,0.00025014556013047695
11264.0,0.0014014765620231628
12288.0,-0.0007570731686428189
13312.0,0.008569713681936264
14336.0,-0.0022483891807496548
end
