version,3.0
numOfCh,1
type,point
parent_name,dirty_50dot0-1dot0
ch_type,1_1
kcount,1
numberNandB,1
brightnessNandB,1
carpet pos,0
pc,0
Time (ms),CH1 Auto-Correlation
1.0,0.1783391237258911
2.0,0.16165795922279358
3.0,0.15132974088191986
4.0,0.14133188128471375
5.0,0.13205647468566895
6.0,0.12467532604932785
7.0,0.11654160916805267
8.0,0.10991744697093964
9.0,0.10516847670078278
10.0,0.10119092464447021
11.0,0.09831704944372177
12.0,0.09627144783735275
13.0,0.09299474209547043
14.0,0.08996479213237762
15.0,0.08837062120437622
16.0,0.08796998113393784
18.0,0.08675103634595871
20.0,0.08475560694932938
22.0,0.08211963623762131
24.0,0.0803452879190445
26.0,0.07748650014400482
28.0,0.07568511366844177
30.0,0.07214278727769852
32.0,0.06884249299764633
36.0,0.0647050216794014
40.0,0.06268506497144699
44.0,0.06128179281949997
48.0,0.05914623290300369
52.0,0.054425567388534546
56.0,0.04908955469727516
60.0,0.04652728885412216
64.0,0.042827267199754715
72.0,0.03476959839463234
80.0,0.03180684149265289
88.0,0.027803732082247734
96.0,0.028685063123703003
104.0,0.027603965252637863
112.0,0.023357398808002472
120.0,0.018349453806877136
128.0,0.014413771219551563
144.0,0.01039367076009512
160.0,0.00983504019677639
176.0,0.002461070427671075
192.0,9.885369217954576e-05
208.0,-0.001858817646279931
224.0,-0.004489934537559748
240.0,-0.0003967055818066001
256.0,-0.0026565995067358017
288.0,0.001458960585296154
320.0,0.0029776280280202627
352.0,0.004311770666390657
384.0,0.004183975979685783
416.0,0.002266843803226948
448.0,-0.0021714135073125362
480.0,-0.003660971997305751
512.0,-0.00629177363589406
576.0,-0.009394722059369087
640.0,-0.007055195514112711
704.0,-0.008571432903409004
768.0,-0.008624926209449768
832.0,-0.005860160570591688
896.0,-0.0035081924870610237
960.0,-0.002906440757215023
1024.0,-0.00122922845184803
1152.0,-0.0005135749815963209
1280.0,0.007424941286444664
1408.0,0.008589955046772957
1536.0,-0.0030283122323453426
1664.0,-0.003952325787395239
1792.0,-0.0018661549547687173
1920.0,-0.00172527227550745
2048.0,0.005847413558512926
2304.0,0.00014898138761054724
2560.0,-0.007188677322119474
2816.0,-0.00902076531201601
3072.0,-0.0016782012535259128
3328.0,0.003372150007635355
3584.0,0.0075858477503061295
3840.0,-0.0005359173519536853
4096.0,-0.008904089219868183
4608.0,-0.002590268850326538
5120.0,0.00011481800902402028
5632.0,-0.002889186842367053
6144.0,0.0012206194223836064
6656.0,0.0051972935907542706
7168.0,0.000977258663624525
7680.0,-0.0033906353637576103
8192.0,0.00036141829332336783
9216.0,0.002803833456709981
10240.0,0.0010560548398643732
11264.0,0.0009260522783733904
12288.0,-0.00521131930872798
13312.0,-0.001493206713348627
14336.0,-0.017110422253608704
end
