version,3.0
numOfCh,1
type,point
parent_name,dirty_50dot0-1dot0
ch_type,1_1
kcount,1
numberNandB,1
brightnessNandB,1
carpet pos,0
pc,0
Time (ms),CH1 Auto-Correlation
1.0,0.04149787873029709
2.0,0.03708669915795326
3.0,0.03427158296108246
4.0,0.031782716512680054
5.0,0.029369674623012543
6.0,0.027682265266776085
7.0,0.026233086362481117
8.0,0.025132527574896812
9.0,0.02420087344944477
10.0,0.02317933551967144
11.0,0.02259952574968338
12.0,0.02180209383368492
13.0,0.021074507385492325
14.0,0.02045953832566738
15.0,0.019834257662296295
16.0,0.01882215403020382
18.0,0.01795951835811138
20.0,0.017426565289497375
22.0,0.01628652773797512
24.0,0.015517872758209705
26.0,0.014503909274935722
28.0,0.013921084813773632
30.0,0.013764508999884129
32.0,0.012925893999636173
36.0,0.011701376177370548
40.0,0.011113912798464298
44.0,0.011118020862340927
48.0,0.011702149175107479
52.0,0.009876318275928497
56.0,0.008432423695921898
60.0,0.007632753346115351
64.0,0.006865618284791708
72.0,0.005649884231388569
80.0,0.005793207325041294
88.0,0.005810301750898361
96.0,0.006246414966881275
104.0,0.006463954225182533
112.0,0.0073793018236756325
120.0,0.007153170183300972
128.0,0.006505484692752361
144.0,0.005634834058582783
160.0,0.004867688752710819
176.0,0.0035356420557945967
192.0,0.005305210594087839
208.0,0.005043402314186096
224.0,0.005083530675619841
240.0,0.005378995090723038
256.0,0.0031614303588867188
288.0,0.001995145808905363
320.0,7.970329170348123e-05
352.0,-0.00016755527758505195
384.0,-0.00041781639447435737
416.0,-0.0009475831757299602
448.0,-0.0010394143173471093
480.0,-0.0010624139104038477
512.0,-0.0009468294447287917
576.0,-0.0010668315226212144
640.0,0.00026078236987814307
704.0,-0.0005018481751903892
768.0,-6.979853060329333e-05
832.0,-0.0013987863203510642
896.0,-0.0015711163869127631
960.0,-0.0014130055205896497
1024.0,-0.0011767945252358913
1152.0,-0.0013828340452164412
1280.0,-0.0012396718375384808
1408.0,-0.0014936206862330437
1536.0,-0.0012398697435855865
1664.0,-0.001168596907518804
1792.0,-0.0006101820035837591
1920.0,0.0003664390533231199
2048.0,0.002223012503236532
2304.0,0.0011284040519967675
2560.0,0.0028428679797798395
2816.0,0.002381660742685199
3072.0,-0.0007090542931109667
3328.0,-0.0010716685792431235
3584.0,-0.0009459860739298165
3840.0,-3.0357368814293295e-05
4096.0,-0.00036117344279773533
4608.0,-0.0009449664503335953
5120.0,-3.5889253922505304e-05
5632.0,-0.00012483638420235366
6144.0,-0.0002340904320590198
6656.0,-0.0005693503771908581
7168.0,-0.0019225217401981354
7680.0,-0.0016020532930269837
8192.0,-0.0005121503490954638
9216.0,-0.00045708887046203017
10240.0,-0.0014459050726145506
11264.0,-0.0013976478949189186
12288.0,0.0027329071890562773
13312.0,-0.004394087474793196
14336.0,0.014143744483590126
end
