version,3.0
numOfCh,1
type,point
parent_name,dirty_50dot0-1dot0
ch_type,1_1
kcount,1
numberNandB,1
brightnessNandB,1
carpet pos,0
pc,0
Time (ms),CH1 Auto-Correlation
1.0,0.062153857201337814
2.0,0.05544198304414749
3.0,0.04949646443128586
4.0,0.04420258104801178
5.0,0.03955204412341118
6.0,0.03598234802484512
7.0,0.03203707933425903
8.0,0.028847813606262207
9.0,0.02623678743839264
10.0,0.02421391010284424
11.0,0.022054197266697884
12.0,0.021185550838708878
13.0,0.020043430849909782
14.0,0.019318873062729836
15.0,0.018699970096349716
16.0,0.018956473097205162
18.0,0.017942989245057106
20.0,0.016972962766885757
22.0,0.015450717881321907
24.0,0.014272252097725868
26.0,0.013425112701952457
28.0,0.012847927398979664
30.0,0.012629772536456585
32.0,0.012672781012952328
36.0,0.010801385156810284
40.0,0.009837841615080833
44.0,0.008742451667785645
48.0,0.007509365677833557
52.0,0.008205932565033436
56.0,0.007357421331107616
60.0,0.005818975158035755
64.0,0.004490159451961517
72.0,0.002847688738256693
80.0,0.001528761349618435
88.0,0.0026166746392846107
96.0,0.001184749067761004
104.0,0.0004854043072555214
112.0,0.000277320621535182
120.0,0.0011152110528200865
128.0,-0.0001135795027948916
144.0,0.0020466698333621025
160.0,0.005135959014296532
176.0,0.007229091599583626
192.0,0.005393176339566708
208.0,0.004506927914917469
224.0,0.002415033522993326
240.0,0.0006817077519372106
256.0,0.0005436111241579056
288.0,0.00027516009868122637
320.0,0.0011547335889190435
352.0,0.002172396518290043
384.0,0.004701040219515562
416.0,0.0027628792449831963
448.0,0.0016219534445554018
480.0,-0.00036907073808833957
512.0,-0.0010222533019259572
576.0,0.000676475465297699
640.0,0.0004562500980682671
704.0,-0.00028667403967119753
768.0,8.291886479128152e-05
832.0,-0.0005161745357327163
896.0,-0.0009605393861420453
960.0,0.00010136247146874666
1024.0,-0.001054162043146789
1152.0,0.0022507281973958015
1280.0,0.0018006506143137813
1408.0,-0.0020697186700999737
1536.0,0.00203605554997921
1664.0,-0.00013029576803091913
1792.0,0.0025472708512097597
1920.0,0.0013708025217056274
2048.0,0.0011292323470115662
2304.0,0.0007574184564873576
2560.0,-0.000784620177000761
2816.0,0.001936144195497036
3072.0,0.0005969803896732628
3328.0,0.00025695827207528055
3584.0,-0.001374495797790587
3840.0,-0.0013560391962528229
4096.0,-0.0011668941006064415
4608.0,-0.000230992489377968
5120.0,-3.272943285992369e-05
5632.0,-0.0005465151625685394
6144.0,-0.0013411397812888026
6656.0,-0.0015027864137664437
7168.0,-0.001207181834615767
7680.0,-0.0006428240449167788
8192.0,-0.0013840922620147467
9216.0,-0.0014499747194349766
10240.0,0.0013827350921928883
11264.0,0.00038329631206579506
12288.0,-0.0005175943952053785
13312.0,0.0019888177048414946
14336.0,-0.0032949724700301886
end
