version,3.0
numOfCh,1
type,point
parent_name,dirty_50dot0-1dot0
ch_type,1_1
kcount,1
numberNandB,1
brightnessNandB,1
carpet pos,0
pc,0
Time (ms),CH1 Auto-Correlation
1.0,0.049733784049749374
2.0,0.04478462040424347
3.0,0.04193173348903656
4.0,0.039596229791641235
5.0,0.037317242473363876
6.0,0.035843122750520706
7.0,0.03438475355505943
8.0,0.03330462798476219
9.0,0.03154028579592705
10.0,0.030309388414025307
11.0,0.029103316366672516
12.0,0.02816518396139145
13.0,0.02711351029574871
14.0,0.02587553672492504
15.0,0.025114554911851883
16.0,0.024084677919745445
18.0,0.021221544593572617
20.0,0.018890900537371635
22.0,0.016821255907416344
24.0,0.014982202090322971
26.0,0.013369552791118622
28.0,0.01161330658942461
30.0,0.010104893706738949
32.0,0.008363080210983753
36.0,0.005944387521594763
40.0,0.004261380527168512
44.0,0.004121779464185238
48.0,0.004042936488986015
52.0,0.003836841555312276
56.0,0.0036386586725711823
60.0,0.0034197380300611258
64.0,0.002833174541592598
72.0,0.0021215658634901047
80.0,0.002029342809692025
88.0,0.0010037175379693508
96.0,0.0007405269425362349
104.0,0.0005921948468312621
112.0,0.0005907608428969979
120.0,-3.591913991840556e-05
128.0,-0.00015949056250974536
144.0,0.00011140284186694771
160.0,-0.0002627059875521809
176.0,0.00013860184117220342
192.0,7.636233931407332e-05
208.0,-0.00019857671577483416
224.0,-0.0001798464363673702
240.0,-0.0013414619024842978
256.0,-0.0008282623603008687
288.0,0.0019437081646174192
320.0,0.000513411418069154
352.0,-0.0011687248479574919
384.0,-0.0016108177369460464
416.0,-0.0016632839106023312
448.0,-0.001336964895017445
480.0,-0.0010106434347108006
512.0,-0.0006918550352565944
576.0,-0.0007906837854534388
640.0,-0.000678336014971137
704.0,-0.0007603007252328098
768.0,-0.0009717840584926307
832.0,0.0023991116322577
896.0,0.0008861275855451822
960.0,-0.00026639492716640234
1024.0,-0.0010793006513267756
1152.0,0.00017686813953332603
1280.0,0.00046095243305899203
1408.0,0.0024421177804470062
1536.0,0.0002649781235959381
1664.0,-0.000650345697067678
1792.0,-0.0009341153781861067
1920.0,-0.0009169202530756593
2048.0,0.00030813782359473407
2304.0,0.0012734709307551384
2560.0,-0.0006982196355238557
2816.0,-0.0010763234458863735
3072.0,-0.0011342219077050686
3328.0,-0.00038684564060531557
3584.0,-0.0003134518628939986
3840.0,-0.0003894767432939261
4096.0,-0.001475574099458754
4608.0,0.00045800753287039697
5120.0,-0.0011219206498935819
5632.0,-0.001782451756298542
6144.0,0.0009426472242921591
6656.0,0.00031909585231915116
7168.0,-0.0007694002706557512
7680.0,0.0003512983676046133
8192.0,0.0019229257013648748
9216.0,-0.0001236355456057936
10240.0,0.000814015744253993
11264.0,-0.00021591366385109723
12288.0,-0.0003279219090472907
13312.0,-0.00044697397970594466
14336.0,0.0012113758129999042
end
