version,3.0
numOfCh,1
type,point
parent_name,dirty_50dot0-1dot0
ch_type,1_1
kcount,1
numberNandB,1
brightnessNandB,1
carpet pos,0
pc,0
Time (ms),CH1 Auto-Correlation
1.0,0.06744056940078735
2.0,0.06212647631764412
3.0,0.05775325000286102
4.0,0.05484635382890701
5.0,0.052294667810201645
6.0,0.04940586909651756
7.0,0.04675419628620148
8.0,0.044669944792985916
9.0,0.043131180107593536
10.0,0.04188581928610802
11.0,0.04020833224058151
12.0,0.039142634719610214
13.0,0.03764903545379639
14.0,0.03653237223625183
15.0,0.035585917532444
16.0,0.034263599663972855
18.0,0.0315827876329422
20.0,0.02978176437318325
22.0,0.027957964688539505
24.0,0.026480715721845627
26.0,0.025672663003206253
28.0,0.02470487356185913
30.0,0.023981498554348946
32.0,0.024024764075875282
36.0,0.023121528327465057
40.0,0.021249666810035706
44.0,0.02012835443019867
48.0,0.019123030826449394
52.0,0.017516590654850006
56.0,0.015583357773721218
60.0,0.013438994064927101
64.0,0.012018801644444466
72.0,0.010154535062611103
80.0,0.008023007772862911
88.0,0.005895724054425955
96.0,0.004847479518502951
104.0,0.005754252430051565
112.0,0.007093073334544897
120.0,0.007794425822794437
128.0,0.006420036777853966
144.0,0.004488022066652775
160.0,0.004060004837810993
176.0,0.0016178808873519301
192.0,-0.00046060324530117214
208.0,-0.0004101757949683815
224.0,0.00041595843504182994
240.0,0.0015431900974363089
256.0,0.0017777382163330913
288.0,0.0030115926638245583
320.0,0.00043461500899866223
352.0,0.0008751660934649408
384.0,-0.00038797882734797895
416.0,-0.00025407937937416136
448.0,0.0009410286438651383
480.0,0.0030201205518096685
512.0,0.0013999504735693336
576.0,-0.002485912758857012
640.0,-0.0029855268076062202
704.0,-0.002911750692874193
768.0,-0.0035464034881442785
832.0,-0.0007729415083304048
896.0,-0.0020598922856152058
960.0,0.0020633935928344727
1024.0,0.004396482370793819
1152.0,0.00013123443932272494
1280.0,0.00917796790599823
1408.0,0.004506238736212254
1536.0,0.004717596340924501
1664.0,-0.0032779767643660307
1792.0,-0.0043866499327123165
1920.0,-0.0033891398925334215
2048.0,-0.0025309149641543627
2304.0,0.0011363743105903268
2560.0,0.0030443558935076
2816.0,0.0011831596493721008
3072.0,-0.0033609720412641764
3328.0,-0.003328569931909442
3584.0,3.7219760997686535e-05
3840.0,0.0013629959430545568
4096.0,-0.0011730649275705218
4608.0,-0.0008842038223519921
5120.0,-0.000552767887711525
5632.0,-0.002106358529999852
6144.0,0.0007209862815216184
6656.0,-0.003428393043577671
7168.0,-0.0009367602760903537
7680.0,-0.001726604183204472
8192.0,-0.0011505208676680923
9216.0,-1.4560727379375749e-07
10240.0,0.00035281380405649543
11264.0,-0.00026384630473330617
12288.0,-0.0003305643331259489
13312.0,-0.0018775828648358583
14336.0,0.001535616465844214
end
