version,3.0
numOfCh,1
type,point
parent_name,dirty_50dot0-1dot0
ch_type,1_1
kcount,1
numberNandB,1
brightnessNandB,1
carpet pos,0
pc,0
Time (ms),CH1 Auto-Correlation
1.0,0.1144275963306427
2.0,0.10611303895711899
3.0,0.0986006110906601
4.0,0.09166456013917923
5.0,0.08571773767471313
6.0,0.08074028044939041
7.0,0.07598412036895752
8.0,0.07185100764036179
9.0,0.06892159581184387
10.0,0.06647396832704544
11.0,0.06497003883123398
12.0,0.06273974478244781
13.0,0.06081702932715416
14.0,0.05872149392962456
15.0,0.057576850056648254
16.0,0.05650775134563446
18.0,0.05348052829504013
20.0,0.051627375185489655
22.0,0.04857587441802025
24.0,0.04452773183584213
26.0,0.04148519039154053
28.0,0.03849155828356743
30.0,0.0362209789454937
32.0,0.034894656389951706
36.0,0.029314301908016205
40.0,0.02553134597837925
44.0,0.024295780807733536
48.0,0.022544745355844498
52.0,0.02092788554728031
56.0,0.019101234152913094
60.0,0.018073327839374542
64.0,0.018417781218886375
72.0,0.018461573868989944
80.0,0.018665069714188576
88.0,0.01916346326470375
96.0,0.014408447779715061
104.0,0.009942117147147655
112.0,0.00951731950044632
120.0,0.006934383884072304
128.0,0.005111629143357277
144.0,0.0040054162964224815
160.0,0.005221386440098286
176.0,0.0025941289495676756
192.0,-1.3429760656435974e-05
208.0,0.000805276504252106
224.0,-0.0010054826270788908
240.0,-0.0013036063173785806
256.0,-0.0013260135892778635
288.0,9.956699796020985e-05
320.0,-0.002414155751466751
352.0,-0.0021832373458892107
384.0,-0.0021367447916418314
416.0,-0.00151216727681458
448.0,-0.0004544173425529152
480.0,-0.0004374964628368616
512.0,0.0003237035416532308
576.0,-0.000112015193735715
640.0,-0.0021325943525880575
704.0,-0.0022398827131837606
768.0,-0.003245699219405651
832.0,-0.0057272822596132755
896.0,-0.0053919339552521706
960.0,-0.003872484201565385
1024.0,-0.0041962964460253716
1152.0,-0.0023792111314833164
1280.0,-0.002336150733754039
1408.0,-0.00369589077308774
1536.0,-0.0029656067490577698
1664.0,0.003218435449525714
1792.0,0.00039391222526319325
1920.0,-0.0005627236678265035
2048.0,-0.003551839618012309
2304.0,0.004983293358236551
2560.0,-0.0022200914099812508
2816.0,0.0028383522294461727
3072.0,0.0012889470672234893
3328.0,0.0030495470855385065
3584.0,-0.00014288710372056812
3840.0,-0.0024868950713425875
4096.0,-0.0039590890519320965
4608.0,-0.002958620898425579
5120.0,0.0007895882008597255
5632.0,0.0069993287324905396
6144.0,-0.0019474619766697288
6656.0,-0.0014254377456381917
7168.0,-0.003488600254058838
7680.0,-0.0020708031952381134
8192.0,0.002211606130003929
9216.0,-0.00021423927682917565
10240.0,-0.0024125627242028713
11264.0,0.001929540652781725
12288.0,-0.0030679188203066587
13312.0,0.004409360699355602
14336.0,-0.0007125818519853055
end
