version,3.0
numOfCh,1
type,point
parent_name,dirty_50dot0-1dot0
ch_type,1_1
kcount,1
numberNandB,1
brightnessNandB,1
carpet pos,0
pc,0
Time (ms),CH1 Auto-Correlation
1.0,0.08376219123601913
2.0,0.07514442503452301
3.0,0.0684666857123375
4.0,0.06272799521684647
5.0,0.05839148163795471
6.0,0.053823236376047134
7.0,0.05082039535045624
8.0,0.04846123233437538
9.0,0.04619782418012619
10.0,0.0444645993411541
11.0,0.04272899031639099
12.0,0.04041488841176033
13.0,0.03880135342478752
14.0,0.03734232857823372
15.0,0.03635192662477493
16.0,0.034703634679317474
18.0,0.03244326263666153
20.0,0.0311153344810009
22.0,0.029075905680656433
24.0,0.027384761720895767
26.0,0.02498679794371128
28.0,0.022755276411771774
30.0,0.0217243991792202
32.0,0.02119126170873642
36.0,0.022502437233924866
40.0,0.021643366664648056
44.0,0.019297510385513306
48.0,0.01675667241215706
52.0,0.013410835526883602
56.0,0.01161194872111082
60.0,0.010946258902549744
64.0,0.00913929007947445
72.0,0.005641229450702667
80.0,0.004506862256675959
88.0,0.0036734354216605425
96.0,0.002810597652569413
104.0,0.0015586583176627755
112.0,0.0014413142343983054
120.0,0.00152815121691674
128.0,0.001748849404975772
144.0,0.0004398274759296328
160.0,-0.0012544054770842195
176.0,-0.002997740637511015
192.0,-0.0032504345290362835
208.0,-0.0029388335533440113
224.0,-0.003451563650742173
240.0,-0.0025304185692220926
256.0,-0.0032940234523266554
288.0,-0.004044549074023962
320.0,-0.002898846287280321
352.0,-0.002583604771643877
384.0,-0.0009953744010999799
416.0,0.001674958155490458
448.0,0.0020200093276798725
480.0,-1.9140121366945095e-05
512.0,0.00014074239879846573
576.0,-0.00199743639677763
640.0,-0.003018449991941452
704.0,-0.0034853729885071516
768.0,-0.0029713797848671675
832.0,-0.00044321417226456106
896.0,0.002376711927354336
960.0,0.0006413710652850568
1024.0,-0.0021942746825516224
1152.0,0.00192201544996351
1280.0,0.0010927522089332342
1408.0,-0.00037701570545323193
1536.0,0.0029293308034539223
1664.0,0.0011968240141868591
1792.0,-0.0033177926670759916
1920.0,-0.0014215625124052167
2048.0,-0.0011993783991783857
2304.0,0.0024306774139404297
2560.0,-0.0011627788189798594
2816.0,-0.0018050841754302382
3072.0,-0.0004465022939257324
3328.0,0.0010535292094573379
3584.0,-0.0015460025751963258
3840.0,0.00089036620920524
4096.0,-0.0026218227576464415
4608.0,0.0008490778272971511
5120.0,-0.0006727432482875884
5632.0,0.0007432479178532958
6144.0,0.00101047707721591
6656.0,-0.0013300493592396379
7168.0,0.0015122421318665147
7680.0,-0.002284157555550337
8192.0,0.0009643723024055362
9216.0,-0.0007641743286512792
10240.0,-0.0011808100389316678
11264.0,0.004117781762033701
12288.0,-0.0032276089768856764
13312.0,0.001025980687700212
14336.0,0.0006563611677847803
end
