version,3.0
numOfCh,1
type,point
parent_name,dirty_50dot0-1dot0
ch_type,1_1
kcount,1
numberNandB,1
brightnessNandB,1
carpet pos,0
pc,0
Time (ms),CH1 Auto-Correlation
1.0,0.09790052473545074
2.0,0.09060510247945786
3.0,0.084470734000206
4.0,0.0791112557053566
5.0,0.07484927028417587
6.0,0.07144927233457565
7.0,0.06817746162414551
8.0,0.06597733497619629
9.0,0.06370076537132263
10.0,0.0612686388194561
11.0,0.058986302465200424
12.0,0.05647328868508339
13.0,0.05416928976774216
14.0,0.05155758932232857
15.0,0.04876586049795151
16.0,0.04599183425307274
18.0,0.042190071195364
20.0,0.03972664102911949
22.0,0.03699168190360069
24.0,0.03462965041399002
26.0,0.03254491463303566
28.0,0.03170173615217209
30.0,0.03158985823392868
32.0,0.031142262741923332
36.0,0.030900368466973305
40.0,0.030435889959335327
44.0,0.0278222244232893
48.0,0.024647284299135208
52.0,0.022151106968522072
56.0,0.020774224773049355
60.0,0.019241416826844215
64.0,0.01754510961472988
72.0,0.015101204626262188
80.0,0.013265326619148254
88.0,0.012795944698154926
96.0,0.015350883826613426
104.0,0.01643875055015087
112.0,0.015175754204392433
120.0,0.011422957293689251
128.0,0.00700872577726841
144.0,0.007271872367709875
160.0,0.007779750041663647
176.0,0.00765372347086668
192.0,0.006383341271430254
208.0,0.0064065707847476006
224.0,0.0047391667030751705
240.0,0.0041369847021996975
256.0,0.003941113129258156
288.0,0.002656424418091774
320.0,3.111801197519526e-05
352.0,-0.0012347050942480564
384.0,0.0006271303282119334
416.0,0.0054667056538164616
448.0,0.007405039854347706
480.0,0.004690409637987614
512.0,0.0016346079064533114
576.0,-0.000650100817438215
640.0,-0.001851834706030786
704.0,-0.0028039657045155764
768.0,-0.002496925415471196
832.0,-0.0017254146514460444
896.0,-0.003054821863770485
960.0,-0.0018652327125892043
1024.0,-0.000985580962151289
1152.0,-0.0010492587462067604
1280.0,-0.0010991282761096954
1408.0,-0.0014485251158475876
1536.0,-0.0001681862777331844
1664.0,0.0027853127103298903
1792.0,0.0024193054996430874
1920.0,0.0007022391655482352
2048.0,0.0007517957128584385
2304.0,0.0015944904880598187
2560.0,-0.0015459539135918021
2816.0,-0.0013685072772204876
3072.0,0.0015715205809101462
3328.0,0.0042052967473864555
3584.0,0.009240051731467247
3840.0,0.0003899309958796948
4096.0,-0.00034151377622038126
4608.0,-0.0021663301158696413
5120.0,-0.0021023086737841368
5632.0,0.0006485519697889686
6144.0,0.0019926554523408413
6656.0,-0.00035166990710422397
7168.0,-0.0018152688862755895
7680.0,-0.0018367946613579988
8192.0,-0.003905956633388996
9216.0,-0.0005627621430903673
10240.0,-0.002801695140078664
11264.0,-0.004118975251913071
12288.0,-0.0016371896490454674
13312.0,0.0025033876299858093
14336.0,-0.01300072018057108
end
