version,3.0
numOfCh,1
type,point
parent_name,dirty_50dot0-1dot0
ch_type,1_1
kcount,1
numberNandB,1
brightnessNandB,1
carpet pos,0
pc,0
Time (ms),CH1 Auto-Correlation
1.0,0.06429125368595123
2.0,0.05732855945825577
3.0,0.052055831998586655
4.0,0.04656754806637764
5.0,0.04195256903767586
6.0,0.03770805150270462
7.0,0.03384891524910927
8.0,0.031388092786073685
9.0,0.028968580067157745
10.0,0.026812590658664703
11.0,0.024853922426700592
12.0,0.023173047229647636
13.0,0.022052397951483727
14.0,0.020747873932123184
15.0,0.01948326639831066
16.0,0.018427524715662003
18.0,0.01611972600221634
20.0,0.01547518651932478
22.0,0.015176927670836449
24.0,0.014628768898546696
26.0,0.014194769784808159
28.0,0.01386522687971592
30.0,0.013176655396819115
32.0,0.012684806250035763
36.0,0.014064447022974491
40.0,0.013012532144784927
44.0,0.01151569839566946
48.0,0.011275626718997955
52.0,0.010721717961132526
56.0,0.010289019905030727
60.0,0.009933441877365112
64.0,0.008682036772370338
72.0,0.004743577912449837
80.0,0.003762480802834034
88.0,0.0033759099896997213
96.0,0.0032529537566006184
104.0,0.0053098974749445915
112.0,0.007186965085566044
120.0,0.008076797239482403
128.0,0.006817684508860111
144.0,0.005083427764475346
160.0,0.006873975973576307
176.0,0.005465033929795027
192.0,0.005413996987044811
208.0,0.0013324484461918473
224.0,0.0015586668159812689
240.0,-0.00036280855420045555
256.0,-0.0012875155080109835
288.0,0.0014136260142549872
320.0,0.001863069017417729
352.0,0.0019371616654098034
384.0,0.00033347358112223446
416.0,0.0006682340754196048
448.0,0.004333869554102421
480.0,0.0036387110594660044
512.0,0.005813009105622768
576.0,0.004632878582924604
640.0,0.004514441359788179
704.0,0.0027564819902181625
768.0,0.002244987990707159
832.0,0.0004745995393022895
896.0,0.0028015729039907455
960.0,0.003565710037946701
1024.0,0.0010651799384504557
1152.0,0.002270821249112487
1280.0,0.0010640830732882023
1408.0,0.00416519632562995
1536.0,-0.0005082375719211996
1664.0,-0.0022681145928800106
1792.0,-0.0023380513302981853
1920.0,-0.002004049252718687
2048.0,-0.0006873264792375267
2304.0,-0.0005163258174434304
2560.0,-0.002137617440894246
2816.0,-0.0015300001250579953
3072.0,-0.0017308307578787208
3328.0,0.00021685838873963803
3584.0,-0.0011133934604004025
3840.0,-0.0009733920451253653
4096.0,0.0010576857021078467
4608.0,-0.0011895245406776667
5120.0,-0.0017509697936475277
5632.0,-0.002828950760886073
6144.0,-0.0020502775441855192
6656.0,-0.002343939384445548
7168.0,0.00011103283759439364
7680.0,0.00040040790918283165
8192.0,0.0011502106208354235
9216.0,0.00029200699646025896
10240.0,0.00013144673721399158
11264.0,0.0005592979723587632
12288.0,0.0007907733088359237
13312.0,0.00023185860482044518
14336.0,-0.00035379588371142745
end
