version,3.0
numOfCh,1
type,point
parent_name,dirty_50dot0-1dot0
ch_type,1_1
kcount,1
numberNandB,1
brightnessNandB,1
carpet pos,0
pc,0
Time (ms),CH1 Auto-Correlation
1.0,0.1010543704032898
2.0,0.09298009425401688
3.0,0.08747683465480804
4.0,0.0827365443110466
5.0,0.07883355021476746
6.0,0.07642051577568054
7.0,0.07377046346664429
8.0,0.07173435389995575
9.0,0.06895825266838074
10.0,0.0663086473941803
11.0,0.06348829716444016
12.0,0.06162838637828827
13.0,0.0600515715777874
14.0,0.05859258398413658
15.0,0.05702146142721176
16.0,0.05542483180761337
18.0,0.0535409152507782
20.0,0.05043238028883934
22.0,0.04829662665724754
24.0,0.04549373686313629
26.0,0.04242755472660065
28.0,0.039187654852867126
30.0,0.03697802871465683
32.0,0.03563094884157181
36.0,0.03286711126565933
40.0,0.03277314081788063
44.0,0.03479183837771416
48.0,0.0350634790956974
52.0,0.0350591316819191
56.0,0.03471606597304344
60.0,0.03356587886810303
64.0,0.032329924404621124
72.0,0.029120316728949547
80.0,0.02781725861132145
88.0,0.025351649150252342
96.0,0.02453775890171528
104.0,0.024391448125243187
112.0,0.02395985648036003
120.0,0.0232137031853199
128.0,0.024361032992601395
144.0,0.02085377834737301
160.0,0.016149213537573814
176.0,0.015041119419038296
192.0,0.01267348974943161
208.0,0.008493436500430107
224.0,0.007963072508573532
240.0,0.008982829749584198
256.0,0.00969486590474844
288.0,0.008950473740696907
320.0,0.007420144975185394
352.0,0.004515255801379681
384.0,0.005614656023681164
416.0,0.0067025222815573215
448.0,0.0025721879210323095
480.0,-0.0005592828965745866
512.0,-0.000706877966877073
576.0,0.0007277132826857269
640.0,-0.0027896102983504534
704.0,-0.0038252966478466988
768.0,-0.0022621043026447296
832.0,-0.0010128143476322293
896.0,-0.0008574688690714538
960.0,-0.0022805221378803253
1024.0,-0.003817199496552348
1152.0,-0.004183544311672449
1280.0,-0.004138229880481958
1408.0,-0.004314586520195007
1536.0,-0.004136555828154087
1664.0,-0.004674665629863739
1792.0,-0.0030588156078010798
1920.0,-0.0009699081419967115
2048.0,-0.0009008342167362571
2304.0,0.0019303698791190982
2560.0,-0.00019898562459275126
2816.0,-0.003247278044000268
3072.0,-0.003184062195941806
3328.0,-0.0013052759459242225
3584.0,0.002244482282549143
3840.0,-0.0007418527966365218
4096.0,-0.0010573627660050988
4608.0,-0.0019457349553704262
5120.0,-0.002225153613835573
5632.0,-0.002961627673357725
6144.0,4.8403771870653145e-06
6656.0,0.0038096881471574306
7168.0,-0.0035707345232367516
7680.0,0.0032662092708051205
8192.0,-0.003453076584264636
9216.0,0.0017296404112130404
10240.0,0.009396789595484734
11264.0,-0.004922478459775448
12288.0,-0.00500655360519886
13312.0,-0.004551340360194445
14336.0,-0.0019133653258904815
end
