version,3.0
numOfCh,1
type,point
parent_name,dirty_50dot0-1dot0
ch_type,1_1
kcount,1
numberNandB,1
brightnessNandB,1
carpet pos,0
pc,0
Time (ms),CH1 Auto-Correlation
1.0,0.030453676357865334
2.0,0.026674417778849602
3.0,0.02385828271508217
4.0,0.021816745400428772
5.0,0.019834809005260468
6.0,0.01817459613084793
7.0,0.01684713177382946
8.0,0.015503203496336937
9.0,0.014550366438925266
10.0,0.013691788539290428
11.0,0.012690195813775063
12.0,0.011506961658596992
13.0,0.010662250220775604
14.0,0.009953892789781094
15.0,0.008974670432507992
16.0,0.008189178071916103
18.0,0.007249440066516399
20.0,0.006300610490143299
22.0,0.005928520113229752
24.0,0.00577596016228199
26.0,0.005041765049099922
28.0,0.004585456568747759
30.0,0.004409294109791517
32.0,0.004496624227613211
36.0,0.004615588579326868
40.0,0.0046816542744636536
44.0,0.005282587371766567
48.0,0.005166335962712765
52.0,0.004153463989496231
56.0,0.0034481503535062075
60.0,0.0031382939778268337
64.0,0.0025792394299060106
72.0,0.002498886315152049
80.0,0.0022630293387919664
88.0,0.0018819491378962994
96.0,0.0019284981535747647
104.0,0.0034141025971621275
112.0,0.003588915104046464
120.0,0.0021254161838442087
128.0,0.001168257207609713
144.0,0.0003832961374428123
160.0,0.0011920194374397397
176.0,0.0018606380326673388
192.0,0.0017735930159687996
208.0,0.0011563650332391262
224.0,0.001317111775279045
240.0,0.0011726503726094961
256.0,0.0011858835350722075
288.0,-5.3879422921454534e-05
320.0,0.00028973573353141546
352.0,0.0017583597218617797
384.0,0.0014666233910247684
416.0,0.0018135836580768228
448.0,0.0013596350327134132
480.0,-8.823672396829352e-05
512.0,4.424248618306592e-05
576.0,0.0005389982834458351
640.0,-0.0006981168990023434
704.0,-0.0003840868012048304
768.0,-0.00010756416304502636
832.0,0.0003960029862355441
896.0,0.00030617983429692686
960.0,0.0007359874434769154
1024.0,-0.0007915088208392262
1152.0,0.00016160703671630472
1280.0,2.6837265977519564e-05
1408.0,-1.2875810170953628e-05
1536.0,0.0008370638824999332
1664.0,0.0005759584601037204
1792.0,-0.0008577893022447824
1920.0,-0.0004522303061094135
2048.0,-0.0007230633054859936
2304.0,0.00010697641846491024
2560.0,0.0002882698900066316
2816.0,0.00039042384014464915
3072.0,-0.0006184155936352909
3328.0,2.0265648345230147e-05
3584.0,-0.0003605469537433237
3840.0,-0.0001809883542591706
4096.0,0.0014127155300229788
4608.0,0.00013953796587884426
5120.0,-0.0002917144156526774
5632.0,5.5236061598407105e-05
6144.0,-0.0006093628471717238
6656.0,-6.513098924187943e-05
7168.0,-0.000600032857619226
7680.0,-0.0008717004093341529
8192.0,-0.0006982902996242046
9216.0,1.1793996236519888e-05
10240.0,-0.0003828413027804345
11264.0,-0.0004033571167383343
12288.0,-0.000839178275782615
13312.0,0.0005104165757074952
14336.0,-0.00024825800210237503
end
