version,3.0
numOfCh,1
type,point
parent_name,dirty_50dot0-1dot0
ch_type,1_1
kcount,1
numberNandB,1
brightnessNandB,1
carpet pos,0
pc,0
Time (ms),CH1 Auto-Correlation
1.0,0.11213607341051102
2.0,0.10297409445047379
3.0,0.09507524222135544
4.0,0.0889463722705841
5.0,0.08373115211725235
6.0,0.07885794341564178
7.0,0.07409027963876724
8.0,0.07038343697786331
9.0,0.06698490679264069
10.0,0.06319133192300797
11.0,0.06082511320710182
12.0,0.059214044362306595
13.0,0.05666782334446907
14.0,0.05409420281648636
15.0,0.05150997266173363
16.0,0.04930715262889862
18.0,0.04660024121403694
20.0,0.044651445001363754
22.0,0.04160650447010994
24.0,0.03823263198137283
26.0,0.03500312194228172
28.0,0.03217601776123047
30.0,0.029323358088731766
32.0,0.028491728007793427
36.0,0.028279677033424377
40.0,0.030068758875131607
44.0,0.029699008911848068
48.0,0.02876909263432026
52.0,0.023981837555766106
56.0,0.019574128091335297
60.0,0.01730138249695301
64.0,0.016722241416573524
72.0,0.01629026047885418
80.0,0.01515066996216774
88.0,0.015474864281713963
96.0,0.014579085633158684
104.0,0.011679433286190033
112.0,0.0091012604534626
120.0,0.005439924541860819
128.0,0.0014564386801794171
144.0,0.0004277546831872314
160.0,-0.0005097572575323284
176.0,-0.0008532728534191847
192.0,0.001735231257043779
208.0,0.0020999624393880367
224.0,0.0011898881057277322
240.0,7.78445610194467e-05
256.0,0.0013945546234026551
288.0,-0.000703956640791148
320.0,-0.0007895366870798171
352.0,0.00021580338943749666
384.0,-0.0024717573542147875
416.0,-0.0036497870460152626
448.0,-0.0028423359617590904
480.0,-0.0023183668963611126
512.0,-0.0014793840236961842
576.0,0.0014466372085735202
640.0,-0.0003850600915029645
704.0,-0.002587280934676528
768.0,-0.0037866553757339716
832.0,0.0018272032029926777
896.0,0.0014870318118482828
960.0,-0.0011048903688788414
1024.0,-0.0030891532078385353
1152.0,0.0004349226364865899
1280.0,-0.001454389770515263
1408.0,-0.0022351564839482307
1536.0,-0.0032670842483639717
1664.0,-0.005344109609723091
1792.0,-0.004720429889857769
1920.0,-0.0034975833259522915
2048.0,-0.0033585329074412584
2304.0,0.0036333214957267046
2560.0,-0.0024716437328606844
2816.0,-0.0012048681965097785
3072.0,0.0043545011430978775
3328.0,0.0018234256422147155
3584.0,0.0056391386315226555
3840.0,-0.001970886718481779
4096.0,-0.0013484802329912782
4608.0,-0.0036639333702623844
5120.0,0.0013214318314567208
5632.0,6.78414071444422e-05
6144.0,0.002170037245377898
6656.0,0.0029257258865982294
7168.0,0.0025259654503315687
7680.0,-0.004871468525379896
8192.0,-0.0030391595792025328
9216.0,0.00037820526631549
10240.0,0.002039872109889984
11264.0,-0.004058382473886013
12288.0,0.0008382287342101336
13312.0,0.001043817843310535
14336.0,-0.0033225633669644594
end
