version,3.0
numOfCh,1
type,point
parent_name,dirty_50dot0-1dot0
ch_type,1_1
kcount,1
numberNandB,1
brightnessNandB,1
carpet pos,0
pc,0
Time (ms),CH1 Auto-Correlation
1.0,0.09132646769285202
2.0,0.08331351727247238
3.0,0.07685176283121109
4.0,0.07119167596101761
5.0,0.06662450730800629
6.0,0.06249544024467468
7.0,0.05917934328317642
8.0,0.055376745760440826
9.0,0.05270905792713165
10.0,0.049598462879657745
11.0,0.04686350002884865
12.0,0.04385162889957428
13.0,0.041296135634183884
14.0,0.03772415965795517
15.0,0.03455700725317001
16.0,0.031051993370056152
18.0,0.026242701336741447
20.0,0.023596638813614845
22.0,0.022827886044979095
24.0,0.02197972685098648
26.0,0.020357822999358177
28.0,0.01953434757888317
30.0,0.018850158900022507
32.0,0.018328096717596054
36.0,0.01806739903986454
40.0,0.01680353470146656
44.0,0.01729494519531727
48.0,0.01762217842042446
52.0,0.016744807362556458
56.0,0.017464660108089447
60.0,0.01700868271291256
64.0,0.014966852031648159
72.0,0.011342558078467846
80.0,0.008843948133289814
88.0,0.00803152285516262
96.0,0.009276197291910648
104.0,0.008852305822074413
112.0,0.005982043221592903
120.0,0.003482236759737134
128.0,0.002400314202532172
144.0,0.002761309966444969
160.0,0.0039766947738826275
176.0,0.0033455805387347937
192.0,0.0023229820653796196
208.0,0.002599027007818222
224.0,0.0022912980057299137
240.0,0.002628111047670245
256.0,0.003431138815358281
288.0,0.0009973255218937993
320.0,0.004373013041913509
352.0,0.001816269475966692
384.0,-0.0015610490227118134
416.0,-0.0013186680153012276
448.0,-0.002009570598602295
480.0,0.0022315445821732283
512.0,6.929069786565378e-05
576.0,0.001824991893954575
640.0,-2.8117745387135074e-05
704.0,-0.0017861250089481473
768.0,-0.002466044155880809
832.0,-0.0021719213109463453
896.0,0.0014274604618549347
960.0,0.0030616936273872852
1024.0,-0.0002544281305745244
1152.0,-0.001754977274686098
1280.0,-0.0018375867512077093
1408.0,-0.0029636980034410954
1536.0,0.0025048668030649424
1664.0,0.0007835463038645685
1792.0,-0.0005311345448717475
1920.0,0.002967154374346137
2048.0,-0.0004384777566883713
2304.0,0.002375181531533599
2560.0,-0.0011599696008488536
2816.0,-4.269824330549454e-06
3072.0,-3.659232970676385e-05
3328.0,0.0004752721288241446
3584.0,-0.0003303594421595335
3840.0,0.0014620715519413352
4096.0,-0.00010153719631489366
4608.0,-0.0016166786663234234
5120.0,-0.0015818530227988958
5632.0,-0.0018019771669059992
6144.0,-0.0020984571892768145
6656.0,-0.0016647810116410255
7168.0,0.003129123942926526
7680.0,-0.0010413279524073005
8192.0,-0.0023547960445284843
9216.0,-0.002182780532166362
10240.0,-0.0006178232142701745
11264.0,-4.0748866013018414e-05
12288.0,-0.00040245079435408115
13312.0,0.0010981321102008224
14336.0,0.0012618800392374396
end
