version,3.0
numOfCh,1
type,point
parent_name,dirty_50dot0-1dot0
ch_type,1_1
kcount,1
numberNandB,1
brightnessNandB,1
carpet pos,0
pc,0
Time (ms),CH1 Auto-Correlation
1.0,0.13571399450302124
2.0,0.12497477978467941
3.0,0.11626971513032913
4.0,0.1087934821844101
5.0,0.10367393493652344
6.0,0.09790445119142532
7.0,0.09239207208156586
8.0,0.08820606023073196
9.0,0.08410549908876419
10.0,0.08154668658971786
11.0,0.07883109152317047
12.0,0.07564425468444824
13.0,0.07288073748350143
14.0,0.06914521008729935
15.0,0.06638966500759125
16.0,0.06297286599874496
18.0,0.05804964900016785
20.0,0.05247470363974571
22.0,0.04804907366633415
24.0,0.04463876038789749
26.0,0.04189054295420647
28.0,0.03735439479351044
30.0,0.03544902428984642
32.0,0.03356880694627762
36.0,0.03127819672226906
40.0,0.029824338853359222
44.0,0.029521506279706955
48.0,0.02926689200103283
52.0,0.02744150161743164
56.0,0.025495337322354317
60.0,0.022957324981689453
64.0,0.01992541365325451
72.0,0.016020173206925392
80.0,0.014924191869795322
88.0,0.013104518875479698
96.0,0.01038599293678999
104.0,0.00941353477537632
112.0,0.009100489318370819
120.0,0.008936445228755474
128.0,0.013178501278162003
144.0,0.011910779401659966
160.0,0.00778110371902585
176.0,0.007346170023083687
192.0,0.007917655631899834
208.0,0.007002109196037054
224.0,0.0065787010826170444
240.0,0.006403348408639431
256.0,0.0074032447300851345
288.0,0.004473135806620121
320.0,0.0012792462948709726
352.0,-0.0015538951847702265
384.0,0.0017962282290682197
416.0,0.007026106584817171
448.0,0.003062332747504115
480.0,0.00171268277335912
512.0,0.004955061711370945
576.0,-0.003833905328065157
640.0,-0.002036393154412508
704.0,0.0012755081988871098
768.0,0.001384612056426704
832.0,0.0021785905119031668
896.0,0.004006584174931049
960.0,0.0025993678718805313
1024.0,-0.005239639896899462
1152.0,0.0009364730794914067
1280.0,-0.0011659921146929264
1408.0,-0.003933493047952652
1536.0,-0.002356102457270026
1664.0,-0.0020043402910232544
1792.0,-0.0023794963490217924
1920.0,0.002941710641607642
2048.0,0.0039526005275547504
2304.0,0.001041612820699811
2560.0,0.003525370266288519
2816.0,0.0006075832061469555
3072.0,-0.0002632677205838263
3328.0,0.003004544647410512
3584.0,0.005871891975402832
3840.0,-0.0006326981238089502
4096.0,-0.0006191193824633956
4608.0,0.0035424423404037952
5120.0,-0.004289756063371897
5632.0,-0.005995681509375572
6144.0,-0.006262609269469976
6656.0,-0.0017696617869660258
7168.0,0.0009555109427310526
7680.0,-0.003414909355342388
8192.0,-0.002949487417936325
9216.0,-0.003967066295444965
10240.0,-0.001052271225489676
11264.0,0.0014767692191526294
12288.0,-0.0015941160963848233
13312.0,0.0028070954140275717
14336.0,0.0026734652929008007
end
