version,3.0
numOfCh,1
type,point
parent_name,dirty_50dot0-1dot0
ch_type,1_1
kcount,1
numberNandB,1
brightnessNandB,1
carpet pos,0
pc,0
Time (ms),CH1 Auto-Correlation
1.0,0.16823473572731018
2.0,0.155247762799263
3.0,0.14448882639408112
4.0,0.1347484588623047
5.0,0.12550871074199677
6.0,0.11660033464431763
7.0,0.10893913358449936
8.0,0.1023106500506401
9.0,0.09645730257034302
10.0,0.09129398316144943
11.0,0.08650537580251694
12.0,0.08270905166864395
13.0,0.07921327650547028
14.0,0.0761377140879631
15.0,0.07303264737129211
16.0,0.0701940655708313
18.0,0.06766992807388306
20.0,0.06489679217338562
22.0,0.06290788948535919
24.0,0.061752356588840485
26.0,0.06041623279452324
28.0,0.05763248726725578
30.0,0.05430469661951065
32.0,0.05073429271578789
36.0,0.04107232391834259
40.0,0.030309243127703667
44.0,0.02602252922952175
48.0,0.02637694962322712
52.0,0.026630165055394173
56.0,0.024834591895341873
60.0,0.02134869061410427
64.0,0.016866324469447136
72.0,0.015577989630401134
80.0,0.01475781574845314
88.0,0.013401604257524014
96.0,0.014046184718608856
104.0,0.016869768500328064
112.0,0.01639353670179844
120.0,0.0160228181630373
128.0,0.013512675650417805
144.0,0.008688963018357754
160.0,0.008581024594604969
176.0,0.0042871590703725815
192.0,0.006927430164068937
208.0,0.004349211230874062
224.0,0.0065439315512776375
240.0,0.0054389117285609245
256.0,0.0015856096288189292
288.0,-0.0010219179093837738
320.0,-0.005499451421201229
352.0,-0.006600453983992338
384.0,-0.00251536862924695
416.0,-0.0024833655916154385
448.0,-0.0034325735177844763
480.0,-0.00029166610329411924
512.0,0.0020356974564492702
576.0,0.005527406930923462
640.0,0.0009331040200777352
704.0,0.00437489477917552
768.0,-0.0033860926050692797
832.0,-0.0014254534617066383
896.0,-0.00468654977157712
960.0,-0.008670669980347157
1024.0,-0.005981640890240669
1152.0,-0.005832945927977562
1280.0,-0.005084749311208725
1408.0,0.000339094374794513
1536.0,-0.003309371182695031
1664.0,0.002517448039725423
1792.0,-0.009253564290702343
1920.0,-0.007900554686784744
2048.0,-0.004545338451862335
2304.0,-0.0018180620390921831
2560.0,-0.006895597092807293
2816.0,-0.003987873438745737
3072.0,0.009646005928516388
3328.0,-0.00019555129983928055
3584.0,0.009248698130249977
3840.0,-0.002532899845391512
4096.0,-0.004557045176625252
4608.0,0.00217990018427372
5120.0,0.0013855239376425743
5632.0,-0.006251660641282797
6144.0,0.0014140004059299827
6656.0,0.005213448312133551
7168.0,-0.00043197328341193497
7680.0,-0.0033926258329302073
8192.0,0.0013214292703196406
9216.0,-0.0027283711824566126
10240.0,0.002651639748364687
11264.0,-0.004469523672014475
12288.0,0.0050494372844696045
13312.0,0.00383358052931726
14336.0,-0.007380633149296045
end
