version,3.0
numOfCh,1
type,point
parent_name,34a6d_0dot069-0dot01
ch_type,1_1
kcount,1
numberNandB,1
brightnessNandB,1
carpet pos,0
pc,0
Time (ms),CH1 Auto-Correlation
1.0,0.030843673273921013
2.0,0.03066435270011425
3.0,0.030485941097140312
4.0,0.030314816161990166
5.0,0.030145198106765747
6.0,0.02997920848429203
7.0,0.029815813526511192
8.0,0.02965472638607025
9.0,0.029494483023881912
10.0,0.02933819778263569
11.0,0.029184259474277496
12.0,0.02903500571846962
13.0,0.028891466557979584
14.0,0.02874988317489624
15.0,0.028613923117518425
16.0,0.02848098613321781
18.0,0.028218265622854233
20.0,0.027967043220996857
22.0,0.027716679498553276
24.0,0.027472393587231636
26.0,0.027226826176047325
28.0,0.02696535363793373
30.0,0.026704449206590652
32.0,0.026457250118255615
36.0,0.025960469618439674
40.0,0.025483006611466408
44.0,0.02502795122563839
48.0,0.02459297887980938
52.0,0.02416159212589264
56.0,0.02372598834335804
60.0,0.023298053070902824
64.0,0.022889116778969765
72.0,0.02216111496090889
80.0,0.02150905504822731
88.0,0.02091194875538349
96.0,0.020355673506855965
104.0,0.019829582422971725
112.0,0.019340964034199715
120.0,0.018864372745156288
128.0,0.018397970125079155
144.0,0.017542261630296707
160.0,0.016841886565089226
176.0,0.016271298751235008
192.0,0.01577656902372837
208.0,0.015268863178789616
224.0,0.014660613611340523
240.0,0.01384689286351204
256.0,0.013019849546253681
288.0,0.01123447809368372
320.0,0.00966197531670332
352.0,0.008242974989116192
384.0,0.007188129238784313
416.0,0.006724250502884388
448.0,0.005732696503400803
480.0,0.004762560594826937
512.0,0.004310979042202234
576.0,0.004131538327783346
640.0,0.004567145369946957
704.0,0.0053710839711129665
768.0,0.006263100076466799
832.0,0.00599636510014534
896.0,0.005188529379665852
960.0,0.004072422627359629
1024.0,0.002531221602112055
1152.0,-6.500522431451827e-05
1280.0,-0.003479171311482787
1408.0,-0.0034321334678679705
1536.0,-0.001360201509669423
1664.0,0.00015464909665752202
1792.0,0.0019063166109845042
1920.0,0.0009282996179535985
2048.0,-0.000754067674279213
2304.0,-0.001996660605072975
2560.0,4.027272552775685e-06
2816.0,-0.0002836918574757874
3072.0,-0.0012443495215848088
3328.0,-0.0014861313393339515
3584.0,-0.0033226755913347006
3840.0,-0.004621601663529873
4096.0,-0.003393773455172777
4608.0,-0.005378885194659233
5120.0,0.002369796158745885
5632.0,-0.0010528350248932838
6144.0,-0.0036982805468142033
6656.0,0.004185685887932777
7168.0,0.002871301956474781
7680.0,0.002710966393351555
8192.0,-0.005629276856780052
end
