version,3.0
numOfCh,1
type,point
parent_name,34a6d_0dot069-0dot01
ch_type,1_1
kcount,1
numberNandB,1
brightnessNandB,1
carpet pos,0
pc,0
Time (ms),CH1 Auto-Correlation
1.0,0.033307600766420364
2.0,0.0330687053501606
3.0,0.03282782807946205
4.0,0.03258761391043663
5.0,0.03234841674566269
6.0,0.03211120888590813
7.0,0.03187384828925133
8.0,0.03163839131593704
9.0,0.031415779143571854
10.0,0.031191175803542137
11.0,0.03097195364534855
12.0,0.030752789229154587
13.0,0.030542928725481033
14.0,0.03033626638352871
15.0,0.030133171007037163
16.0,0.029932517558336258
18.0,0.029524393379688263
20.0,0.029123099520802498
22.0,0.028729639947414398
24.0,0.02834949642419815
26.0,0.02796849049627781
28.0,0.02758266031742096
30.0,0.02719096653163433
32.0,0.026804912835359573
36.0,0.026085054501891136
40.0,0.025407575070858
44.0,0.024745458737015724
48.0,0.024103205651044846
52.0,0.023510746657848358
56.0,0.02296573296189308
60.0,0.022438308224081993
64.0,0.02193605899810791
72.0,0.021005932241678238
80.0,0.02021699957549572
88.0,0.019506890326738358
96.0,0.018693357706069946
104.0,0.01784021034836769
112.0,0.01704876497387886
120.0,0.016414249315857887
128.0,0.015798311680555344
144.0,0.014558152295649052
160.0,0.013410418294370174
176.0,0.012727124616503716
192.0,0.01232708990573883
208.0,0.012153372168540955
224.0,0.011914623901247978
240.0,0.011624165810644627
256.0,0.01109036523848772
288.0,0.010351569391787052
320.0,0.00913936272263527
352.0,0.007108330726623535
384.0,0.0048262388445436954
416.0,0.003588940715417266
448.0,0.00337021891027689
480.0,0.0028720286209136248
512.0,0.002450549043715
576.0,0.0022496506571769714
640.0,0.000807414879091084
704.0,-0.001051593106240034
768.0,-0.0013023761566728354
832.0,-0.0013983872486278415
896.0,-0.002137722447514534
960.0,-0.002010385738685727
1024.0,-0.0024712332524359226
1152.0,-0.005621167831122875
1280.0,-0.006041061598807573
1408.0,-0.004755866713821888
1536.0,-0.0011748337419703603
1664.0,-0.0021147849038243294
1792.0,-0.0027992529794573784
1920.0,-0.004159985110163689
2048.0,-0.004074428230524063
2304.0,-0.002417651703581214
2560.0,-0.003841567784547806
2816.0,-0.005964626558125019
3072.0,-0.0024312944151461124
3328.0,-0.00021539964654948562
3584.0,-0.0023791673593223095
3840.0,5.956514723948203e-05
4096.0,0.001153014600276947
4608.0,-0.005853409878909588
5120.0,0.0020799997728317976
5632.0,0.009661347605288029
6144.0,0.0065477825701236725
6656.0,0.000994428526610136
7168.0,-0.0001082228118320927
7680.0,-0.003419541520997882
8192.0,-0.005133280996233225
end
