version,3.0
numOfCh,1
type,point
parent_name,34a6d_0dot069-0dot01
ch_type,1_1
kcount,1
numberNandB,1
brightnessNandB,1
carpet pos,0
pc,0
Time (ms),CH1 Auto-Correlation
1.0,0.021485868841409683
2.0,0.02130197547376156
3.0,0.021118775010108948
4.0,0.020940538495779037
5.0,0.020762603729963303
6.0,0.020586874336004257
7.0,0.020416151732206345
8.0,0.020251696929335594
9.0,0.02008817531168461
10.0,0.019929789006710052
11.0,0.019770806655287743
12.0,0.01961597427725792
13.0,0.01946108601987362
14.0,0.01931147836148739
15.0,0.019162537530064583
16.0,0.019017117097973824
18.0,0.018740542232990265
20.0,0.018462738022208214
22.0,0.01818774826824665
24.0,0.01790918968617916
26.0,0.01762760430574417
28.0,0.017355356365442276
30.0,0.017083149403333664
32.0,0.01682337187230587
36.0,0.016353091225028038
40.0,0.01593874581158161
44.0,0.015543660148978233
48.0,0.015171244740486145
52.0,0.014810001477599144
56.0,0.014445706270635128
60.0,0.0140828937292099
64.0,0.013714410364627838
72.0,0.013072389177978039
80.0,0.0124418456107378
88.0,0.011833403259515762
96.0,0.011275297962129116
104.0,0.010676609352231026
112.0,0.010070325806736946
120.0,0.0095029566437006
128.0,0.008985563181340694
144.0,0.00810189824551344
160.0,0.007470829412341118
176.0,0.006872093304991722
192.0,0.006401777733117342
208.0,0.006042044144123793
224.0,0.005606994964182377
240.0,0.005159224849194288
256.0,0.004946763161569834
288.0,0.004855737555772066
320.0,0.004857179243117571
352.0,0.005028116051107645
384.0,0.004988876637071371
416.0,0.005145426373928785
448.0,0.004886680748313665
480.0,0.0046293833293020725
512.0,0.004013760481029749
576.0,0.0030224621295928955
640.0,0.003171707736328244
704.0,0.0039685009978711605
768.0,0.004249474033713341
832.0,0.004585238639265299
896.0,0.0035609437618404627
960.0,0.0016872152918949723
1024.0,-5.9092213632538915e-05
1152.0,-0.0008968455367721617
1280.0,-0.0017307548550888896
1408.0,-0.0018965104827657342
1536.0,-0.0011858190409839153
1664.0,-0.002445053309202194
1792.0,-0.005110949743539095
1920.0,-0.006090718787163496
2048.0,-0.00587856862694025
2304.0,-0.0039279828779399395
2560.0,-0.004709805361926556
2816.0,-0.003063680836930871
3072.0,-0.0031317532993853092
3328.0,-0.0005273219430819154
3584.0,0.0005183195462450385
3840.0,0.0020868282299488783
4096.0,0.0030677602626383305
4608.0,0.002194230677559972
5120.0,0.0007483925437554717
5632.0,-0.0005104025476612151
6144.0,-0.0016208688030019403
6656.0,-0.00187377305701375
7168.0,-0.002839003223925829
7680.0,-0.0004888436524197459
8192.0,0.0005669189849868417
end
