version,3.0
numOfCh,1
type,point
parent_name,34a6d_0dot069-0dot01
ch_type,1_1
kcount,1
numberNandB,1
brightnessNandB,1
carpet pos,0
pc,0
Time (ms),CH1 Auto-Correlation
1.0,0.027534503489732742
2.0,0.027334101498126984
3.0,0.027139224112033844
4.0,0.026948589831590652
5.0,0.02676219679415226
6.0,0.02657967433333397
7.0,0.026400499045848846
8.0,0.02621803991496563
9.0,0.0260385200381279
10.0,0.02585853450000286
11.0,0.025673653930425644
12.0,0.025493282824754715
13.0,0.02531905472278595
14.0,0.02515251189470291
15.0,0.024989426136016846
16.0,0.02483132854104042
18.0,0.024520495906472206
20.0,0.024213366210460663
22.0,0.02390102855861187
24.0,0.02358638308942318
26.0,0.023278962820768356
28.0,0.02296987920999527
30.0,0.022665683180093765
32.0,0.022368431091308594
36.0,0.021802755072712898
40.0,0.021255504339933395
44.0,0.020724454894661903
48.0,0.020244939252734184
52.0,0.0197885874658823
56.0,0.019352266564965248
60.0,0.018929533660411835
64.0,0.018541641533374786
72.0,0.017766622826457024
80.0,0.016989976167678833
88.0,0.01636597141623497
96.0,0.01577608473598957
104.0,0.015161287039518356
112.0,0.01449514925479889
120.0,0.013834074139595032
128.0,0.01329074613749981
144.0,0.012475349940359592
160.0,0.011992433108389378
176.0,0.011655686423182487
192.0,0.011297552846372128
208.0,0.010984020307660103
224.0,0.010632224380970001
240.0,0.010292470455169678
256.0,0.0097997160628438
288.0,0.008535172790288925
320.0,0.007581703364849091
352.0,0.007217158563435078
384.0,0.006228296551853418
416.0,0.005420138593763113
448.0,0.004671452566981316
480.0,0.003909400198608637
512.0,0.0034115647431463003
576.0,0.0024632045533508062
640.0,0.0022438967134803534
704.0,0.0017944095889106393
768.0,0.002061352599412203
832.0,0.0021524527110159397
896.0,0.0018598739989101887
960.0,0.0011427621357142925
1024.0,0.000884216045960784
1152.0,0.0011420503724366426
1280.0,-0.0006415687967091799
1408.0,-0.0032218685373663902
1536.0,-0.005528195295482874
1664.0,-0.006285575684159994
1792.0,-0.004242490977048874
1920.0,-0.003702030051499605
2048.0,-0.0052243005484342575
2304.0,-0.006331184878945351
2560.0,-0.00498805521056056
2816.0,-0.004711190704256296
3072.0,-0.00482530752196908
3328.0,-0.0033866234589368105
3584.0,0.0016101007349789143
3840.0,0.005235391203314066
4096.0,0.00246782717294991
4608.0,0.004760488867759705
5120.0,0.0060158660635352135
5632.0,0.002552272053435445
6144.0,-0.0018676542676985264
6656.0,-0.007163932081311941
7168.0,-0.0021332779433578253
7680.0,-0.00245534791611135
8192.0,-0.0012705452973023057
end
