version,3.0
numOfCh,1
type,point
parent_name,34a6d_0dot069-0dot01
ch_type,1_1
kcount,1
numberNandB,1
brightnessNandB,1
carpet pos,0
pc,0
Time (ms),CH1 Auto-Correlation
1.0,0.09754406660795212
2.0,0.09612727910280228
3.0,0.09469766169786453
4.0,0.09337399154901505
5.0,0.0921143889427185
6.0,0.09084725379943848
7.0,0.08961771428585052
8.0,0.0884445384144783
9.0,0.08727788180112839
10.0,0.08613170683383942
11.0,0.08510613441467285
12.0,0.08410534262657166
13.0,0.08308512717485428
14.0,0.08198478072881699
15.0,0.08086734265089035
16.0,0.07976306229829788
18.0,0.07782907783985138
20.0,0.07603662461042404
22.0,0.07446209341287613
24.0,0.07291321456432343
26.0,0.07145579904317856
28.0,0.07014559954404831
30.0,0.06895352900028229
32.0,0.06784475594758987
36.0,0.06561987847089767
40.0,0.06334643065929413
44.0,0.060876745730638504
48.0,0.05834485962986946
52.0,0.055762168020009995
56.0,0.05274232104420662
60.0,0.049702130258083344
64.0,0.04694429412484169
72.0,0.041234418749809265
80.0,0.03623378649353981
88.0,0.03219069540500641
96.0,0.02868804894387722
104.0,0.024889493361115456
112.0,0.019347622990608215
120.0,0.015856122598052025
128.0,0.013301138766109943
144.0,0.013156052678823471
160.0,0.013012900948524475
176.0,0.011790354736149311
192.0,0.009992456994950771
208.0,0.008795442059636116
224.0,0.006532538216561079
240.0,0.004359150305390358
256.0,0.0026981537230312824
288.0,-0.00021563132759183645
320.0,-0.0010595390340313315
352.0,-0.001602753298357129
384.0,-0.0019166040001437068
416.0,-0.0009225014364346862
448.0,8.899539534468204e-05
480.0,-0.001741016865707934
512.0,-0.00372487073764205
576.0,-0.006585804279893637
640.0,-0.005960660055279732
704.0,-0.007813092321157455
768.0,-0.012495972216129303
832.0,-0.014074656181037426
896.0,-0.014093205332756042
960.0,-0.015142117626965046
1024.0,-0.019184879958629608
1152.0,-0.015588140115141869
1280.0,-0.016029968857765198
1408.0,-0.01706494204699993
1536.0,-0.0037577033508569
1664.0,0.010659191757440567
1792.0,0.009100277908146381
1920.0,0.0070309448055922985
2048.0,0.006590789649635553
2304.0,0.03225409984588623
2560.0,0.005005050450563431
2816.0,-0.011351009830832481
3072.0,-0.012566318735480309
3328.0,-0.022968154400587082
3584.0,-0.015473172068595886
3840.0,-0.002167029771953821
4096.0,0.038496848195791245
end
