version,3.0
numOfCh,1
type,point
parent_name,34a6d_0dot069-0dot01
ch_type,1_1
kcount,1
numberNandB,1
brightnessNandB,1
carpet pos,0
pc,0
Time (ms),CH1 Auto-Correlation
1.0,0.041942209005355835
2.0,0.04167826101183891
3.0,0.0414225272834301
4.0,0.0411682166159153
5.0,0.04091258719563484
6.0,0.040651362389326096
7.0,0.040388282388448715
8.0,0.040132924914360046
9.0,0.03989030793309212
10.0,0.03965112939476967
11.0,0.03941744565963745
12.0,0.03918338939547539
13.0,0.038955338299274445
14.0,0.0387316532433033
15.0,0.03851481154561043
16.0,0.03830408304929733
18.0,0.03789064660668373
20.0,0.03749904781579971
22.0,0.03710168972611427
24.0,0.03671051934361458
26.0,0.036327823996543884
28.0,0.03596259653568268
30.0,0.03558138385415077
32.0,0.035200390964746475
36.0,0.0344797782599926
40.0,0.03374903276562691
44.0,0.033121220767498016
48.0,0.03258896991610527
52.0,0.03202623128890991
56.0,0.031458962708711624
60.0,0.030904216691851616
64.0,0.030366860330104828
72.0,0.02939727157354355
80.0,0.02857852913439274
88.0,0.027814382687211037
96.0,0.02716924622654915
104.0,0.026633936911821365
112.0,0.026040252298116684
120.0,0.02545398473739624
128.0,0.024964066222310066
144.0,0.02413376234471798
160.0,0.023328181356191635
176.0,0.022730311378836632
192.0,0.022386854514479637
208.0,0.021701490506529808
224.0,0.021246589720249176
240.0,0.021125899627804756
256.0,0.020776446908712387
288.0,0.01910748891532421
320.0,0.01808973215520382
352.0,0.017355723306536674
384.0,0.016884533688426018
416.0,0.016700252890586853
448.0,0.016908040270209312
480.0,0.01671876572072506
512.0,0.016354596242308617
576.0,0.016154097393155098
640.0,0.015932442620396614
704.0,0.014105232432484627
768.0,0.013201878406107426
832.0,0.01142344530671835
896.0,0.010046305134892464
960.0,0.009911048226058483
1024.0,0.0112745501101017
1152.0,0.012052292004227638
1280.0,0.010089898481965065
1408.0,0.008123518899083138
1536.0,0.0054774098098278046
1664.0,0.0037319622933864594
1792.0,-0.00070589454844594
1920.0,-0.005485151428729296
2048.0,-0.007302446290850639
2304.0,-0.005523364525288343
2560.0,-0.0044997092336416245
2816.0,-0.0034721530973911285
3072.0,-0.005902009084820747
3328.0,-0.005696648266166449
3584.0,-0.0027884149458259344
3840.0,0.001118068234063685
4096.0,0.005347455386072397
4608.0,0.003443952649831772
5120.0,0.0010365424677729607
5632.0,-0.006480262614786625
6144.0,-0.018272893503308296
6656.0,-0.020384350791573524
7168.0,-0.023359648883342743
7680.0,-0.016033239662647247
8192.0,-0.011002005077898502
end
