version,3.0
numOfCh,1
type,point
parent_name,34a6d_0dot069-0dot01
ch_type,1_1
kcount,1
numberNandB,1
brightnessNandB,1
carpet pos,0
pc,0
Time (ms),CH1 Auto-Correlation
1.0,0.03938544541597366
2.0,0.0391385480761528
3.0,0.03889339417219162
4.0,0.03865165635943413
5.0,0.0384068489074707
6.0,0.038165610283613205
7.0,0.037924882024526596
8.0,0.037688761949539185
9.0,0.03745998069643974
10.0,0.0372215136885643
11.0,0.03699498996138573
12.0,0.03677056357264519
13.0,0.03654942661523819
14.0,0.03633197769522667
15.0,0.03611531853675842
16.0,0.03589994087815285
18.0,0.03545475751161575
20.0,0.03501202166080475
22.0,0.034586794674396515
24.0,0.03419170528650284
26.0,0.03382918983697891
28.0,0.03349994122982025
30.0,0.033189233392477036
32.0,0.032875239849090576
36.0,0.03225228562951088
40.0,0.03165586292743683
44.0,0.03108065202832222
48.0,0.030531857162714005
52.0,0.030003247782588005
56.0,0.029527248814702034
60.0,0.02907511778175831
64.0,0.028615985065698624
72.0,0.02767341397702694
80.0,0.026706727221608162
88.0,0.025805383920669556
96.0,0.025095956400036812
104.0,0.024508442729711533
112.0,0.02407180890440941
120.0,0.023600615561008453
128.0,0.023035118356347084
144.0,0.021881427615880966
160.0,0.02067449688911438
176.0,0.019949134439229965
192.0,0.01954665221273899
208.0,0.01937566138803959
224.0,0.01936141401529312
240.0,0.019487781450152397
256.0,0.019688419997692108
288.0,0.01917880028486252
320.0,0.018129514530301094
352.0,0.016848014667630196
384.0,0.015733303502202034
416.0,0.014206365682184696
448.0,0.012915866449475288
480.0,0.011900934390723705
512.0,0.010862736031413078
576.0,0.009015239775180817
640.0,0.008105008862912655
704.0,0.007411766331642866
768.0,0.0067187161184847355
832.0,0.006439505144953728
896.0,0.006361715961247683
960.0,0.006271158345043659
1024.0,0.005425959825515747
1152.0,0.0023406182881444693
1280.0,0.0009886976331472397
1408.0,-0.0022537782788276672
1536.0,-0.004299931228160858
1664.0,-0.006017942912876606
1792.0,-0.007173314690589905
1920.0,-0.008593408390879631
2048.0,-0.013146026991307735
2304.0,-0.013216576538980007
2560.0,-0.01133669912815094
2816.0,-0.007481427863240242
3072.0,-0.00577174499630928
3328.0,-0.005223252344876528
3584.0,-0.0027226218953728676
3840.0,0.0006966413930058479
4096.0,0.0055799284018576145
4608.0,0.005345241632312536
5120.0,0.002520458772778511
5632.0,0.000533191196154803
6144.0,-0.007438480854034424
6656.0,-0.012930836528539658
7168.0,-0.012908052653074265
7680.0,-0.009213724173605442
8192.0,0.003737404942512512
end
