version,3.0
numOfCh,1
type,point
parent_name,34a6d_0dot069-0dot01
ch_type,1_1
kcount,1
numberNandB,1
brightnessNandB,1
carpet pos,0
pc,0
Time (ms),CH1 Auto-Correlation
1.0,0.03125741332769394
2.0,0.031047208234667778
3.0,0.030837835744023323
4.0,0.030625831335783005
5.0,0.030416039749979973
6.0,0.0302134919911623
7.0,0.03001481480896473
8.0,0.02981809712946415
9.0,0.02963031642138958
10.0,0.02944662980735302
11.0,0.02927173301577568
12.0,0.029104135930538177
13.0,0.02893959730863571
14.0,0.0287846177816391
15.0,0.028635967522859573
16.0,0.028491590172052383
18.0,0.028218666091561317
20.0,0.027957025915384293
22.0,0.027697503566741943
24.0,0.027423717081546783
26.0,0.027146443724632263
28.0,0.02686901204288006
30.0,0.026589345186948776
32.0,0.02631736733019352
36.0,0.025767728686332703
40.0,0.025229353457689285
44.0,0.02470673806965351
48.0,0.024216126650571823
52.0,0.02371096797287464
56.0,0.023196004331111908
60.0,0.02267938107252121
64.0,0.022182565182447433
72.0,0.021336568519473076
80.0,0.020566049963235855
88.0,0.019756272435188293
96.0,0.019001007080078125
104.0,0.018227538093924522
112.0,0.01754757948219776
120.0,0.01692497357726097
128.0,0.01632828265428543
144.0,0.015014100819826126
160.0,0.01389396470040083
176.0,0.012876520864665508
192.0,0.011939088813960552
208.0,0.01117447204887867
224.0,0.010672620497643948
240.0,0.010170063003897667
256.0,0.009901072829961777
288.0,0.009450194425880909
320.0,0.008932973258197308
352.0,0.008506513200700283
384.0,0.008328402414917946
416.0,0.007828611880540848
448.0,0.006733992137014866
480.0,0.00583740184083581
512.0,0.00470506027340889
576.0,0.0018956746207550168
640.0,-8.639132283860818e-05
704.0,-0.0014643911272287369
768.0,-0.002650402719154954
832.0,-0.0017995582893490791
896.0,-0.0008564845775254071
960.0,-7.813991032890044e-06
1024.0,0.0012736899079754949
1152.0,0.005901920143514872
1280.0,0.007091875188052654
1408.0,0.007059532217681408
1536.0,0.005611961241811514
1664.0,0.0039533209055662155
1792.0,0.0016645175637677312
1920.0,-0.0017788741970434785
2048.0,-0.0038225252646952868
2304.0,-0.0017053431365638971
2560.0,-0.0027396210934966803
2816.0,-0.0021252098958939314
3072.0,-0.006009658798575401
3328.0,-0.004722231067717075
3584.0,-0.004395772237330675
3840.0,-0.001379918772727251
4096.0,-0.0033702824730426073
4608.0,-0.0018273892346769571
5120.0,-0.004858957603573799
5632.0,-0.007654249202460051
6144.0,-0.00022473443823400885
6656.0,-0.009271003305912018
7168.0,-0.0003103742783423513
7680.0,0.000110258610220626
8192.0,-0.0075220586732029915
end
