version,3.0
numOfCh,1
type,point
parent_name,34a6d_0dot069-0dot01
ch_type,1_1
kcount,1
numberNandB,1
brightnessNandB,1
carpet pos,0
pc,0
Time (ms),CH1 Auto-Correlation
1.0,0.02788090892136097
2.0,0.027672838419675827
3.0,0.0274683628231287
4.0,0.027274100109934807
5.0,0.027080411091446877
6.0,0.026890316978096962
7.0,0.026702338829636574
8.0,0.026518242433667183
9.0,0.026331434026360512
10.0,0.026151245459914207
11.0,0.025972524657845497
12.0,0.02579636313021183
13.0,0.025616547092795372
14.0,0.025439390912652016
15.0,0.02526284009218216
16.0,0.025091787800192833
18.0,0.024747278541326523
20.0,0.024408020079135895
22.0,0.02406986802816391
24.0,0.023747948929667473
26.0,0.023432862013578415
28.0,0.02312612533569336
30.0,0.02282700315117836
32.0,0.022546332329511642
36.0,0.02199740521609783
40.0,0.021479865536093712
44.0,0.020962301641702652
48.0,0.020462850108742714
52.0,0.019965188577771187
56.0,0.019516069442033768
60.0,0.019096195697784424
64.0,0.01871245913207531
72.0,0.017983676865696907
80.0,0.017195992171764374
88.0,0.016431419178843498
96.0,0.015688853338360786
104.0,0.014970855787396431
112.0,0.014304612763226032
120.0,0.013693245127797127
128.0,0.013086439110338688
144.0,0.011943153105676174
160.0,0.010707812383770943
176.0,0.009503418579697609
192.0,0.008539289236068726
208.0,0.007456480525434017
224.0,0.006639427971094847
240.0,0.005977719556540251
256.0,0.0053397477604448795
288.0,0.004242520313709974
320.0,0.003578716656193137
352.0,0.0030034107621759176
384.0,0.0023473899345844984
416.0,0.0018369083991274238
448.0,0.0010933666490018368
480.0,4.635020377463661e-05
512.0,-0.00045983862946741283
576.0,-8.011411409825087e-06
640.0,0.0007773340912535787
704.0,0.0010219323448836803
768.0,0.0020378241315484047
832.0,0.002151038032025099
896.0,0.0015627938555553555
960.0,0.0013597719371318817
1024.0,0.0009874847019091249
1152.0,-2.355188553337939e-05
1280.0,-0.0015458189882338047
1408.0,-0.001140711479820311
1536.0,-0.0010731385555118322
1664.0,-0.0002805537369567901
1792.0,0.0005903501296415925
1920.0,-0.0007715339306741953
2048.0,-0.0014902169350534678
2304.0,0.002464157296344638
2560.0,0.003488784423097968
2816.0,0.0035801674239337444
3072.0,0.004315799102187157
3328.0,0.00022243133571464568
3584.0,-0.0009379375260323286
3840.0,0.0013704225420951843
4096.0,0.0025087068788707256
4608.0,0.00084060023073107
5120.0,-0.0018930294318124652
5632.0,-0.005586350802332163
6144.0,-0.006802645046263933
6656.0,-0.0020370737183839083
7168.0,0.002536419779062271
7680.0,-0.0004309672804083675
8192.0,-0.004230399150401354
end
