version,3.0
numOfCh,1
type,point
parent_name,34a6d_0dot069-0dot01
ch_type,1_1
kcount,1
numberNandB,1
brightnessNandB,1
carpet pos,0
pc,0
Time (ms),CH1 Auto-Correlation
1.0,0.05503314360976219
2.0,0.05472100153565407
3.0,0.05442766100168228
4.0,0.05412854254245758
5.0,0.05384623631834984
6.0,0.05357066169381142
7.0,0.053292740136384964
8.0,0.05301045626401901
9.0,0.0527104027569294
10.0,0.05241291597485542
11.0,0.05212866887450218
12.0,0.05185779184103012
13.0,0.05159506946802139
14.0,0.05134321004152298
15.0,0.051080867648124695
16.0,0.050828225910663605
18.0,0.05035649240016937
20.0,0.049927204847335815
22.0,0.04950032755732536
24.0,0.04906686767935753
26.0,0.048639390617609024
28.0,0.04821106046438217
30.0,0.04778500273823738
32.0,0.04739278554916382
36.0,0.04665542393922806
40.0,0.04589926451444626
44.0,0.04518168047070503
48.0,0.04444928839802742
52.0,0.04369700700044632
56.0,0.04285969212651253
60.0,0.04201563075184822
64.0,0.04116865247488022
72.0,0.039746928960084915
80.0,0.03845221549272537
88.0,0.037290457636117935
96.0,0.03639878332614899
104.0,0.03572181612253189
112.0,0.03488045185804367
120.0,0.033992376178503036
128.0,0.033129721879959106
144.0,0.03191386163234711
160.0,0.03064025565981865
176.0,0.02889598160982132
192.0,0.027119288221001625
208.0,0.025157658383250237
224.0,0.022817011922597885
240.0,0.020496787503361702
256.0,0.018995946273207664
288.0,0.01678609289228916
320.0,0.014898017980158329
352.0,0.0120122991502285
384.0,0.009072118438780308
416.0,0.006742448080331087
448.0,0.0053114015609025955
480.0,0.004772123880684376
512.0,0.004352732561528683
576.0,0.0027888757176697254
640.0,0.0016820667078718543
704.0,3.717008075909689e-05
768.0,-0.0025698295794427395
832.0,-0.003338078735396266
896.0,-0.003681956324726343
960.0,-0.005176011007279158
1024.0,-0.006616196129471064
1152.0,-0.008359596133232117
1280.0,-0.008347069844603539
1408.0,-0.012082952074706554
1536.0,-0.012534930370748043
1664.0,-0.009512579999864101
1792.0,-0.006468708161264658
1920.0,-0.002674809657037258
2048.0,-0.0009593403083272278
2304.0,0.005542688071727753
2560.0,0.00470335129648447
2816.0,-0.0014508002204820514
3072.0,-0.0034890305250883102
3328.0,-0.005181447137147188
3584.0,-0.006079007871448994
3840.0,-0.00786715466529131
4096.0,-0.008425278589129448
4608.0,-0.007397004868835211
5120.0,-0.0008146956679411232
5632.0,0.011844627559185028
6144.0,0.007698374800384045
6656.0,-0.006035238038748503
7168.0,-0.025097178295254707
7680.0,-0.012258848175406456
8192.0,0.049843426793813705
end
