version,3.0
numOfCh,1
type,point
parent_name,34a6d_0dot069-0dot01
ch_type,1_1
kcount,1
numberNandB,1
brightnessNandB,1
carpet pos,0
pc,0
Time (ms),CH1 Auto-Correlation
1.0,0.022067423909902573
2.0,0.021875150501728058
3.0,0.021691609174013138
4.0,0.021511439234018326
5.0,0.021336233243346214
6.0,0.021161558106541634
7.0,0.020981980487704277
8.0,0.020807694643735886
9.0,0.02063741534948349
10.0,0.020462781190872192
11.0,0.02028634585440159
12.0,0.02010825276374817
13.0,0.01993214152753353
14.0,0.019765134900808334
15.0,0.019603727385401726
16.0,0.019445426762104034
18.0,0.019134804606437683
20.0,0.0188265573233366
22.0,0.018524890765547752
24.0,0.018223652616143227
26.0,0.01792304590344429
28.0,0.01762489415705204
30.0,0.017338836565613747
32.0,0.017061874270439148
36.0,0.01655048504471779
40.0,0.0160568505525589
44.0,0.015584021806716919
48.0,0.015136622823774815
52.0,0.01470566913485527
56.0,0.014293894171714783
60.0,0.013901048339903355
64.0,0.01352172251790762
72.0,0.012825044803321362
80.0,0.012173698283731937
88.0,0.011595734395086765
96.0,0.011128236539661884
104.0,0.010756201110780239
112.0,0.010325339622795582
120.0,0.009787500835955143
128.0,0.009253052994608879
144.0,0.008121057413518429
160.0,0.006991471163928509
176.0,0.005970729980617762
192.0,0.0050309207290410995
208.0,0.004211408086121082
224.0,0.0035424798261374235
240.0,0.003193468553945422
256.0,0.003123948350548744
288.0,0.002869406947866082
320.0,0.0024391491897404194
352.0,0.0020839967764914036
384.0,0.0022012682165950537
416.0,0.0025984689127653837
448.0,0.0026219552382826805
480.0,0.0021997205913066864
512.0,0.0016599004156887531
576.0,0.0011554405791684985
640.0,0.0005041973781771958
704.0,0.0009532975382171571
768.0,0.001919959089718759
832.0,0.0030901706777513027
896.0,0.004250910133123398
960.0,0.004551906604319811
1024.0,0.00446782261133194
1152.0,0.0027157205622643232
1280.0,0.002453306457027793
1408.0,0.0016065967502072453
1536.0,0.002014454919844866
1664.0,0.001881395117379725
1792.0,0.001219431054778397
1920.0,0.001123974216170609
2048.0,0.0009036597912199795
2304.0,-0.0004206244193483144
2560.0,0.000398428674088791
2816.0,0.00029507657745853066
3072.0,-0.0012924218317493796
3328.0,-0.0016623042756691575
3584.0,-0.0018484133761376143
3840.0,0.00029132937197573483
4096.0,-0.000983231933787465
4608.0,-0.002379395766183734
5120.0,-0.0020769054535776377
5632.0,0.0003414456150494516
6144.0,-0.001265066908672452
6656.0,0.0019336584955453873
7168.0,0.0027732800226658583
7680.0,0.0010239267721772194
8192.0,0.002058507176116109
9216.0,0.0012559648603200912
10240.0,-0.0029920819215476513
11264.0,-0.003668589750304818
12288.0,-0.006803713273257017
13312.0,-0.0037119572516530752
14336.0,-0.008663021959364414
end
