version,3.0
numOfCh,1
type,point
parent_name,34a6d_0dot069-0dot01
ch_type,1_1
kcount,1
numberNandB,1
brightnessNandB,1
carpet pos,0
pc,0
Time (ms),CH1 Auto-Correlation
1.0,0.021202147006988525
2.0,0.020998409017920494
3.0,0.020799333229660988
4.0,0.02060554549098015
5.0,0.020413881167769432
6.0,0.02022206224501133
7.0,0.020034458488225937
8.0,0.019848695024847984
9.0,0.01966371387243271
10.0,0.019481144845485687
11.0,0.019300062209367752
12.0,0.019116610288619995
13.0,0.018937351182103157
14.0,0.018758077174425125
15.0,0.01857656240463257
16.0,0.018395625054836273
18.0,0.01804915815591812
20.0,0.017707770690321922
22.0,0.017365802079439163
24.0,0.017024312168359756
26.0,0.016695629805326462
28.0,0.016380684450268745
30.0,0.016075968742370605
32.0,0.0157749243080616
36.0,0.01519074011594057
40.0,0.0146042974665761
44.0,0.014052514918148518
48.0,0.013520698994398117
52.0,0.012985854409635067
56.0,0.0124400295317173
60.0,0.011916734278202057
64.0,0.011466572061181068
72.0,0.010686784982681274
80.0,0.010021531023085117
88.0,0.009503682143986225
96.0,0.009105273522436619
104.0,0.008778397925198078
112.0,0.008462345227599144
120.0,0.008100039325654507
128.0,0.0076539418660104275
144.0,0.006664484739303589
160.0,0.005637472961097956
176.0,0.004649484995752573
192.0,0.0038413198199123144
208.0,0.0034450821112841368
224.0,0.003284637350589037
240.0,0.003111063502728939
256.0,0.002959915203973651
288.0,0.0022921182680875063
320.0,0.0018704782705754042
352.0,0.0017297908198088408
384.0,0.0015614331932738423
416.0,0.0006882990710437298
448.0,-8.674347191117704e-05
480.0,-0.00048057924141176045
512.0,-0.0011133068474009633
576.0,-0.002496336819604039
640.0,-0.003107260912656784
704.0,-0.0018050125800073147
768.0,-0.0012092175893485546
832.0,-0.00013654361828230321
896.0,0.0008773106965236366
960.0,0.0019586230628192425
1024.0,0.0024284878745675087
1152.0,0.0012882108567282557
1280.0,0.0005628654616884887
1408.0,0.0004187612794339657
1536.0,-0.0005826631095260382
1664.0,-0.002993412083014846
1792.0,-0.003836857620626688
1920.0,-0.0037495309952646494
2048.0,-0.0019825801718980074
2304.0,0.00048114260425791144
2560.0,0.0019347581546753645
2816.0,-0.0032821986824274063
3072.0,-0.003075515851378441
3328.0,-0.0013766966294497252
3584.0,0.0008472136687487364
3840.0,-0.0004112616879865527
4096.0,0.0009045621263794601
4608.0,0.0024611519183963537
5120.0,0.00021863299480173737
5632.0,0.000991704990155995
6144.0,-0.002413542475551367
6656.0,0.0002338330668862909
7168.0,-0.004110127221792936
7680.0,-0.0012381720589473844
8192.0,-0.00024441417190246284
end
