version,3.0
numOfCh,1
type,point
parent_name,34a6d_0dot069-0dot01
ch_type,1_1
kcount,1
numberNandB,1
brightnessNandB,1
carpet pos,0
pc,0
Time (ms),CH1 Auto-Correlation
1.0,0.20165246725082397
2.0,0.19973424077033997
3.0,0.19795893132686615
4.0,0.19614149630069733
5.0,0.19454091787338257
6.0,0.19302740693092346
7.0,0.19153405725955963
8.0,0.19010378420352936
9.0,0.18864569067955017
10.0,0.18719889223575592
11.0,0.18573535978794098
12.0,0.18431046605110168
13.0,0.1828402429819107
14.0,0.181549072265625
15.0,0.1802995502948761
16.0,0.17917706072330475
18.0,0.17720015347003937
20.0,0.17516392469406128
22.0,0.17295031249523163
24.0,0.17070557177066803
26.0,0.1686510294675827
28.0,0.16668428480625153
30.0,0.1646917462348938
32.0,0.16267961263656616
36.0,0.15866754949092865
40.0,0.15521466732025146
44.0,0.1515839695930481
48.0,0.14774000644683838
52.0,0.14442583918571472
56.0,0.14177684485912323
60.0,0.13990569114685059
64.0,0.13803651928901672
72.0,0.1345185488462448
80.0,0.13119132816791534
88.0,0.1277819275856018
96.0,0.12501908838748932
104.0,0.12366028130054474
112.0,0.12227813154459
120.0,0.12079747021198273
128.0,0.11948016285896301
144.0,0.11712811887264252
160.0,0.11362667381763458
176.0,0.11156546324491501
192.0,0.10706648975610733
208.0,0.10162165015935898
224.0,0.09299848228693008
240.0,0.08802002668380737
256.0,0.08879689872264862
288.0,0.09345408529043198
320.0,0.09569530189037323
352.0,0.09483447670936584
384.0,0.09404218196868896
416.0,0.0935293510556221
448.0,0.08956355601549149
480.0,0.07994173467159271
512.0,0.06782963126897812
576.0,0.052501264959573746
640.0,0.04953891783952713
704.0,0.04880228638648987
768.0,0.054193370044231415
832.0,0.05927426367998123
896.0,0.05022518336772919
960.0,0.046783868223428726
1024.0,0.03889619931578636
1152.0,0.04514335095882416
1280.0,0.041534893214702606
1408.0,0.009281410835683346
1536.0,-0.006371248979121447
1664.0,-0.02618727646768093
1792.0,-0.05307487025856972
1920.0,-0.05861571431159973
2048.0,-0.07218145579099655
2304.0,-0.08647371828556061
2560.0,-0.09179386496543884
2816.0,-0.11037322878837585
3072.0,-0.11811612546443939
3328.0,-0.1277913898229599
3584.0,-0.12706737220287323
3840.0,-0.11490200459957123
4096.0,-0.09634839743375778
end
