version,3.0
numOfCh,1
type,point
parent_name,34a6d_0dot069-0dot01
ch_type,1_1
kcount,1
numberNandB,1
brightnessNandB,1
carpet pos,0
pc,0
Time (ms),CH1 Auto-Correlation
1.0,0.03590827435255051
2.0,0.03571523725986481
3.0,0.035527512431144714
4.0,0.03534398600459099
5.0,0.03516307473182678
6.0,0.03498448058962822
7.0,0.03480837121605873
8.0,0.034625712782144547
9.0,0.034445520490407944
10.0,0.03426377475261688
11.0,0.034087225794792175
12.0,0.03391650319099426
13.0,0.0337492898106575
14.0,0.033582903444767
15.0,0.0334177128970623
16.0,0.033259324729442596
18.0,0.032951612025499344
20.0,0.03265291452407837
22.0,0.03236313536763191
24.0,0.03208641707897186
26.0,0.031824104487895966
28.0,0.031548358500003815
30.0,0.03126080334186554
32.0,0.03097805194556713
36.0,0.030449440702795982
40.0,0.02993144653737545
44.0,0.02942747250199318
48.0,0.028950991109013557
52.0,0.028479503467679024
56.0,0.028014352545142174
60.0,0.02755456417798996
64.0,0.027115654200315475
72.0,0.026319138705730438
80.0,0.02558181621134281
88.0,0.02483557164669037
96.0,0.024110790342092514
104.0,0.023403702303767204
112.0,0.0227896049618721
120.0,0.022251730784773827
128.0,0.021681979298591614
144.0,0.020587116479873657
160.0,0.01960906758904457
176.0,0.018734036013484
192.0,0.017836246639490128
208.0,0.01695365458726883
224.0,0.016163887456059456
240.0,0.015599878504872322
256.0,0.014965379610657692
288.0,0.013981430791318417
320.0,0.01331857219338417
352.0,0.012857400812208652
384.0,0.012599899433553219
416.0,0.012265133671462536
448.0,0.012129983864724636
480.0,0.012251424603164196
512.0,0.012481904588639736
576.0,0.012806864455342293
640.0,0.012284070253372192
704.0,0.011883540078997612
768.0,0.011959118768572807
832.0,0.011990777216851711
896.0,0.011701242066919804
960.0,0.011023963801562786
1024.0,0.009471644647419453
1152.0,0.006582652218639851
1280.0,0.005985146854072809
1408.0,0.006998037453740835
1536.0,0.00814877636730671
1664.0,0.007513072341680527
1792.0,0.006505817640572786
1920.0,0.0034589150454849005
2048.0,0.001568939769640565
2304.0,-0.000646715983748436
2560.0,-0.003317594062536955
2816.0,-0.005211143288761377
3072.0,-0.004805303644388914
3328.0,-0.005121554248034954
3584.0,-0.0032408609986305237
3840.0,-0.005610469728708267
4096.0,-0.004095504526048899
4608.0,-0.005392796825617552
5120.0,-0.0036728219129145145
5632.0,-0.004966225475072861
6144.0,-0.010674994438886642
6656.0,-0.011472629383206367
7168.0,-0.012865506112575531
7680.0,-0.013483858667314053
8192.0,-0.010524963960051537
9216.0,0.00026746964431367815
10240.0,0.007354084402322769
11264.0,0.0121848713606596
12288.0,0.008848260156810284
13312.0,-0.0002592996752355248
14336.0,-0.0009327239822596312
end
