version,3.0
numOfCh,1
type,point
parent_name,34a6d_0dot069-0dot01
ch_type,1_1
kcount,1
numberNandB,1
brightnessNandB,1
carpet pos,0
pc,0
Time (ms),CH1 Auto-Correlation
1.0,0.03874047473073006
2.0,0.038543328642845154
3.0,0.03835047781467438
4.0,0.03815562278032303
5.0,0.03795976564288139
6.0,0.037769850343465805
7.0,0.037581440061330795
8.0,0.03739272803068161
9.0,0.03720084950327873
10.0,0.03700929507613182
11.0,0.03682182729244232
12.0,0.03664141148328781
13.0,0.03646332025527954
14.0,0.03628844767808914
15.0,0.036119431257247925
16.0,0.03594908490777016
18.0,0.035600289702415466
20.0,0.0352623350918293
22.0,0.034919608384370804
24.0,0.034582607448101044
26.0,0.03425401449203491
28.0,0.03393397480249405
30.0,0.03362404182553291
32.0,0.03331949934363365
36.0,0.032726481556892395
40.0,0.03216426447033882
44.0,0.03165220096707344
48.0,0.031153034418821335
52.0,0.030651073902845383
56.0,0.0301767997443676
60.0,0.02970876358449459
64.0,0.02927473932504654
72.0,0.028510309755802155
80.0,0.02784842438995838
88.0,0.02714943140745163
96.0,0.026494568213820457
104.0,0.02588288113474846
112.0,0.025282375514507294
120.0,0.0247148796916008
128.0,0.024229299277067184
144.0,0.023208530619740486
160.0,0.022128500044345856
176.0,0.02132362127304077
192.0,0.020452845841646194
208.0,0.01943298429250717
224.0,0.018455278128385544
240.0,0.017446497455239296
256.0,0.01651182770729065
288.0,0.01469563040882349
320.0,0.012970221228897572
352.0,0.011523047462105751
384.0,0.010218227282166481
416.0,0.008977501653134823
448.0,0.008228289894759655
480.0,0.007565061561763287
512.0,0.007093795109540224
576.0,0.00513162137940526
640.0,0.0035627225879579782
704.0,0.0030923974700272083
768.0,0.003199259052053094
832.0,0.003801728831604123
896.0,0.004773443564772606
960.0,0.0055655017495155334
1024.0,0.0051584369502961636
1152.0,0.0024703817907720804
1280.0,0.0005795947508886456
1408.0,-0.0017770088743418455
1536.0,-0.0035014564637094736
1664.0,-0.004792190622538328
1792.0,-0.004820963833481073
1920.0,-0.006398544181138277
2048.0,-0.007739152759313583
2304.0,-0.005840974859893322
2560.0,-0.006519549060612917
2816.0,-0.007145909126847982
3072.0,-0.0027852647472172976
3328.0,0.003887431463226676
3584.0,0.004585885908454657
3840.0,0.0007626830483786762
4096.0,0.0033709618728607893
4608.0,0.00226091337390244
5120.0,-0.006619257386773825
5632.0,-0.004996346775442362
6144.0,-0.013525037094950676
6656.0,-0.011059710755944252
7168.0,-0.0013662674464285374
7680.0,0.008249197155237198
8192.0,0.0050435918383300304
end
