version,3.0
numOfCh,1
type,point
parent_name,34a6d_0dot069-0dot01
ch_type,1_1
kcount,1
numberNandB,1
brightnessNandB,1
carpet pos,0
pc,0
Time (ms),CH1 Auto-Correlation
1.0,0.036941047757864
2.0,0.036647818982601166
3.0,0.036362867802381516
4.0,0.03607499971985817
5.0,0.035799480974674225
6.0,0.0355205237865448
7.0,0.0352407805621624
8.0,0.03497986122965813
9.0,0.034705791622400284
10.0,0.034421633929014206
11.0,0.03415706381201744
12.0,0.03389943018555641
13.0,0.03364534676074982
14.0,0.033395033329725266
15.0,0.033152274787425995
16.0,0.03291819244623184
18.0,0.032449714839458466
20.0,0.03200575336813927
22.0,0.03154892101883888
24.0,0.031130855903029442
26.0,0.030733827501535416
28.0,0.030352305620908737
30.0,0.029996357858181
32.0,0.02965085208415985
36.0,0.028893908485770226
40.0,0.0282366294413805
44.0,0.02753760851919651
48.0,0.026919111609458923
52.0,0.026381338015198708
56.0,0.025859469547867775
60.0,0.025346841663122177
64.0,0.02480221912264824
72.0,0.023559128865599632
80.0,0.02259744703769684
88.0,0.021764030680060387
96.0,0.02096204087138176
104.0,0.02002396434545517
112.0,0.019076736643910408
120.0,0.018259335309267044
128.0,0.01716030389070511
144.0,0.015167364850640297
160.0,0.013221580535173416
176.0,0.011203699745237827
192.0,0.009170669130980968
208.0,0.00719528179615736
224.0,0.005778196267783642
240.0,0.004502689000219107
256.0,0.0034812362864613533
288.0,0.0016385295893996954
320.0,-9.352089546155185e-05
352.0,-0.0008627193747088313
384.0,-0.0006545400829054415
416.0,-9.660020441515371e-05
448.0,0.0007393734413199127
480.0,0.0013645519502460957
512.0,0.0023484528064727783
576.0,0.0021878632251173258
640.0,0.0023231259547173977
704.0,0.003394124796614051
768.0,0.0032838869374245405
832.0,0.0018821057165041566
896.0,0.00029814004665240645
960.0,-0.0005382513627409935
1024.0,-0.0014950740151107311
1152.0,-0.0009670631843619049
1280.0,0.0018613302381709218
1408.0,0.0036620667669922113
1536.0,0.0032400526106357574
1664.0,0.0003956151776947081
1792.0,0.0011271073017269373
1920.0,0.004857082851231098
2048.0,0.009725828655064106
2304.0,0.0027761238161474466
2560.0,0.002339445287361741
2816.0,0.001849908847361803
3072.0,0.0022944940719753504
3328.0,0.001537964097224176
3584.0,0.0006889431388117373
3840.0,-8.383887325180694e-05
4096.0,-0.002258561085909605
4608.0,-0.0027542707975953817
5120.0,-0.0010593592887744308
5632.0,-0.0029264832846820354
6144.0,-0.005063366610556841
6656.0,-0.0018693618476390839
7168.0,-0.007161433342844248
7680.0,-0.01294525247067213
8192.0,-0.003485614899545908
end
