version,3.0
numOfCh,1
type,point
parent_name,34a6d_0dot069-0dot01
ch_type,1_1
kcount,1
numberNandB,1
brightnessNandB,1
carpet pos,0
pc,0
Time (ms),CH1 Auto-Correlation
1.0,0.17862224578857422
2.0,0.17716944217681885
3.0,0.1757543385028839
4.0,0.1743517816066742
5.0,0.17293253540992737
6.0,0.17150405049324036
7.0,0.17012593150138855
8.0,0.16876107454299927
9.0,0.1673339605331421
10.0,0.16600340604782104
11.0,0.16467151045799255
12.0,0.16340726613998413
13.0,0.16217072308063507
14.0,0.16100074350833893
15.0,0.15987326204776764
16.0,0.1586994081735611
18.0,0.15627358853816986
20.0,0.15396849811077118
22.0,0.15193936228752136
24.0,0.14998453855514526
26.0,0.14816245436668396
28.0,0.14636346697807312
30.0,0.14460304379463196
32.0,0.1430152803659439
36.0,0.1399105191230774
40.0,0.13702115416526794
44.0,0.13431036472320557
48.0,0.13150425255298615
52.0,0.12882386147975922
56.0,0.12607872486114502
60.0,0.1239900216460228
64.0,0.12216012924909592
72.0,0.11857974529266357
80.0,0.11479118466377258
88.0,0.11030518263578415
96.0,0.10577374696731567
104.0,0.1004643365740776
112.0,0.09561008214950562
120.0,0.09096165001392365
128.0,0.08659471571445465
144.0,0.08084765821695328
160.0,0.07598499953746796
176.0,0.07095737010240555
192.0,0.0683557316660881
208.0,0.06476541608572006
224.0,0.05750909447669983
240.0,0.049163080751895905
256.0,0.04294130578637123
288.0,0.03780585527420044
320.0,0.027229228988289833
352.0,0.022856390103697777
384.0,0.024217749014496803
416.0,0.022624602541327477
448.0,0.016513051465153694
480.0,0.010440222918987274
512.0,0.00449252687394619
576.0,-0.002682063262909651
640.0,-0.0073920669965445995
704.0,-0.01566898822784424
768.0,-0.02275349386036396
832.0,-0.026185639202594757
896.0,-0.025483209639787674
960.0,-0.025526611134409904
1024.0,-0.027782220393419266
1152.0,-0.027329234406352043
1280.0,-0.031825385987758636
1408.0,-0.0286652073264122
1536.0,-0.010803885757923126
1664.0,0.0042900689877569675
1792.0,2.9353635909501463e-05
1920.0,0.004451558459550142
2048.0,0.03739246353507042
2304.0,0.05408439040184021
2560.0,0.004598861560225487
2816.0,-0.03587741404771805
3072.0,-0.04090876504778862
3328.0,-0.0029748997185379267
3584.0,-0.00880313478410244
3840.0,0.0023858530912548304
4096.0,0.0010209118481725454
end
