version,3.0
numOfCh,1
type,point
parent_name,34a6d_0dot069-0dot01
ch_type,1_1
kcount,1
numberNandB,1
brightnessNandB,1
carpet pos,0
pc,0
Time (ms),CH1 Auto-Correlation
1.0,0.03141162171959877
2.0,0.031224079430103302
3.0,0.031037738546729088
4.0,0.030852600932121277
5.0,0.030668359249830246
6.0,0.03048219345510006
7.0,0.03030039556324482
8.0,0.030121374875307083
9.0,0.029942788183689117
10.0,0.029767833650112152
11.0,0.029592037200927734
12.0,0.02942265011370182
13.0,0.02925463765859604
14.0,0.02908986061811447
15.0,0.028929991647601128
16.0,0.02877519279718399
18.0,0.028467748314142227
20.0,0.02815650776028633
22.0,0.027859311550855637
24.0,0.027569251134991646
26.0,0.027287352830171585
28.0,0.02700497768819332
30.0,0.02672911435365677
32.0,0.026460345834493637
36.0,0.025954272598028183
40.0,0.025476673617959023
44.0,0.025024769827723503
48.0,0.024599118158221245
52.0,0.02418726123869419
56.0,0.02378813363611698
60.0,0.02339979261159897
64.0,0.023018332198262215
72.0,0.022321956232190132
80.0,0.02164650522172451
88.0,0.020967168733477592
96.0,0.020290488377213478
104.0,0.019684094935655594
112.0,0.01910913549363613
120.0,0.01854037120938301
128.0,0.01799340732395649
144.0,0.016915319487452507
160.0,0.016073599457740784
176.0,0.015325117856264114
192.0,0.014589331112802029
208.0,0.013793222606182098
224.0,0.012843361124396324
240.0,0.011928104795515537
256.0,0.01119143608957529
288.0,0.01020202599465847
320.0,0.009197806008160114
352.0,0.008329172618687153
384.0,0.007925217971205711
416.0,0.0070703537203371525
448.0,0.006377819459885359
480.0,0.0061097596772015095
512.0,0.005786222405731678
576.0,0.004234078340232372
640.0,0.0027102031745016575
704.0,0.0019976163748651743
768.0,0.00035183748695999384
832.0,-0.0013800101587548852
896.0,-0.0022237568628042936
960.0,-0.0022821330931037664
1024.0,-0.0015010226052254438
1152.0,0.00022323484881781042
1280.0,-0.0003668383287731558
1408.0,2.7540638257050887e-05
1536.0,-0.00017152463260572404
1664.0,0.0011602421291172504
1792.0,0.002919648075476289
1920.0,0.003933985251933336
2048.0,0.0016093177255243063
2304.0,-1.545260784041602e-05
2560.0,-0.0007720891735516489
2816.0,0.0005352995358407497
3072.0,0.0026020316872745752
3328.0,0.0029575906228274107
3584.0,-0.0023971719201654196
3840.0,-0.0033083315938711166
4096.0,-0.005955028813332319
4608.0,-0.007438624277710915
5120.0,6.443980237236246e-05
5632.0,-0.00012998141755815595
6144.0,-0.002708014100790024
6656.0,-0.0031677621882408857
7168.0,-0.004313627723604441
7680.0,-0.003968656994402409
8192.0,-0.0029303766787052155
end
