version,3.0
numOfCh,1
type,point
parent_name,34a6d_0dot069-0dot01
ch_type,1_1
kcount,1
numberNandB,1
brightnessNandB,1
carpet pos,0
pc,0
Time (ms),CH1 Auto-Correlation
1.0,0.02796613797545433
2.0,0.02776503935456276
3.0,0.027554376050829887
4.0,0.02734844945371151
5.0,0.027138181030750275
6.0,0.026927802711725235
7.0,0.026716815307736397
8.0,0.026510152965784073
9.0,0.026309847831726074
10.0,0.026109477505087852
11.0,0.025912176817655563
12.0,0.025718556717038155
13.0,0.025525469332933426
14.0,0.02533167414367199
15.0,0.025138700380921364
16.0,0.02494867704808712
18.0,0.02457854151725769
20.0,0.024224791675806046
22.0,0.02388063631951809
24.0,0.023545539006590843
26.0,0.02321983128786087
28.0,0.022897345945239067
30.0,0.022583261132240295
32.0,0.022272085770964622
36.0,0.02168736234307289
40.0,0.02114327810704708
44.0,0.020601816475391388
48.0,0.02009514905512333
52.0,0.01961236447095871
56.0,0.019130321219563484
60.0,0.0186564102768898
64.0,0.018207920715212822
72.0,0.017406344413757324
80.0,0.016684124246239662
88.0,0.01603461429476738
96.0,0.01546312402933836
104.0,0.014915797859430313
112.0,0.014404518529772758
120.0,0.014016869477927685
128.0,0.013650592416524887
144.0,0.01294633373618126
160.0,0.012525671161711216
176.0,0.012115489691495895
192.0,0.011510713957250118
208.0,0.010620334185659885
224.0,0.009672386571764946
240.0,0.008786969818174839
256.0,0.007789095398038626
288.0,0.006551089696586132
320.0,0.005565529689192772
352.0,0.0045514097437262535
384.0,0.004341382533311844
416.0,0.004161079414188862
448.0,0.0042185550555586815
480.0,0.004068933892995119
512.0,0.003571301931515336
576.0,0.00329218409024179
640.0,0.0026151007041335106
704.0,0.001322450116276741
768.0,0.0013522962108254433
832.0,0.0012902175076305866
896.0,0.0010285605676472187
960.0,0.0005255680880509317
1024.0,-2.1675925381714478e-05
1152.0,-0.0029225810430943966
1280.0,-0.003760115709155798
1408.0,-0.0042504980228841305
1536.0,-0.004715397022664547
1664.0,-0.004987441468983889
1792.0,-0.004304125905036926
1920.0,-0.0039009773172438145
2048.0,-0.0031178488861769438
2304.0,-0.003001031931489706
2560.0,-0.002719318028539419
2816.0,-0.0025602951645851135
3072.0,-0.00520229060202837
3328.0,-0.0078003606759011745
3584.0,-0.007090151309967041
3840.0,-0.003569002728909254
4096.0,-0.000227901095058769
4608.0,0.004865139722824097
5120.0,0.007356993388384581
5632.0,0.007287540938705206
6144.0,0.0035504379775375128
6656.0,-0.0006254833424463868
7168.0,-0.004654525779187679
7680.0,-0.008980370126664639
8192.0,-0.00532543333247304
end
