version,3.0
numOfCh,1
type,point
parent_name,34a6d_0dot069-0dot01
ch_type,1_1
kcount,1
numberNandB,1
brightnessNandB,1
carpet pos,0
pc,0
Time (ms),CH1 Auto-Correlation
1.0,0.05992250144481659
2.0,0.0591902881860733
3.0,0.05845789238810539
4.0,0.057741161435842514
5.0,0.057052623480558395
6.0,0.056382302194833755
7.0,0.05583435297012329
8.0,0.05534134805202484
9.0,0.05487615242600441
10.0,0.054400306195020676
11.0,0.053941067308187485
12.0,0.05355290696024895
13.0,0.053189150989055634
14.0,0.052791569381952286
15.0,0.0524032860994339
16.0,0.05203092470765114
18.0,0.05119618400931358
20.0,0.05041737109422684
22.0,0.049622248858213425
24.0,0.04869029298424721
26.0,0.04772205650806427
28.0,0.04673716425895691
30.0,0.04574073851108551
32.0,0.04479128494858742
36.0,0.04314294457435608
40.0,0.04159858450293541
44.0,0.04009386897087097
48.0,0.03883354738354683
52.0,0.037318237125873566
56.0,0.035662103444337845
60.0,0.03386833518743515
64.0,0.03242635726928711
72.0,0.029358023777604103
80.0,0.025832831859588623
88.0,0.022557739168405533
96.0,0.020000144839286804
104.0,0.017371978610754013
112.0,0.015093095600605011
120.0,0.0127579215914011
128.0,0.010993478819727898
144.0,0.007545184344053268
160.0,0.006939997896552086
176.0,0.0068151215091347694
192.0,0.006661765277385712
208.0,0.005665334407240152
224.0,0.004730712156742811
240.0,0.0045311180874705315
256.0,0.004300633445382118
288.0,0.006106745917350054
320.0,0.006821456830948591
352.0,0.006457342766225338
384.0,0.005496499128639698
416.0,0.004207967314869165
448.0,0.003672773251309991
480.0,0.0036278730258345604
512.0,0.0035795816220343113
576.0,0.0036411157343536615
640.0,0.005888390354812145
704.0,0.007760475855320692
768.0,0.007708613760769367
832.0,0.005289754364639521
896.0,0.0024422956630587578
960.0,0.0014751452254131436
1024.0,0.0006586248055100441
1152.0,-0.003986618015915155
1280.0,-0.003692848840728402
1408.0,0.003555651754140854
1536.0,0.007224821951240301
1664.0,0.0014541489072144032
1792.0,-0.005235504824668169
1920.0,-0.0023897564969956875
2048.0,-0.0004513361200224608
2304.0,-0.0006702922401018441
2560.0,-0.0034521473571658134
2816.0,-0.005922923795878887
3072.0,-0.00539326062425971
3328.0,-0.008013628423213959
3584.0,-0.008264947682619095
3840.0,-0.010731102898716927
4096.0,-0.010669889859855175
4608.0,-0.007154973689466715
5120.0,-0.0018639974296092987
5632.0,-0.002672835486009717
6144.0,0.0028628166764974594
6656.0,0.004587523639202118
7168.0,0.011122189462184906
7680.0,0.005567623768001795
8192.0,0.003074867185205221
end
