version,3.0
numOfCh,1
type,point
parent_name,34a6d_0dot069-0dot01
ch_type,1_1
kcount,1
numberNandB,1
brightnessNandB,1
carpet pos,0
pc,0
Time (ms),CH1 Auto-Correlation
1.0,0.1475674957036972
2.0,0.14668463170528412
3.0,0.1458420604467392
4.0,0.14498774707317352
5.0,0.14414170384407043
6.0,0.1433190405368805
7.0,0.14252139627933502
8.0,0.1417461633682251
9.0,0.14099037647247314
10.0,0.1402558833360672
11.0,0.13951721787452698
12.0,0.1388074904680252
13.0,0.13810577988624573
14.0,0.13740083575248718
15.0,0.13667011260986328
16.0,0.13592639565467834
18.0,0.13426092267036438
20.0,0.1327800154685974
22.0,0.13127799332141876
24.0,0.12970766425132751
26.0,0.12819728255271912
28.0,0.1267956793308258
30.0,0.12540365755558014
32.0,0.123984694480896
36.0,0.12135595083236694
40.0,0.11881686747074127
44.0,0.11640755087137222
48.0,0.11406289786100388
52.0,0.11224207282066345
56.0,0.1104804128408432
60.0,0.10874038189649582
64.0,0.10696077346801758
72.0,0.10425933450460434
80.0,0.10268446803092957
88.0,0.10159657150506973
96.0,0.10048018395900726
104.0,0.09935539960861206
112.0,0.09840977936983109
120.0,0.0975242480635643
128.0,0.09657104313373566
144.0,0.09533676505088806
160.0,0.09445680677890778
176.0,0.09332279115915298
192.0,0.09026192873716354
208.0,0.08675377815961838
224.0,0.08346559852361679
240.0,0.08059759438037872
256.0,0.07822021842002869
288.0,0.07729951292276382
320.0,0.07504367083311081
352.0,0.07247938215732574
384.0,0.06658302992582321
416.0,0.05918173864483833
448.0,0.05527818202972412
480.0,0.05399713292717934
512.0,0.05330842733383179
576.0,0.05773867294192314
640.0,0.047240935266017914
704.0,0.045151419937610626
768.0,0.03613736853003502
832.0,0.02711065486073494
896.0,0.025509757921099663
960.0,0.026108700782060623
1024.0,0.023224426433444023
1152.0,0.02093041129410267
1280.0,0.013388929888606071
1408.0,0.0023595765233039856
1536.0,-0.010240184143185616
1664.0,-0.02008748985826969
1792.0,-0.031171569600701332
1920.0,-0.041737381368875504
2048.0,-0.04666973277926445
2304.0,-0.05556352436542511
2560.0,-0.042372651398181915
2816.0,-0.027065550908446312
3072.0,-0.024759650230407715
3328.0,-0.03031531535089016
3584.0,-0.030133791267871857
3840.0,-0.020568395033478737
4096.0,-0.009264581836760044
4608.0,0.024581804871559143
5120.0,0.04857967421412468
5632.0,0.07198919355869293
6144.0,0.02428155578672886
6656.0,-0.06943933665752411
7168.0,-0.14244097471237183
7680.0,-0.2203870564699173
8192.0,-0.2690888047218323
end
