version,3.0
numOfCh,1
type,point
parent_name,c1204_0dot1-0dot01
ch_type,1_1
kcount,1
numberNandB,1
brightnessNandB,1
carpet pos,0
pc,0
Time (ms),CH1 Auto-Correlation
1.0,0.02084141969680786
2.0,0.020623086020350456
3.0,0.020412622019648552
4.0,0.02019835263490677
5.0,0.01998833380639553
6.0,0.019780278205871582
7.0,0.019587146118283272
8.0,0.019397782161831856
9.0,0.019216351211071014
10.0,0.019047001376748085
11.0,0.018878070637583733
12.0,0.018712686374783516
13.0,0.018546991050243378
14.0,0.018376518040895462
15.0,0.01819942519068718
16.0,0.01801634393632412
18.0,0.01765589229762554
20.0,0.017299789935350418
22.0,0.01694895513355732
24.0,0.016613902524113655
26.0,0.01629466749727726
28.0,0.015997860580682755
30.0,0.0157091673463583
32.0,0.01542431116104126
36.0,0.014902445487678051
40.0,0.014401130378246307
44.0,0.013926942832767963
48.0,0.013486528769135475
52.0,0.013085826300084591
56.0,0.01269283052533865
60.0,0.012313485145568848
64.0,0.011929146014153957
72.0,0.011196170002222061
80.0,0.01051467377692461
88.0,0.009958282113075256
96.0,0.009491054341197014
104.0,0.008960363455116749
112.0,0.008424824103713036
120.0,0.007918105460703373
128.0,0.007459880784153938
144.0,0.00670667877420783
160.0,0.006132600829005241
176.0,0.005561315454542637
192.0,0.004922439344227314
208.0,0.004517685621976852
224.0,0.004262158181518316
240.0,0.0041096024215221405
256.0,0.0038823499344289303
288.0,0.003179686376824975
320.0,0.00232729222625494
352.0,0.0017570777563378215
384.0,0.001593070919625461
416.0,0.001112517318688333
448.0,0.0005490219336934388
480.0,0.0005306959501467645
512.0,0.0009432698134332895
576.0,0.002538790926337242
640.0,0.003428076161071658
704.0,0.0026031082961708307
768.0,0.002148288767784834
832.0,0.002304637571796775
896.0,0.0028670127503573895
960.0,0.0034245457500219345
1024.0,0.0023962492123246193
1152.0,0.000822023837827146
1280.0,0.00010444968211231753
1408.0,-0.0007073450833559036
1536.0,0.0005264648934826255
1664.0,0.0012234888272359967
1792.0,0.0013594371266663074
1920.0,0.0020228317007422447
2048.0,-0.000541936606168747
2304.0,-0.003623435040935874
2560.0,-0.00317472405731678
2816.0,-0.003405167954042554
3072.0,-0.004692510236054659
3328.0,-0.004926018416881561
3584.0,-0.002386099426075816
3840.0,0.0008035749779082835
4096.0,-0.0009888180065900087
4608.0,0.00045283566578291357
5120.0,0.0023931623436510563
5632.0,0.005337873939424753
6144.0,0.0034314715303480625
6656.0,0.0010547407437115908
7168.0,-0.0005265680956654251
7680.0,-0.0021842466667294502
8192.0,-0.007577016483992338
end
