version,3.0
numOfCh,1
type,point
parent_name,c1204_0dot1-0dot01
ch_type,1_1
kcount,1
numberNandB,1
brightnessNandB,1
carpet pos,0
pc,0
Time (ms),CH1 Auto-Correlation
1.0,0.017352182418107986
2.0,0.017176711931824684
3.0,0.017006833106279373
4.0,0.016843274235725403
5.0,0.01668473333120346
6.0,0.01653052307665348
7.0,0.016378672793507576
8.0,0.01622706651687622
9.0,0.016083791851997375
10.0,0.015942303463816643
11.0,0.015802016481757164
12.0,0.0156671404838562
13.0,0.015534092672169209
14.0,0.015402985736727715
15.0,0.01527355331927538
16.0,0.015147608704864979
18.0,0.01489967480301857
20.0,0.014654685743153095
22.0,0.014412660151720047
24.0,0.01417630910873413
26.0,0.013948703184723854
28.0,0.01373506523668766
30.0,0.01352745946496725
32.0,0.013323524966835976
36.0,0.0129116615280509
40.0,0.01251410972326994
44.0,0.012140382081270218
48.0,0.011777435429394245
52.0,0.01144516933709383
56.0,0.011143148876726627
60.0,0.010855992324650288
64.0,0.010570831596851349
72.0,0.009962473064661026
80.0,0.009358547627925873
88.0,0.008832677267491817
96.0,0.008386109955608845
104.0,0.00796063244342804
112.0,0.007566719315946102
120.0,0.007230096030980349
128.0,0.006890598684549332
144.0,0.006280932575464249
160.0,0.005932431668043137
176.0,0.005734731908887625
192.0,0.00549913989380002
208.0,0.005334198009222746
224.0,0.005150929093360901
240.0,0.004923570901155472
256.0,0.004704633727669716
288.0,0.004465718287974596
320.0,0.004079247359186411
352.0,0.0038502048701047897
384.0,0.00362458941526711
416.0,0.0034406075719743967
448.0,0.0032792033161967993
480.0,0.003059278940781951
512.0,0.002762602176517248
576.0,0.0025126768741756678
640.0,0.0021449080668389797
704.0,0.002346369670704007
768.0,0.002564790192991495
832.0,0.0035947244614362717
896.0,0.004197165835648775
960.0,0.0032237449195235968
1024.0,0.0020692050457000732
1152.0,0.0019224100979045033
1280.0,0.001976304454728961
1408.0,0.0012374590151011944
1536.0,2.2883999918121845e-05
1664.0,0.0013202812988311052
1792.0,0.0024261462967842817
1920.0,0.0022539931815117598
2048.0,0.001965426141396165
2304.0,0.0007401370676234365
2560.0,-0.0008776694885455072
2816.0,-0.00022826375789009035
3072.0,-0.0002395992778474465
3328.0,-0.001470565446652472
3584.0,-0.0013260026462376118
3840.0,-0.0019363388419151306
4096.0,-0.0010163105325773358
4608.0,-0.0016221667174249887
5120.0,-0.0021729280706495047
5632.0,-0.002311741467565298
6144.0,0.000999801093712449
6656.0,0.0017476899083703756
7168.0,-0.0005650056409649551
7680.0,-0.002436306094750762
8192.0,-0.002529709367081523
end
