version,3.0
numOfCh,1
type,point
parent_name,c1204_0dot1-0dot01
ch_type,1_1
kcount,1
numberNandB,1
brightnessNandB,1
carpet pos,0
pc,0
Time (ms),CH1 Auto-Correlation
1.0,0.03624420985579491
2.0,0.03602120652794838
3.0,0.03580847755074501
4.0,0.03558233380317688
5.0,0.035363275557756424
6.0,0.03514442220330238
7.0,0.0349239818751812
8.0,0.03471071273088455
9.0,0.03450014442205429
10.0,0.034292276948690414
11.0,0.03409089148044586
12.0,0.033880773931741714
13.0,0.033693209290504456
14.0,0.033504240214824677
15.0,0.03330808877944946
16.0,0.03311304375529289
18.0,0.03272296115756035
20.0,0.032357241958379745
22.0,0.03200388699769974
24.0,0.031663678586483
26.0,0.031323548406362534
28.0,0.030988959595561028
30.0,0.030660411342978477
32.0,0.030320700258016586
36.0,0.029630985110998154
40.0,0.028904452919960022
44.0,0.028210338205099106
48.0,0.0275520458817482
52.0,0.026944447308778763
56.0,0.02636750228703022
60.0,0.02580469846725464
64.0,0.02527378685772419
72.0,0.02427138015627861
80.0,0.02312657982110977
88.0,0.022076386958360672
96.0,0.021192878484725952
104.0,0.020365219563245773
112.0,0.019673533737659454
120.0,0.019083574414253235
128.0,0.018442172557115555
144.0,0.017455929890275
160.0,0.017231814563274384
176.0,0.017450258135795593
192.0,0.01782284490764141
208.0,0.01800287328660488
224.0,0.01812858134508133
240.0,0.01830819994211197
256.0,0.01830056868493557
288.0,0.017820486798882484
320.0,0.017163535580039024
352.0,0.016188792884349823
384.0,0.015393582172691822
416.0,0.015209950506687164
448.0,0.015298641286790371
480.0,0.015644965693354607
512.0,0.01608816348016262
576.0,0.016872117295861244
640.0,0.016447806730866432
704.0,0.016344016417860985
768.0,0.015069873072206974
832.0,0.01295487117022276
896.0,0.011113734915852547
960.0,0.009887337684631348
1024.0,0.009816084057092667
1152.0,0.011193539947271347
1280.0,0.010579181835055351
1408.0,0.00852885376662016
1536.0,0.00399693101644516
1664.0,0.0014612183440476656
1792.0,-0.0011373527813702822
1920.0,-0.004412620794028044
2048.0,-0.005624077748507261
2304.0,-0.008659734390676022
2560.0,-0.01043735072016716
2816.0,-0.013009771704673767
3072.0,-0.014141397550702095
3328.0,-0.017534397542476654
3584.0,-0.015855837613344193
3840.0,-0.013586629182100296
4096.0,-0.013977902941405773
end
