version,3.0
numOfCh,1
type,point
parent_name,c1204_0dot1-0dot01
ch_type,1_1
kcount,1
numberNandB,1
brightnessNandB,1
carpet pos,0
pc,0
Time (ms),CH1 Auto-Correlation
1.0,0.016875650733709335
2.0,0.0166908148676157
3.0,0.016515200957655907
4.0,0.016341812908649445
5.0,0.016170421615242958
6.0,0.016003580763936043
7.0,0.015837229788303375
8.0,0.01567324437201023
9.0,0.015509282238781452
10.0,0.015347106382250786
11.0,0.015184285119175911
12.0,0.015028249472379684
13.0,0.014878093264997005
14.0,0.014731920324265957
15.0,0.0145887965336442
16.0,0.014446205459535122
18.0,0.014161660335958004
20.0,0.013888874091207981
22.0,0.013628736138343811
24.0,0.013371056877076626
26.0,0.013119653798639774
28.0,0.012878787703812122
30.0,0.01265095267444849
32.0,0.012426662258803844
36.0,0.012022320181131363
40.0,0.01163893286138773
44.0,0.011261630803346634
48.0,0.010915595106780529
52.0,0.0105626555159688
56.0,0.01022438332438469
60.0,0.009921504184603691
64.0,0.00966202188283205
72.0,0.00918041355907917
80.0,0.008693819865584373
88.0,0.008242378942668438
96.0,0.007831132970750332
104.0,0.007422756869345903
112.0,0.007032996974885464
120.0,0.0066507491283118725
128.0,0.006280167028307915
144.0,0.0055154962465167046
160.0,0.004841229412704706
176.0,0.004279640968888998
192.0,0.00395269226282835
208.0,0.003737902967259288
224.0,0.003492661053314805
240.0,0.003254714421927929
256.0,0.003101429669186473
288.0,0.002910174196586013
320.0,0.0028357936535030603
352.0,0.002175965579226613
384.0,0.0016063593793660402
416.0,0.0010623466223478317
448.0,0.0008298588218167424
480.0,0.00046740364632569253
512.0,-6.56721240375191e-05
576.0,-0.0013050200650468469
640.0,-0.0015919909346848726
704.0,-0.0015878935810178518
768.0,-0.0013726323377341032
832.0,-0.0016577941132709384
896.0,-0.002069980837404728
960.0,-0.002341250656172633
1024.0,-0.0020985729061067104
1152.0,-0.0036293729208409786
1280.0,-0.0042879111133515835
1408.0,-0.0025253882631659508
1536.0,-0.002292182995006442
1664.0,-0.0011462338734418154
1792.0,-0.00022636988433077931
1920.0,0.0010252530919387937
2048.0,0.0013484798837453127
2304.0,0.0013052981812506914
2560.0,0.0029944456182420254
2816.0,0.003066491801291704
3072.0,-0.00019048698595725
3328.0,-0.0014664058107882738
3584.0,-0.0007814178243279457
3840.0,-0.001384682604111731
4096.0,-0.0009969724342226982
4608.0,-5.6028446124400944e-05
5120.0,0.0006323172128759325
5632.0,0.0037778783589601517
6144.0,-0.0001593158522155136
6656.0,-0.00297878822311759
7168.0,-0.0022043874487280846
7680.0,-0.0007002946804277599
8192.0,0.0046332222409546375
end
