version,3.0
numOfCh,1
type,point
parent_name,c1204_0dot1-0dot01
ch_type,1_1
kcount,1
numberNandB,1
brightnessNandB,1
carpet pos,0
pc,0
Time (ms),CH1 Auto-Correlation
1.0,0.02212701551616192
2.0,0.02193523943424225
3.0,0.021752089262008667
4.0,0.021567871794104576
5.0,0.0213865265250206
6.0,0.02120910957455635
7.0,0.021040165796875954
8.0,0.020869404077529907
9.0,0.020702920854091644
10.0,0.020535169169306755
11.0,0.02036990411579609
12.0,0.020204678177833557
13.0,0.020042598247528076
14.0,0.019886068999767303
15.0,0.019731862470507622
16.0,0.019584154710173607
18.0,0.01929563656449318
20.0,0.019017381593585014
22.0,0.018746428191661835
24.0,0.01848123036324978
26.0,0.01823173090815544
28.0,0.01799432933330536
30.0,0.017755424603819847
32.0,0.01752508617937565
36.0,0.01708056591451168
40.0,0.0166596882045269
44.0,0.01629246398806572
48.0,0.0159265398979187
52.0,0.01557606365531683
56.0,0.015249782241880894
60.0,0.014905719086527824
64.0,0.014568659476935863
72.0,0.013957175426185131
80.0,0.013379938900470734
88.0,0.012816594913601875
96.0,0.01225199643522501
104.0,0.011689972132444382
112.0,0.011081949807703495
120.0,0.010519297793507576
128.0,0.010017584078013897
144.0,0.00915007758885622
160.0,0.008357045240700245
176.0,0.007612173445522785
192.0,0.007037624716758728
208.0,0.006593778263777494
224.0,0.006272973492741585
240.0,0.006135947536677122
256.0,0.005825485102832317
288.0,0.005284129176288843
320.0,0.004648145753890276
352.0,0.0037767249159514904
384.0,0.003271023277193308
416.0,0.003340712981298566
448.0,0.0036145574413239956
480.0,0.0038361134938895702
512.0,0.0037126552779227495
576.0,0.0026699628215283155
640.0,0.001704309950582683
704.0,0.0013193391496315598
768.0,0.0012956780847162008
832.0,0.0005752574652433395
896.0,-0.00019287991744931787
960.0,-0.0010300360154360533
1024.0,-0.0006509615923278034
1152.0,0.001284393947571516
1280.0,0.001110954792238772
1408.0,0.00021698049386031926
1536.0,0.00029944180278107524
1664.0,0.0003016935079358518
1792.0,-0.0034401367884129286
1920.0,-0.004706876818090677
2048.0,-0.004127941560000181
2304.0,-0.0027304976247251034
2560.0,-0.000659527606330812
2816.0,0.0018909798236563802
3072.0,-0.0003688187862280756
3328.0,-0.0006971955299377441
3584.0,-0.0008001347305253148
3840.0,0.0006705076084472239
4096.0,-0.0006398513214662671
4608.0,-0.0014783337246626616
5120.0,0.0017818831838667393
5632.0,-0.0003674757026601583
6144.0,0.0004969307919964194
6656.0,0.0008849301957525313
7168.0,-0.0067525943741202354
7680.0,-0.002829638309776783
8192.0,-0.0014150138013064861
end
