version,3.0
numOfCh,1
type,point
parent_name,c1204_0dot1-0dot01
ch_type,1_1
kcount,1
numberNandB,1
brightnessNandB,1
carpet pos,0
pc,0
Time (ms),CH1 Auto-Correlation
1.0,0.022208988666534424
2.0,0.02201908268034458
3.0,0.021831659600138664
4.0,0.021648893132805824
5.0,0.021473005414009094
6.0,0.021299289539456367
7.0,0.021131465211510658
8.0,0.020964276045560837
9.0,0.020799508318305016
10.0,0.02063581719994545
11.0,0.020478181540966034
12.0,0.02032129280269146
13.0,0.020171016454696655
14.0,0.02001938410103321
15.0,0.019868578761816025
16.0,0.019721699878573418
18.0,0.01943855546414852
20.0,0.0191661324352026
22.0,0.01890137419104576
24.0,0.018652383238077164
26.0,0.01840200647711754
28.0,0.018150124698877335
30.0,0.017915470525622368
32.0,0.017690366134047508
36.0,0.017270542681217194
40.0,0.016899719834327698
44.0,0.016559747979044914
48.0,0.01625428907573223
52.0,0.01596299558877945
56.0,0.01568542793393135
60.0,0.015438154339790344
64.0,0.015199070796370506
72.0,0.014734158292412758
80.0,0.014271270483732224
88.0,0.013862928375601768
96.0,0.01343979686498642
104.0,0.013060901314020157
112.0,0.012659896165132523
120.0,0.012290095910429955
128.0,0.01199104730039835
144.0,0.011537263169884682
160.0,0.01105556171387434
176.0,0.010452145710587502
192.0,0.009740409441292286
208.0,0.009052314795553684
224.0,0.008481810800731182
240.0,0.008147666230797768
256.0,0.007867732085287571
288.0,0.007602735422551632
320.0,0.007595514412969351
352.0,0.007024695165455341
384.0,0.006529619917273521
416.0,0.006274612620472908
448.0,0.006067486479878426
480.0,0.0061030457727611065
512.0,0.006253428757190704
576.0,0.0074997395277023315
640.0,0.008191818371415138
704.0,0.008523710072040558
768.0,0.007791414856910706
832.0,0.007108933292329311
896.0,0.006674863863736391
960.0,0.006456997711211443
1024.0,0.006460998207330704
1152.0,0.0050973594188690186
1280.0,0.003983079455792904
1408.0,0.0029721022583544254
1536.0,0.0006429016939364374
1664.0,0.0004737513663712889
1792.0,0.0018569653620943427
1920.0,0.00267168041318655
2048.0,0.0015818447573110461
2304.0,-0.0008645814377814531
2560.0,-0.0012170419795438647
2816.0,-0.0009581325575709343
3072.0,-0.001697826897725463
3328.0,-0.0023405447136610746
3584.0,-0.004439343698322773
3840.0,-0.0017226745840162039
4096.0,-0.003635324537754059
4608.0,-0.005580475088208914
5120.0,-0.006656329147517681
5632.0,-0.007696709595620632
6144.0,-0.0051070018671453
6656.0,-0.003215719712898135
7168.0,-0.0017820709617808461
7680.0,0.0019399799639359117
8192.0,0.00041585054714232683
end
