version,3.0
numOfCh,1
type,point
parent_name,c1204_0dot1-0dot01
ch_type,1_1
kcount,1
numberNandB,1
brightnessNandB,1
carpet pos,0
pc,0
Time (ms),CH1 Auto-Correlation
1.0,0.018304001539945602
2.0,0.018129868432879448
3.0,0.01796003058552742
4.0,0.017791885882616043
5.0,0.017628733068704605
6.0,0.017472194507718086
7.0,0.017318546772003174
8.0,0.017166459932923317
9.0,0.017018593847751617
10.0,0.016870271414518356
11.0,0.016726786270737648
12.0,0.016590191051363945
13.0,0.016455838456749916
14.0,0.01631930097937584
15.0,0.01618828810751438
16.0,0.016059566289186478
18.0,0.01581384800374508
20.0,0.015575947239995003
22.0,0.015345532447099686
24.0,0.015120791271328926
26.0,0.014896927401423454
28.0,0.01468114834278822
30.0,0.014471705071628094
32.0,0.014269867911934853
36.0,0.013864174485206604
40.0,0.013461647555232048
44.0,0.013092285953462124
48.0,0.012760339304804802
52.0,0.01245394628494978
56.0,0.012163693085312843
60.0,0.011885710060596466
64.0,0.011631211265921593
72.0,0.011204227805137634
80.0,0.010832716710865498
88.0,0.010497823357582092
96.0,0.010252532549202442
104.0,0.010057643987238407
112.0,0.009832259267568588
120.0,0.009541637264192104
128.0,0.009265508502721786
144.0,0.008787274360656738
160.0,0.008289697580039501
176.0,0.007864506915211678
192.0,0.00763911847025156
208.0,0.00752456858754158
224.0,0.00745832035318017
240.0,0.007237237878143787
256.0,0.006727266125380993
288.0,0.005704680923372507
320.0,0.00497680576518178
352.0,0.004374349024146795
384.0,0.003792671486735344
416.0,0.0033724457025527954
448.0,0.003418498206883669
480.0,0.003642651718109846
512.0,0.00327975582331419
576.0,0.003588002873584628
640.0,0.0032427108380943537
704.0,0.003146209754049778
768.0,0.002847078023478389
832.0,0.0029766561929136515
896.0,0.00257042795419693
960.0,0.002077472163364291
1024.0,0.002105124993249774
1152.0,0.0011541065759956837
1280.0,0.0006092959083616734
1408.0,-4.732597153633833e-05
1536.0,-0.000574577774386853
1664.0,-0.0015228681731969118
1792.0,-0.001637216075323522
1920.0,-0.0019423896446824074
2048.0,-0.0020680094603449106
2304.0,-0.0018024216406047344
2560.0,-0.001720117055810988
2816.0,-0.00028695358196273446
3072.0,0.0008278721943497658
3328.0,0.001864690100774169
3584.0,-0.0005810425500385463
3840.0,-4.208930840832181e-05
4096.0,0.0007726670592091978
4608.0,-0.0006756832008250058
5120.0,-0.002445317804813385
5632.0,-0.002682201098650694
6144.0,-0.0007939758943393826
6656.0,0.0002898290113080293
7168.0,0.002297275932505727
7680.0,0.0038007465191185474
8192.0,0.00405080383643508
end
