version,3.0
numOfCh,1
type,point
parent_name,c1204_0dot1-0dot01
ch_type,1_1
kcount,1
numberNandB,1
brightnessNandB,1
carpet pos,0
pc,0
Time (ms),CH1 Auto-Correlation
1.0,0.022472675889730453
2.0,0.022231116890907288
3.0,0.021987656131386757
4.0,0.021746627986431122
5.0,0.021510368213057518
6.0,0.021284455433487892
7.0,0.021064473316073418
8.0,0.020846107974648476
9.0,0.020628996193408966
10.0,0.02041543275117874
11.0,0.020203720778226852
12.0,0.0199910756200552
13.0,0.01977856270968914
14.0,0.019572671502828598
15.0,0.01937350630760193
16.0,0.01917406916618347
18.0,0.018770407885313034
20.0,0.018466738983988762
22.0,0.018159018829464912
24.0,0.01786031946539879
26.0,0.01759301871061325
28.0,0.01734757423400879
30.0,0.017101483419537544
32.0,0.016858408227562904
36.0,0.016384558752179146
40.0,0.015941547229886055
44.0,0.01549355685710907
48.0,0.015053373761475086
52.0,0.014605720527470112
56.0,0.014158942736685276
60.0,0.013713514432311058
64.0,0.013305820524692535
72.0,0.012560753151774406
80.0,0.011883512139320374
88.0,0.011313231661915779
96.0,0.010847496800124645
104.0,0.010439124889671803
112.0,0.010005025193095207
120.0,0.009697532281279564
128.0,0.00943185668438673
144.0,0.008561124093830585
160.0,0.007647332269698381
176.0,0.006898032035678625
192.0,0.0062893168069422245
208.0,0.005776208359748125
224.0,0.005518431309610605
240.0,0.005102367606014013
256.0,0.004820689558982849
288.0,0.004198165610432625
320.0,0.0033719451166689396
352.0,0.002391267102211714
384.0,0.0019983157981187105
416.0,0.002069082809612155
448.0,0.0017601135186851025
480.0,0.0015581506304442883
512.0,0.0013021138729527593
576.0,0.0013019104953855276
640.0,0.0009803345892578363
704.0,-0.000227670869207941
768.0,-0.000832296209409833
832.0,-0.0012661740183830261
896.0,-0.0019107720581814647
960.0,-0.00227046268992126
1024.0,-0.002003659028559923
1152.0,-0.0023878475185483694
1280.0,-0.0018404724542051554
1408.0,-0.0002275203150929883
1536.0,0.0005310698179528117
1664.0,-0.00035299931187182665
1792.0,0.0016418298473581672
1920.0,0.0033224669750779867
2048.0,0.00487827742472291
2304.0,0.0013698145048692822
2560.0,0.002110003959387541
2816.0,0.0002389411674812436
3072.0,-0.0006917305872775614
3328.0,-0.0005991651560179889
3584.0,0.0014134402154013515
3840.0,-0.0006673125317320228
4096.0,-0.0023987700697034597
4608.0,-0.0038450572174042463
5120.0,-0.0005196717684157193
5632.0,0.00162311433814466
6144.0,-0.0032778161112219095
6656.0,-0.004121618345379829
7168.0,-0.0034937707241624594
7680.0,0.003085070289671421
8192.0,-0.0012372954515740275
end
