version,3.0
numOfCh,1
type,point
parent_name,c1204_0dot1-0dot01
ch_type,1_1
kcount,1
numberNandB,1
brightnessNandB,1
carpet pos,0
pc,0
Time (ms),CH1 Auto-Correlation
1.0,0.022191688418388367
2.0,0.0220030490309
3.0,0.021812837570905685
4.0,0.021629568189382553
5.0,0.021450292319059372
6.0,0.021275872364640236
7.0,0.02109949104487896
8.0,0.02092556841671467
9.0,0.020746789872646332
10.0,0.02056797407567501
11.0,0.020386828109622
12.0,0.020207883790135384
13.0,0.0200211051851511
14.0,0.019834652543067932
15.0,0.019650202244520187
16.0,0.01946527510881424
18.0,0.019099468365311623
20.0,0.0187392421066761
22.0,0.01838533952832222
24.0,0.018034419044852257
26.0,0.017693860456347466
28.0,0.01736624166369438
30.0,0.017058981582522392
32.0,0.016744187101721764
36.0,0.016120988875627518
40.0,0.01555605512112379
44.0,0.015038367360830307
48.0,0.014562452211976051
52.0,0.014105209149420261
56.0,0.013633085414767265
60.0,0.013156211003661156
64.0,0.012736106291413307
72.0,0.011959855444729328
80.0,0.011264891363680363
88.0,0.010674064978957176
96.0,0.010232714004814625
104.0,0.009886369109153748
112.0,0.009541178122162819
120.0,0.009130946360528469
128.0,0.008685152046382427
144.0,0.007875281386077404
160.0,0.00727889547124505
176.0,0.00664210319519043
192.0,0.006131232250481844
208.0,0.0059361946769058704
224.0,0.005744104739278555
240.0,0.00540127232670784
256.0,0.005037680268287659
288.0,0.00388381932862103
320.0,0.00253850850276649
352.0,0.0022567494306713343
384.0,0.0021913102827966213
416.0,0.001861490891315043
448.0,0.0019584069959819317
480.0,0.0024263772647827864
512.0,0.002376752207055688
576.0,0.0016305918106809258
640.0,0.0015732119791209698
704.0,0.0011461316607892513
768.0,0.0010138495126739144
832.0,0.0009246369008906186
896.0,0.0009008938213810325
960.0,-0.00042936988756991923
1024.0,-0.0010932359145954251
1152.0,-0.0009488042560406029
1280.0,-0.00020130816847085953
1408.0,-0.0003166749665979296
1536.0,-0.0012752945767715573
1664.0,-0.0019463150529190898
1792.0,-0.0019818346481770277
1920.0,-0.002350536873564124
2048.0,-0.0024393994826823473
2304.0,-0.003154423553496599
2560.0,-0.004539646673947573
2816.0,-0.004888396244496107
3072.0,-0.0026173037476837635
3328.0,-0.001670371973887086
3584.0,-0.0009652627049945295
3840.0,0.003388461656868458
4096.0,0.0017682110192254186
4608.0,0.0008851842721924186
5120.0,0.0029610570054501295
5632.0,0.0028148104902356863
6144.0,-0.0022274081129580736
6656.0,-0.0029699120204895735
7168.0,0.0009980862960219383
7680.0,-0.0023276207502931356
8192.0,-0.0009672849555499852
end
