version,3.0
numOfCh,1
type,point
parent_name,c1204_0dot1-0dot01
ch_type,1_1
kcount,1
numberNandB,1
brightnessNandB,1
carpet pos,0
pc,0
Time (ms),CH1 Auto-Correlation
1.0,0.033071812242269516
2.0,0.0328606441617012
3.0,0.032657794654369354
4.0,0.032449573278427124
5.0,0.03224433213472366
6.0,0.032047826796770096
7.0,0.031850580126047134
8.0,0.03166276589035988
9.0,0.031474363058805466
10.0,0.03128409385681152
11.0,0.03108781948685646
12.0,0.03090386837720871
13.0,0.030722638592123985
14.0,0.03054700419306755
15.0,0.030374661087989807
16.0,0.030198609456419945
18.0,0.029879456385970116
20.0,0.029569532722234726
22.0,0.02927716262638569
24.0,0.029020529240369797
26.0,0.028759445995092392
28.0,0.028515471145510674
30.0,0.028276218101382256
32.0,0.028032224625349045
36.0,0.027507053688168526
40.0,0.02696383185684681
44.0,0.02645845152437687
48.0,0.02601703256368637
52.0,0.02560584433376789
56.0,0.02523748204112053
60.0,0.024922000244259834
64.0,0.02459019050002098
72.0,0.023820683360099792
80.0,0.023028122261166573
88.0,0.022180473431944847
96.0,0.02137274108827114
104.0,0.020574552938342094
112.0,0.019848797470331192
120.0,0.019225893542170525
128.0,0.018712636083364487
144.0,0.01787456125020981
160.0,0.017036141827702522
176.0,0.016410144045948982
192.0,0.016181737184524536
208.0,0.016175705939531326
224.0,0.016443636268377304
240.0,0.016847902908921242
256.0,0.01701282523572445
288.0,0.017105793580412865
320.0,0.01648271456360817
352.0,0.015367005951702595
384.0,0.014342062175273895
416.0,0.013330847024917603
448.0,0.01223935466259718
480.0,0.011140117421746254
512.0,0.010181568562984467
576.0,0.008098510093986988
640.0,0.006316644139587879
704.0,0.004850118421018124
768.0,0.004100798163563013
832.0,0.0029844760429114103
896.0,0.0012482850579544902
960.0,-0.001044181059114635
1024.0,-0.002085777698084712
1152.0,-0.0017666574567556381
1280.0,-0.003369235899299383
1408.0,-0.002360012149438262
1536.0,-0.0011798767372965813
1664.0,-0.00021173479035496712
1792.0,0.00022253750648815185
1920.0,0.0012919155415147543
2048.0,0.0018206367967650294
2304.0,0.0011470189783722162
2560.0,0.0020905924029648304
2816.0,0.002214292297139764
3072.0,0.0013850678224116564
3328.0,-0.0021601493936032057
3584.0,-0.002847453346475959
3840.0,-0.0057001314125955105
4096.0,-0.00486300652846694
4608.0,0.0002828479919116944
5120.0,-0.0022994354367256165
5632.0,-0.012226874940097332
6144.0,-0.01618317887187004
6656.0,-0.010134130716323853
7168.0,-0.007153254002332687
7680.0,-0.0006297372165136039
8192.0,0.005165126174688339
end
