version,3.0
numOfCh,1
type,point
parent_name,c1204_0dot1-0dot01
ch_type,1_1
kcount,1
numberNandB,1
brightnessNandB,1
carpet pos,0
pc,0
Time (ms),CH1 Auto-Correlation
1.0,0.022957200184464455
2.0,0.022606290876865387
3.0,0.022259389981627464
4.0,0.02190805971622467
5.0,0.02157837711274624
6.0,0.021268321201205254
7.0,0.020955653861165047
8.0,0.020664723590016365
9.0,0.020379560068249702
10.0,0.020134009420871735
11.0,0.019885584712028503
12.0,0.01960788294672966
13.0,0.01931329071521759
14.0,0.019016530364751816
15.0,0.018727421760559082
16.0,0.018433015793561935
18.0,0.017849335446953773
20.0,0.017288006842136383
22.0,0.017011623829603195
24.0,0.016730094328522682
26.0,0.016444267705082893
28.0,0.016156373545527458
30.0,0.01589018665254116
32.0,0.015646999701857567
36.0,0.015124349854886532
40.0,0.014587277546525002
44.0,0.01412708405405283
48.0,0.01371967513114214
52.0,0.013257854618132114
56.0,0.01281613390892744
60.0,0.012399278581142426
64.0,0.011988763697445393
72.0,0.011285493150353432
80.0,0.01076426636427641
88.0,0.01029978133738041
96.0,0.00969299953430891
104.0,0.009065472520887852
112.0,0.008420308120548725
120.0,0.0077765025198459625
128.0,0.007222672458738089
144.0,0.0064849560149014
160.0,0.0059888469986617565
176.0,0.0055763316340744495
192.0,0.0053171152248978615
208.0,0.005057519301772118
224.0,0.004832874517887831
240.0,0.004798941779881716
256.0,0.004613671917468309
288.0,0.0042248982936143875
320.0,0.004063017666339874
352.0,0.0037198211066424847
384.0,0.0040387725457549095
416.0,0.004017351660877466
448.0,0.0035898585338145494
480.0,0.0034058033488690853
512.0,0.0033913003280758858
576.0,0.0032220601569861174
640.0,0.0038759326562285423
704.0,0.004818049259483814
768.0,0.005057694390416145
832.0,0.004799205344170332
896.0,0.00372314709238708
960.0,0.0037143854424357414
1024.0,0.003426568116992712
1152.0,0.002196107292547822
1280.0,-0.0004684061568696052
1408.0,-0.0011309768306091428
1536.0,-0.0008292309357784688
1664.0,-0.0009077583672478795
1792.0,0.00013598181249108166
1920.0,-0.0010251544881612062
2048.0,-0.002630801172927022
2304.0,-0.00325116328895092
2560.0,-0.0031494046561419964
2816.0,-0.003657453926280141
3072.0,-0.004272254649549723
3328.0,-0.004830284044146538
3584.0,-0.0018558638403192163
3840.0,-0.001924644922837615
4096.0,-0.0029653413221240044
4608.0,0.0009621392237022519
5120.0,0.0014551777858287096
5632.0,0.002087168162688613
6144.0,0.0014287980739027262
6656.0,0.0007238947437144816
7168.0,0.0001335134293185547
7680.0,0.0009301157551817596
8192.0,0.0017672604881227016
end
