version,3.0
numOfCh,1
type,point
parent_name,c1204_0dot1-0dot01
ch_type,1_1
kcount,1
numberNandB,1
brightnessNandB,1
carpet pos,0
pc,0
Time (ms),CH1 Auto-Correlation
1.0,0.057081662118434906
2.0,0.05581147223711014
3.0,0.05454885959625244
4.0,0.05329323932528496
5.0,0.05205848067998886
6.0,0.05080796033143997
7.0,0.0495489165186882
8.0,0.04830281063914299
9.0,0.04708857834339142
10.0,0.045872483402490616
11.0,0.04465547576546669
12.0,0.043442923575639725
13.0,0.042215120047330856
14.0,0.04199577122926712
15.0,0.041776325553655624
16.0,0.04155934602022171
18.0,0.041058823466300964
20.0,0.04064208269119263
22.0,0.04021216556429863
24.0,0.03977162390947342
26.0,0.03931668773293495
28.0,0.03885779157280922
30.0,0.038428012281656265
32.0,0.03801153600215912
36.0,0.03714846447110176
40.0,0.03633033111691475
44.0,0.035569582134485245
48.0,0.034813545644283295
52.0,0.03402921184897423
56.0,0.03326265886425972
60.0,0.03262478485703468
64.0,0.03202709183096886
72.0,0.030365370213985443
80.0,0.02879652939736843
88.0,0.027375733479857445
96.0,0.026021340861916542
104.0,0.02474593184888363
112.0,0.023623794317245483
120.0,0.022603554651141167
128.0,0.02157560922205448
144.0,0.019344547763466835
160.0,0.01759513095021248
176.0,0.01655449904501438
192.0,0.015440316870808601
208.0,0.01434352807700634
224.0,0.013492925092577934
240.0,0.012981741689145565
256.0,0.012819882482290268
288.0,0.011048906482756138
320.0,0.009361141361296177
352.0,0.006712016649544239
384.0,0.004140185192227364
416.0,0.0025097804609686136
448.0,0.0027641118504107
480.0,0.0037027643993496895
512.0,0.004351860843598843
576.0,-0.0001088357821572572
640.0,-0.0009404721204191446
704.0,-0.0005093361833132803
768.0,-0.000522725167684257
832.0,-0.00016979100473690778
896.0,0.0004970329464413226
960.0,0.001655680825933814
1024.0,0.001412170589901507
1152.0,0.0002275509323226288
1280.0,-0.0008927964954636991
1408.0,-0.003530788468196988
1536.0,-0.00351336901076138
1664.0,-0.002857696730643511
1792.0,-0.003718113759532571
1920.0,-0.0043455916456878185
2048.0,-0.003945663571357727
2304.0,-0.0064173368737101555
2560.0,-0.00679923128336668
2816.0,-0.0028520203195512295
3072.0,0.0001306479680351913
3328.0,0.002660358091816306
3584.0,0.0006047437782399356
3840.0,0.0033101625740528107
4096.0,0.0030534728430211544
4608.0,0.001996023580431938
5120.0,-0.0047451588325202465
5632.0,-0.005045297555625439
6144.0,-0.005674785003066063
6656.0,-0.0004694992385338992
7168.0,0.00039188089431263506
7680.0,0.014026190154254436
8192.0,0.000655485549941659
end
