version,3.0
numOfCh,1
type,point
parent_name,c1204_0dot1-0dot01
ch_type,1_1
kcount,1
numberNandB,1
brightnessNandB,1
carpet pos,0
pc,0
Time (ms),CH1 Auto-Correlation
1.0,0.022855425253510475
2.0,0.0226704441010952
3.0,0.022490467876195908
4.0,0.022316472604870796
5.0,0.022142330184578896
6.0,0.021976565942168236
7.0,0.021814918145537376
8.0,0.02165321074426174
9.0,0.021492570638656616
10.0,0.021338848397135735
11.0,0.02117941528558731
12.0,0.02102508209645748
13.0,0.020874198526144028
14.0,0.020723653957247734
15.0,0.020574845373630524
16.0,0.02043021097779274
18.0,0.020134111866354942
20.0,0.01984197273850441
22.0,0.019553080201148987
24.0,0.019267868250608444
26.0,0.018991513177752495
28.0,0.018720194697380066
30.0,0.01845313236117363
32.0,0.018190810456871986
36.0,0.01768856681883335
40.0,0.017181018367409706
44.0,0.016671178862452507
48.0,0.01618187315762043
52.0,0.015726033598184586
56.0,0.015323281288146973
60.0,0.014956926926970482
64.0,0.014633010141551495
72.0,0.014083816669881344
80.0,0.01354534737765789
88.0,0.013002695515751839
96.0,0.012559685856103897
104.0,0.012118726037442684
112.0,0.01159784384071827
120.0,0.011047815904021263
128.0,0.010449305176734924
144.0,0.009586391039192677
160.0,0.008990256115794182
176.0,0.008550059981644154
192.0,0.008458416908979416
208.0,0.008563031442463398
224.0,0.00860995426774025
240.0,0.0085799191147089
256.0,0.008407363668084145
288.0,0.007667731028050184
320.0,0.007010421250015497
352.0,0.006649600341916084
384.0,0.0063084932044148445
416.0,0.005863286089152098
448.0,0.00528307817876339
480.0,0.004669612273573875
512.0,0.004349805880337954
576.0,0.004541581496596336
640.0,0.0045922379940748215
704.0,0.0039752814918756485
768.0,0.0031704155262559652
832.0,0.0021474699024111032
896.0,0.0007639693794772029
960.0,-0.0007575633935630322
1024.0,-0.0013760202564299107
1152.0,-0.0008994867675937712
1280.0,-0.0035178973339498043
1408.0,-0.0042536575347185135
1536.0,-0.005618254654109478
1664.0,-0.004851376172155142
1792.0,-0.004913255572319031
1920.0,-0.0058743334375321865
2048.0,-0.005593469366431236
2304.0,-0.004353454802185297
2560.0,-0.005643205717206001
2816.0,-0.0026913511101156473
3072.0,0.0023663125466555357
3328.0,0.002215329557657242
3584.0,0.005038275383412838
3840.0,0.003994360100477934
4096.0,0.0017519434913992882
4608.0,-0.0015752323670312762
5120.0,-0.004794280510395765
5632.0,-0.006866352166980505
6144.0,-0.0021713171154260635
6656.0,0.006598182488232851
7168.0,0.008180396631360054
7680.0,0.006117630749940872
8192.0,0.0056467256508767605
end
