version,3.0
numOfCh,1
type,point
parent_name,c1204_0dot1-0dot01
ch_type,1_1
kcount,1
numberNandB,1
brightnessNandB,1
carpet pos,0
pc,0
Time (ms),CH1 Auto-Correlation
1.0,0.021211225539445877
2.0,0.021015586331486702
3.0,0.020820554345846176
4.0,0.02063101902604103
5.0,0.02044801227748394
6.0,0.020271209999918938
7.0,0.020098555833101273
8.0,0.01992693357169628
9.0,0.01975737325847149
10.0,0.01959427073597908
11.0,0.019431589171290398
12.0,0.019270354881882668
13.0,0.019113145768642426
14.0,0.018953008577227592
15.0,0.018800092861056328
16.0,0.01865137554705143
18.0,0.018340596929192543
20.0,0.018032589927315712
22.0,0.017731014639139175
24.0,0.01743863895535469
26.0,0.01714220643043518
28.0,0.016838395968079567
30.0,0.016539132222533226
32.0,0.016256853938102722
36.0,0.015734989196062088
40.0,0.015221337787806988
44.0,0.014705116860568523
48.0,0.014219740405678749
52.0,0.013766912743449211
56.0,0.013340170495212078
60.0,0.012920469976961613
64.0,0.012495910748839378
72.0,0.01166385505348444
80.0,0.010891502723097801
88.0,0.010283845476806164
96.0,0.00969837885349989
104.0,0.009197033941745758
112.0,0.008834698237478733
120.0,0.008541196584701538
128.0,0.008220843970775604
144.0,0.007792680058628321
160.0,0.007297121454030275
176.0,0.0067145610228180885
192.0,0.006202837452292442
208.0,0.00579787977039814
224.0,0.005590418353676796
240.0,0.005457486025989056
256.0,0.005306689068675041
288.0,0.005466247443109751
320.0,0.005561689380556345
352.0,0.005588524509221315
384.0,0.005650986451655626
416.0,0.006014939863234758
448.0,0.005810867063701153
480.0,0.0053231013007462025
512.0,0.004517410881817341
576.0,0.0042058611288666725
640.0,0.004275962244719267
704.0,0.0036811125464737415
768.0,0.003326351987197995
832.0,0.0037914819549769163
896.0,0.0032688870560377836
960.0,0.0023462860845029354
1024.0,0.00230553955771029
1152.0,0.0019918852485716343
1280.0,0.0021631901618093252
1408.0,0.0020433382596820593
1536.0,0.0032014092430472374
1664.0,0.004194173496216536
1792.0,0.004622106906026602
1920.0,0.004751870408654213
2048.0,0.004198100883513689
2304.0,0.0028002236504107714
2560.0,0.0021311629097908735
2816.0,0.0004922033404000103
3072.0,0.00028286894666962326
3328.0,6.866546755190939e-06
3584.0,-0.0007504489040002227
3840.0,0.0008394555188715458
4096.0,0.00039930656203068793
4608.0,-0.0006069831433705986
5120.0,-0.002333580981940031
5632.0,-0.0013946015387773514
6144.0,-0.0008385246619582176
6656.0,-0.0016318780835717916
7168.0,-0.0018595517612993717
7680.0,-0.001077065011486411
8192.0,-0.0009407728794030845
end
