version,3.0
numOfCh,1
type,point
parent_name,19e3e_0dot4-0dot1
ch_type,1_1
kcount,1
numberNandB,1
brightnessNandB,1
carpet pos,0
pc,0
Time (ms),CH1 Auto-Correlation
1.0,0.03082108311355114
2.0,0.029808638617396355
3.0,0.028833959251642227
4.0,0.027929119765758514
5.0,0.027105484157800674
6.0,0.026349829509854317
7.0,0.025629589334130287
8.0,0.024927252903580666
9.0,0.024256255477666855
10.0,0.023593313992023468
11.0,0.022948257625102997
12.0,0.022370250895619392
13.0,0.021822109818458557
14.0,0.021331368014216423
15.0,0.02084033377468586
16.0,0.020374132320284843
18.0,0.019577685743570328
20.0,0.01879567839205265
22.0,0.018060026690363884
24.0,0.017371177673339844
26.0,0.01675879955291748
28.0,0.016124488785862923
30.0,0.01550443097949028
32.0,0.014955270104110241
36.0,0.01391715370118618
40.0,0.012911885976791382
44.0,0.012254566885530949
48.0,0.011937081813812256
52.0,0.011672774329781532
56.0,0.011414962820708752
60.0,0.011140409857034683
64.0,0.010731200687587261
72.0,0.009872091934084892
80.0,0.009316201321780682
88.0,0.008895386941730976
96.0,0.008350149728357792
104.0,0.007780164480209351
112.0,0.006996475625783205
120.0,0.006031241733580828
128.0,0.005224184133112431
144.0,0.004094198811799288
160.0,0.003356527304276824
176.0,0.0023780250921845436
192.0,0.0018832330824807286
208.0,0.0016828876687213778
224.0,0.0011697015725076199
240.0,0.0005281465128064156
256.0,0.0009829119080677629
288.0,0.0013430436374619603
320.0,0.0009833574295043945
352.0,0.0012669237330555916
384.0,0.001075479667633772
416.0,0.0006138769094832242
448.0,0.0001263806043425575
480.0,0.0002911316405516118
512.0,0.0003230018191970885
576.0,0.0004417134041432291
640.0,-0.00033581245224922895
704.0,-0.00041109067387878895
768.0,-0.0007426058873534203
832.0,-0.0011699094902724028
896.0,-0.0007213564240373671
960.0,-0.0015973501140251756
1024.0,-0.0012097752187401056
1152.0,0.0008949270122684538
1280.0,0.0006792370113544166
1408.0,-0.0008417704957537353
1536.0,-0.0002600770676508546
1664.0,-0.0016366277122870088
1792.0,-0.0012548735830932856
1920.0,0.00013877308811061084
2048.0,5.400228837970644e-05
2304.0,0.0003187213442288339
2560.0,0.0005815322510898113
2816.0,0.0009897968266159296
3072.0,-0.00042098425910808146
3328.0,-0.0018007110338658094
3584.0,-0.0005877945222891867
3840.0,-0.0006191525026224554
4096.0,0.0007014379953034222
4608.0,-2.1892168660997413e-05
5120.0,-0.0003015092806890607
5632.0,-0.0011489480966702104
6144.0,-0.0009952045511454344
6656.0,0.0004832751292269677
7168.0,0.0010642247507348657
7680.0,-0.00018673385784495622
8192.0,-0.0006047639762982726
end
