version,3.0
numOfCh,1
type,point
parent_name,19e3e_0dot4-0dot1
ch_type,1_1
kcount,1
numberNandB,1
brightnessNandB,1
carpet pos,0
pc,0
Time (ms),CH1 Auto-Correlation
1.0,0.03435792773962021
2.0,0.033209044486284256
3.0,0.03215891495347023
4.0,0.031194329261779785
5.0,0.03029751032590866
6.0,0.02950076386332512
7.0,0.028752777725458145
8.0,0.028070108965039253
9.0,0.02741711586713791
10.0,0.026813939213752747
11.0,0.0262532327324152
12.0,0.02568219043314457
13.0,0.025160973891615868
14.0,0.024646196514368057
15.0,0.024148238822817802
16.0,0.023678287863731384
18.0,0.02286299131810665
20.0,0.022136157378554344
22.0,0.02153899148106575
24.0,0.021070480346679688
26.0,0.020651178434491158
28.0,0.020158713683485985
30.0,0.019660990685224533
32.0,0.019146336242556572
36.0,0.01826103962957859
40.0,0.017383567988872528
44.0,0.016488002613186836
48.0,0.015583540312945843
52.0,0.014786265790462494
56.0,0.014143138192594051
60.0,0.013485008850693703
64.0,0.012852040119469166
72.0,0.011902889236807823
80.0,0.0112766670063138
88.0,0.010644524358212948
96.0,0.009896498173475266
104.0,0.00929325632750988
112.0,0.008733413182199001
120.0,0.008353733457624912
128.0,0.008290993049740791
144.0,0.007397787645459175
160.0,0.006788185331970453
176.0,0.006766665261238813
192.0,0.006968644913285971
208.0,0.006888074800372124
224.0,0.006329625844955444
240.0,0.006403523031622171
256.0,0.0061690290458500385
288.0,0.005694772116839886
320.0,0.005442674737423658
352.0,0.0055464934557676315
384.0,0.005769236944615841
416.0,0.005814732052385807
448.0,0.0038098059594631195
480.0,0.0029277957510203123
512.0,0.002092453185468912
576.0,0.0012726467102766037
640.0,0.0007486476679332554
704.0,0.00039227967499755323
768.0,0.0019394441042095423
832.0,0.00338051188737154
896.0,0.002076464705169201
960.0,0.0011964213335886598
1024.0,0.00028096584719605744
1152.0,0.0026976182125508785
1280.0,0.0025123576633632183
1408.0,0.0015260697109624743
1536.0,0.0016203044215217233
1664.0,0.0018357991939410567
1792.0,0.0003170536656398326
1920.0,-0.0033713968005031347
2048.0,-0.002630059840157628
2304.0,-0.0025672614574432373
2560.0,-0.002886553993448615
2816.0,-0.005372135899960995
3072.0,-0.0030920577701181173
3328.0,-0.0012363556306809187
3584.0,-0.0014789276756346226
3840.0,-0.0013877948513254523
4096.0,-0.0011040916433557868
4608.0,-0.004000355023890734
5120.0,-0.0017922352999448776
5632.0,0.0010036949533969164
6144.0,-0.0030152800027281046
6656.0,0.004482022020965815
7168.0,0.005392751656472683
7680.0,0.004225349053740501
8192.0,0.0013527043629437685
end
