version,3.0
numOfCh,1
type,point
parent_name,19e3e_0dot4-0dot1
ch_type,1_1
kcount,1
numberNandB,1
brightnessNandB,1
carpet pos,0
pc,0
Time (ms),CH1 Auto-Correlation
1.0,0.028008580207824707
2.0,0.026995157822966576
3.0,0.026075925678014755
4.0,0.025214768946170807
5.0,0.024376312270760536
6.0,0.02356819063425064
7.0,0.022759370505809784
8.0,0.021987302228808403
9.0,0.02125733345746994
10.0,0.020601829513907433
11.0,0.019935090094804764
12.0,0.019290000200271606
13.0,0.018659425899386406
14.0,0.01807423122227192
15.0,0.017474520951509476
16.0,0.016926007345318794
18.0,0.01596844382584095
20.0,0.015113826841115952
22.0,0.014299105852842331
24.0,0.01350171584635973
26.0,0.012790674343705177
28.0,0.012148089706897736
30.0,0.011564213782548904
32.0,0.01099125575274229
36.0,0.009927915409207344
40.0,0.009134575724601746
44.0,0.00854176189750433
48.0,0.008020682260394096
52.0,0.007662500254809856
56.0,0.007317937910556793
60.0,0.006979616358876228
64.0,0.006779466290026903
72.0,0.006214629393070936
80.0,0.005588635802268982
88.0,0.0053995708003640175
96.0,0.005003034137189388
104.0,0.004531313665211201
112.0,0.004257263150066137
120.0,0.004091285169124603
128.0,0.003831158857792616
144.0,0.0035544077400118113
160.0,0.0031120518688112497
176.0,0.0023693039547652006
192.0,0.0017234625993296504
208.0,0.0020654138643294573
224.0,0.0028394372202455997
240.0,0.003522238926962018
256.0,0.0032886730041354895
288.0,0.0021079492289572954
320.0,0.0014054733328521252
352.0,0.0014096915256232023
384.0,0.0018536178395152092
416.0,0.001537407748401165
448.0,0.0024907453916966915
480.0,0.0016243611462414265
512.0,0.0010017522145062685
576.0,-0.00033908439218066633
640.0,0.001064798329025507
704.0,0.0014365246752277017
768.0,0.0016928981058299541
832.0,0.0008039878448471427
896.0,0.0008300869958475232
960.0,-0.00012184320075903088
1024.0,0.0010846486547961831
1152.0,-0.0003932735708076507
1280.0,-0.00037324149161577225
1408.0,0.0009755066130310297
1536.0,0.0018291180022060871
1664.0,0.0020382467191666365
1792.0,0.0023377055767923594
1920.0,0.0004022641514893621
2048.0,-0.00035545878927223384
2304.0,-0.0019176637288182974
2560.0,-0.002645164029672742
2816.0,-0.0018925665644928813
3072.0,-0.0005818047793582082
3328.0,0.0012496164999902248
3584.0,0.0009162225178442895
3840.0,-0.0011303304927423596
4096.0,-0.00150744104757905
4608.0,-0.0011969615006819367
5120.0,0.00042052692151628435
5632.0,-0.003864540020003915
6144.0,-0.0018520838348194957
6656.0,-0.0009273297619074583
7168.0,-0.00027831312036141753
7680.0,-5.2595434681279585e-05
8192.0,0.002067465800791979
end
