version,3.0
numOfCh,1
type,point
parent_name,19e3e_0dot4-0dot1
ch_type,1_1
kcount,1
numberNandB,1
brightnessNandB,1
carpet pos,0
pc,0
Time (ms),CH1 Auto-Correlation
1.0,0.02855903096497059
2.0,0.027578698471188545
3.0,0.02664468064904213
4.0,0.025767140090465546
5.0,0.024954259395599365
6.0,0.024161234498023987
7.0,0.02342139557003975
8.0,0.022720344364643097
9.0,0.02206607721745968
10.0,0.02147454023361206
11.0,0.0209309421479702
12.0,0.020410919561982155
13.0,0.019908439368009567
14.0,0.019421927630901337
15.0,0.018927359953522682
16.0,0.018483983352780342
18.0,0.01757223904132843
20.0,0.01671024225652218
22.0,0.015897629782557487
24.0,0.015148075297474861
26.0,0.014484426006674767
28.0,0.013883190229535103
30.0,0.013321871869266033
32.0,0.012811786495149136
36.0,0.011922545731067657
40.0,0.011027730070054531
44.0,0.01024716068059206
48.0,0.009675408713519573
52.0,0.009037083014845848
56.0,0.008525479584932327
60.0,0.008009419776499271
64.0,0.007568043656647205
72.0,0.006845885422080755
80.0,0.006188543513417244
88.0,0.005237689707428217
96.0,0.0046987878158688545
104.0,0.0037999311462044716
112.0,0.0029835007153451443
120.0,0.002692658919841051
128.0,0.0024885572493076324
144.0,0.0014906310243532062
160.0,0.000842140638269484
176.0,0.0006026707706041634
192.0,0.0003525211359374225
208.0,7.127884600777179e-05
224.0,0.001018953276798129
240.0,0.00188858387991786
256.0,0.0020770791452378035
288.0,0.0013568171998485923
320.0,0.0010615431237965822
352.0,-0.00010672281496226788
384.0,-0.0010005051735788584
416.0,-7.979825750226155e-05
448.0,0.00018991169054061174
480.0,0.0001192506606457755
512.0,4.3275311327306554e-05
576.0,8.282143244286999e-05
640.0,-0.0015897166449576616
704.0,-0.00034536607563495636
768.0,0.00041441182838752866
832.0,0.0005626478814519942
896.0,3.202055813744664e-05
960.0,-0.0010194678325206041
1024.0,-0.0013542179949581623
1152.0,-0.00016441303887404501
1280.0,-0.0008045838912948966
1408.0,-0.00011995324166491628
1536.0,-0.001227172906510532
1664.0,0.0007919239578768611
1792.0,-0.0003838818520307541
1920.0,-0.001874248730018735
2048.0,-0.003422495909035206
2304.0,-0.0021050903014838696
2560.0,0.0006378153339028358
2816.0,0.0003334058856125921
3072.0,0.00010047500109067187
3328.0,4.560714296530932e-05
3584.0,0.0005615124828182161
3840.0,-2.5247580197174102e-05
4096.0,0.0001646979508223012
4608.0,0.00021654926240444183
5120.0,-0.00010864857176784426
5632.0,0.00041014153975993395
6144.0,0.0005432666512206197
6656.0,0.0002091700880555436
7168.0,-0.001425750320777297
7680.0,-0.0013606672873720527
8192.0,-0.00029553569038398564
end
