version,3.0
numOfCh,1
type,point
parent_name,19e3e_0dot4-0dot1
ch_type,1_1
kcount,1
numberNandB,1
brightnessNandB,1
carpet pos,0
pc,0
Time (ms),CH1 Auto-Correlation
1.0,0.027723846957087517
2.0,0.026692364364862442
3.0,0.02574159763753414
4.0,0.024843262508511543
5.0,0.023972725495696068
6.0,0.02312297187745571
7.0,0.02232973836362362
8.0,0.021592549979686737
9.0,0.020902521908283234
10.0,0.020282980054616928
11.0,0.019695540890097618
12.0,0.01914011314511299
13.0,0.018614623695611954
14.0,0.01810877025127411
15.0,0.017622608691453934
16.0,0.01716936007142067
18.0,0.016303090378642082
20.0,0.015543061308562756
22.0,0.014862630516290665
24.0,0.014192447066307068
26.0,0.013573736883699894
28.0,0.012965173460543156
30.0,0.012415406294167042
32.0,0.011899690143764019
36.0,0.010899745859205723
40.0,0.010056260041892529
44.0,0.009318320080637932
48.0,0.008650201372802258
52.0,0.008067828603088856
56.0,0.0074431682005524635
60.0,0.00688512995839119
64.0,0.006304788403213024
72.0,0.005319593939930201
80.0,0.005196988582611084
88.0,0.005124824587255716
96.0,0.004862108733505011
104.0,0.004112645983695984
112.0,0.003619227558374405
120.0,0.0033245785161852837
128.0,0.0032163832802325487
144.0,0.0026376715395599604
160.0,0.0025164142716675997
176.0,0.002869952470064163
192.0,0.002637894358485937
208.0,0.0021292669698596
224.0,0.0016547669656574726
240.0,0.0010273478692397475
256.0,0.0006769956089556217
288.0,0.0013402908807620406
320.0,0.002540605841204524
352.0,0.004486391320824623
384.0,0.0042288294062018394
416.0,0.002615409204736352
448.0,0.0012100727763026953
480.0,0.0007616113289259374
512.0,-0.0003873431996908039
576.0,-0.0014345861272886395
640.0,-0.0011959358816966414
704.0,-0.00120423489715904
768.0,-0.0010870121186599135
832.0,-0.0006289574666880071
896.0,-0.0021802769042551517
960.0,-0.002522143768146634
1024.0,-0.0021937380079180002
1152.0,-0.0005710349651053548
1280.0,-0.0015717071946710348
1408.0,-0.0012757201911881566
1536.0,-0.0020621605217456818
1664.0,-0.0014606842305511236
1792.0,-0.001078783068805933
1920.0,-0.001092654187232256
2048.0,0.0010053525911644101
2304.0,0.0029059890657663345
2560.0,0.0011052584741264582
2816.0,-0.0010987200075760484
3072.0,-0.0012078873114660382
3328.0,-0.0021349110174924135
3584.0,-0.0011863624677062035
3840.0,-0.0024870974011719227
4096.0,-0.0018045713659375906
4608.0,0.0009506007190793753
5120.0,0.0002546205068938434
5632.0,0.0016148366266861558
6144.0,-0.0005630681989714503
6656.0,0.00032977835508063436
7168.0,0.0003632230800576508
7680.0,0.0006296972860582173
8192.0,-0.0014007168356329203
end
