version,3.0
numOfCh,1
type,point
parent_name,19e3e_0dot4-0dot1
ch_type,1_1
kcount,1
numberNandB,1
brightnessNandB,1
carpet pos,0
pc,0
Time (ms),CH1 Auto-Correlation
1.0,0.032017599791288376
2.0,0.03095688298344612
3.0,0.029954321682453156
4.0,0.028995968401432037
5.0,0.02809516340494156
6.0,0.027218680828809738
7.0,0.026380058377981186
8.0,0.025567177683115005
9.0,0.02478577382862568
10.0,0.024068277329206467
11.0,0.023382121697068214
12.0,0.022730428725481033
13.0,0.022115925326943398
14.0,0.02152608335018158
15.0,0.02096482366323471
16.0,0.020422566682100296
18.0,0.019393304362893105
20.0,0.018476296216249466
22.0,0.01769963465631008
24.0,0.01699022576212883
26.0,0.016337571665644646
28.0,0.015667442232370377
30.0,0.014980587176978588
32.0,0.014269133098423481
36.0,0.013094051741063595
40.0,0.012134619988501072
44.0,0.011385169811546803
48.0,0.010798885487020016
52.0,0.010163943283259869
56.0,0.00954475812613964
60.0,0.008959976956248283
64.0,0.00848370511084795
72.0,0.00807094480842352
80.0,0.007889111526310444
88.0,0.007815133780241013
96.0,0.00798621866852045
104.0,0.008278957568109035
112.0,0.008420457132160664
120.0,0.008076670579612255
128.0,0.00778597965836525
144.0,0.006988446228206158
160.0,0.006108409259468317
176.0,0.005963639821857214
192.0,0.005638004746288061
208.0,0.004921528976410627
224.0,0.0049980683252215385
240.0,0.004625561181455851
256.0,0.0031695147044956684
288.0,0.003154526464641094
320.0,0.003970961086452007
352.0,0.004048298113048077
384.0,0.0023318203166127205
416.0,0.0033073800150305033
448.0,0.0032987322192639112
480.0,0.0018551695393398404
512.0,0.0015098400181159377
576.0,0.0019304959569126368
640.0,0.0013589987065643072
704.0,0.0009670716244727373
768.0,0.0009441756410524249
832.0,-0.00029539389652200043
896.0,0.000934238953050226
960.0,0.002019737148657441
1024.0,0.001643214258365333
1152.0,-0.001733936369419098
1280.0,-0.002586080227047205
1408.0,-0.00042615304118953645
1536.0,-0.0004783779149875045
1664.0,0.00011266491492278874
1792.0,-0.0009276462951675057
1920.0,0.0001901168143376708
2048.0,-0.0016465007793158293
2304.0,-0.0029769381508231163
2560.0,-0.0015157556626945734
2816.0,-0.00010751987429102883
3072.0,2.66255738097243e-05
3328.0,-0.002118912525475025
3584.0,-0.0018854052759706974
3840.0,-0.002302121138200164
4096.0,-0.00228950846940279
4608.0,-0.0005191397503949702
5120.0,-0.0016290199710056186
5632.0,-0.0013399338349699974
6144.0,0.0009204481611959636
6656.0,0.0010468041291460395
7168.0,0.001275168964639306
7680.0,0.0033100333530455828
8192.0,0.0029542387928813696
end
