version,3.0
numOfCh,1
type,point
parent_name,19e3e_0dot4-0dot1
ch_type,1_1
kcount,1
numberNandB,1
brightnessNandB,1
carpet pos,0
pc,0
Time (ms),CH1 Auto-Correlation
1.0,0.028023576363921165
2.0,0.026931138709187508
3.0,0.025902612134814262
4.0,0.02491629868745804
5.0,0.023987922817468643
6.0,0.02313866652548313
7.0,0.022389475256204605
8.0,0.021676259115338326
9.0,0.021049220114946365
10.0,0.02041495405137539
11.0,0.01980798877775669
12.0,0.0192268006503582
13.0,0.01864856667816639
14.0,0.018123803660273552
15.0,0.017611967399716377
16.0,0.01711656153202057
18.0,0.0162016823887825
20.0,0.015353183262050152
22.0,0.014522689394652843
24.0,0.013818977400660515
26.0,0.013188591226935387
28.0,0.012590596452355385
30.0,0.012014969252049923
32.0,0.011549515649676323
36.0,0.010800701566040516
40.0,0.010006223805248737
44.0,0.009209787473082542
48.0,0.008464486338198185
52.0,0.007833407260477543
56.0,0.007294771261513233
60.0,0.006909380201250315
64.0,0.00663210591301322
72.0,0.006171940825879574
80.0,0.005641527473926544
88.0,0.005031364504247904
96.0,0.0045282235369086266
104.0,0.004035239573568106
112.0,0.0035702441819012165
120.0,0.0032642651349306107
128.0,0.002991883549839258
144.0,0.0027138758450746536
160.0,0.00233199680224061
176.0,0.002088795183226466
192.0,0.0016381614841520786
208.0,0.0013673465000465512
224.0,0.0014288520906120539
240.0,0.0013852736447006464
256.0,0.000596411875449121
288.0,-0.00028964411467313766
320.0,-0.0005272565176710486
352.0,-0.0017842046217992902
384.0,-0.0024554880801588297
416.0,-0.0010059054475277662
448.0,7.592865586047992e-05
480.0,0.00025305498274974525
512.0,0.0001503789535490796
576.0,-0.0011036096839234233
640.0,-9.263031097361818e-05
704.0,0.0010699902195483446
768.0,0.0008156897383742034
832.0,0.00034616037737578154
896.0,-0.0009936513379216194
960.0,-0.001210915856063366
1024.0,-0.0014901047106832266
1152.0,-0.0008350145653821528
1280.0,-0.0009968922240659595
1408.0,-0.00034364432212896645
1536.0,-0.0013949600979685783
1664.0,0.0007171804900281131
1792.0,3.579470285330899e-05
1920.0,0.0010962419910356402
2048.0,-0.000565449008718133
2304.0,-0.00029821391217410564
2560.0,0.000805710325948894
2816.0,0.00017205205222126096
3072.0,-0.002302231267094612
3328.0,-0.0010034313891083002
3584.0,-0.0008280645124614239
3840.0,0.0013440934708341956
4096.0,0.002431147499009967
4608.0,8.293962309835479e-05
5120.0,0.0014512486523017287
5632.0,-0.000231767917284742
6144.0,-0.001586719648912549
6656.0,-0.000938317971304059
7168.0,-0.0005802529049105942
7680.0,0.0007734104292467237
8192.0,-0.003178727813065052
end
