version,3.0
numOfCh,1
type,point
parent_name,19e3e_0dot4-0dot1
ch_type,1_1
kcount,1
numberNandB,1
brightnessNandB,1
carpet pos,0
pc,0
Time (ms),CH1 Auto-Correlation
1.0,0.0273347869515419
2.0,0.026054855436086655
3.0,0.02485179901123047
4.0,0.02374167926609516
5.0,0.022867543622851372
6.0,0.0220685712993145
7.0,0.02130492590367794
8.0,0.020562030375003815
9.0,0.01986042968928814
10.0,0.01914840191602707
11.0,0.018467217683792114
12.0,0.017842020839452744
13.0,0.0172224510461092
14.0,0.016633212566375732
15.0,0.016110677272081375
16.0,0.015658196061849594
18.0,0.014822497963905334
20.0,0.014155317097902298
22.0,0.01360253430902958
24.0,0.013179301284253597
26.0,0.012709684669971466
28.0,0.012247605249285698
30.0,0.011809253133833408
32.0,0.011309565976262093
36.0,0.01030348613858223
40.0,0.009434695355594158
44.0,0.008843449875712395
48.0,0.008232965134084225
52.0,0.007824614644050598
56.0,0.007449337746948004
60.0,0.007116492372006178
64.0,0.006696282420307398
72.0,0.00548680080100894
80.0,0.004578026942908764
88.0,0.00393140222877264
96.0,0.0034619085490703583
104.0,0.003073388710618019
112.0,0.0025295745581388474
120.0,0.0019971199799329042
128.0,0.0017903208499774337
144.0,0.0012452896917238832
160.0,0.0013766417978331447
176.0,0.001345727825537324
192.0,0.0014677975559607148
208.0,0.0013005163054913282
224.0,0.001278004958294332
240.0,0.001018042559735477
256.0,0.0004433456342667341
288.0,-0.0010337907588109374
320.0,-0.001656720181927085
352.0,-0.0021059541031718254
384.0,-0.0025847051292657852
416.0,-0.003037119749933481
448.0,-0.002875011879950762
480.0,-0.002615424105897546
512.0,-0.0006892963428981602
576.0,0.0016627692384645343
640.0,0.003356348956003785
704.0,0.002532169921323657
768.0,0.0012511808890849352
832.0,-0.0005944899166934192
896.0,4.314929810789181e-06
960.0,0.0008203089237213135
1024.0,6.90597589709796e-05
1152.0,0.0005133764934726059
1280.0,0.0009419625857844949
1408.0,-0.0015724645927548409
1536.0,-0.0017690153326839209
1664.0,-0.002129611326381564
1792.0,-0.0012844548327848315
1920.0,-0.0010031798155978322
2048.0,-0.00010224809375358745
2304.0,0.0003074292035307735
2560.0,-0.0012908109929412603
2816.0,-0.0008844933472573757
3072.0,-0.0006597895990125835
3328.0,-0.0016227648593485355
3584.0,-0.00030827807495370507
3840.0,0.0001148694209405221
4096.0,0.0008037274819798768
4608.0,0.0005135631654411554
5120.0,0.0005491982446983457
5632.0,-0.0024281160440295935
6144.0,0.0004621187108568847
6656.0,-0.0021761669777333736
7168.0,0.0027196749579161406
7680.0,0.00010416153236292303
8192.0,0.002686781110242009
end
