version,3.0
numOfCh,1
type,point
parent_name,19e3e_0dot4-0dot1
ch_type,1_1
kcount,1
numberNandB,1
brightnessNandB,1
carpet pos,0
pc,0
Time (ms),CH1 Auto-Correlation
1.0,0.03218158707022667
2.0,0.031048819422721863
3.0,0.029996488243341446
4.0,0.029019348323345184
5.0,0.028082072734832764
6.0,0.02721925638616085
7.0,0.026408996433019638
8.0,0.025678161531686783
9.0,0.02497020736336708
10.0,0.024284640327095985
11.0,0.02362731657922268
12.0,0.02297644503414631
13.0,0.022379381582140923
14.0,0.02183304913341999
15.0,0.0213325135409832
16.0,0.020859749987721443
18.0,0.01997806690633297
20.0,0.019170820713043213
22.0,0.018396450206637383
24.0,0.017758361995220184
26.0,0.017174668610095978
28.0,0.01670471765100956
30.0,0.016204778105020523
32.0,0.015716614201664925
36.0,0.014905408024787903
40.0,0.014175538904964924
44.0,0.0133852269500494
48.0,0.012627352960407734
52.0,0.012037026695907116
56.0,0.011584574356675148
60.0,0.011251612566411495
64.0,0.01095434371381998
72.0,0.010433081537485123
80.0,0.010086709633469582
88.0,0.009562768042087555
96.0,0.008578034117817879
104.0,0.007367209997028112
112.0,0.006301202345639467
120.0,0.00556988175958395
128.0,0.0052008479833602905
144.0,0.004558424465358257
160.0,0.003520270576700568
176.0,0.0032741690520197153
192.0,0.002950000576674938
208.0,0.002163865603506565
224.0,0.001482744817622006
240.0,0.0010312239173799753
256.0,0.0008936767117120326
288.0,0.000901702675037086
320.0,0.000789904675912112
352.0,0.0012753711780533195
384.0,0.002092543290928006
416.0,0.0025592579040676355
448.0,0.002476483816280961
480.0,0.0016845209756866097
512.0,0.0021124102640897036
576.0,0.003178790444508195
640.0,0.002495294203981757
704.0,0.0025718864053487778
768.0,0.001444234512746334
832.0,0.0011632787063717842
896.0,0.001608009566552937
960.0,0.0036147863138467073
1024.0,0.005792880896478891
1152.0,0.0047036223113536835
1280.0,0.002137688221409917
1408.0,0.0006822501309216022
1536.0,0.0006617644103243947
1664.0,0.0030556651763617992
1792.0,0.0009278254583477974
1920.0,-0.0008251436520367861
2048.0,-0.000766879238653928
2304.0,0.0005347371916286647
2560.0,-0.000492381863296032
2816.0,0.0010774742113426328
3072.0,-0.00020374487212393433
3328.0,0.002273137914016843
3584.0,-0.0003156402672175318
3840.0,-0.0008359123021364212
4096.0,0.0002509953628759831
4608.0,0.0009103954071179032
5120.0,0.00044675575918518007
5632.0,-0.0013423271011561155
6144.0,-0.0008922634879127145
6656.0,-0.002176066394895315
7168.0,-0.002848249627277255
7680.0,-0.0020659933798015118
8192.0,-0.004008621443063021
end
