version,3.0
numOfCh,1
type,point
parent_name,19e3e_0dot4-0dot1
ch_type,1_1
kcount,1
numberNandB,1
brightnessNandB,1
carpet pos,0
pc,0
Time (ms),CH1 Auto-Correlation
1.0,0.028473183512687683
2.0,0.027418268844485283
3.0,0.02641979791224003
4.0,0.025479741394519806
5.0,0.024576479569077492
6.0,0.023767704144120216
7.0,0.02300899289548397
8.0,0.022286923602223396
9.0,0.021613845601677895
10.0,0.0209682397544384
11.0,0.02036787010729313
12.0,0.019821466878056526
13.0,0.01929357647895813
14.0,0.018800482153892517
15.0,0.018351174890995026
16.0,0.017906753346323967
18.0,0.017023621127009392
20.0,0.016228698194026947
22.0,0.015527517534792423
24.0,0.01486731693148613
26.0,0.014243796467781067
28.0,0.01367956679314375
30.0,0.013166142627596855
32.0,0.012644940055906773
36.0,0.011697536334395409
40.0,0.010804492980241776
44.0,0.010029837489128113
48.0,0.00949815008789301
52.0,0.009058077819645405
56.0,0.008764288388192654
60.0,0.008488202467560768
64.0,0.008136660791933537
72.0,0.007395180873572826
80.0,0.006994384806603193
88.0,0.006902908440679312
96.0,0.00695806322619319
104.0,0.00673891743645072
112.0,0.00650011096149683
120.0,0.006171871442347765
128.0,0.005746031180024147
144.0,0.005182807799428701
160.0,0.005044491495937109
176.0,0.0052044023759663105
192.0,0.005398191511631012
208.0,0.005211869720369577
224.0,0.004844880197197199
240.0,0.0041985963471233845
256.0,0.0035346951335668564
288.0,0.003607827005907893
320.0,0.004851950332522392
352.0,0.003604621859267354
384.0,0.0037992498837411404
416.0,0.004132780712097883
448.0,0.004125201143324375
480.0,0.004225819371640682
512.0,0.002771083964034915
576.0,0.0025318937841802835
640.0,0.001864675316028297
704.0,0.0008292072452604771
768.0,0.0010786311468109488
832.0,0.0017278343439102173
896.0,0.0009083612821996212
960.0,-7.399529567919672e-05
1024.0,-0.0007928253035061061
1152.0,-0.0003839554847218096
1280.0,-0.001263630110770464
1408.0,-0.0004890125128440559
1536.0,-0.0007006362429820001
1664.0,-0.0015436267713084817
1792.0,0.000792639038991183
1920.0,0.00043477548751980066
2048.0,0.000353311188519001
2304.0,-0.0006809794576838613
2560.0,-0.0006799720576964319
2816.0,-0.0006056748679839075
3072.0,-9.990244143409654e-05
3328.0,-0.0007610552129335701
3584.0,-0.0011120096314698458
3840.0,-0.0016542532248422503
4096.0,-0.0005660764873027802
4608.0,-0.0016880456823855639
5120.0,0.001423829817213118
5632.0,0.0011042209807783365
6144.0,0.0005002440302632749
6656.0,-0.004447293933480978
7168.0,-0.0032115827780216932
7680.0,-0.002120399149134755
8192.0,0.0018650315469130874
end
