version,3.0
numOfCh,1
type,point
parent_name,19e3e_0dot4-0dot1
ch_type,1_1
kcount,1
numberNandB,1
brightnessNandB,1
carpet pos,0
pc,0
Time (ms),CH1 Auto-Correlation
1.0,0.02842426858842373
2.0,0.0273740217089653
3.0,0.02640675939619541
4.0,0.025537701323628426
5.0,0.024747181683778763
6.0,0.02400108613073826
7.0,0.023316383361816406
8.0,0.022675981745123863
9.0,0.022055473178625107
10.0,0.021482480689883232
11.0,0.020876536145806313
12.0,0.020319471135735512
13.0,0.01978997141122818
14.0,0.019321592524647713
15.0,0.018868079409003258
16.0,0.018440475687384605
18.0,0.017668630927801132
20.0,0.01695333980023861
22.0,0.01623963564634323
24.0,0.015561733394861221
26.0,0.014945435337722301
28.0,0.014387409202754498
30.0,0.013891128823161125
32.0,0.013462121598422527
36.0,0.012596816755831242
40.0,0.011735836043953896
44.0,0.010933003388345242
48.0,0.010102719999849796
52.0,0.009384597651660442
56.0,0.008797350339591503
60.0,0.008282789960503578
64.0,0.007839197292923927
72.0,0.007042372599244118
80.0,0.00644749216735363
88.0,0.006028543692082167
96.0,0.0059076049365103245
104.0,0.005848970729857683
112.0,0.005750384647399187
120.0,0.005316303111612797
128.0,0.004948503337800503
144.0,0.0043708207085728645
160.0,0.0035753927659243345
176.0,0.0032446321565657854
192.0,0.0027139647863805294
208.0,0.0018329706508666277
224.0,0.0006914488039910793
240.0,-0.0003201159124728292
256.0,-0.00023246831551659852
288.0,-0.0003138566098641604
320.0,0.0005712680867873132
352.0,0.0008778075571171939
384.0,0.00033806843566708267
416.0,-5.689328827429563e-05
448.0,-0.0011322678765282035
480.0,-0.001375868683680892
512.0,-0.0006681674858555198
576.0,-0.0017746269004419446
640.0,-0.0013806300703436136
704.0,0.0005228290683589876
768.0,0.00011105808516731486
832.0,0.00045298345503397286
896.0,0.0003800837730523199
960.0,0.00023434734612237662
1024.0,0.0002862358815036714
1152.0,0.0012879993300884962
1280.0,-5.6806355132721364e-05
1408.0,-0.0009995850268751383
1536.0,-0.0029029236175119877
1664.0,-0.002327446360141039
1792.0,-0.0007845450891181827
1920.0,0.0011675346177071333
2048.0,-0.0008216953719966114
2304.0,1.2678662642429117e-05
2560.0,-0.0012190262787044048
2816.0,-0.003732477081939578
3072.0,-1.0638728781486861e-05
3328.0,0.0015759130474179983
3584.0,-0.000624784966930747
3840.0,0.00013919503544457257
4096.0,-0.0011871879687532783
4608.0,0.00024228393158409745
5120.0,0.0012719111982733011
5632.0,0.0006580183398909867
6144.0,-0.0008814134635031223
6656.0,-0.0018588937819004059
7168.0,0.0001032451109495014
7680.0,-0.0015331050381064415
8192.0,0.003205064684152603
end
