version,3.0
numOfCh,1
type,point
parent_name,19e3e_0dot4-0dot1
ch_type,1_1
kcount,1
numberNandB,1
brightnessNandB,1
carpet pos,0
pc,0
Time (ms),CH1 Auto-Correlation
1.0,0.03544965386390686
2.0,0.03433733060956001
3.0,0.03327794745564461
4.0,0.032306425273418427
5.0,0.03141617402434349
6.0,0.030561229214072227
7.0,0.02974410355091095
8.0,0.028989413753151894
9.0,0.02828151360154152
10.0,0.027630742639303207
11.0,0.02702629752457142
12.0,0.02642730437219143
13.0,0.025821739807724953
14.0,0.025243496522307396
15.0,0.024725381284952164
16.0,0.024248935282230377
18.0,0.02331024594604969
20.0,0.022412441670894623
22.0,0.02153579704463482
24.0,0.020653540268540382
26.0,0.01975274831056595
28.0,0.018908951431512833
30.0,0.018152834847569466
32.0,0.017560094594955444
36.0,0.01657993718981743
40.0,0.01575261354446411
44.0,0.015073084272444248
48.0,0.014387981034815311
52.0,0.013725104741752148
56.0,0.013092595152556896
60.0,0.012559176422655582
64.0,0.011998805217444897
72.0,0.01072111539542675
80.0,0.009472403675317764
88.0,0.008759099058806896
96.0,0.008494635112583637
104.0,0.00825152825564146
112.0,0.008128718473017216
120.0,0.00844406895339489
128.0,0.008735747076570988
144.0,0.007936584763228893
160.0,0.007242274470627308
176.0,0.007599958684295416
192.0,0.008098208345472813
208.0,0.008284181356430054
224.0,0.008253495208919048
240.0,0.007615497335791588
256.0,0.006753509398549795
288.0,0.005658288486301899
320.0,0.004689375404268503
352.0,0.004604432266205549
384.0,0.0038679721765220165
416.0,0.002611857373267412
448.0,0.001747962087392807
480.0,0.0008392189629375935
512.0,2.314879748155363e-05
576.0,0.0006759173120371997
640.0,-0.000563904526643455
704.0,-0.0013874229043722153
768.0,-0.0018989605596289039
832.0,-0.001771131413988769
896.0,-0.003379165893420577
960.0,-0.0022283054422587156
1024.0,-0.0013877542223781347
1152.0,0.0017692088149487972
1280.0,0.0018116503488272429
1408.0,0.0031651805620640516
1536.0,0.0039240289479494095
1664.0,0.004804613068699837
1792.0,0.0029624400194734335
1920.0,0.0018299806397408247
2048.0,-0.00011879346857313067
2304.0,-0.0012373715871945024
2560.0,-0.0012395571684464812
2816.0,-0.001270929235033691
3072.0,-0.0009632453438825905
3328.0,-0.0008684438653290272
3584.0,-0.0012614295119419694
3840.0,-0.0029136904049664736
4096.0,-0.0020551204215735197
4608.0,-0.0013650677865371108
5120.0,-0.0038267967756837606
5632.0,-0.006057234946638346
6144.0,-0.0018048797501251101
6656.0,-0.0021993624977767467
7168.0,-0.004175378940999508
7680.0,-0.001568906824104488
8192.0,0.0029354714788496494
end
