version,3.0
numOfCh,1
type,point
parent_name,19e3e_0dot4-0dot1
ch_type,1_1
kcount,1
numberNandB,1
brightnessNandB,1
carpet pos,0
pc,0
Time (ms),CH1 Auto-Correlation
1.0,0.03322703018784523
2.0,0.032060425728559494
3.0,0.031003884971141815
4.0,0.029989516362547874
5.0,0.029003946110606194
6.0,0.028083642944693565
7.0,0.027262123301625252
8.0,0.026471663266420364
9.0,0.025739451870322227
10.0,0.02506907284259796
11.0,0.024379393085837364
12.0,0.023695185780525208
13.0,0.023060349747538567
14.0,0.02246210351586342
15.0,0.02189120091497898
16.0,0.021368391811847687
18.0,0.020380064845085144
20.0,0.019435497000813484
22.0,0.018570639193058014
24.0,0.01782066933810711
26.0,0.01715874671936035
28.0,0.016530022025108337
30.0,0.01593654975295067
32.0,0.015383116900920868
36.0,0.01434735581278801
40.0,0.013309959322214127
44.0,0.012506552040576935
48.0,0.01200295053422451
52.0,0.011726027354598045
56.0,0.011545351706445217
60.0,0.011557837948203087
64.0,0.011430968530476093
72.0,0.011163058690726757
80.0,0.010826276615262032
88.0,0.010097457095980644
96.0,0.00923171266913414
104.0,0.008271628990769386
112.0,0.007451361510902643
120.0,0.006758369505405426
128.0,0.006337611936032772
144.0,0.006072395481169224
160.0,0.006013424601405859
176.0,0.005940243601799011
192.0,0.0049151587300002575
208.0,0.004029248375445604
224.0,0.0033990805968642235
240.0,0.003988685552030802
256.0,0.0042906999588012695
288.0,0.003765435889363289
320.0,0.0027289141435176134
352.0,0.001679972279816866
384.0,0.00023109516769181937
416.0,-0.0003311678010504693
448.0,-0.0021557819563895464
480.0,-0.0025313636288046837
512.0,-0.00203143572434783
576.0,-0.0018072802340611815
640.0,-0.0024753324687480927
704.0,-0.0023786735255271196
768.0,-0.0033420727122575045
832.0,-0.0015898137353360653
896.0,-0.0024380118120461702
960.0,-0.002968846820294857
1024.0,-0.004723262507468462
1152.0,-0.0018364808056503534
1280.0,-0.0025065415538847446
1408.0,0.0006653168820776045
1536.0,0.0002974839007947594
1664.0,-0.0013604153646156192
1792.0,0.0001346477511106059
1920.0,-0.0010873764986172318
2048.0,0.001311201136559248
2304.0,0.0028740051202476025
2560.0,0.0013114347821101546
2816.0,-0.0017858304781839252
3072.0,-0.0012292161118239164
3328.0,0.000628618523478508
3584.0,8.04463925305754e-05
3840.0,-0.00023305241484194994
4096.0,0.0006015949766151607
4608.0,-0.00045748642878606915
5120.0,-0.0006838960689492524
5632.0,-0.0009042518213391304
6144.0,0.0024436579551547766
6656.0,0.0009630979038774967
7168.0,-0.0006700477679260075
7680.0,-0.003926178440451622
8192.0,0.0008424465777352452
end
