version,3.0
numOfCh,1
type,point
parent_name,19e3e_0dot4-0dot1
ch_type,1_1
kcount,1
numberNandB,1
brightnessNandB,1
carpet pos,0
pc,0
Time (ms),CH1 Auto-Correlation
1.0,0.030112463980913162
2.0,0.02901630476117134
3.0,0.02801400050520897
4.0,0.027072781696915627
5.0,0.026162611320614815
6.0,0.025343971326947212
7.0,0.024551058188080788
8.0,0.02381107211112976
9.0,0.023096222430467606
10.0,0.022438721731305122
11.0,0.021833697333931923
12.0,0.021239491179585457
13.0,0.02067294903099537
14.0,0.020166810601949692
15.0,0.019674889743328094
16.0,0.019204234704375267
18.0,0.018401319161057472
20.0,0.017697114497423172
22.0,0.017112605273723602
24.0,0.016546666622161865
26.0,0.015979619696736336
28.0,0.015459701418876648
30.0,0.015038266777992249
32.0,0.01462261937558651
36.0,0.013763288967311382
40.0,0.012907618656754494
44.0,0.012221784330904484
48.0,0.011701857671141624
52.0,0.0112755186855793
56.0,0.010754674673080444
60.0,0.010125262662768364
64.0,0.009521394036710262
72.0,0.00882281456142664
80.0,0.008064731024205685
88.0,0.007215168327093124
96.0,0.006440628785640001
104.0,0.005917428992688656
112.0,0.0056248614564538
120.0,0.005658037960529327
128.0,0.00579191604629159
144.0,0.00546642392873764
160.0,0.004793541040271521
176.0,0.004568623844534159
192.0,0.004061683546751738
208.0,0.004351514857262373
224.0,0.004672088194638491
240.0,0.005000894423574209
256.0,0.004792314954102039
288.0,0.00459689786657691
320.0,0.003944045398384333
352.0,0.0036941715516149998
384.0,0.003193491604179144
416.0,0.002879103645682335
448.0,0.0024069189094007015
480.0,0.002451947657391429
512.0,0.0017576358513906598
576.0,0.0005308827385306358
640.0,-0.000688226951751858
704.0,-0.001758504076860845
768.0,-0.0017599049024283886
832.0,-0.0021842101123183966
896.0,-0.002569223754107952
960.0,-0.004008457995951176
1024.0,-0.0027692082803696394
1152.0,-0.003902808530256152
1280.0,-0.0026905036065727472
1408.0,-0.0018323533004149795
1536.0,-0.0009491594973951578
1664.0,-0.0011232479009777308
1792.0,-9.333916386822239e-05
1920.0,0.0004411087720654905
2048.0,-0.0007903714431449771
2304.0,0.0008365675457753241
2560.0,-0.00064430246129632
2816.0,-0.0006963049527257681
3072.0,-0.002222270704805851
3328.0,-0.00023490872990805656
3584.0,-0.000510071637108922
3840.0,0.0011017812648788095
4096.0,0.001003818935714662
4608.0,0.0012216635514050722
5120.0,7.075531175360084e-05
5632.0,-0.001977387582883239
6144.0,-0.0016032292041927576
6656.0,0.0025253347121179104
7168.0,0.0017795420717447996
7680.0,-0.0007694312953390181
8192.0,-0.000843734247609973
end
