version,3.0
numOfCh,1
type,point
parent_name,19e3e_0dot4-0dot1
ch_type,1_1
kcount,1
numberNandB,1
brightnessNandB,1
carpet pos,0
pc,0
Time (ms),CH1 Auto-Correlation
1.0,0.03214896470308304
2.0,0.031091660261154175
3.0,0.030119283124804497
4.0,0.029245391488075256
5.0,0.028415462002158165
6.0,0.02762814611196518
7.0,0.02685701474547386
8.0,0.026121914386749268
9.0,0.025409309193491936
10.0,0.024756712839007378
11.0,0.02414443902671337
12.0,0.023569893091917038
13.0,0.023025857284665108
14.0,0.022484125569462776
15.0,0.021982410922646523
16.0,0.021482113748788834
18.0,0.020534243434667587
20.0,0.019700609147548676
22.0,0.018913382664322853
24.0,0.018163323402404785
26.0,0.01743132248520851
28.0,0.016734465956687927
30.0,0.016169698908925056
32.0,0.015616417862474918
36.0,0.01462646760046482
40.0,0.01370945479720831
44.0,0.01288987509906292
48.0,0.012256249785423279
52.0,0.01164489146322012
56.0,0.011005270294845104
60.0,0.01039121299982071
64.0,0.00998331792652607
72.0,0.009134219028055668
80.0,0.00867803767323494
88.0,0.008216187357902527
96.0,0.007686569355428219
104.0,0.007502155844122171
112.0,0.007749858312308788
120.0,0.008099435828626156
128.0,0.008001081645488739
144.0,0.007696913089603186
160.0,0.00669215340167284
176.0,0.006283383816480637
192.0,0.005740834400057793
208.0,0.004667139146476984
224.0,0.004015046171844006
240.0,0.003994357772171497
256.0,0.004068664275109768
288.0,0.0022797859273850918
320.0,0.0008167953928932548
352.0,0.0008573456434533
384.0,0.002533384133130312
416.0,0.00324513902887702
448.0,0.003656699787825346
480.0,0.00316328345797956
512.0,0.002495706779882312
576.0,0.002696321113035083
640.0,0.0015286942943930626
704.0,0.001551634049974382
768.0,0.000594041426666081
832.0,-8.685703505761921e-05
896.0,-0.0011193042155355215
960.0,-0.0005570873036049306
1024.0,0.0005042329430580139
1152.0,-0.0005587435443885624
1280.0,-0.0005537934484891593
1408.0,-0.0011929853353649378
1536.0,-0.0009586451342329383
1664.0,9.485821647103876e-05
1792.0,0.0006392640643753111
1920.0,-0.00018648133845999837
2048.0,-0.0013595630880445242
2304.0,-0.001461615669541061
2560.0,-0.0014867171412333846
2816.0,0.0004199209506623447
3072.0,0.0003632504085544497
3328.0,-0.0004117088974453509
3584.0,-0.0020903313998132944
3840.0,-0.0032536962535232306
4096.0,-0.0034609183203428984
4608.0,-0.0007405977230519056
5120.0,0.0008640760206617415
5632.0,0.00021548455697484314
6144.0,0.0016760807484388351
6656.0,-0.0013115971814841032
7168.0,-0.0002755795430857688
7680.0,0.003635319182649255
8192.0,0.001710244221612811
end
