version,3.0
numOfCh,1
type,point
parent_name,19e3e_0dot4-0dot1
ch_type,1_1
kcount,1
numberNandB,1
brightnessNandB,1
carpet pos,0
pc,0
Time (ms),CH1 Auto-Correlation
1.0,0.03408125042915344
2.0,0.03296985849738121
3.0,0.031970176845788956
4.0,0.031069809570908546
5.0,0.030232129618525505
6.0,0.02944185584783554
7.0,0.028678439557552338
8.0,0.02797149121761322
9.0,0.027280105277895927
10.0,0.026600345969200134
11.0,0.02595539018511772
12.0,0.025337275117635727
13.0,0.02469167485833168
14.0,0.024098586291074753
15.0,0.02354106679558754
16.0,0.023041747510433197
18.0,0.022105781361460686
20.0,0.021240871399641037
22.0,0.02046526037156582
24.0,0.01976916566491127
26.0,0.019128765910863876
28.0,0.018569912761449814
30.0,0.01804882287979126
32.0,0.01757775992155075
36.0,0.01671571098268032
40.0,0.01598326489329338
44.0,0.015328528359532356
48.0,0.014758223667740822
52.0,0.014308194629848003
56.0,0.013878541998565197
60.0,0.013535424135625362
64.0,0.013051358051598072
72.0,0.011823516339063644
80.0,0.010741091333329678
88.0,0.00995360966771841
96.0,0.009535415098071098
104.0,0.009496340528130531
112.0,0.009464231319725513
120.0,0.009379692375659943
128.0,0.009212377481162548
144.0,0.008093154989182949
160.0,0.007543779443949461
176.0,0.007413249928504229
192.0,0.007052054163068533
208.0,0.007661136798560619
224.0,0.007923540659248829
240.0,0.007841460406780243
256.0,0.007590736262500286
288.0,0.006014608778059483
320.0,0.00494500994682312
352.0,0.003875566180795431
384.0,0.002941334620118141
416.0,0.0013920693891122937
448.0,0.0017361842328682542
480.0,0.0030928596388548613
512.0,0.0032509788870811462
576.0,0.003937814384698868
640.0,0.0019031781703233719
704.0,0.0017075177747756243
768.0,0.0027251860592514277
832.0,0.0033601762261241674
896.0,0.0024186831433326006
960.0,0.0013504178496077657
1024.0,0.0013107411796227098
1152.0,-0.00177201465703547
1280.0,-0.0031988807022571564
1408.0,-0.0022915510926395655
1536.0,-0.0007583575206808746
1664.0,0.00040341957355849445
1792.0,-0.0021159700118005276
1920.0,-0.0037137281615287066
2048.0,-0.003429888281971216
2304.0,-0.0022728675976395607
2560.0,-0.001002929056994617
2816.0,-0.0026013783644884825
3072.0,-0.0010215169750154018
3328.0,-0.0016743377782404423
3584.0,-0.002977789845317602
3840.0,-0.003389592980965972
4096.0,-0.00025929059484042227
4608.0,-0.001411575940437615
5120.0,-0.0014221706660464406
5632.0,-6.068266156944446e-05
6144.0,0.0016151481540873647
6656.0,0.0005905293510295451
7168.0,0.0009899884462356567
7680.0,0.0036739404313266277
8192.0,0.0022046228405088186
end
