version,3.0
numOfCh,1
type,point
parent_name,19e3e_0dot4-0dot1
ch_type,1_1
kcount,1
numberNandB,1
brightnessNandB,1
carpet pos,0
pc,0
Time (ms),CH1 Auto-Correlation
1.0,0.031047135591506958
2.0,0.030001139268279076
3.0,0.029027733951807022
4.0,0.028105303645133972
5.0,0.02723623625934124
6.0,0.02641485258936882
7.0,0.025644270703196526
8.0,0.024934956803917885
9.0,0.024261457845568657
10.0,0.02360517345368862
11.0,0.02294999547302723
12.0,0.022360175848007202
13.0,0.021817225962877274
14.0,0.021293865516781807
15.0,0.0208056028932333
16.0,0.020361069589853287
18.0,0.019539956003427505
20.0,0.018759798258543015
22.0,0.017986200749874115
24.0,0.01724422350525856
26.0,0.016586415469646454
28.0,0.015978025272488594
30.0,0.015388928353786469
32.0,0.014885803684592247
36.0,0.014051927253603935
40.0,0.013258506543934345
44.0,0.012493573129177094
48.0,0.01168073620647192
52.0,0.010902082547545433
56.0,0.010221384465694427
60.0,0.009598457254469395
64.0,0.009104164317250252
72.0,0.008640243671834469
80.0,0.008494867011904716
88.0,0.008335651829838753
96.0,0.00792183168232441
104.0,0.00720895966514945
112.0,0.006554086226969957
120.0,0.005835257470607758
128.0,0.005279911682009697
144.0,0.004142868332564831
160.0,0.00353313609957695
176.0,0.003278419142588973
192.0,0.0028779879212379456
208.0,0.0025474412832409143
224.0,0.0022810311056673527
240.0,0.002159054856747389
256.0,0.0014534093206748366
288.0,0.001747919712215662
320.0,0.00035403596120886505
352.0,0.0009925474878400564
384.0,0.0019115718314424157
416.0,0.0017628383357077837
448.0,0.001069181482307613
480.0,-0.0002465874422341585
512.0,-3.3074702514568344e-05
576.0,0.0006656999466940761
640.0,0.0011557162506505847
704.0,7.709879719186574e-05
768.0,0.0014765888918191195
832.0,0.0018637928878888488
896.0,-0.0007802099571563303
960.0,-0.001572761801071465
1024.0,-0.0013916019815951586
1152.0,-0.0021411902271211147
1280.0,0.0001429661933798343
1408.0,0.000526847958099097
1536.0,-0.00046843604650348425
1664.0,-0.0013686463935300708
1792.0,-0.0028982600197196007
1920.0,-0.0034215529449284077
2048.0,-0.001975964056327939
2304.0,0.0007955640321597457
2560.0,0.00023151881759986281
2816.0,0.0005962315481156111
3072.0,-0.00046793525689281523
3328.0,-0.000646710570435971
3584.0,-0.000336674798745662
3840.0,-0.0017534818034619093
4096.0,-0.000769435428082943
4608.0,-0.0005584669415839016
5120.0,-0.0010853756684809923
5632.0,-0.00029965053545311093
6144.0,-0.00016789778601378202
6656.0,-0.0011691906256601214
7168.0,-0.00022356471163220704
7680.0,0.0029065485578030348
8192.0,0.0031066101510077715
end
