version,3.0
numOfCh,1
type,point
parent_name,19e3e_0dot4-0dot1
ch_type,1_1
kcount,1
numberNandB,1
brightnessNandB,1
carpet pos,0
pc,0
Time (ms),CH1 Auto-Correlation
1.0,0.03285535052418709
2.0,0.031679097563028336
3.0,0.03059776872396469
4.0,0.029598193243145943
5.0,0.02865837700664997
6.0,0.027761531993746758
7.0,0.026910478249192238
8.0,0.02608439326286316
9.0,0.02528093382716179
10.0,0.024519268423318863
11.0,0.023746944963932037
12.0,0.023027578368782997
13.0,0.022365303710103035
14.0,0.021705832332372665
15.0,0.021095817908644676
16.0,0.020513001829385757
18.0,0.019476331770420074
20.0,0.018537268042564392
22.0,0.017652953043580055
24.0,0.016853000968694687
26.0,0.01604953221976757
28.0,0.015337041579186916
30.0,0.014607871882617474
32.0,0.013971167616546154
36.0,0.012927426025271416
40.0,0.01198342815041542
44.0,0.011057949624955654
48.0,0.01015632413327694
52.0,0.009355968795716763
56.0,0.008760707452893257
60.0,0.008318845182657242
64.0,0.007990650832653046
72.0,0.007184079382568598
80.0,0.006373144220560789
88.0,0.0055886986665427685
96.0,0.004899098537862301
104.0,0.004393966402858496
112.0,0.0043063038028776646
120.0,0.004563674330711365
128.0,0.00520399771630764
144.0,0.005192325916141272
160.0,0.0049646892584860325
176.0,0.005210254341363907
192.0,0.0052887932397425175
208.0,0.004724821541458368
224.0,0.003425917588174343
240.0,0.0025044416543096304
256.0,0.0018322252435609698
288.0,0.0007609238964505494
320.0,0.001208639470860362
352.0,0.002993955509737134
384.0,0.0035235127434134483
416.0,0.0014438411453738809
448.0,0.000249632605118677
480.0,5.630467785522342e-05
512.0,5.528491328732343e-06
576.0,0.0027660534251481295
640.0,0.00278008752502501
704.0,0.0030147377401590347
768.0,0.002459377981722355
832.0,0.0012322815600782633
896.0,0.000422468816395849
960.0,-6.774323992431164e-05
1024.0,-0.0002267870877403766
1152.0,-0.0017975692171603441
1280.0,-0.0005897376104258001
1408.0,-0.003484258893877268
1536.0,-0.0007941657095216215
1664.0,-0.0004634599026758224
1792.0,-0.00040060208993963897
1920.0,-0.00048120642895810306
2048.0,-0.001803197548724711
2304.0,0.000983302015811205
2560.0,0.002071852795779705
2816.0,0.0023147156462073326
3072.0,-0.0004125226696487516
3328.0,0.00017405407561454922
3584.0,-3.590626147342846e-05
3840.0,-0.0009300332167185843
4096.0,-0.0014845231780782342
4608.0,-0.002437417395412922
5120.0,-0.0021685115061700344
5632.0,-0.0012578952591866255
6144.0,-0.0008078007376752794
6656.0,0.0032318136654794216
7168.0,-0.005176167469471693
7680.0,-0.005283822771161795
8192.0,-0.004111954011023045
end
