version,3.0
numOfCh,1
type,point
parent_name,0cd20_0dot4-0dot01
ch_type,1_1
kcount,1
numberNandB,1
brightnessNandB,1
carpet pos,0
pc,0
Time (ms),CH1 Auto-Correlation
1.0,0.034227240830659866
2.0,0.03303147852420807
3.0,0.03190957382321358
4.0,0.030846768990159035
5.0,0.029866306111216545
6.0,0.028952866792678833
7.0,0.028087109327316284
8.0,0.02727605774998665
9.0,0.0265368539839983
10.0,0.025845369324088097
11.0,0.025174804031848907
12.0,0.024544868618249893
13.0,0.023922957479953766
14.0,0.023326437920331955
15.0,0.022736286744475365
16.0,0.02215300127863884
18.0,0.021043715998530388
20.0,0.02000996842980385
22.0,0.01904449798166752
24.0,0.018132122233510017
26.0,0.01729089580476284
28.0,0.016519267112016678
30.0,0.015832092612981796
32.0,0.01522274874150753
36.0,0.014149467460811138
40.0,0.013181482441723347
44.0,0.012380643747746944
48.0,0.011594426818192005
52.0,0.010854719206690788
56.0,0.010014673694968224
60.0,0.009346929378807545
64.0,0.008757966570556164
72.0,0.007943791337311268
80.0,0.007454199716448784
88.0,0.007326675113290548
96.0,0.007417344953864813
104.0,0.007283465005457401
112.0,0.006885024718940258
120.0,0.006361626088619232
128.0,0.005987256765365601
144.0,0.0049659782089293
160.0,0.005032009445130825
176.0,0.005122292786836624
192.0,0.005146430805325508
208.0,0.004703905899077654
224.0,0.0035135112702846527
240.0,0.0030667090322822332
256.0,0.002516378415748477
288.0,0.002703046193346381
320.0,0.003134296042844653
352.0,0.0028429769445210695
384.0,0.00337428436614573
416.0,0.0034267413429915905
448.0,0.0023475128691643476
480.0,0.0002618267899379134
512.0,-0.0011029369197785854
576.0,-0.0009723126422613859
640.0,0.00010018335160566494
704.0,0.0002184929617214948
768.0,0.0001424710644641891
832.0,0.0019936824683099985
896.0,-0.0007840730831958354
960.0,-0.002799809677526355
1024.0,-0.0014960935804992914
1152.0,-0.0013784714974462986
1280.0,-0.0019024212379008532
1408.0,0.0002465482393745333
1536.0,0.0006667572306469083
1664.0,-0.0003671171725727618
1792.0,0.001980979461222887
1920.0,0.003945457749068737
2048.0,0.0019406112842261791
2304.0,0.0018344609998166561
2560.0,-0.001061882241629064
2816.0,0.0015430798521265388
3072.0,0.00043996376916766167
3328.0,-0.0010645481524989009
3584.0,-0.002597481245175004
3840.0,-0.0016476924065500498
4096.0,-0.0002935637312475592
4608.0,-0.00106741301715374
5120.0,-0.00016569426225032657
5632.0,-5.5135510592663195e-06
6144.0,-0.0008345557143911719
6656.0,-0.001708561205305159
7168.0,-0.0003670454607345164
7680.0,0.0021135746501386166
8192.0,2.651120666996576e-05
end
