version,3.0
numOfCh,1
type,point
parent_name,0cd20_0dot4-0dot01
ch_type,1_1
kcount,1
numberNandB,1
brightnessNandB,1
carpet pos,0
pc,0
Time (ms),CH1 Auto-Correlation
1.0,0.025352327153086662
2.0,0.024208687245845795
3.0,0.023118898272514343
4.0,0.0221386905759573
5.0,0.021301748231053352
6.0,0.02053951285779476
7.0,0.01982714980840683
8.0,0.019116714596748352
9.0,0.018466655164957047
10.0,0.017782561480998993
11.0,0.01711905002593994
12.0,0.016485143452882767
13.0,0.015893608331680298
14.0,0.01532887015491724
15.0,0.014812096953392029
16.0,0.014311063103377819
18.0,0.01326574943959713
20.0,0.012372481636703014
22.0,0.011565236374735832
24.0,0.010786528699100018
26.0,0.010084458626806736
28.0,0.00942971557378769
30.0,0.008857546374201775
32.0,0.008344022557139397
36.0,0.007537674158811569
40.0,0.006699594669044018
44.0,0.005995763931423426
48.0,0.005340907722711563
52.0,0.004542649257928133
56.0,0.0036747779231518507
60.0,0.0029733956325799227
64.0,0.002348518231883645
72.0,0.001635698601603508
80.0,0.0009301251266151667
88.0,0.0004475312598515302
96.0,0.00037535926094278693
104.0,0.0005116103566251695
112.0,0.0006330906180664897
120.0,0.0008771980064921081
128.0,0.000776643690187484
144.0,-0.00038839250919409096
160.0,-0.002478205831721425
176.0,-0.0030479750130325556
192.0,-0.0027530030347406864
208.0,-0.002720859833061695
224.0,-0.0016007828526198864
240.0,-0.0010406069923192263
256.0,-0.0015477639390155673
288.0,-0.0012949028750881553
320.0,-0.0013659389223903418
352.0,-0.001195005839690566
384.0,-0.0003671232261694968
416.0,-0.0006676104385405779
448.0,-0.0007292494992725551
480.0,-0.0007138787768781185
512.0,0.0013843690976500511
576.0,0.00037587221595458686
640.0,0.00010464319348102435
704.0,0.0009311322355642915
768.0,0.000530851015355438
832.0,-0.001807916210964322
896.0,-0.0012322209076955914
960.0,-0.001908299745991826
1024.0,-0.0010449397377669811
1152.0,-0.0021451693028211594
1280.0,-0.001033264328725636
1408.0,0.0006656205514445901
1536.0,0.0023721475154161453
1664.0,-0.0013927231775596738
1792.0,0.0002935079101007432
1920.0,0.001958913868293166
2048.0,0.002382606500759721
2304.0,-0.000717759772669524
2560.0,0.00029582902789115906
2816.0,-0.001459490624256432
3072.0,-0.0015910528600215912
3328.0,7.626861588505562e-06
3584.0,0.0007256761309690773
3840.0,0.0014952649362385273
4096.0,-0.000965550250839442
end
