version,3.0
numOfCh,1
type,point
parent_name,0cd20_0dot4-0dot01
ch_type,1_1
kcount,1
numberNandB,1
brightnessNandB,1
carpet pos,0
pc,0
Time (ms),CH1 Auto-Correlation
1.0,0.03933628648519516
2.0,0.038204375654459
3.0,0.03715977817773819
4.0,0.036166150122880936
5.0,0.035247620195150375
6.0,0.0343921035528183
7.0,0.03358420729637146
8.0,0.0327843502163887
9.0,0.03204625844955444
10.0,0.0313439667224884
11.0,0.030703699216246605
12.0,0.03005170077085495
13.0,0.029422756284475327
14.0,0.02882491424679756
15.0,0.02827390842139721
16.0,0.027764655649662018
18.0,0.026818323880434036
20.0,0.02592460997402668
22.0,0.025096450001001358
24.0,0.02429273910820484
26.0,0.02359101176261902
28.0,0.022937225177884102
30.0,0.022342827171087265
32.0,0.02174963802099228
36.0,0.020820170640945435
40.0,0.020045867189764977
44.0,0.01918114349246025
48.0,0.018295781686902046
52.0,0.017473842948675156
56.0,0.01685328222811222
60.0,0.01619037613272667
64.0,0.015597410500049591
72.0,0.01485747005790472
80.0,0.014252431690692902
88.0,0.013597884215414524
96.0,0.013087543658912182
104.0,0.012568054720759392
112.0,0.012266258709132671
120.0,0.011825425550341606
128.0,0.011149141937494278
144.0,0.010546975769102573
160.0,0.009932918474078178
176.0,0.00924330111593008
192.0,0.008399504236876965
208.0,0.0076049380004405975
224.0,0.006956593599170446
240.0,0.00575217604637146
256.0,0.004998988471925259
288.0,0.004438047297298908
320.0,0.003035999136045575
352.0,0.0019683262798935175
384.0,0.001537491800263524
416.0,0.0007043769583106041
448.0,-0.0007240745471790433
480.0,-0.002491791034117341
512.0,-0.003771135350689292
576.0,-0.0035987072624266148
640.0,-0.004927266389131546
704.0,-0.004392470233142376
768.0,-0.005156584549695253
832.0,-0.004990291781723499
896.0,-0.0030292135197669268
960.0,-0.004227999597787857
1024.0,-0.0023083786945790052
1152.0,-0.0012985828798264265
1280.0,0.0011267800582572818
1408.0,0.005274202674627304
1536.0,0.0020247071515768766
1664.0,0.0012902281014248729
1792.0,-0.0009655429166741669
1920.0,-0.000279624160612002
2048.0,-0.0005595618858933449
2304.0,-0.0031214917544275522
2560.0,0.0010287188924849033
2816.0,0.004649200942367315
3072.0,0.0007809366215951741
3328.0,-0.0005889594904147089
3584.0,-0.0030661318451166153
3840.0,-0.005566038656979799
4096.0,-0.004184453748166561
4608.0,-0.0005185591871850193
5120.0,0.0037875317502766848
5632.0,-0.0036906618624925613
6144.0,-0.0008613575482740998
6656.0,-0.0033111926168203354
7168.0,-0.004894466605037451
7680.0,0.005795963108539581
8192.0,0.0010744562605395913
end
