version,3.0
numOfCh,1
type,point
parent_name,0cd20_0dot4-0dot01
ch_type,1_1
kcount,1
numberNandB,1
brightnessNandB,1
carpet pos,0
pc,0
Time (ms),CH1 Auto-Correlation
1.0,0.03276621177792549
2.0,0.03165556862950325
3.0,0.030603405088186264
4.0,0.029632167890667915
5.0,0.028728771954774857
6.0,0.027880484238266945
7.0,0.027104897424578667
8.0,0.026387223973870277
9.0,0.025681713595986366
10.0,0.024998098611831665
11.0,0.0243512075394392
12.0,0.023754457011818886
13.0,0.02318570390343666
14.0,0.022650571539998055
15.0,0.022160207852721214
16.0,0.021673420444130898
18.0,0.020811187103390694
20.0,0.019983021542429924
22.0,0.01923121139407158
24.0,0.018514739349484444
26.0,0.017809413373470306
28.0,0.017163695767521858
30.0,0.016579221934080124
32.0,0.01605597324669361
36.0,0.014937639236450195
40.0,0.013802160508930683
44.0,0.012743771076202393
48.0,0.011837203986942768
52.0,0.011096034198999405
56.0,0.01051474828273058
60.0,0.010026229545474052
64.0,0.009642645716667175
72.0,0.008939825929701328
80.0,0.008218709379434586
88.0,0.007380375638604164
96.0,0.006838570814579725
104.0,0.006321773864328861
112.0,0.0061277952045202255
120.0,0.006036581005901098
128.0,0.006254610139876604
144.0,0.006522940471768379
160.0,0.006581544876098633
176.0,0.006941759027540684
192.0,0.00683189881965518
208.0,0.006174176465719938
224.0,0.005565305706113577
240.0,0.004588696639984846
256.0,0.004505980294197798
288.0,0.003962617367506027
320.0,0.0034082166384905577
352.0,0.003824174404144287
384.0,0.004600543063133955
416.0,0.0046628909185528755
448.0,0.003613425651565194
480.0,0.002962936880066991
512.0,0.00430230563506484
576.0,0.0054595875553786755
640.0,0.005072049330919981
704.0,0.004185225814580917
768.0,0.0031509322579950094
832.0,0.0030128767248243093
896.0,0.003169733565300703
960.0,0.00458689546212554
1024.0,0.0021086204797029495
1152.0,0.0027501999866217375
1280.0,0.0036620732862502337
1408.0,0.0028487483505159616
1536.0,0.0017638953868299723
1664.0,0.00037119138869456947
1792.0,0.0012060615699738264
1920.0,0.0008806535042822361
2048.0,-0.0016051274724304676
2304.0,-0.0023089032620191574
2560.0,-0.0027225520461797714
2816.0,-0.0004143951809965074
3072.0,-0.001948717632330954
3328.0,-0.0020091745536774397
3584.0,-0.0035229986533522606
3840.0,-0.0030204467475414276
4096.0,-0.0006310496246442199
4608.0,-0.002069362672045827
5120.0,-0.0034955840092152357
5632.0,-0.003843083744868636
6144.0,-0.003329258179292083
6656.0,-0.00364191853441298
7168.0,-0.0018399310065433383
7680.0,-0.002396887168288231
8192.0,-0.0008474935893900692
end
