version,3.0
numOfCh,1
type,point
parent_name,0cd20_0dot4-0dot01
ch_type,1_1
kcount,1
numberNandB,1
brightnessNandB,1
carpet pos,0
pc,0
Time (ms),CH1 Auto-Correlation
1.0,0.04155777767300606
2.0,0.040545471012592316
3.0,0.039591602981090546
4.0,0.03871738910675049
5.0,0.03786132484674454
6.0,0.03704620152711868
7.0,0.03624466061592102
8.0,0.03547083958983421
9.0,0.03470857813954353
10.0,0.033971238881349564
11.0,0.033279161900281906
12.0,0.03259973227977753
13.0,0.031952764838933945
14.0,0.03132890164852142
15.0,0.03070792183279991
16.0,0.030121101066470146
18.0,0.02909379079937935
20.0,0.02818019688129425
22.0,0.027369096875190735
24.0,0.026639068499207497
26.0,0.026000138372182846
28.0,0.02547670528292656
30.0,0.024946730583906174
32.0,0.024499861523509026
36.0,0.023823820054531097
40.0,0.023147383704781532
44.0,0.022366464138031006
48.0,0.021360842511057854
52.0,0.020378662273287773
56.0,0.01946861296892166
60.0,0.018610835075378418
64.0,0.017928384244441986
72.0,0.01696692407131195
80.0,0.016351992264389992
88.0,0.01538036484271288
96.0,0.014058265835046768
104.0,0.012867636047303677
112.0,0.011615130119025707
120.0,0.010497462004423141
128.0,0.009291572496294975
144.0,0.006468713749200106
160.0,0.004628038499504328
176.0,0.0028717932291328907
192.0,0.0015938336728140712
208.0,0.00017197475244756788
224.0,-0.0011234342819079757
240.0,-0.0003855738614220172
256.0,-0.000553184887394309
288.0,-0.0012730499729514122
320.0,-0.001269844826310873
352.0,-0.0012507751816883683
384.0,0.00045702725765295327
416.0,0.003432361874729395
448.0,0.002888190094381571
480.0,0.0027609248645603657
512.0,0.0033649972174316645
576.0,0.0004786265781149268
640.0,-0.0021075881086289883
704.0,-0.0026335089933127165
768.0,-0.0033576618880033493
832.0,-0.002327954862266779
896.0,-0.001604515011422336
960.0,0.0006920347805134952
1024.0,0.003333070781081915
1152.0,-0.0009675052133388817
1280.0,-0.004033023025840521
1408.0,-0.0064311157912015915
1536.0,-0.002889735624194145
1664.0,-0.0021115008275955915
1792.0,-0.0019720904529094696
1920.0,-0.005970580503344536
2048.0,0.002445600926876068
2304.0,-0.002689025131985545
2560.0,0.00027163169579580426
2816.0,-0.005302560515701771
3072.0,-0.000550420954823494
3328.0,0.0007472068537026644
3584.0,0.006006487179547548
3840.0,0.0038115649949759245
4096.0,0.0035515078343451023
4608.0,0.0011561918072402477
5120.0,-0.003753348719328642
5632.0,-0.0022544702515006065
6144.0,-0.00011989597987849265
6656.0,-0.0010803742334246635
7168.0,-0.000957750657107681
end
