version,3.0
numOfCh,1
type,point
parent_name,0cd20_0dot4-0dot01
ch_type,1_1
kcount,1
numberNandB,1
brightnessNandB,1
carpet pos,0
pc,0
Time (ms),CH1 Auto-Correlation
1.0,0.034937791526317596
2.0,0.033812522888183594
3.0,0.03277721628546715
4.0,0.03181527927517891
5.0,0.030924536287784576
6.0,0.030107250437140465
7.0,0.029319629073143005
8.0,0.028551295399665833
9.0,0.027845021337270737
10.0,0.02714606747031212
11.0,0.02648918889462948
12.0,0.02587250992655754
13.0,0.025300024077296257
14.0,0.024755988270044327
15.0,0.024216100573539734
16.0,0.02370351180434227
18.0,0.022794390097260475
20.0,0.02196476235985756
22.0,0.02118336409330368
24.0,0.02046784572303295
26.0,0.019784672185778618
28.0,0.019128412008285522
30.0,0.018465500324964523
32.0,0.017757363617420197
36.0,0.01650155521929264
40.0,0.015441539697349072
44.0,0.01443518791347742
48.0,0.013449635356664658
52.0,0.012519928626716137
56.0,0.011697481386363506
60.0,0.010877829045057297
64.0,0.010176138952374458
72.0,0.008807673119008541
80.0,0.007468788418918848
88.0,0.006284985691308975
96.0,0.005450791213661432
104.0,0.004895982798188925
112.0,0.004480093717575073
120.0,0.0038940797094255686
128.0,0.003249347908422351
144.0,0.0028810095973312855
160.0,0.002970330184325576
176.0,0.003439195454120636
192.0,0.003250043373554945
208.0,0.0031662064138799906
224.0,0.002709493041038513
240.0,0.0020801934879273176
256.0,0.002514364430680871
288.0,0.003050915664061904
320.0,0.0023609870113432407
352.0,0.0005334490560926497
384.0,-0.00016025875811465085
416.0,-0.00013408403901848942
448.0,0.0008167663472704589
480.0,0.0011691050603985786
512.0,0.001734269200824201
576.0,0.0019932251889258623
640.0,0.0014250476378947496
704.0,0.0016287406906485558
768.0,0.00018673506565392017
832.0,-0.0007934285094961524
896.0,-0.001715370686724782
960.0,-0.0014600203139707446
1024.0,0.001338066766038537
1152.0,-0.0011467385338619351
1280.0,-0.0014074085047468543
1408.0,-0.00031200030934996903
1536.0,-0.0013536806218326092
1664.0,-0.00030492726364172995
1792.0,0.0004306068876758218
1920.0,0.0023365113884210587
2048.0,0.0033229885157197714
2304.0,0.0010216262890025973
2560.0,-0.0009059087606146932
2816.0,-0.0015159639297053218
3072.0,-0.003977701533585787
3328.0,-0.0022541244979947805
3584.0,-0.00016118676285259426
3840.0,0.0023263583425432444
4096.0,0.002355241449549794
4608.0,0.0011757623869925737
5120.0,-0.0022686824668198824
5632.0,-0.0022451658733189106
6144.0,-0.0015472647501155734
6656.0,-0.0011125282617285848
7168.0,-0.0021868578623980284
7680.0,-0.001087420154362917
8192.0,0.0015012453077360988
end
