version,3.0
numOfCh,1
type,point
parent_name,0cd20_0dot4-0dot01
ch_type,1_1
kcount,1
numberNandB,1
brightnessNandB,1
carpet pos,0
pc,0
Time (ms),CH1 Auto-Correlation
1.0,0.06593324989080429
2.0,0.06475729495286942
3.0,0.0636429563164711
4.0,0.06258904188871384
5.0,0.06162889301776886
6.0,0.06069325655698776
7.0,0.05978735163807869
8.0,0.058946941047906876
9.0,0.05809331685304642
10.0,0.05727565288543701
11.0,0.05649946257472038
12.0,0.055741533637046814
13.0,0.05500676855444908
14.0,0.05433393642306328
15.0,0.0536641888320446
16.0,0.05303410440683365
18.0,0.05176924169063568
20.0,0.050501737743616104
22.0,0.04934731870889664
24.0,0.04820435121655464
26.0,0.04712125286459923
28.0,0.046142905950546265
30.0,0.045273616909980774
32.0,0.04445454105734825
36.0,0.042954735457897186
40.0,0.04177413135766983
44.0,0.04061705619096756
48.0,0.0395379438996315
52.0,0.038718413561582565
56.0,0.037976063787937164
60.0,0.03746190667152405
64.0,0.03697790950536728
72.0,0.03606694936752319
80.0,0.035192444920539856
88.0,0.03491823002696037
96.0,0.034584153443574905
104.0,0.034261126071214676
112.0,0.0338832288980484
120.0,0.03264128416776657
128.0,0.03156445920467377
144.0,0.03027241863310337
160.0,0.02990167960524559
176.0,0.02976788580417633
192.0,0.029430251568555832
208.0,0.028627611696720123
224.0,0.02798580564558506
240.0,0.027287960052490234
256.0,0.026927152648568153
288.0,0.024658644571900368
320.0,0.022041844204068184
352.0,0.020845023915171623
384.0,0.02098633162677288
416.0,0.019766241312026978
448.0,0.016245728358626366
480.0,0.013928897678852081
512.0,0.012995392084121704
576.0,0.006565304938703775
640.0,0.0038595914375036955
704.0,0.002357551595196128
768.0,-0.0012182879727333784
832.0,-0.003441051347181201
896.0,-0.004663294646888971
960.0,-0.004504953511059284
1024.0,-0.0047007775865495205
1152.0,-0.003180090570822358
1280.0,-0.0017743827775120735
1408.0,0.0039107040502130985
1536.0,0.002589088398963213
1664.0,0.006181022617965937
1792.0,0.007702885195612907
1920.0,0.004228485282510519
2048.0,0.006702226586639881
2304.0,0.005789666902273893
2560.0,0.004512074403464794
2816.0,0.0047729345969855785
3072.0,0.004003399983048439
3328.0,0.004989792127162218
3584.0,0.0034089533146470785
3840.0,-0.0005931537016294897
4096.0,-0.004707676358520985
4608.0,-0.00866119284182787
5120.0,-0.0031179289799183607
5632.0,-0.007619261741638184
6144.0,-0.014964647591114044
6656.0,-0.005824602674692869
7168.0,-0.006789820734411478
7680.0,-0.01695162244141102
8192.0,-0.017006661742925644
end
