version,3.0
numOfCh,1
type,point
parent_name,0cd20_0dot4-0dot01
ch_type,1_1
kcount,1
numberNandB,1
brightnessNandB,1
carpet pos,0
pc,0
Time (ms),CH1 Auto-Correlation
1.0,0.02803807333111763
2.0,0.02691858634352684
3.0,0.025866949930787086
4.0,0.024869749322533607
5.0,0.023946458473801613
6.0,0.023078475147485733
7.0,0.022277995944023132
8.0,0.02152503840625286
9.0,0.020823035389184952
10.0,0.020178673788905144
11.0,0.019548796117305756
12.0,0.019001642242074013
13.0,0.018490437418222427
14.0,0.017983129248023033
15.0,0.017498886212706566
16.0,0.01705363020300865
18.0,0.016197822988033295
20.0,0.015439421869814396
22.0,0.014738444238901138
24.0,0.01403557974845171
26.0,0.013443347997963428
28.0,0.01291629858314991
30.0,0.012459523044526577
32.0,0.01199556328356266
36.0,0.011182855814695358
40.0,0.010460876859724522
44.0,0.009571518748998642
48.0,0.008626791648566723
52.0,0.007871347479522228
56.0,0.00734016252681613
60.0,0.006885339505970478
64.0,0.006391033064574003
72.0,0.0056583574041724205
80.0,0.005245913751423359
88.0,0.005210692994296551
96.0,0.004918608348816633
104.0,0.004167365375906229
112.0,0.003665147814899683
120.0,0.003302725264802575
128.0,0.0028736151289194822
144.0,0.00268249842338264
160.0,0.0029535850044339895
176.0,0.0035300429444760084
192.0,0.0032252096571028233
208.0,0.002926068613305688
224.0,0.002780689625069499
240.0,0.002408822998404503
256.0,0.0016016473527997732
288.0,0.0008635637350380421
320.0,0.0006851951475255191
352.0,-0.00020529446192085743
384.0,-0.00033238696050830185
416.0,0.0013767883647233248
448.0,0.001083897426724434
480.0,0.000777187873609364
512.0,9.005267929751426e-05
576.0,-0.0001322514726780355
640.0,0.000768414989579469
704.0,0.0006071581155993044
768.0,-0.00020215126278344542
832.0,-0.0011686703655868769
896.0,-0.0012817627284675837
960.0,-0.0010568720754235983
1024.0,-0.0008436634088866413
1152.0,-0.0002679218305274844
1280.0,0.000904786866158247
1408.0,-3.624869714258239e-05
1536.0,-7.77590958023211e-06
1664.0,0.0005974789382889867
1792.0,0.00033883238211274147
1920.0,0.0016273778164759278
2048.0,0.0011282821651548147
2304.0,-0.0007953408057801425
2560.0,0.0009032298112288117
2816.0,0.0008148608612827957
3072.0,-0.0004871416895184666
3328.0,-0.0010454884031787515
3584.0,-0.0018364395946264267
3840.0,0.0006459571304731071
4096.0,0.00055996875744313
4608.0,0.0014440880622714758
5120.0,-0.0023703728802502155
5632.0,0.0010119444923475385
6144.0,-3.12715201289393e-05
6656.0,-0.0015546641079708934
7168.0,-0.0006987660890445113
7680.0,0.0010607173899188638
8192.0,-0.00029317414737306535
end
