version,3.0
numOfCh,1
type,point
parent_name,0cd20_0dot4-0dot01
ch_type,1_1
kcount,1
numberNandB,1
brightnessNandB,1
carpet pos,0
pc,0
Time (ms),CH1 Auto-Correlation
1.0,0.03333861380815506
2.0,0.032149091362953186
3.0,0.031012339517474174
4.0,0.029932742938399315
5.0,0.02892693318426609
6.0,0.027994675561785698
7.0,0.027132805436849594
8.0,0.02630823664367199
9.0,0.025543903931975365
10.0,0.024810777977108955
11.0,0.02413514442741871
12.0,0.023470936343073845
13.0,0.02286512218415737
14.0,0.02228137105703354
15.0,0.021714096888899803
16.0,0.02116698957979679
18.0,0.02019234374165535
20.0,0.0192557442933321
22.0,0.018412405624985695
24.0,0.017640545964241028
26.0,0.016951700672507286
28.0,0.016344845294952393
30.0,0.01579143851995468
32.0,0.015315517783164978
36.0,0.014356625266373158
40.0,0.013390581123530865
44.0,0.01240284088999033
48.0,0.011476178653538227
52.0,0.01073516346514225
56.0,0.010161780752241611
60.0,0.00966731458902359
64.0,0.009214847348630428
72.0,0.008344932459294796
80.0,0.00790428463369608
88.0,0.008027217350900173
96.0,0.008173003792762756
104.0,0.008282511495053768
112.0,0.008327579125761986
120.0,0.008008972741663456
128.0,0.007437554188072681
144.0,0.006469362415373325
160.0,0.005530460737645626
176.0,0.004333487246185541
192.0,0.0029825859237462282
208.0,0.001742797321639955
224.0,0.0011209379881620407
240.0,0.0006611996795982122
256.0,0.0009241083753295243
288.0,0.001618801848962903
320.0,0.0021038069389760494
352.0,0.002881058491766453
384.0,0.0034864619374275208
416.0,0.004014918114989996
448.0,0.004294715356081724
480.0,0.003140469780191779
512.0,0.0013888112735003233
576.0,0.0016582332318648696
640.0,-0.0003168937982991338
704.0,3.496985664241947e-05
768.0,0.0011586074251681566
832.0,-0.00026364263612776995
896.0,-0.0008760632481426001
960.0,-0.0017169632483273745
1024.0,-0.001817568321712315
1152.0,0.0007606233120895922
1280.0,0.002087349770590663
1408.0,0.0005031178006902337
1536.0,0.0015383755089715123
1664.0,0.002183822914958
1792.0,-9.835170931182802e-05
1920.0,-0.00041516023338772357
2048.0,0.0020207285415381193
2304.0,0.002484325086697936
2560.0,-0.00042884331196546555
2816.0,-0.00029297685250639915
3072.0,-0.0006641127984039485
3328.0,-0.00026999355759471655
3584.0,0.0030441461130976677
3840.0,0.00010129176371265203
4096.0,-0.0003391582577023655
4608.0,-0.0016380969900637865
5120.0,0.0017947416054084897
5632.0,0.0003838326665572822
6144.0,-0.002863276517018676
6656.0,-0.0010810913518071175
7168.0,0.0018341194372624159
7680.0,-0.0016373185208067298
8192.0,-0.0027753354515880346
end
