version,3.0
numOfCh,1
type,point
parent_name,0cd20_0dot4-0dot01
ch_type,1_1
kcount,1
numberNandB,1
brightnessNandB,1
carpet pos,0
pc,0
Time (ms),CH1 Auto-Correlation
1.0,0.03474969044327736
2.0,0.03360975533723831
3.0,0.03257640451192856
4.0,0.0315927118062973
5.0,0.030643949285149574
6.0,0.029736032709479332
7.0,0.028851617127656937
8.0,0.028022900223731995
9.0,0.02728142961859703
10.0,0.02659137360751629
11.0,0.0259209293872118
12.0,0.025295326486229897
13.0,0.024690918624401093
14.0,0.024093948304653168
15.0,0.023542998358607292
16.0,0.022983770817518234
18.0,0.02194172702729702
20.0,0.020916538313031197
22.0,0.019917752593755722
24.0,0.018991118296980858
26.0,0.018115222454071045
28.0,0.01738751120865345
30.0,0.01673934794962406
32.0,0.016127660870552063
36.0,0.015116075053811073
40.0,0.014163906686007977
44.0,0.013248258270323277
48.0,0.012480094097554684
52.0,0.011868521571159363
56.0,0.011509330943226814
60.0,0.011097886599600315
64.0,0.010709130205214024
72.0,0.009903457015752792
80.0,0.008755442686378956
88.0,0.007773539517074823
96.0,0.007134557701647282
104.0,0.006711568217724562
112.0,0.006448287516832352
120.0,0.006351335905492306
128.0,0.006522481329739094
144.0,0.005996521096676588
160.0,0.005386596079915762
176.0,0.0048696077428758144
192.0,0.0049046906642615795
208.0,0.004400548525154591
224.0,0.00395568460226059
240.0,0.00275591597892344
256.0,0.0012364083668217063
288.0,-0.00033636437729001045
320.0,-0.00010403925989521667
352.0,4.346228888607584e-05
384.0,0.0005071430932730436
416.0,0.0006033569807186723
448.0,0.000905599445104599
480.0,0.00029386693495325744
512.0,0.0008356127073056996
576.0,0.0018929855432361364
640.0,0.0027891939971596003
704.0,0.0019141659140586853
768.0,0.0014217172283679247
832.0,0.0009559247409924865
896.0,0.0007482088985852897
960.0,0.0002319452032679692
1024.0,0.0011450117453932762
1152.0,0.003763844957575202
1280.0,0.004726606421172619
1408.0,0.0011971393832936883
1536.0,0.0013091942528262734
1664.0,0.001346638542599976
1792.0,-0.0012899640714749694
1920.0,-0.0011293628485873342
2048.0,0.00012447037443052977
2304.0,-0.00029400194762274623
2560.0,-0.0002920243132393807
2816.0,-0.00023321331536863
3072.0,0.0002025057765422389
3328.0,-0.0006667166016995907
3584.0,-0.0012682410888373852
3840.0,-0.00022636503854300827
4096.0,-0.0012553381966426969
4608.0,-0.0003621558425948024
5120.0,-0.0005635333363898098
5632.0,-0.0045217727310955524
6144.0,0.0015739428345113993
6656.0,-0.003024033270776272
7168.0,-0.0008710743859410286
7680.0,0.0003457871498540044
8192.0,-0.0034287436865270138
end
