version,3.0
numOfCh,1
type,point
parent_name,0cd20_0dot4-0dot01
ch_type,1_1
kcount,1
numberNandB,1
brightnessNandB,1
carpet pos,0
pc,0
Time (ms),CH1 Auto-Correlation
1.0,0.0346156544983387
2.0,0.03352305665612221
3.0,0.03244546055793762
4.0,0.03143894672393799
5.0,0.030495110899209976
6.0,0.02961401455104351
7.0,0.028794100508093834
8.0,0.0279714185744524
9.0,0.027163175866007805
10.0,0.026402441784739494
11.0,0.025671370327472687
12.0,0.024981321766972542
13.0,0.0243674423545599
14.0,0.023815281689167023
15.0,0.023322658613324165
16.0,0.022885490208864212
18.0,0.022082407027482986
20.0,0.02125864289700985
22.0,0.020475851371884346
24.0,0.01980649121105671
26.0,0.01923137530684471
28.0,0.018703971058130264
30.0,0.01819656416773796
32.0,0.017755433917045593
36.0,0.017015105113387108
40.0,0.016390152275562286
44.0,0.015845637768507004
48.0,0.015298829413950443
52.0,0.014681634493172169
56.0,0.014047624543309212
60.0,0.013580604456365108
64.0,0.01312155183404684
72.0,0.012063329108059406
80.0,0.011155915446579456
88.0,0.010515855625271797
96.0,0.010096789337694645
104.0,0.010173500515520573
112.0,0.010285751894116402
120.0,0.009871632792055607
128.0,0.009407713077962399
144.0,0.008845793083310127
160.0,0.008657579310238361
176.0,0.008993965573608875
192.0,0.008902485482394695
208.0,0.00812742579728365
224.0,0.0077379257418215275
240.0,0.006880969274789095
256.0,0.00653733080253005
288.0,0.005261095706373453
320.0,0.00501842238008976
352.0,0.0040369355119764805
384.0,0.002915480639785528
416.0,0.001834367518313229
448.0,0.001085922122001648
480.0,-0.0006168463150970638
512.0,-0.001567697268910706
576.0,-0.002677320269867778
640.0,-0.0036676127929240465
704.0,-0.002181819174438715
768.0,-0.0008554428932256997
832.0,-0.0026481368113309145
896.0,-0.004836631938815117
960.0,-0.004394909366965294
1024.0,-0.003478284226730466
1152.0,-0.003328105201944709
1280.0,-0.003786086570471525
1408.0,-0.003021390177309513
1536.0,-0.002106733387336135
1664.0,-0.0030880405101925135
1792.0,-0.00373524590395391
1920.0,-0.0039035361260175705
2048.0,-0.002639465732499957
2304.0,0.001766782603226602
2560.0,0.0034076746087521315
2816.0,0.003924153745174408
3072.0,0.002462680684402585
3328.0,0.001011945540085435
3584.0,0.0008665278437547386
3840.0,-0.001529841567389667
4096.0,-0.007156020496040583
4608.0,-0.0022032801061868668
5120.0,0.0007051647990010679
5632.0,0.0046279458329081535
6144.0,0.004278534557670355
6656.0,-0.001370432786643505
7168.0,-0.004737448412925005
7680.0,-0.001789933885447681
8192.0,-0.0001120649030781351
end
