version,3.0
numOfCh,1
type,point
parent_name,0cd20_0dot4-0dot01
ch_type,1_1
kcount,1
numberNandB,1
brightnessNandB,1
carpet pos,0
pc,0
Time (ms),CH1 Auto-Correlation
1.0,0.03940201178193092
2.0,0.03834113851189613
3.0,0.03735632821917534
4.0,0.03642302751541138
5.0,0.03554973006248474
6.0,0.03472383692860603
7.0,0.033966854214668274
8.0,0.033252377063035965
9.0,0.032568614929914474
10.0,0.031906723976135254
11.0,0.03128057345747948
12.0,0.030701039358973503
13.0,0.03013484738767147
14.0,0.029554827138781548
15.0,0.02898596227169037
16.0,0.028450286015868187
18.0,0.02737634815275669
20.0,0.02636701986193657
22.0,0.02539859712123871
24.0,0.02448965795338154
26.0,0.023595677688717842
28.0,0.022779999300837517
30.0,0.022040732204914093
32.0,0.021350443363189697
36.0,0.02015283890068531
40.0,0.019128436222672462
44.0,0.01815791428089142
48.0,0.017336469143629074
52.0,0.0165743138641119
56.0,0.015700478106737137
60.0,0.015039613470435143
64.0,0.01446992252022028
72.0,0.013256811536848545
80.0,0.012458467856049538
88.0,0.012219625525176525
96.0,0.012050940655171871
104.0,0.011524345725774765
112.0,0.010955017060041428
120.0,0.010718967765569687
128.0,0.010053746402263641
144.0,0.008680365979671478
160.0,0.008432182483375072
176.0,0.007865996100008488
192.0,0.0072189318016171455
208.0,0.006848285906016827
224.0,0.006585339084267616
240.0,0.006640382576733828
256.0,0.007001198828220367
288.0,0.006172572262585163
320.0,0.005903429351747036
352.0,0.005625032354146242
384.0,0.0061194924637675285
416.0,0.0062683033756911755
448.0,0.006986986380070448
480.0,0.006059031933546066
512.0,0.0037543410435318947
576.0,0.002732323482632637
640.0,0.0016228830209001899
704.0,0.0003559002070687711
768.0,0.00018883211305364966
832.0,0.0022722422145307064
896.0,0.0036900874692946672
960.0,-0.0008892689947970212
1024.0,-0.0031043733470141888
1152.0,-0.005333671811968088
1280.0,-0.006305774208158255
1408.0,-0.0031572808511555195
1536.0,-0.004672926850616932
1664.0,-0.006618682295084
1792.0,-0.004339729435741901
1920.0,-0.003492908086627722
2048.0,-0.004777573514729738
2304.0,-0.0012097671860828996
2560.0,0.00222841021604836
2816.0,0.0008436004864051938
3072.0,-0.001214612857438624
3328.0,4.732608067570254e-05
3584.0,-0.0009257699712179601
3840.0,-0.002327002352103591
4096.0,-0.00016195625357795507
4608.0,1.196332505060127e-05
5120.0,0.001474797260016203
5632.0,0.0017803760711103678
6144.0,0.0009804328437894583
6656.0,-0.003722309833392501
7168.0,-0.00923360139131546
7680.0,-0.003285901853814721
8192.0,0.004186796490103006
end
