version,3.0
numOfCh,1
type,point
parent_name,0cd20_0dot4-0dot01
ch_type,1_1
kcount,1
numberNandB,1
brightnessNandB,1
carpet pos,0
pc,0
Time (ms),CH1 Auto-Correlation
1.0,0.05581336468458176
2.0,0.054675277322530746
3.0,0.053568098694086075
4.0,0.05255179852247238
5.0,0.05160752311348915
6.0,0.05073367804288864
7.0,0.04988710209727287
8.0,0.04905388131737709
9.0,0.048251934349536896
10.0,0.0474255196750164
11.0,0.04665834456682205
12.0,0.04591992869973183
13.0,0.04522296413779259
14.0,0.04450532793998718
15.0,0.04382298141717911
16.0,0.043131984770298004
18.0,0.04185005649924278
20.0,0.04071151092648506
22.0,0.03971565514802933
24.0,0.038754042237997055
26.0,0.03784199804067612
28.0,0.03689958527684212
30.0,0.03597447648644447
32.0,0.035195086151361465
36.0,0.03391970321536064
40.0,0.03301665186882019
44.0,0.032254282385110855
48.0,0.031663279980421066
52.0,0.03113989159464836
56.0,0.030430980026721954
60.0,0.029691658914089203
64.0,0.029014645144343376
72.0,0.027768222615122795
80.0,0.026732394471764565
88.0,0.025824183598160744
96.0,0.024951547384262085
104.0,0.024577755481004715
112.0,0.024345699697732925
120.0,0.023988503962755203
128.0,0.023377785459160805
144.0,0.022111179307103157
160.0,0.020612355321645737
176.0,0.019829589873552322
192.0,0.01915547251701355
208.0,0.01780853047966957
224.0,0.01660284958779812
240.0,0.015968013554811478
256.0,0.014738005585968494
288.0,0.011507119983434677
320.0,0.009759978391230106
352.0,0.008348749950528145
384.0,0.008968554437160492
416.0,0.00825511198490858
448.0,0.005460831336677074
480.0,0.002828687196597457
512.0,0.0020439429208636284
576.0,0.004584263078868389
640.0,0.003511057933792472
704.0,0.002929745940491557
768.0,0.0005124036106280982
832.0,0.00048098439583554864
896.0,-0.0016815576236695051
960.0,0.0010461165802553296
1024.0,-2.8573342206072994e-05
1152.0,0.0047045205719769
1280.0,0.005427669268101454
1408.0,5.276799856801517e-05
1536.0,-0.006604159716516733
1664.0,-0.009610919281840324
1792.0,-0.007984234020113945
1920.0,-0.00729708094149828
2048.0,-0.0057404860854148865
2304.0,0.003121105022728443
2560.0,0.0014051684411242604
2816.0,-0.003919809125363827
3072.0,-0.003657425055280328
3328.0,0.00011558418191270903
3584.0,0.007545162923634052
3840.0,-0.003380492329597473
4096.0,-0.0075104208663105965
4608.0,0.0015868351329118013
5120.0,-0.006646326277405024
5632.0,-0.0010365932248532772
6144.0,-0.0022281843703240156
6656.0,-0.01454626303166151
7168.0,-0.005430325865745544
7680.0,-0.019039565697312355
8192.0,-0.02910633385181427
end
