version,3.0
numOfCh,1
type,point
parent_name,0cd20_0dot4-0dot01
ch_type,1_1
kcount,1
numberNandB,1
brightnessNandB,1
carpet pos,0
pc,0
Time (ms),CH1 Auto-Correlation
1.0,0.03392168506979942
2.0,0.032760027796030045
3.0,0.03169722482562065
4.0,0.030706970021128654
5.0,0.02975674904882908
6.0,0.02886170521378517
7.0,0.028000565245747566
8.0,0.02718333899974823
9.0,0.02641449123620987
10.0,0.0256890207529068
11.0,0.025019042193889618
12.0,0.024359116330742836
13.0,0.02374526485800743
14.0,0.023173755034804344
15.0,0.022625403478741646
16.0,0.022096160799264908
18.0,0.02109973132610321
20.0,0.020135914906859398
22.0,0.019207226112484932
24.0,0.018306098878383636
26.0,0.0174629595130682
28.0,0.016657106578350067
30.0,0.015864243730902672
32.0,0.015123534947633743
36.0,0.013850978575646877
40.0,0.012883203104138374
44.0,0.012063749134540558
48.0,0.011159262619912624
52.0,0.010249336250126362
56.0,0.009379815310239792
60.0,0.0088597871363163
64.0,0.008499793708324432
72.0,0.007854226045310497
80.0,0.007489568088203669
88.0,0.007212560158222914
96.0,0.006652443204075098
104.0,0.005818562116473913
112.0,0.004866417031735182
120.0,0.004079218953847885
128.0,0.0033769612200558186
144.0,0.002768366364762187
160.0,0.002694000955671072
176.0,0.002943767700344324
192.0,0.0033016775269061327
208.0,0.003000561846420169
224.0,0.002692267531529069
240.0,0.0023714059498161077
256.0,0.0021022416185587645
288.0,0.0021009703632444143
320.0,0.0010689874179661274
352.0,0.00010945391113637015
384.0,0.000389239692594856
416.0,0.0011369498679414392
448.0,-0.0008162262965925038
480.0,-0.0020885029807686806
512.0,-0.0020605260506272316
576.0,-0.0015220199711620808
640.0,-0.0018417222891002893
704.0,-0.002422777935862541
768.0,-0.002451254054903984
832.0,-0.002510364865884185
896.0,-0.00170256313867867
960.0,-0.0005950685008428991
1024.0,-0.001877700095064938
1152.0,-0.002985015045851469
1280.0,-0.002768353559076786
1408.0,-0.0014803139492869377
1536.0,0.0004096158663742244
1664.0,-0.0008791725849732757
1792.0,0.0005616322159767151
1920.0,0.0012535168789327145
2048.0,0.0002174281544284895
2304.0,0.00024378564557991922
2560.0,0.00029457322671078146
2816.0,0.001113409991376102
3072.0,0.0032265055924654007
3328.0,-0.0001622229174245149
3584.0,-0.0007786295027472079
3840.0,-0.0027843741700053215
4096.0,-0.003857986768707633
4608.0,0.0009402124560438097
5120.0,0.0013054454466328025
5632.0,-0.0023863024543970823
6144.0,0.0025368721690028906
6656.0,0.0008113928488455713
7168.0,-0.0035298061557114124
7680.0,-0.0008280304609797895
8192.0,0.0017731908010318875
end
