version,3.0
numOfCh,1
type,point
parent_name,0cd20_0dot4-0dot01
ch_type,1_1
kcount,1
numberNandB,1
brightnessNandB,1
carpet pos,0
pc,0
Time (ms),CH1 Auto-Correlation
1.0,0.055386982858181
2.0,0.054304514080286026
3.0,0.05327622592449188
4.0,0.052290476858615875
5.0,0.05131733417510986
6.0,0.050387490540742874
7.0,0.04952334612607956
8.0,0.048749782145023346
9.0,0.04799676313996315
10.0,0.04728692024946213
11.0,0.046594854444265366
12.0,0.045946162194013596
13.0,0.045297350734472275
14.0,0.04465840756893158
15.0,0.04404735192656517
16.0,0.043446168303489685
18.0,0.04228782281279564
20.0,0.041233766824007034
22.0,0.04031151533126831
24.0,0.03947804495692253
26.0,0.0387091301381588
28.0,0.0379919707775116
30.0,0.037292517721652985
32.0,0.036597684025764465
36.0,0.03524894639849663
40.0,0.034056372940540314
44.0,0.03310813009738922
48.0,0.032287463545799255
52.0,0.031455498188734055
56.0,0.03049134463071823
60.0,0.029543275013566017
64.0,0.028474511578679085
72.0,0.026610778644680977
80.0,0.02493596263229847
88.0,0.02333655208349228
96.0,0.021984310820698738
104.0,0.021079668775200844
112.0,0.02033396065235138
120.0,0.01962614618241787
128.0,0.019087692722678185
144.0,0.01818622276186943
160.0,0.01795644313097
176.0,0.018070697784423828
192.0,0.018110552802681923
208.0,0.017917325720191002
224.0,0.017251182347536087
240.0,0.0158433485776186
256.0,0.013603990897536278
288.0,0.011286493390798569
320.0,0.009531009942293167
352.0,0.007494441233575344
384.0,0.00552821671590209
416.0,0.003862893907353282
448.0,0.0020135282538831234
480.0,0.0003779492690227926
512.0,0.0009207833791151643
576.0,0.002499603433534503
640.0,0.0021788589656352997
704.0,0.0005682337796315551
768.0,0.0007694079540669918
832.0,0.0011383750243112445
896.0,-0.0004312574747018516
960.0,-0.0030897720716893673
1024.0,-0.004105743486434221
1152.0,-0.006350968033075333
1280.0,-0.008166836574673653
1408.0,-0.005670501850545406
1536.0,-0.006124440114945173
1664.0,-0.004681786056607962
1792.0,-0.005395004525780678
1920.0,-0.0008083110442385077
2048.0,0.0031802551820874214
2304.0,0.008297828026115894
2560.0,0.01252234447747469
2816.0,0.008128922432661057
3072.0,0.006640123203396797
3328.0,0.0005700294859707355
3584.0,-0.004324189852923155
3840.0,-0.00645912392064929
4096.0,-0.006721210666000843
4608.0,-0.005118174944072962
5120.0,-0.002642823616042733
5632.0,0.002428022911772132
6144.0,-0.0030490607023239136
6656.0,-0.005830574315041304
7168.0,-0.008307695388793945
7680.0,-0.008486097678542137
8192.0,-0.009136706590652466
end
