version,3.0
numOfCh,1
type,point
parent_name,0cd20_0dot4-0dot01
ch_type,1_1
kcount,1
numberNandB,1
brightnessNandB,1
carpet pos,0
pc,0
Time (ms),CH1 Auto-Correlation
1.0,0.03648645803332329
2.0,0.0353391133248806
3.0,0.03430512174963951
4.0,0.03333847224712372
5.0,0.03243386372923851
6.0,0.03154813498258591
7.0,0.03068472072482109
8.0,0.02986123040318489
9.0,0.029092639684677124
10.0,0.028339294716715813
11.0,0.027606191113591194
12.0,0.026872072368860245
13.0,0.02618669718503952
14.0,0.025541385635733604
15.0,0.0249150563031435
16.0,0.02429969236254692
18.0,0.023106716573238373
20.0,0.022088244557380676
22.0,0.021203817799687386
24.0,0.020425228402018547
26.0,0.01969151385128498
28.0,0.018932493403553963
30.0,0.01829153299331665
32.0,0.017765114083886147
36.0,0.016879679635167122
40.0,0.016122430562973022
44.0,0.015390845946967602
48.0,0.014738231897354126
52.0,0.014153790660202503
56.0,0.013658840209245682
60.0,0.013131552375853062
64.0,0.01247310172766447
72.0,0.011300391517579556
80.0,0.010309246368706226
88.0,0.009514172561466694
96.0,0.008821305818855762
104.0,0.008277413435280323
112.0,0.007969445548951626
120.0,0.007925652898848057
128.0,0.007843811064958572
144.0,0.007169023621827364
160.0,0.005986723583191633
176.0,0.005669819191098213
192.0,0.005726172123104334
208.0,0.005351785104721785
224.0,0.005035111214965582
240.0,0.0051177204586565495
256.0,0.0049767750315368176
288.0,0.004013783764094114
320.0,0.0025680032558739185
352.0,0.0024983296170830727
384.0,0.0028804189059883356
416.0,0.002997336909174919
448.0,0.0028299291152507067
480.0,0.0025242860428988934
512.0,0.0023307574447244406
576.0,0.0006198608898557723
640.0,-0.0010217466624453664
704.0,-0.001186806010082364
768.0,0.00010452677815919742
832.0,-0.001036051893606782
896.0,-0.0027641798369586468
960.0,-0.0028911393601447344
1024.0,-0.0028292464558035135
1152.0,-0.003608838887885213
1280.0,-0.0017039753729477525
1408.0,-3.865158214466646e-05
1536.0,0.0010069113923236728
1664.0,0.0009730187593959272
1792.0,0.0015695798210799694
1920.0,0.0017375163733959198
2048.0,0.0017919887322932482
2304.0,0.0023654173128306866
2560.0,-0.0018214089795947075
2816.0,0.0007121842936612666
3072.0,-0.0022575855255126953
3328.0,-0.0030279369093477726
3584.0,-0.002750887768343091
3840.0,-0.002799118170514703
4096.0,-0.00037108975811861455
4608.0,0.000820278946775943
5120.0,-0.001828391570597887
5632.0,-0.003034021705389023
6144.0,-0.000997847761027515
6656.0,0.0018493750831112266
7168.0,0.0006509060622192919
7680.0,-0.0004400110919959843
8192.0,-7.151164027163759e-05
end
