version,3.0
numOfCh,1
type,point
parent_name,0cd20_0dot4-0dot01
ch_type,1_1
kcount,1
numberNandB,1
brightnessNandB,1
carpet pos,0
pc,0
Time (ms),CH1 Auto-Correlation
1.0,0.03279896453022957
2.0,0.031600721180438995
3.0,0.030482709407806396
4.0,0.02944335713982582
5.0,0.02847236767411232
6.0,0.02757987566292286
7.0,0.026734283193945885
8.0,0.02591812238097191
9.0,0.025140486657619476
10.0,0.024428855627775192
11.0,0.023734252899885178
12.0,0.02306843176484108
13.0,0.022454896941781044
14.0,0.021868398413062096
15.0,0.021303586661815643
16.0,0.020735906437039375
18.0,0.01971942000091076
20.0,0.018807364627718925
22.0,0.0180190522223711
24.0,0.017229821532964706
26.0,0.016491256654262543
28.0,0.015849154442548752
30.0,0.015288889408111572
32.0,0.014791920781135559
36.0,0.01392851211130619
40.0,0.01310539897531271
44.0,0.012391863390803337
48.0,0.011829470284283161
52.0,0.011254972778260708
56.0,0.010597056709229946
60.0,0.009957605041563511
64.0,0.009342263452708721
72.0,0.008720435202121735
80.0,0.00837889313697815
88.0,0.007831922732293606
96.0,0.007300776895135641
104.0,0.006794209126383066
112.0,0.006333058699965477
120.0,0.005907066632062197
128.0,0.005258142948150635
144.0,0.003957806620746851
160.0,0.003109445795416832
176.0,0.002763734431937337
192.0,0.0026796848978847265
208.0,0.001877854228951037
224.0,0.0013121815863996744
240.0,0.0007608330924995244
256.0,-0.0002155868714908138
288.0,-0.0005758782499469817
320.0,-0.000326146517181769
352.0,-0.0016903486102819443
384.0,-0.0024511173833161592
416.0,-0.002241359790787101
448.0,-0.0010414181742817163
480.0,-0.00116605160292238
512.0,-0.0016355308471247554
576.0,-0.002137543633580208
640.0,-0.0019356119446456432
704.0,-0.003211527829989791
768.0,-0.0017396584153175354
832.0,0.00016062096983660012
896.0,0.001108289579860866
960.0,0.0032210310455411673
1024.0,0.0031755389645695686
1152.0,0.0016051465645432472
1280.0,0.0010965814581140876
1408.0,0.00016185238200705498
1536.0,0.0014558775583282113
1664.0,0.001358574372716248
1792.0,0.0025326425675302744
1920.0,0.0032903433311730623
2048.0,0.0025064072106033564
2304.0,-0.0007145921117626131
2560.0,-0.0014800175558775663
2816.0,0.0009128453093580902
3072.0,0.00018692639423534274
3328.0,-0.0001273850939469412
3584.0,0.0006158821634016931
3840.0,0.001083392882719636
4096.0,-0.0013798318104818463
4608.0,7.048464613035321e-05
5120.0,-0.00017115009541157633
5632.0,-0.0012190870475023985
6144.0,0.0014259831514209509
6656.0,-0.0003839383425656706
7168.0,-0.001988143427297473
7680.0,0.0016811501700431108
8192.0,-0.0002457223308738321
end
