version,3.0
numOfCh,1
type,point
parent_name,0cd20_0dot4-0dot01
ch_type,1_1
kcount,1
numberNandB,1
brightnessNandB,1
carpet pos,0
pc,0
Time (ms),CH1 Auto-Correlation
1.0,0.027672642841935158
2.0,0.026522468775510788
3.0,0.025439295917749405
4.0,0.024474332109093666
5.0,0.023562969639897346
6.0,0.02269572950899601
7.0,0.021897412836551666
8.0,0.02112843655049801
9.0,0.020388640463352203
10.0,0.01969565637409687
11.0,0.018995443359017372
12.0,0.018331322818994522
13.0,0.017725521698594093
14.0,0.017150212079286575
15.0,0.016611427068710327
16.0,0.01612263359129429
18.0,0.015248180367052555
20.0,0.014397865161299706
22.0,0.01357746496796608
24.0,0.012798544019460678
26.0,0.012103910557925701
28.0,0.011413021013140678
30.0,0.010762713849544525
32.0,0.01014050841331482
36.0,0.009213262237608433
40.0,0.008374856784939766
44.0,0.007324428763240576
48.0,0.006410739850252867
52.0,0.005471987649798393
56.0,0.004501515068113804
60.0,0.0034700813703238964
64.0,0.00238017737865448
72.0,0.0008825308759696782
80.0,-5.663677256961819e-06
88.0,-5.264348510536365e-05
96.0,-0.00022211451141629368
104.0,-0.0004463588120415807
112.0,-0.0004260954156052321
120.0,-0.0006163105717860162
128.0,-0.00017116073286160827
144.0,0.0008113413350656629
160.0,0.0013850682880729437
176.0,0.0011101447744295
192.0,0.0016008412931114435
208.0,0.0018163633067160845
224.0,0.001070645870640874
240.0,0.0005576910334639251
256.0,0.0012098412262275815
288.0,-2.048840542556718e-05
320.0,-0.0011416038032621145
352.0,-0.0013451321283355355
384.0,-0.001610931591130793
416.0,-0.001226505497470498
448.0,9.671927546150982e-05
480.0,-0.00040262838592752814
512.0,-0.00031040303292684257
576.0,0.0015790403122082353
640.0,0.000795846339315176
704.0,0.0005610745865851641
768.0,-0.001305021927691996
832.0,-0.0017136434325948358
896.0,0.0024243458174169064
960.0,0.001231478643603623
1024.0,-0.003069200785830617
1152.0,5.852932736161165e-05
1280.0,-0.001301091630011797
1408.0,-0.00038451520958915353
1536.0,-0.002465462312102318
1664.0,-0.0022352992091327906
1792.0,-0.00022593143512494862
1920.0,0.0006673915777355433
2048.0,-0.0005890728207305074
2304.0,-0.001049124519340694
2560.0,0.0011085554724559188
2816.0,0.001222850289195776
3072.0,0.0011889667948707938
3328.0,0.0022351311054080725
3584.0,-0.0007853200077079237
3840.0,-0.00043130572885274887
4096.0,9.571619011694565e-05
4608.0,-0.0015111424727365375
5120.0,-0.002656784141436219
5632.0,0.0001457174657844007
6144.0,0.0018659018678590655
6656.0,0.003574435133486986
7168.0,-0.0028491278644651175
end
