version,3.0
numOfCh,1
type,point
parent_name,0cd20_0dot4-0dot01
ch_type,1_1
kcount,1
numberNandB,1
brightnessNandB,1
carpet pos,0
pc,0
Time (ms),CH1 Auto-Correlation
1.0,0.03335737809538841
2.0,0.032186105847358704
3.0,0.03110884316265583
4.0,0.030119147151708603
5.0,0.029201744124293327
6.0,0.02835322730243206
7.0,0.027576355263590813
8.0,0.026859039440751076
9.0,0.026210226118564606
10.0,0.025601228699088097
11.0,0.02501959726214409
12.0,0.024481767788529396
13.0,0.02397613599896431
14.0,0.023463616147637367
15.0,0.022964054718613625
16.0,0.022535046562552452
18.0,0.021610407158732414
20.0,0.020778879523277283
22.0,0.019991299137473106
24.0,0.019229045137763023
26.0,0.018528789281845093
28.0,0.01790613867342472
30.0,0.017361633479595184
32.0,0.01688968576490879
36.0,0.01597917079925537
40.0,0.015176030807197094
44.0,0.01435782853513956
48.0,0.01358582079410553
52.0,0.012843206524848938
56.0,0.012219448573887348
60.0,0.011646593920886517
64.0,0.011161194182932377
72.0,0.010477748699486256
80.0,0.009861815720796585
88.0,0.009397411718964577
96.0,0.008885365910828114
104.0,0.008447721600532532
112.0,0.007978031411767006
120.0,0.007678508758544922
128.0,0.007848439738154411
144.0,0.007838787510991096
160.0,0.007209287025034428
176.0,0.006335983518511057
192.0,0.0057809134013950825
208.0,0.005582307931035757
224.0,0.005633746739476919
240.0,0.005113727878779173
256.0,0.004370676353573799
288.0,0.003582221921533346
320.0,0.0018289139261469245
352.0,0.0007848860695958138
384.0,0.0019261302659288049
416.0,0.003838312579318881
448.0,0.004840270150452852
480.0,0.006249184720218182
512.0,0.006281078327447176
576.0,0.006144214421510696
640.0,0.0053782337345182896
704.0,0.0050884634256362915
768.0,0.003138338215649128
832.0,0.0009415024542249739
896.0,-0.0013155699707567692
960.0,-0.0011381636140868068
1024.0,-0.001606957521289587
1152.0,-0.0007499505882151425
1280.0,0.0007730094948783517
1408.0,0.0005414951592683792
1536.0,-0.0020683789625763893
1664.0,-0.004333199933171272
1792.0,-0.002379148965701461
1920.0,-0.0006958846934139729
2048.0,0.0005775773315690458
2304.0,-0.000815025472547859
2560.0,-0.00037933283601887524
2816.0,-0.0006997059681452811
3072.0,-0.0009563168860040605
3328.0,-0.0005650967359542847
3584.0,-0.0005405318806879222
3840.0,-0.001970345852896571
4096.0,0.00017872445459943265
4608.0,0.001940536079928279
5120.0,0.0009806441375985742
5632.0,0.002279848325997591
6144.0,-0.001637889537960291
6656.0,-0.004330239724367857
7168.0,-0.0054261875338852406
7680.0,-0.005786804482340813
8192.0,-0.001989066367968917
end
