version,3.0
numOfCh,1
type,point
parent_name,0cd20_0dot4-0dot01
ch_type,1_1
kcount,1
numberNandB,1
brightnessNandB,1
carpet pos,0
pc,0
Time (ms),CH1 Auto-Correlation
1.0,0.029202407225966454
2.0,0.028108704835176468
3.0,0.027081161737442017
4.0,0.026108380407094955
5.0,0.02521723508834839
6.0,0.024418961256742477
7.0,0.023673033341765404
8.0,0.022983679547905922
9.0,0.022354459390044212
10.0,0.021774601191282272
11.0,0.021244319155812263
12.0,0.020744316279888153
13.0,0.02024407684803009
14.0,0.019765036180615425
15.0,0.019280066713690758
16.0,0.018800465390086174
18.0,0.017970483750104904
20.0,0.017266228795051575
22.0,0.016569454222917557
24.0,0.01587967574596405
26.0,0.015197052620351315
28.0,0.014608275145292282
30.0,0.014053852297365665
32.0,0.013553117401897907
36.0,0.012690896168351173
40.0,0.011903760023415089
44.0,0.011291390284895897
48.0,0.010830783285200596
52.0,0.010352249257266521
56.0,0.009938300587236881
60.0,0.009616813622415066
64.0,0.009387999773025513
72.0,0.009001889266073704
80.0,0.008495938032865524
88.0,0.008064094930887222
96.0,0.00710928812623024
104.0,0.005988963879644871
112.0,0.0048464518040418625
120.0,0.003981349989771843
128.0,0.0034614629112184048
144.0,0.0030749989673495293
160.0,0.0030297469347715378
176.0,0.001919183530844748
192.0,0.0009399779955856502
208.0,0.0006955252029001713
224.0,0.0015260324580594897
240.0,0.0010667926399037242
256.0,0.0005645735072903335
288.0,0.0009508411749266088
320.0,0.0020672266837209463
352.0,0.0026615082751959562
384.0,0.0021791199687868357
416.0,0.0017499011009931564
448.0,0.0020040697418153286
480.0,0.0024452495854347944
512.0,0.0028806589543819427
576.0,0.0006872110534459352
640.0,0.0019077943870797753
704.0,0.0030893178191035986
768.0,0.0013789678923785686
832.0,0.0006546646472997963
896.0,0.0018875483656302094
960.0,0.0030301990918815136
1024.0,0.0034844200126826763
1152.0,0.003613628214225173
1280.0,0.0012277509085834026
1408.0,-0.00018216755415778607
1536.0,0.0006688147550448775
1664.0,0.002364041283726692
1792.0,-0.00010217212548013777
1920.0,-0.0002019546809606254
2048.0,0.00029551764600910246
2304.0,0.0007249270565807819
2560.0,-0.0009316742070950568
2816.0,-0.0018873447552323341
3072.0,-0.0015760440146550536
3328.0,-0.0017915434436872602
3584.0,-0.0045424094423651695
3840.0,-0.0030518353451043367
4096.0,-0.002547558629885316
4608.0,-0.0038526456337422132
5120.0,-0.002040435327216983
5632.0,-0.001320551848039031
6144.0,-0.002032470190897584
6656.0,-0.00023433740716427565
7168.0,0.0012929420918226242
7680.0,0.0029813803266733885
8192.0,0.0023118881508708
end
