version,3.0
numOfCh,1
type,point
parent_name,0cd20_0dot4-0dot01
ch_type,1_1
kcount,1
numberNandB,1
brightnessNandB,1
carpet pos,0
pc,0
Time (ms),CH1 Auto-Correlation
1.0,0.030490724369883537
2.0,0.029331568628549576
3.0,0.028268836438655853
4.0,0.02726162225008011
5.0,0.02629808895289898
6.0,0.025414321571588516
7.0,0.024580316618084908
8.0,0.023764148354530334
9.0,0.022963758558034897
10.0,0.022218871861696243
11.0,0.021560586988925934
12.0,0.0209316685795784
13.0,0.020351946353912354
14.0,0.019844068214297295
15.0,0.01940891332924366
16.0,0.018964236602187157
18.0,0.018213829025626183
20.0,0.017539044842123985
22.0,0.016856724396348
24.0,0.016191447153687477
26.0,0.015607433393597603
28.0,0.015152144245803356
30.0,0.01472411397844553
32.0,0.014337889850139618
36.0,0.013499369844794273
40.0,0.01272771880030632
44.0,0.01204881351441145
48.0,0.011418627575039864
52.0,0.010849731042981148
56.0,0.01038680225610733
60.0,0.010010028257966042
64.0,0.00966311153024435
72.0,0.009039285592734814
80.0,0.008307074196636677
88.0,0.007553953677415848
96.0,0.007180897518992424
104.0,0.006774880923330784
112.0,0.006181289441883564
120.0,0.005144303198903799
128.0,0.004559203516691923
144.0,0.0036235866136848927
160.0,0.0024750258307904005
176.0,0.0015971058746799827
192.0,1.65457277034875e-05
208.0,-0.0007157191284932196
224.0,-0.0016242581186816096
240.0,-0.0019423910416662693
256.0,-0.001962528331205249
288.0,-0.0018388371681794524
320.0,-0.0018296706257387996
352.0,-0.002660571364685893
384.0,-0.002339836908504367
416.0,-0.0022002607583999634
448.0,-0.002451167441904545
480.0,-0.0024791641626507044
512.0,-0.0029722906183451414
576.0,-0.002607845701277256
640.0,-0.003136215964332223
704.0,-0.0038339849561452866
768.0,-0.0018359195673838258
832.0,-0.002739009680226445
896.0,-0.0015644951490685344
960.0,-0.0012720111990347505
1024.0,-6.921116437297314e-05
1152.0,0.0002145315520465374
1280.0,-0.0005642823525704443
1408.0,0.002159388968721032
1536.0,0.0015120001044124365
1664.0,0.0009766612201929092
1792.0,-0.0018337707733735442
1920.0,-0.001994877588003874
2048.0,-0.00014241618919186294
2304.0,0.0011373776942491531
2560.0,-0.0003554427239578217
2816.0,0.0002992074005305767
3072.0,0.0004604599380400032
3328.0,-0.0017465220298618078
3584.0,-0.001464201370254159
3840.0,0.000976824201643467
4096.0,0.0004369705857243389
4608.0,0.0013244843576103449
5120.0,-0.0008269224199466407
5632.0,0.00044611739576794207
6144.0,-0.0014385194517672062
6656.0,0.001193737960420549
7168.0,-0.00045388168655335903
7680.0,0.00010310344805475324
8192.0,-0.0006119857425801456
end
