version,3.0
numOfCh,1
type,point
parent_name,0cd20_0dot4-0dot01
ch_type,1_1
kcount,1
numberNandB,1
brightnessNandB,1
carpet pos,0
pc,0
Time (ms),CH1 Auto-Correlation
1.0,0.22537338733673096
2.0,0.224192813038826
3.0,0.22317487001419067
4.0,0.2221950739622116
5.0,0.22120428085327148
6.0,0.22022853791713715
7.0,0.21926914155483246
8.0,0.21835656464099884
9.0,0.21747729182243347
10.0,0.21665214002132416
11.0,0.21573637425899506
12.0,0.21478772163391113
13.0,0.21387740969657898
14.0,0.21293863654136658
15.0,0.2120658904314041
16.0,0.2111910879611969
18.0,0.20957288146018982
20.0,0.20797771215438843
22.0,0.20646488666534424
24.0,0.20511917769908905
26.0,0.20370203256607056
28.0,0.20250320434570312
30.0,0.20153658092021942
32.0,0.20048025250434875
36.0,0.1983238011598587
40.0,0.19615007936954498
44.0,0.1942811906337738
48.0,0.19266989827156067
52.0,0.19118180871009827
56.0,0.1897953748703003
60.0,0.1884896606206894
64.0,0.18736501038074493
72.0,0.1854299008846283
80.0,0.1837395876646042
88.0,0.18224819004535675
96.0,0.1796840876340866
104.0,0.17705340683460236
112.0,0.17463186383247375
120.0,0.17328843474388123
128.0,0.17197144031524658
144.0,0.170064777135849
160.0,0.16798271238803864
176.0,0.16507107019424438
192.0,0.1607206016778946
208.0,0.1571333408355713
224.0,0.154232457280159
240.0,0.15071240067481995
256.0,0.14508269727230072
288.0,0.12966535985469818
320.0,0.11870446056127548
352.0,0.10923866927623749
384.0,0.10059372335672379
416.0,0.08874626457691193
448.0,0.08101697266101837
480.0,0.07010382413864136
512.0,0.0520625039935112
576.0,0.029058117419481277
640.0,0.009240588173270226
704.0,-0.008776415139436722
768.0,-0.016586175188422203
832.0,-0.019938809797167778
896.0,-0.02120143733918667
960.0,-0.023779449984431267
1024.0,-0.021836062893271446
1152.0,-0.012361258268356323
1280.0,-0.0092543363571167
1408.0,-0.006565936375409365
1536.0,-0.013261658139526844
1664.0,-0.02100907824933529
1792.0,-0.03148995339870453
1920.0,-0.03402915596961975
2048.0,-0.03949808329343796
2304.0,-0.04904176667332649
2560.0,-0.05735127255320549
2816.0,-0.06791488081216812
3072.0,-0.07967332005500793
3328.0,-0.09616591036319733
3584.0,-0.10759035497903824
3840.0,-0.07320086658000946
4096.0,-0.01870153471827507
end
