version,3.0
numOfCh,1
type,point
parent_name,34a6d_0dot08-1dot0
ch_type,1_1
kcount,1
numberNandB,1
brightnessNandB,1
carpet pos,0
pc,0
Time (ms),CH1 Auto-Correlation
1.0,0.02168726548552513
2.0,0.021481575444340706
3.0,0.0212895255535841
4.0,0.021101806312799454
5.0,0.020918946713209152
6.0,0.020740078762173653
7.0,0.020573602989315987
8.0,0.02041659690439701
9.0,0.02025042288005352
10.0,0.020085638388991356
11.0,0.019919991493225098
12.0,0.019751956686377525
13.0,0.019595105201005936
14.0,0.019436895847320557
15.0,0.01928386092185974
16.0,0.01913801208138466
18.0,0.018841369077563286
20.0,0.018556416034698486
22.0,0.018282625824213028
24.0,0.018028059974312782
26.0,0.017783058807253838
28.0,0.01754172332584858
30.0,0.017295893281698227
32.0,0.01705055497586727
36.0,0.0165744349360466
40.0,0.01612967625260353
44.0,0.015689020976424217
48.0,0.015253118239343166
52.0,0.014799898490309715
56.0,0.014358549378812313
60.0,0.013927273452281952
64.0,0.013520141132175922
72.0,0.012799053452908993
80.0,0.012183057144284248
88.0,0.011656965129077435
96.0,0.011138924397528172
104.0,0.01059552002698183
112.0,0.010100864805281162
120.0,0.009679705835878849
128.0,0.00935451965779066
144.0,0.008793855085968971
160.0,0.008173814974725246
176.0,0.007675973232835531
192.0,0.007347954902797937
208.0,0.006986395921558142
224.0,0.006610112730413675
240.0,0.006493569817394018
256.0,0.006313578691333532
288.0,0.005565925966948271
320.0,0.004971867892891169
352.0,0.004577255807816982
384.0,0.0037512483540922403
416.0,0.00276769301854074
448.0,0.0020678495056927204
480.0,0.00196637911722064
512.0,0.002256745006889105
576.0,0.0018007660983130336
640.0,0.0016978767234832048
704.0,0.0006209281855262816
768.0,-0.0009197855833917856
832.0,-0.0010869770776480436
896.0,-0.0006358903483487666
960.0,-0.0010584923438727856
1024.0,-0.0024410984478890896
1152.0,-0.0021437013056129217
1280.0,-0.0007384566706605256
1408.0,2.100703386531677e-05
1536.0,0.00018153796554543078
1664.0,0.0003155445447191596
1792.0,0.0002552573278080672
1920.0,-0.0010896236635744572
2048.0,-0.001618227455765009
2304.0,-0.00013241366832517087
2560.0,0.0018311577150598168
2816.0,0.0003165269736200571
3072.0,-0.003466691356152296
3328.0,-0.005749137606471777
3584.0,-0.0051754796877503395
3840.0,-0.002330443589016795
4096.0,0.0010668989270925522
4608.0,0.0018917156849056482
5120.0,0.0010334409307688475
5632.0,0.0010724742896854877
6144.0,-0.0014447628054767847
6656.0,0.00035637925611808896
7168.0,0.0017511725891381502
7680.0,-0.0034086741507053375
8192.0,-0.0053672343492507935
end
