version,3.0
numOfCh,1
type,point
parent_name,34a6d_0dot08-1dot0
ch_type,1_1
kcount,1
numberNandB,1
brightnessNandB,1
carpet pos,0
pc,0
Time (ms),CH1 Auto-Correlation
1.0,0.024229981005191803
2.0,0.024020833894610405
3.0,0.023823384195566177
4.0,0.023639030754566193
5.0,0.023457370698451996
6.0,0.02327721007168293
7.0,0.023096712306141853
8.0,0.02292494848370552
9.0,0.02276017516851425
10.0,0.022590773180127144
11.0,0.022426126524806023
12.0,0.022263595834374428
13.0,0.022102447226643562
14.0,0.02193601243197918
15.0,0.021776944398880005
16.0,0.02161930501461029
18.0,0.021302780136466026
20.0,0.020979220047593117
22.0,0.020668163895606995
24.0,0.020374594256281853
26.0,0.020088907331228256
28.0,0.0198091808706522
30.0,0.01955161988735199
32.0,0.01929366961121559
36.0,0.01879187673330307
40.0,0.018316296860575676
44.0,0.01785479485988617
48.0,0.01740015298128128
52.0,0.01695984974503517
56.0,0.016517603769898415
60.0,0.01609303615987301
64.0,0.015700997784733772
72.0,0.014999567531049252
80.0,0.014264781028032303
88.0,0.013560098595917225
96.0,0.012933113612234592
104.0,0.012324892915785313
112.0,0.01171217393130064
120.0,0.011075945571064949
128.0,0.010447272099554539
144.0,0.009400184266269207
160.0,0.008594946935772896
176.0,0.007947984151542187
192.0,0.007441897410899401
208.0,0.007029063533991575
224.0,0.00671082129701972
240.0,0.006466361228376627
256.0,0.006186455022543669
288.0,0.005801336374133825
320.0,0.005712654907256365
352.0,0.0057158321142196655
384.0,0.00560019351541996
416.0,0.005840611644089222
448.0,0.00550389988347888
480.0,0.005036940332502127
512.0,0.004752326291054487
576.0,0.00423166248947382
640.0,0.004491673316806555
704.0,0.005284119863063097
768.0,0.004227493889629841
832.0,0.0020999000407755375
896.0,0.0015086953062564135
960.0,0.002434118650853634
1024.0,0.0038510134909301996
1152.0,0.004908523056656122
1280.0,0.0024601947516202927
1408.0,0.003454882651567459
1536.0,0.003146737813949585
1664.0,0.0047215926460921764
1792.0,0.004704556427896023
1920.0,0.004382021725177765
2048.0,0.0035726786591112614
2304.0,0.0003313185297884047
2560.0,-0.00117960455827415
2816.0,-0.0003391858481336385
3072.0,-0.0008666295907460153
3328.0,0.0014758595498278737
3584.0,-0.00013402967306319624
3840.0,-5.996482286718674e-05
4096.0,-0.0002195308916270733
4608.0,-0.0018607925157994032
5120.0,-0.001334685948677361
5632.0,-0.0021589291281998158
6144.0,-0.003981982357800007
6656.0,-0.0015353003982454538
7168.0,-0.0019022144842892885
7680.0,-0.001419163541868329
8192.0,-0.004334952682256699
end
