version,3.0
numOfCh,1
type,point
parent_name,34a6d_0dot08-1dot0
ch_type,1_1
kcount,1
numberNandB,1
brightnessNandB,1
carpet pos,0
pc,0
Time (ms),CH1 Auto-Correlation
1.0,0.023115675896406174
2.0,0.02292526513338089
3.0,0.022742677479982376
4.0,0.02257329598069191
5.0,0.022402944043278694
6.0,0.02223518118262291
7.0,0.022068405523896217
8.0,0.021895257756114006
9.0,0.021726949140429497
10.0,0.02156350575387478
11.0,0.021398620679974556
12.0,0.021242106333374977
13.0,0.021081531420350075
14.0,0.020921017974615097
15.0,0.020764963701367378
16.0,0.02061212994158268
18.0,0.02031615376472473
20.0,0.020024744793772697
22.0,0.019725102931261063
24.0,0.019425539299845695
26.0,0.019126400351524353
28.0,0.0188387893140316
30.0,0.018558811396360397
32.0,0.018280617892742157
36.0,0.017753303050994873
40.0,0.01725097745656967
44.0,0.016764787957072258
48.0,0.016324054449796677
52.0,0.01589193381369114
56.0,0.01545269601047039
60.0,0.015024727210402489
64.0,0.014626393094658852
72.0,0.013961417600512505
80.0,0.013352171517908573
88.0,0.012794175185263157
96.0,0.012301702052354813
104.0,0.011855473741889
112.0,0.011401255615055561
120.0,0.010956104844808578
128.0,0.010497971437871456
144.0,0.009679893963038921
160.0,0.008829005993902683
176.0,0.007979572750627995
192.0,0.007445996627211571
208.0,0.00704549066722393
224.0,0.006563570350408554
240.0,0.0061101773753762245
256.0,0.005713694263249636
288.0,0.0051893554627895355
320.0,0.004732790868729353
352.0,0.004858542233705521
384.0,0.005243027117103338
416.0,0.005477179307490587
448.0,0.00532279908657074
480.0,0.004609322175383568
512.0,0.0033041671849787235
576.0,0.0014432440511882305
640.0,0.0004518372588790953
704.0,1.2360891560092568e-05
768.0,-0.0003119206230621785
832.0,-0.0002629859955050051
896.0,-6.789345934521407e-05
960.0,-0.0005799913196824491
1024.0,-0.0007706836913712323
1152.0,0.0006631778669543564
1280.0,0.00081337132724002
1408.0,0.0005599844735115767
1536.0,-0.0004778154252562672
1664.0,-0.0009615449816919863
1792.0,-0.0014545406447723508
1920.0,-0.0021786391735076904
2048.0,-0.0026947229634970427
2304.0,0.0002984743914566934
2560.0,0.002555329818278551
2816.0,0.004958340898156166
3072.0,0.0017471067840233445
3328.0,0.001931475824676454
3584.0,-0.001915681641548872
3840.0,-0.0004390928952489048
4096.0,-0.003638914320617914
4608.0,-0.0039794244803488255
5120.0,-0.002203478245064616
5632.0,-0.0010814453708007932
6144.0,0.001968130934983492
6656.0,0.00032690344960428774
7168.0,-0.0010120104998350143
7680.0,-0.0025086314417421818
8192.0,-0.0037271149922162294
end
