version,3.0
numOfCh,1
type,point
parent_name,34a6d_0dot08-1dot0
ch_type,1_1
kcount,1
numberNandB,1
brightnessNandB,1
carpet pos,0
pc,0
Time (ms),CH1 Auto-Correlation
1.0,0.02252635359764099
2.0,0.022310644388198853
3.0,0.02211572602391243
4.0,0.02192460373044014
5.0,0.021739300340414047
6.0,0.021558208391070366
7.0,0.021382275968790054
8.0,0.021202752366662025
9.0,0.0210338793694973
10.0,0.020864902064204216
11.0,0.020698782056570053
12.0,0.02053869515657425
13.0,0.02036772295832634
14.0,0.020202388986945152
15.0,0.020044401288032532
16.0,0.019884008914232254
18.0,0.01956842839717865
20.0,0.01925409398972988
22.0,0.018958866596221924
24.0,0.018671153113245964
26.0,0.018387887626886368
28.0,0.018120747059583664
30.0,0.01785356178879738
32.0,0.01759137213230133
36.0,0.017108803614974022
40.0,0.016657376661896706
44.0,0.016242559999227524
48.0,0.015861643478274345
52.0,0.0154957827180624
56.0,0.01514731626957655
60.0,0.014799059368669987
64.0,0.01447883527725935
72.0,0.013897194527089596
80.0,0.013307193294167519
88.0,0.012726396322250366
96.0,0.012148960493505001
104.0,0.01158257108181715
112.0,0.01100483164191246
120.0,0.010531306266784668
128.0,0.010109521448612213
144.0,0.009475319646298885
160.0,0.008929659612476826
176.0,0.0085038086399436
192.0,0.008308831602334976
208.0,0.00807942170649767
224.0,0.007841203361749649
240.0,0.007743027061223984
256.0,0.007750794757157564
288.0,0.007449273020029068
320.0,0.006982795428484678
352.0,0.0062838890589773655
384.0,0.005327228922396898
416.0,0.0045493049547076225
448.0,0.004201632458716631
480.0,0.0035993196070194244
512.0,0.0030696706380695105
576.0,0.0018730980809777975
640.0,0.00070149265229702
704.0,0.00016902988136280328
768.0,0.000216112079215236
832.0,0.0004952742019668221
896.0,0.0007427920936606824
960.0,0.0009130511316470802
1024.0,0.0003866675542667508
1152.0,0.0002404000551905483
1280.0,0.0001643737341510132
1408.0,0.0008902396075427532
1536.0,-0.0006054925615899265
1664.0,-0.0006676196353510022
1792.0,-0.0008116678800433874
1920.0,-0.000325684726703912
2048.0,-0.0013750351499766111
2304.0,9.637285984354094e-05
2560.0,0.0032583975698798895
2816.0,0.0048353043384850025
3072.0,0.002614234108477831
3328.0,-0.0020509331952780485
3584.0,-0.0042851995676755905
3840.0,-0.004505186807364225
4096.0,-0.003919593989849091
4608.0,-0.0005464344285428524
5120.0,-0.0008727520471438766
5632.0,0.00038224528543651104
6144.0,-0.0028939414769411087
6656.0,-0.00475737452507019
7168.0,-0.003506567096337676
7680.0,-0.0029740205500274897
8192.0,-0.0023910498712211847
end
