version,3.0
numOfCh,1
type,point
parent_name,34a6d_0dot08-1dot0
ch_type,1_1
kcount,1
numberNandB,1
brightnessNandB,1
carpet pos,0
pc,0
Time (ms),CH1 Auto-Correlation
1.0,0.02787758596241474
2.0,0.027653973549604416
3.0,0.027449358254671097
4.0,0.027253687381744385
5.0,0.027070797979831696
6.0,0.02688606083393097
7.0,0.026705840602517128
8.0,0.02653016336262226
9.0,0.026351962238550186
10.0,0.026188945397734642
11.0,0.02603190392255783
12.0,0.025872565805912018
13.0,0.025716127827763557
14.0,0.0255588311702013
15.0,0.0254063680768013
16.0,0.02526358887553215
18.0,0.024987047538161278
20.0,0.024722889065742493
22.0,0.024458281695842743
24.0,0.02419358678162098
26.0,0.02393106371164322
28.0,0.0236741304397583
30.0,0.02342081256210804
32.0,0.02316027507185936
36.0,0.022629423066973686
40.0,0.022099556401371956
44.0,0.021626848727464676
48.0,0.021209347993135452
52.0,0.020818736404180527
56.0,0.020440811291337013
60.0,0.020072028040885925
64.0,0.019691426306962967
72.0,0.018998578190803528
80.0,0.018349116668105125
88.0,0.017756517976522446
96.0,0.017255831509828568
104.0,0.01679891161620617
112.0,0.016302937641739845
120.0,0.015785152092576027
128.0,0.015371116809546947
144.0,0.014626591466367245
160.0,0.014056871645152569
176.0,0.013492939993739128
192.0,0.013015054166316986
208.0,0.012649884447455406
224.0,0.012020999565720558
240.0,0.011340249329805374
256.0,0.010729258880019188
288.0,0.009583725593984127
320.0,0.00875111948698759
352.0,0.00812077708542347
384.0,0.007417697925120592
416.0,0.006763210520148277
448.0,0.006119748577475548
480.0,0.005763821769505739
512.0,0.0057707373052835464
576.0,0.0064058201387524605
640.0,0.00693998159840703
704.0,0.006819590460509062
768.0,0.006371250841766596
832.0,0.004575331695377827
896.0,0.002435915172100067
960.0,0.0007856818847358227
1024.0,-0.00045474793296307325
1152.0,-0.0013359802542254329
1280.0,-0.0010790744563564658
1408.0,-0.0017111283959820867
1536.0,-0.002304385881870985
1664.0,-0.003249197034165263
1792.0,-0.004814166575670242
1920.0,-0.004887090530246496
2048.0,-0.0040250071324408054
2304.0,-0.004557567648589611
2560.0,-0.0021246918477118015
2816.0,0.0010654317447915673
3072.0,0.0013984639663249254
3328.0,0.0025755823589861393
3584.0,0.002020617015659809
3840.0,0.00023728088126517832
4096.0,-0.0009832034120336175
4608.0,-0.005114336498081684
5120.0,-0.005717744585126638
5632.0,-0.0032839367631822824
6144.0,0.0003472386742942035
6656.0,0.0003315360227134079
7168.0,-0.0014671218814328313
7680.0,-0.004666764289140701
8192.0,-0.002349941059947014
end
