version,3.0
numOfCh,1
type,point
parent_name,34a6d_0dot08-1dot0
ch_type,1_1
kcount,1
numberNandB,1
brightnessNandB,1
carpet pos,0
pc,0
Time (ms),CH1 Auto-Correlation
1.0,0.02100580930709839
2.0,0.020817043259739876
3.0,0.020629705861210823
4.0,0.02044607885181904
5.0,0.020266667008399963
6.0,0.020088162273168564
7.0,0.019906682893633842
8.0,0.019733009859919548
9.0,0.019568204879760742
10.0,0.019399961456656456
11.0,0.019233882427215576
12.0,0.01906903274357319
13.0,0.018908575177192688
14.0,0.01875934563577175
15.0,0.01861250214278698
16.0,0.018474940210580826
18.0,0.018198233097791672
20.0,0.017912672832608223
22.0,0.01762327179312706
24.0,0.017345115542411804
26.0,0.01708349958062172
28.0,0.01683547906577587
30.0,0.01659194938838482
32.0,0.01634898968040943
36.0,0.015870824456214905
40.0,0.015410755760967731
44.0,0.014958065934479237
48.0,0.014513567090034485
52.0,0.01409043651074171
56.0,0.013704617507755756
60.0,0.0133684566244483
64.0,0.013057260774075985
72.0,0.012424214743077755
80.0,0.011831996962428093
88.0,0.011296152137219906
96.0,0.010828753933310509
104.0,0.010403750464320183
112.0,0.010105897672474384
120.0,0.009925280697643757
128.0,0.009710535407066345
144.0,0.009382949210703373
160.0,0.009057750925421715
176.0,0.00865777675062418
192.0,0.008411582559347153
208.0,0.008042769506573677
224.0,0.007824242115020752
240.0,0.0077207316644489765
256.0,0.007515924051403999
288.0,0.007495027966797352
320.0,0.0075398655608296394
352.0,0.007037105038762093
384.0,0.00614393875002861
416.0,0.005004094447940588
448.0,0.0045182048343122005
480.0,0.004381201229989529
512.0,0.0039162891916930676
576.0,0.0034260274842381477
640.0,0.003332184860482812
704.0,0.0028984511736780405
768.0,0.0030991993844509125
832.0,0.0036689413245767355
896.0,0.004450226668268442
960.0,0.004952840507030487
1024.0,0.004342977423220873
1152.0,0.004096515476703644
1280.0,0.005015766713768244
1408.0,0.004615716636180878
1536.0,0.0037550460547208786
1664.0,0.004672126844525337
1792.0,0.005208175629377365
1920.0,0.005030978471040726
2048.0,0.003558351192623377
2304.0,0.001833446091040969
2560.0,0.0006698142387904227
2816.0,0.0012097506551072001
3072.0,0.0007109007565304637
3328.0,0.00016162102110683918
3584.0,0.0007196301012299955
3840.0,0.00040284410351887345
4096.0,-0.0009763485286384821
4608.0,-0.0034641416277736425
5120.0,-0.004339099396020174
5632.0,-0.0030031343922019005
6144.0,-0.004004029557108879
6656.0,-0.0033454233780503273
7168.0,-0.0011983191361650825
7680.0,-0.004761537536978722
8192.0,-0.005247124470770359
end
