version,3.0
numOfCh,1
type,point
parent_name,34a6d_0dot08-1dot0
ch_type,1_1
kcount,1
numberNandB,1
brightnessNandB,1
carpet pos,0
pc,0
Time (ms),CH1 Auto-Correlation
1.0,0.02123982086777687
2.0,0.02103416994214058
3.0,0.02083708718419075
4.0,0.020653914660215378
5.0,0.020474396646022797
6.0,0.020303577184677124
7.0,0.02012871764600277
8.0,0.019960403442382812
9.0,0.019799107685685158
10.0,0.019641082733869553
11.0,0.019477680325508118
12.0,0.01931602694094181
13.0,0.019153745844960213
14.0,0.019003182649612427
15.0,0.018857724964618683
16.0,0.01871136948466301
18.0,0.018429461866617203
20.0,0.018145402893424034
22.0,0.017865417525172234
24.0,0.017604384571313858
26.0,0.01735624484717846
28.0,0.01711423136293888
30.0,0.016896015033125877
32.0,0.016675911843776703
36.0,0.016237322241067886
40.0,0.015829017385840416
44.0,0.015426435507833958
48.0,0.015036555007100105
52.0,0.014679520390927792
56.0,0.0143223125487566
60.0,0.013957872055470943
64.0,0.013630823232233524
72.0,0.012999875470995903
80.0,0.012321295216679573
88.0,0.011616410687565804
96.0,0.01088615320622921
104.0,0.010250771418213844
112.0,0.00979937519878149
120.0,0.009449505247175694
128.0,0.009109171107411385
144.0,0.008668760769069195
160.0,0.008363633416593075
176.0,0.007830276153981686
192.0,0.007355299778282642
208.0,0.007000508718192577
224.0,0.006549830548465252
240.0,0.006222013384103775
256.0,0.0058752200566232204
288.0,0.005250823218375444
320.0,0.004690700210630894
352.0,0.004735439084470272
384.0,0.004551445599645376
416.0,0.004699137061834335
448.0,0.004812333732843399
480.0,0.004399188328534365
512.0,0.004212810192257166
576.0,0.003541406476870179
640.0,0.0028928439132869244
704.0,0.0024562273174524307
768.0,0.0021282117813825607
832.0,0.001181929837912321
896.0,0.0007008337997831404
960.0,0.0012050862424075603
1024.0,0.0012666265247389674
1152.0,0.0006591465789824724
1280.0,-0.0003668219142127782
1408.0,-0.0023823888041079044
1536.0,-0.0014864674303680658
1664.0,-0.0012943436158820987
1792.0,-0.0017476624343544245
1920.0,-0.0028240063693374395
2048.0,-0.002562417648732662
2304.0,-0.0017514950595796108
2560.0,-0.0008633516263216734
2816.0,-2.0485906134126708e-05
3072.0,0.00022490024275612086
3328.0,-0.00026544087450020015
3584.0,0.0009405284654349089
3840.0,0.00022794530377723277
4096.0,6.237839443201665e-06
4608.0,-0.0009323728154413402
5120.0,-0.001654048333875835
5632.0,-0.0027885062154382467
6144.0,-8.10373094282113e-05
6656.0,-0.0023905038833618164
7168.0,-0.0008459793170914054
7680.0,0.001914302003569901
8192.0,0.00037576607428491116
end
