version,3.0
numOfCh,1
type,point
parent_name,34a6d_0dot08-1dot0
ch_type,1_1
kcount,1
numberNandB,1
brightnessNandB,1
carpet pos,0
pc,0
Time (ms),CH1 Auto-Correlation
1.0,0.016656650230288506
2.0,0.016458194702863693
3.0,0.01626354455947876
4.0,0.016082163900136948
5.0,0.01590539701282978
6.0,0.015732387080788612
7.0,0.015568804927170277
8.0,0.015400344505906105
9.0,0.01524385530501604
10.0,0.015093217603862286
11.0,0.014937520027160645
12.0,0.014777916483581066
13.0,0.014631802216172218
14.0,0.014491958543658257
15.0,0.014350789599120617
16.0,0.014213883318006992
18.0,0.013954121619462967
20.0,0.013698950409889221
22.0,0.013451654464006424
24.0,0.013207118026912212
26.0,0.012971194460988045
28.0,0.01275046169757843
30.0,0.012533222325146198
32.0,0.012318987399339676
36.0,0.011901404708623886
40.0,0.011520154774188995
44.0,0.011161892674863338
48.0,0.010824808850884438
52.0,0.010484092868864536
56.0,0.01014964934438467
60.0,0.009842481464147568
64.0,0.009523950517177582
72.0,0.00890088826417923
80.0,0.00833412166684866
88.0,0.007853955961763859
96.0,0.007490810938179493
104.0,0.007202457636594772
112.0,0.006887300871312618
120.0,0.006600965745747089
128.0,0.006424440536648035
144.0,0.006127063650637865
160.0,0.005826728884130716
176.0,0.005336360540241003
192.0,0.004952071700245142
208.0,0.0044972277246415615
224.0,0.0040463958866894245
240.0,0.0036724130623042583
256.0,0.003345323260873556
288.0,0.0027936312835663557
320.0,0.002706666477024555
352.0,0.002756836824119091
384.0,0.0026886702980846167
416.0,0.0025331510696560144
448.0,0.0019018073799088597
480.0,0.0012896984117105603
512.0,0.0007319370051845908
576.0,0.0003496424469631165
640.0,9.242097439710051e-05
704.0,0.00013069353008177131
768.0,-0.0001512726303189993
832.0,-0.0008097206009551883
896.0,-0.0011361619690433145
960.0,-0.0010645182337611914
1024.0,-0.0011956370435655117
1152.0,-2.0274312191759236e-05
1280.0,-0.0007989948499016464
1408.0,-0.0019020431209355593
1536.0,-0.0014848989667370915
1664.0,-0.0005935195367783308
1792.0,0.0007805945933796465
1920.0,0.0004313054378144443
2048.0,0.00041246661567129195
2304.0,0.0017624283209443092
2560.0,0.001089489902369678
2816.0,0.00212929118424654
3072.0,0.00182089873123914
3328.0,-0.0009353624773211777
3584.0,-0.0025933650322258472
3840.0,-0.002333305077627301
4096.0,-0.0012606504606083035
4608.0,-0.0022968584671616554
5120.0,-0.0022926628589630127
5632.0,-0.002393185393884778
6144.0,2.108434637193568e-05
6656.0,-0.00030446864548139274
7168.0,-0.0008912464836612344
7680.0,-0.003976558335125446
8192.0,-0.0016006603837013245
end
