version,3.0
numOfCh,1
type,point
parent_name,34a6d_0dot08-1dot0
ch_type,1_1
kcount,1
numberNandB,1
brightnessNandB,1
carpet pos,0
pc,0
Time (ms),CH1 Auto-Correlation
1.0,0.020170865580439568
2.0,0.019893985241651535
3.0,0.0196551326662302
4.0,0.019452441483736038
5.0,0.019252413883805275
6.0,0.019070694223046303
7.0,0.01890837773680687
8.0,0.01874609850347042
9.0,0.018586531281471252
10.0,0.01843257248401642
11.0,0.018284402787685394
12.0,0.018132055178284645
13.0,0.01797865703701973
14.0,0.017834799364209175
15.0,0.01769397221505642
16.0,0.017558589577674866
18.0,0.01728006638586521
20.0,0.017015641555190086
22.0,0.01674886792898178
24.0,0.016499871388077736
26.0,0.016264449805021286
28.0,0.016016915440559387
30.0,0.01578621193766594
32.0,0.015604102052748203
36.0,0.015234635211527348
40.0,0.014889051206409931
44.0,0.014564062468707561
48.0,0.014265403151512146
52.0,0.013970389030873775
56.0,0.013686927035450935
60.0,0.013422729447484016
64.0,0.01318240724503994
72.0,0.012698983773589134
80.0,0.012199968099594116
88.0,0.011759531684219837
96.0,0.011322284117341042
104.0,0.010926621034741402
112.0,0.01050321664661169
120.0,0.010158631950616837
128.0,0.009870840236544609
144.0,0.009276087395846844
160.0,0.008876415900886059
176.0,0.008596664294600487
192.0,0.008332488127052784
208.0,0.007975013926625252
224.0,0.007440649904310703
240.0,0.006868814118206501
256.0,0.0063658347353339195
288.0,0.005337613169103861
320.0,0.004506704863160849
352.0,0.004193090833723545
384.0,0.003827406093478203
416.0,0.0036713513545691967
448.0,0.0035757364239543676
480.0,0.0031499413307756186
512.0,0.0025576481129974127
576.0,0.0016669867327436805
640.0,0.0006137435557320714
704.0,-3.2015850592870265e-05
768.0,-0.0002439531817799434
832.0,-0.0003754568751901388
896.0,-0.0007643326534889638
960.0,-0.0017939876997843385
1024.0,-0.002758341608569026
1152.0,-0.004407862666994333
1280.0,-0.004539378918707371
1408.0,-0.0030733603052794933
1536.0,-0.0012297199573367834
1664.0,-0.0016476919408887625
1792.0,-0.003056658897548914
1920.0,-0.004004532005637884
2048.0,-0.0033897114917635918
2304.0,-0.0034018224105238914
2560.0,0.00021918906713835895
2816.0,0.0014970282791182399
3072.0,0.0032181537244468927
3328.0,0.002890779171139002
3584.0,0.0030929844360798597
3840.0,0.00028164367540739477
4096.0,-6.110479444032535e-05
4608.0,-0.00411500409245491
5120.0,-0.0027684138622134924
5632.0,-0.00048667375813238323
6144.0,0.0025134920142591
6656.0,0.00431332690641284
7168.0,0.0005844030529260635
7680.0,-0.0026241333689540625
8192.0,-0.0036905899178236723
end
