version,3.0
numOfCh,1
type,point
parent_name,34a6d_0dot08-1dot0
ch_type,1_1
kcount,1
numberNandB,1
brightnessNandB,1
carpet pos,0
pc,0
Time (ms),CH1 Auto-Correlation
1.0,0.015893349424004555
2.0,0.015646979212760925
3.0,0.015422580763697624
4.0,0.01521205622702837
5.0,0.015007153153419495
6.0,0.014819977805018425
7.0,0.014629244804382324
8.0,0.014448452740907669
9.0,0.014265289530158043
10.0,0.014070849865674973
11.0,0.01388661377131939
12.0,0.013690885156393051
13.0,0.013506406918168068
14.0,0.013333638198673725
15.0,0.013155852444469929
16.0,0.012972541153430939
18.0,0.012637780047953129
20.0,0.01229478046298027
22.0,0.011948123574256897
24.0,0.011617878451943398
26.0,0.011306057684123516
28.0,0.011001631617546082
30.0,0.010713203810155392
32.0,0.010440133512020111
36.0,0.010000531561672688
40.0,0.009585930034518242
44.0,0.009196067228913307
48.0,0.008842752315104008
52.0,0.008490939624607563
56.0,0.008169818669557571
60.0,0.007833695039153099
64.0,0.007518426049500704
72.0,0.006936353165656328
80.0,0.006413630675524473
88.0,0.006005735136568546
96.0,0.0056702252477407455
104.0,0.005359819158911705
112.0,0.005094178952276707
120.0,0.00485982745885849
128.0,0.004567309282720089
144.0,0.0038446947000920773
160.0,0.003219162579625845
176.0,0.002856642007827759
192.0,0.002755028661340475
208.0,0.0026201168075203896
224.0,0.0020169175695627928
240.0,0.0014156335964798927
256.0,0.0011134312953799963
288.0,0.0009200643398799002
320.0,0.0006359462277032435
352.0,0.00024054542882367969
384.0,-0.0002586329937912524
416.0,-0.0005113355000503361
448.0,-0.000430352461989969
480.0,-0.0004767407663166523
512.0,-0.0007813108968548477
576.0,-0.0011243008775636554
640.0,-0.0013540738727897406
704.0,-0.0013790586963295937
768.0,-0.002140905475243926
832.0,-0.0015136305009946227
896.0,-0.00011074144276790321
960.0,-0.00015027915651444346
1024.0,0.0004247775941621512
1152.0,0.001046589226461947
1280.0,0.0008910433971323073
1408.0,-0.00013113244494888932
1536.0,-0.0008944402798078954
1664.0,-0.0008835801272653043
1792.0,-0.00026429773424752057
1920.0,-0.0009978001471608877
2048.0,-0.0008038696250878274
2304.0,0.0004647000168915838
2560.0,-0.0005297036259435117
2816.0,-0.0011770313140004873
3072.0,-0.001582953380420804
3328.0,-0.0006442345911636949
3584.0,0.0003316004585940391
3840.0,-0.0012005845783278346
4096.0,-0.0010460992343723774
4608.0,0.0007263661827892065
5120.0,0.00018953316612169147
5632.0,0.0013873153366148472
6144.0,0.0013882173225283623
6656.0,0.0006147078238427639
7168.0,-0.0012646712129935622
7680.0,-0.0002632461837492883
8192.0,-0.001343995681963861
end
