version,3.0
numOfCh,1
type,point
parent_name,34a6d_0dot08-1dot0
ch_type,1_1
kcount,1
numberNandB,1
brightnessNandB,1
carpet pos,0
pc,0
Time (ms),CH1 Auto-Correlation
1.0,0.023377006873488426
2.0,0.023149218410253525
3.0,0.02293904311954975
4.0,0.022729115560650826
5.0,0.022529372945427895
6.0,0.02233920432627201
7.0,0.02214083820581436
8.0,0.021950451657176018
9.0,0.021762356162071228
10.0,0.021572565659880638
11.0,0.021400554105639458
12.0,0.021233804523944855
13.0,0.02108042873442173
14.0,0.02093430422246456
15.0,0.020791811868548393
16.0,0.020644471049308777
18.0,0.02035973034799099
20.0,0.020088892430067062
22.0,0.0198222529143095
24.0,0.019563425332307816
26.0,0.019320962950587273
28.0,0.019089968875050545
30.0,0.01886032707989216
32.0,0.018632441759109497
36.0,0.018201928585767746
40.0,0.017773400992155075
44.0,0.01738346368074417
48.0,0.017037905752658844
52.0,0.01672380045056343
56.0,0.016417328268289566
60.0,0.01611863635480404
64.0,0.015834461897611618
72.0,0.015311731025576591
80.0,0.014811151660978794
88.0,0.014374997466802597
96.0,0.013998664915561676
104.0,0.013672586530447006
112.0,0.013338303193449974
120.0,0.012957911938428879
128.0,0.012615473940968513
144.0,0.011924773454666138
160.0,0.01136216800659895
176.0,0.01089479960501194
192.0,0.010541863739490509
208.0,0.010371509939432144
224.0,0.010156909935176373
240.0,0.009948674589395523
256.0,0.009711507707834244
288.0,0.009142589755356312
320.0,0.008404393680393696
352.0,0.007924497127532959
384.0,0.007360527291893959
416.0,0.006702987942844629
448.0,0.0060536847449839115
480.0,0.0054754409939050674
512.0,0.0049574351869523525
576.0,0.0041464101523160934
640.0,0.004049030598253012
704.0,0.004562561400234699
768.0,0.0044859787449240685
832.0,0.004364843480288982
896.0,0.004577965475618839
960.0,0.004004335962235928
1024.0,0.0033372037578374147
1152.0,0.001330581959336996
1280.0,3.5216129617765546e-05
1408.0,-0.0018629521364346147
1536.0,-0.004538395907729864
1664.0,-0.005234729032963514
1792.0,-0.004176273941993713
1920.0,-0.0034023569896817207
2048.0,-0.002225201576948166
2304.0,-0.00167173205409199
2560.0,-0.002655741525813937
2816.0,-0.0031366150360554457
3072.0,-0.001864216523244977
3328.0,-0.0008487866725772619
3584.0,-0.002164209261536598
3840.0,-0.0034041772596538067
4096.0,-0.0011743663344532251
4608.0,3.301311153336428e-05
5120.0,-0.0010564855765551329
5632.0,-0.0022630721796303988
6144.0,-0.001354823587462306
6656.0,0.0025428563822060823
7168.0,0.004726958926767111
7680.0,0.0025675403885543346
8192.0,-0.0034689942840486765
end
