version,3.0
numOfCh,1
type,point
parent_name,34a6d_0dot08-1dot0
ch_type,1_1
kcount,1
numberNandB,1
brightnessNandB,1
carpet pos,0
pc,0
Time (ms),CH1 Auto-Correlation
1.0,0.026573291048407555
2.0,0.026377055794000626
3.0,0.026194728910923004
4.0,0.026010459288954735
5.0,0.025827517732977867
6.0,0.02565273642539978
7.0,0.025490060448646545
8.0,0.025330783799290657
9.0,0.025168947875499725
10.0,0.02500658668577671
11.0,0.024847164750099182
12.0,0.024691730737686157
13.0,0.024535831063985825
14.0,0.02437666244804859
15.0,0.024228570982813835
16.0,0.024080129340291023
18.0,0.02377346344292164
20.0,0.02347177267074585
22.0,0.023173494264483452
24.0,0.022888392210006714
26.0,0.022624177858233452
28.0,0.022379064932465553
30.0,0.022134952247142792
32.0,0.02189500629901886
36.0,0.0214252807199955
40.0,0.020997056737542152
44.0,0.02060673199594021
48.0,0.02019757218658924
52.0,0.01977880485355854
56.0,0.019376544281840324
60.0,0.019001740962266922
64.0,0.018666258081793785
72.0,0.018060004338622093
80.0,0.017518730834126472
88.0,0.01703953556716442
96.0,0.016580509021878242
104.0,0.016214361414313316
112.0,0.015843549743294716
120.0,0.015461320988833904
128.0,0.015158725902438164
144.0,0.01449752226471901
160.0,0.013813456520438194
176.0,0.01336042769253254
192.0,0.012948501855134964
208.0,0.012387832626700401
224.0,0.011979538947343826
240.0,0.011669093742966652
256.0,0.011113636195659637
288.0,0.009828157722949982
320.0,0.008829114958643913
352.0,0.00820063054561615
384.0,0.007827576249837875
416.0,0.007417650893330574
448.0,0.007022981997579336
480.0,0.006598930340260267
512.0,0.006353531964123249
576.0,0.005842003505676985
640.0,0.0055435714311897755
704.0,0.005397262517362833
768.0,0.005078945774585009
832.0,0.004501895979046822
896.0,0.0024464516900479794
960.0,0.0022741782013326883
1024.0,0.002426297403872013
1152.0,0.0017906558932736516
1280.0,0.0019467435777187347
1408.0,0.0034521790221333504
1536.0,0.006304891314357519
1664.0,0.007346166763454676
1792.0,0.005913176108151674
1920.0,0.0038861746434122324
2048.0,0.0013942478690296412
2304.0,-0.0003268115979153663
2560.0,-0.0032135811634361744
2816.0,-0.006358723156154156
3072.0,-0.004981194622814655
3328.0,-0.002188186626881361
3584.0,-0.003972420934587717
3840.0,-0.006129876244813204
4096.0,-0.008243568241596222
4608.0,-0.009598318487405777
5120.0,-0.007857617922127247
5632.0,-0.003080069087445736
6144.0,-0.0034753342624753714
6656.0,0.001047195983119309
7168.0,0.002405031118541956
7680.0,0.004609683062881231
8192.0,0.0045756627805531025
end
