version,3.0
numOfCh,1
type,point
parent_name,34a6d_0dot08-1dot0
ch_type,1_1
kcount,1
numberNandB,1
brightnessNandB,1
carpet pos,0
pc,0
Time (ms),CH1 Auto-Correlation
1.0,0.015585746616125107
2.0,0.015367056243121624
3.0,0.015175798907876015
4.0,0.014989505521953106
5.0,0.014815510250627995
6.0,0.01463832426816225
7.0,0.014465851709246635
8.0,0.014304141514003277
9.0,0.014144140295684338
10.0,0.013986497186124325
11.0,0.013828434981405735
12.0,0.013677778653800488
13.0,0.013525941409170628
14.0,0.013379023410379887
15.0,0.013244151137769222
16.0,0.013107133097946644
18.0,0.012832571752369404
20.0,0.012552709318697453
22.0,0.012276433408260345
24.0,0.01201048493385315
26.0,0.011757520027458668
28.0,0.011512006632983685
30.0,0.011273645795881748
32.0,0.011052976362407207
36.0,0.010602385737001896
40.0,0.010133283212780952
44.0,0.009668467566370964
48.0,0.009216934442520142
52.0,0.008755441755056381
56.0,0.008336820639669895
60.0,0.007974009960889816
64.0,0.007632297929376364
72.0,0.006994087714701891
80.0,0.0064551192335784435
88.0,0.005900687538087368
96.0,0.005352348554879427
104.0,0.004922580439597368
112.0,0.0045640720054507256
120.0,0.004266354721039534
128.0,0.004003345966339111
144.0,0.0036177579313516617
160.0,0.0033084775786846876
176.0,0.002887208480387926
192.0,0.002483946504071355
208.0,0.0021888178307563066
224.0,0.00196477840654552
240.0,0.0017242789035663009
256.0,0.0015707879792898893
288.0,0.0012901747832074761
320.0,0.000958976917900145
352.0,0.0009372638305649161
384.0,0.0007534151081927121
416.0,0.00041783670894801617
448.0,-3.1103958463063464e-05
480.0,-0.0005415710038505495
512.0,-0.0008143805316649377
576.0,-0.0012708439026027918
640.0,-0.00196184148080647
704.0,-0.002483626827597618
768.0,-0.002471398562192917
832.0,-0.0022527375258505344
896.0,-0.001396187231875956
960.0,-0.0009993895655497909
1024.0,-0.001958116190508008
1152.0,-0.002036520279943943
1280.0,-0.0012679197825491428
1408.0,-0.0005223805783316493
1536.0,-0.0009275403572246432
1664.0,-0.0008147675544023514
1792.0,0.0005827932618558407
1920.0,0.00043059609015472233
2048.0,-0.0014148011105135083
2304.0,-2.3345090085058473e-05
2560.0,0.0009597365278750658
2816.0,0.002697848482057452
3072.0,0.00040174531750380993
3328.0,0.0007410910329781473
3584.0,-0.0009068588842637837
3840.0,0.0004612909979186952
4096.0,-0.0015042464947327971
4608.0,0.00020890022278763354
5120.0,0.0008941865526139736
5632.0,-4.52937456429936e-05
6144.0,-0.0012048975331708789
6656.0,-0.0003984302165918052
7168.0,-0.00023057105136103928
7680.0,0.000865287147462368
8192.0,0.0014924908755347133
end
