version,3.0
numOfCh,1
type,point
parent_name,34a6d_0dot08-1dot0
ch_type,1_1
kcount,1
numberNandB,1
brightnessNandB,1
carpet pos,0
pc,0
Time (ms),CH1 Auto-Correlation
1.0,0.02337642014026642
2.0,0.02315274067223072
3.0,0.0229397751390934
4.0,0.02272324450314045
5.0,0.022514091804623604
6.0,0.022323457524180412
7.0,0.02212582714855671
8.0,0.021933648735284805
9.0,0.021750235930085182
10.0,0.021561603993177414
11.0,0.02139095775783062
12.0,0.021216940134763718
13.0,0.02104860544204712
14.0,0.02088320069015026
15.0,0.02071673423051834
16.0,0.02055320143699646
18.0,0.02025015838444233
20.0,0.019959282130002975
22.0,0.019673101603984833
24.0,0.019381310790777206
26.0,0.019093316048383713
28.0,0.018807681277394295
30.0,0.018521981313824654
32.0,0.01824631169438362
36.0,0.017727022990584373
40.0,0.01720273680984974
44.0,0.01669275015592575
48.0,0.01618734933435917
52.0,0.015739580616354942
56.0,0.015332715585827827
60.0,0.01494119968265295
64.0,0.014555707573890686
72.0,0.01384436059743166
80.0,0.013182885944843292
88.0,0.012558510527014732
96.0,0.011977382935583591
104.0,0.01145865023136139
112.0,0.011030125431716442
120.0,0.010670602321624756
128.0,0.010340304113924503
144.0,0.009780263528227806
160.0,0.009202362969517708
176.0,0.008762003853917122
192.0,0.008372931741178036
208.0,0.007842205464839935
224.0,0.007299209013581276
240.0,0.006721316836774349
256.0,0.0060013229958713055
288.0,0.004943956155329943
320.0,0.004358958452939987
352.0,0.004021417815238237
384.0,0.003522587474435568
416.0,0.0027637090533971786
448.0,0.0022671506740152836
480.0,0.0016308586345985532
512.0,0.0008382435771636665
576.0,-0.000634021358564496
640.0,-0.0006418044795282185
704.0,-0.00022743346926290542
768.0,-3.894543624483049e-05
832.0,-0.0003020819276571274
896.0,-0.0008352741715498269
960.0,-0.0017057425575330853
1024.0,-0.0018298932118341327
1152.0,-0.0008399243815802038
1280.0,0.00015838608669582754
1408.0,0.0012479583965614438
1536.0,0.0011902243131771684
1664.0,0.0027226547244936228
1792.0,0.003632193896919489
1920.0,0.001144898938946426
2048.0,-0.0001815982541302219
2304.0,-0.0017192421946674585
2560.0,-0.002536265878006816
2816.0,-0.0006781065021641552
3072.0,0.00020670781668741256
3328.0,-0.001907052588649094
3584.0,-0.0005379643989726901
3840.0,-0.001694666687399149
4096.0,-0.004824572242796421
4608.0,-0.004993557929992676
5120.0,-0.0014637354761362076
5632.0,-3.8610476622125134e-05
6144.0,-0.002206280594691634
6656.0,-0.0006678490317426622
7168.0,0.0012621490750461817
7680.0,0.0016129892319440842
8192.0,0.000893030664883554
end
