version,3.0
numOfCh,1
type,point
parent_name,34a6d_0dot08-1dot0
ch_type,1_1
kcount,1
numberNandB,1
brightnessNandB,1
carpet pos,0
pc,0
Time (ms),CH1 Auto-Correlation
1.0,0.021903404965996742
2.0,0.021685350686311722
3.0,0.021487530320882797
4.0,0.021303707733750343
5.0,0.021122979000210762
6.0,0.020944710820913315
7.0,0.020768210291862488
8.0,0.020602023229002953
9.0,0.020447248592972755
10.0,0.02029852569103241
11.0,0.02015475183725357
12.0,0.020009737461805344
13.0,0.019864769652485847
14.0,0.019724024459719658
15.0,0.019582614302635193
16.0,0.019440321251749992
18.0,0.01916424185037613
20.0,0.01889604516327381
22.0,0.01863589882850647
24.0,0.01837151125073433
26.0,0.01811673678457737
28.0,0.0178747046738863
30.0,0.017641976475715637
32.0,0.01741054840385914
36.0,0.016973158344626427
40.0,0.016600562259554863
44.0,0.016265777871012688
48.0,0.01594625413417816
52.0,0.015636758878827095
56.0,0.015305835753679276
60.0,0.01495940238237381
64.0,0.014598666690289974
72.0,0.0139032993465662
80.0,0.013241699896752834
88.0,0.012686771340668201
96.0,0.012177577242255211
104.0,0.011699245311319828
112.0,0.011195006780326366
120.0,0.010690953582525253
128.0,0.010179499164223671
144.0,0.009205352514982224
160.0,0.00830465741455555
176.0,0.007387293502688408
192.0,0.006459237076342106
208.0,0.005703920032829046
224.0,0.005054098088294268
240.0,0.00451272539794445
256.0,0.004133241251111031
288.0,0.0034713365603238344
320.0,0.002560159657150507
352.0,0.001346105826087296
384.0,0.0003148870018776506
416.0,-0.001031620311550796
448.0,-0.00216378434561193
480.0,-0.0027280012145638466
512.0,-0.0030140443705022335
576.0,-0.0032439890783280134
640.0,-0.0038977754302322865
704.0,-0.0037286237347871065
768.0,-0.00303128594532609
832.0,-0.002335687866434455
896.0,-0.002073266077786684
960.0,-0.0023728571832180023
1024.0,-0.002342241583392024
1152.0,-0.0021478976123034954
1280.0,-0.0026556800585240126
1408.0,-0.0021968402434140444
1536.0,-0.0031571805011481047
1664.0,-0.0031571227591484785
1792.0,-0.0014922101981937885
1920.0,0.000565341382753104
2048.0,0.002650246024131775
2304.0,0.003908479120582342
2560.0,0.0012222686782479286
2816.0,0.00010725368338171393
3072.0,-0.0022437935695052147
3328.0,-0.003014633199200034
3584.0,-0.0032409443520009518
3840.0,-0.0002716598683036864
4096.0,0.00021070922957733274
4608.0,0.0023684671614319086
5120.0,-0.0021975303534418344
5632.0,-0.0031942403875291348
6144.0,0.0029663287568837404
6656.0,0.0020603113807737827
7168.0,0.0029379110783338547
7680.0,-0.001236500684171915
8192.0,-0.0011290895054116845
end
