version,3.0
numOfCh,1
type,point
parent_name,34a6d_0dot08-1dot0
ch_type,1_1
kcount,1
numberNandB,1
brightnessNandB,1
carpet pos,0
pc,0
Time (ms),CH1 Auto-Correlation
1.0,0.025072777643799782
2.0,0.024837959557771683
3.0,0.02461293525993824
4.0,0.024401593953371048
5.0,0.024204770103096962
6.0,0.024031005799770355
7.0,0.023864705115556717
8.0,0.023708099499344826
9.0,0.023530464619398117
10.0,0.023366088047623634
11.0,0.023206856101751328
12.0,0.023055560886859894
13.0,0.02290678769350052
14.0,0.02275300957262516
15.0,0.022599510848522186
16.0,0.02244448848068714
18.0,0.022161642089486122
20.0,0.021889545023441315
22.0,0.021638108417391777
24.0,0.02139277197420597
26.0,0.021145569160580635
28.0,0.020877918228507042
30.0,0.020595017820596695
32.0,0.020324422046542168
36.0,0.019787119701504707
40.0,0.0192703977227211
44.0,0.018761441111564636
48.0,0.018264850601553917
52.0,0.01779673807322979
56.0,0.017357205972075462
60.0,0.01694810576736927
64.0,0.016539227217435837
72.0,0.01581633649766445
80.0,0.015124098397791386
88.0,0.014482497237622738
96.0,0.013879386708140373
104.0,0.013316654600203037
112.0,0.0127401826903224
120.0,0.012202185578644276
128.0,0.011665500700473785
144.0,0.010590347461402416
160.0,0.009700080379843712
176.0,0.008945297449827194
192.0,0.008363529108464718
208.0,0.007677996996790171
224.0,0.006939984858036041
240.0,0.006454517133533955
256.0,0.006002794485539198
288.0,0.005503990221768618
320.0,0.005088322330266237
352.0,0.004646126180887222
384.0,0.004014255944639444
416.0,0.0030570714734494686
448.0,0.0022495805751532316
480.0,0.0018025834579020739
512.0,0.0018161383923143148
576.0,0.0020245308987796307
640.0,0.0021786473225802183
704.0,0.0020471822936087847
768.0,0.0014191372320055962
832.0,0.0006550039979629219
896.0,0.0006055578705854714
960.0,0.00030254555167630315
1024.0,0.0002712836430873722
1152.0,-0.0019439880270510912
1280.0,-0.0012114915298298001
1408.0,-0.0003419408749323338
1536.0,0.0003721263783518225
1664.0,0.0010949409333989024
1792.0,0.0018668908160179853
1920.0,0.002765774494037032
2048.0,0.004689842462539673
2304.0,0.0033043238800019026
2560.0,-0.0014555349480360746
2816.0,-0.0025525467935949564
3072.0,-0.0026086827274411917
3328.0,-0.0030346629209816456
3584.0,-0.0015387274324893951
3840.0,0.0010230476036667824
4096.0,-0.00035242250305600464
4608.0,-0.0034197838976979256
5120.0,-0.0051812175661325455
5632.0,-0.002186364959925413
6144.0,0.0008893574122339487
6656.0,0.001232213107869029
7168.0,-0.003441128646954894
7680.0,0.00048638207954354584
8192.0,0.002368928398936987
end
