version,3.0
numOfCh,1
type,point
parent_name,34a6d_0dot08-1dot0
ch_type,1_1
kcount,1
numberNandB,1
brightnessNandB,1
carpet pos,0
pc,0
Time (ms),CH1 Auto-Correlation
1.0,0.019990896806120872
2.0,0.019789325073361397
3.0,0.019594406709074974
4.0,0.01941925659775734
5.0,0.019258037209510803
6.0,0.019095811992883682
7.0,0.018936866894364357
8.0,0.018782882019877434
9.0,0.018630018457770348
10.0,0.018491052091121674
11.0,0.01834923028945923
12.0,0.018217740580439568
13.0,0.018082451075315475
14.0,0.01795227639377117
15.0,0.01782051846385002
16.0,0.01769116334617138
18.0,0.01742328144609928
20.0,0.017146484926342964
22.0,0.016894616186618805
24.0,0.01666368544101715
26.0,0.01642928272485733
28.0,0.016190893948078156
30.0,0.01595328189432621
32.0,0.01571381464600563
36.0,0.015223494730889797
40.0,0.01475692167878151
44.0,0.014313929714262486
48.0,0.013903366401791573
52.0,0.013515325263142586
56.0,0.013163002207875252
60.0,0.012820634059607983
64.0,0.01248101145029068
72.0,0.011834351345896721
80.0,0.011195030063390732
88.0,0.010565560311079025
96.0,0.009976373054087162
104.0,0.00939798355102539
112.0,0.008910253643989563
120.0,0.00846551451832056
128.0,0.008015292696654797
144.0,0.007172637619078159
160.0,0.006434934213757515
176.0,0.005791145842522383
192.0,0.005348125472664833
208.0,0.004882465582340956
224.0,0.0045313406735658646
240.0,0.004277925472706556
256.0,0.00411571841686964
288.0,0.003958802670240402
320.0,0.0036104973405599594
352.0,0.0032263200264424086
384.0,0.0028413194231688976
416.0,0.002028482733294368
448.0,0.001458818675018847
480.0,0.0011089351028203964
512.0,0.0007099079666659236
576.0,0.000985308550298214
640.0,0.001563526107929647
704.0,0.002094225725159049
768.0,0.0034997412003576756
832.0,0.003829576773568988
896.0,0.002732455963268876
960.0,0.002092941664159298
1024.0,0.0013288363115862012
1152.0,0.0017021336825564504
1280.0,0.0007489608251489699
1408.0,0.00026284190244041383
1536.0,0.0017688055522739887
1664.0,0.0019359586294740438
1792.0,0.0014500209363177419
1920.0,0.0009865352185443044
2048.0,0.0002824067778419703
2304.0,0.0011997402179986238
2560.0,0.0030493885278701782
2816.0,0.0023519007954746485
3072.0,0.0013774028047919273
3328.0,0.0005833253380842507
3584.0,0.0011930097825825214
3840.0,0.0015747726429253817
4096.0,0.00012389411858748645
4608.0,-0.0002464259450789541
5120.0,-0.00015237624756991863
5632.0,-0.0018592328997328877
6144.0,-0.0006574832950718701
6656.0,0.0002956475073006004
7168.0,0.0015490944497287273
7680.0,0.0002477660891599953
8192.0,-0.0009033665992319584
end
