version,3.0
numOfCh,1
type,point
parent_name,34a6d_0dot08-1dot0
ch_type,1_1
kcount,1
numberNandB,1
brightnessNandB,1
carpet pos,0
pc,0
Time (ms),CH1 Auto-Correlation
1.0,0.018433939665555954
2.0,0.018208080902695656
3.0,0.018017984926700592
4.0,0.017830681055784225
5.0,0.017634650692343712
6.0,0.01745195873081684
7.0,0.017290577292442322
8.0,0.017124461010098457
9.0,0.01695777103304863
10.0,0.016799472272396088
11.0,0.016636552289128304
12.0,0.016475727781653404
13.0,0.016319461166858673
14.0,0.01616458222270012
15.0,0.016016440466046333
16.0,0.015873195603489876
18.0,0.015603131614625454
20.0,0.015334165655076504
22.0,0.015062123537063599
24.0,0.01479493547230959
26.0,0.014544964767992496
28.0,0.01431654579937458
30.0,0.014093790203332901
32.0,0.013880732469260693
36.0,0.013442998751997948
40.0,0.013010832481086254
44.0,0.012601136229932308
48.0,0.012238585390150547
52.0,0.011912235990166664
56.0,0.011599220335483551
60.0,0.011294596828520298
64.0,0.010998135432600975
72.0,0.010486296378076077
80.0,0.010045990347862244
88.0,0.00967598706483841
96.0,0.009333038702607155
104.0,0.00899956189095974
112.0,0.00868228543549776
120.0,0.0083444369956851
128.0,0.008028050884604454
144.0,0.0073191095143556595
160.0,0.006720466539263725
176.0,0.006140463054180145
192.0,0.005644891411066055
208.0,0.005139691289514303
224.0,0.004560938570648432
240.0,0.004098684526979923
256.0,0.0037102329079061747
288.0,0.003257470903918147
320.0,0.0028980064671486616
352.0,0.002080456120893359
384.0,0.0014506435254588723
416.0,0.0010969776194542646
448.0,0.0005463160923682153
480.0,-7.873619324527681e-05
512.0,-0.000566616770811379
576.0,-0.0005967796896584332
640.0,-0.0003970516554545611
704.0,-0.000698537623975426
768.0,-0.0005285890656523407
832.0,-0.0005990609643049538
896.0,-0.0002776042674668133
960.0,-0.0005068929167464375
1024.0,-0.0003731081960722804
1152.0,0.0014364421367645264
1280.0,0.0020263735204935074
1408.0,0.0018640586640685797
1536.0,0.0010734122479334474
1664.0,-0.0001484756649006158
1792.0,-0.0020549625623971224
1920.0,-0.002066968707367778
2048.0,-0.001253242138773203
2304.0,-0.0003426935581956059
2560.0,0.001379472785629332
2816.0,0.0013486495008692145
3072.0,-0.0038522423710674047
3328.0,-0.006695620249956846
3584.0,-0.002813116880133748
3840.0,0.0008197369170375168
4096.0,0.0009094993001781404
4608.0,-0.0019970140419900417
5120.0,-0.0007566976128146052
5632.0,-0.0020147468894720078
6144.0,-0.0022094235755503178
6656.0,0.002949997317045927
7168.0,-0.0005914824432693422
7680.0,-0.0009067031787708402
8192.0,0.0017848772695288062
end
