version,3.0
numOfCh,1
type,point
parent_name,714af_1dot0-0dot01
ch_type,1_1
kcount,1
numberNandB,1
brightnessNandB,1
carpet pos,0
pc,0
Time (ms),CH1 Auto-Correlation
1.0,0.04094472900032997
2.0,0.03779122605919838
3.0,0.03505278006196022
4.0,0.03265506401658058
5.0,0.030611205846071243
6.0,0.0288657508790493
7.0,0.027298396453261375
8.0,0.025910308584570885
9.0,0.024670517072081566
10.0,0.0234760120511055
11.0,0.022345827892422676
12.0,0.021242739632725716
13.0,0.020323218777775764
14.0,0.01946352794766426
15.0,0.01858898065984249
16.0,0.017802419140934944
18.0,0.01637539640069008
20.0,0.015288821421563625
22.0,0.01411393191665411
24.0,0.012927546165883541
26.0,0.011851751245558262
28.0,0.010945362038910389
30.0,0.01021129172295332
32.0,0.00963510386645794
36.0,0.008601234294474125
40.0,0.007394242566078901
44.0,0.006392213981598616
48.0,0.005927399266511202
52.0,0.005745462607592344
56.0,0.0057512023486196995
60.0,0.005419644061475992
64.0,0.005243002902716398
72.0,0.004515525884926319
80.0,0.0036383969709277153
88.0,0.002767015714198351
96.0,0.002088000765070319
104.0,0.0016431345138698816
112.0,0.0017683918122202158
120.0,0.0027178286109119654
128.0,0.002642721636220813
144.0,0.0024557141587138176
160.0,0.0016393640544265509
176.0,0.0019676752854138613
192.0,0.0014643328031525016
208.0,0.0013031428679823875
224.0,0.0010539061622694135
240.0,0.0006067991489544511
256.0,0.00025414081756025553
288.0,8.319686457980424e-05
320.0,0.000290191121166572
352.0,0.00076188804814592
384.0,-0.0006699771038256586
416.0,-0.0010614420752972364
448.0,-0.0008285961230285466
480.0,-0.0002866059367079288
512.0,-0.0009154463768936694
576.0,-0.0007823502528481185
640.0,-0.00016296652029268444
704.0,-0.0012157619930803776
768.0,-0.002808176912367344
832.0,0.001143618836067617
896.0,0.0012515874113887548
960.0,0.00024565489729866385
1024.0,-0.0014141083229333162
1152.0,0.0008894719649106264
1280.0,0.001452478813007474
1408.0,0.0013362359022721648
1536.0,0.002093967981636524
1664.0,-0.000457119575003162
1792.0,-0.001596564892679453
1920.0,-0.0017862275708466768
2048.0,-0.0012300205416977406
2304.0,0.0007324474863708019
2560.0,0.0009987637167796493
2816.0,-0.0012138658203184605
3072.0,-0.0018072068924084306
3328.0,-0.0020250671077519655
3584.0,0.0012062782188877463
3840.0,0.0006197895854711533
4096.0,-0.00022270335466600955
4608.0,-0.001099995570257306
5120.0,0.0013501241337507963
5632.0,-0.001961750676855445
6144.0,0.0007149632438085973
6656.0,0.0008809728897176683
7168.0,-0.0009570580441504717
7680.0,0.0017289073439314961
8192.0,0.0005056707304902375
end
