version,3.0
numOfCh,1
type,point
parent_name,714af_1dot0-0dot01
ch_type,1_1
kcount,1
numberNandB,1
brightnessNandB,1
carpet pos,0
pc,0
Time (ms),CH1 Auto-Correlation
1.0,0.03820483386516571
2.0,0.03495638817548752
3.0,0.03220776095986366
4.0,0.02977944351732731
5.0,0.02761213481426239
6.0,0.025727009400725365
7.0,0.024003980681300163
8.0,0.02240368165075779
9.0,0.020987963303923607
10.0,0.019728567451238632
11.0,0.018620161339640617
12.0,0.01765279471874237
13.0,0.016712084412574768
14.0,0.015990005806088448
15.0,0.015251568518579006
16.0,0.014700383879244328
18.0,0.013693520799279213
20.0,0.012716339901089668
22.0,0.011953216046094894
24.0,0.011194541119039059
26.0,0.010484685190021992
28.0,0.009932153858244419
30.0,0.009343662299215794
32.0,0.008702700026333332
36.0,0.00763835571706295
40.0,0.006140864919871092
44.0,0.004896301310509443
48.0,0.004411558620631695
52.0,0.00416016299277544
56.0,0.0038572060875594616
60.0,0.0037867261562496424
64.0,0.0036135187838226557
72.0,0.0032749755773693323
80.0,0.0032343463972210884
88.0,0.0030529729556292295
96.0,0.003012042725458741
104.0,0.002775319153442979
112.0,0.0023979938123375177
120.0,0.0018965161871165037
128.0,0.0015533901751041412
144.0,0.001659844652749598
160.0,9.960492752725258e-05
176.0,0.00047072203597053885
192.0,-0.0004502745869103819
208.0,-0.0009727950091473758
224.0,-0.0005764103843830526
240.0,-0.0007096398621797562
256.0,-0.0008324843947775662
288.0,-0.0010392478434368968
320.0,-0.00022020853066351265
352.0,-0.0007832598639652133
384.0,-0.00040033712866716087
416.0,-0.0010051247663795948
448.0,-0.0005307254032231867
480.0,-0.0021556501742452383
512.0,-0.0018057308625429869
576.0,-0.0005059030372649431
640.0,-0.0005465794238261878
704.0,-0.0006792499334551394
768.0,0.0014384021051228046
832.0,0.0019801140297204256
896.0,0.0007949944701977074
960.0,-0.000388227665098384
1024.0,-0.0021636863239109516
1152.0,0.00025881556211970747
1280.0,0.0007656058296561241
1408.0,-0.0008949823677539825
1536.0,-0.0008425730629824102
1664.0,0.001370893558487296
1792.0,0.000817484746221453
1920.0,-0.0011377475457265973
2048.0,0.0003328862658236176
2304.0,0.0007317849667742848
2560.0,0.0005289519322104752
2816.0,-0.001568544888868928
3072.0,-0.0006758043891750276
3328.0,0.0011913332855328918
3584.0,-0.0015440945280715823
3840.0,-0.001013615052215755
4096.0,-2.7350706659490243e-06
4608.0,0.00011999814887531102
5120.0,4.4973894546274096e-05
5632.0,0.0007107126875780523
6144.0,0.0006247223354876041
6656.0,-0.00017587146430741996
7168.0,0.000229532815865241
7680.0,0.0002613783872220665
8192.0,-0.0006335642538033426
end
