version,3.0
numOfCh,1
type,point
parent_name,714af_1dot0-0dot01
ch_type,1_1
kcount,1
numberNandB,1
brightnessNandB,1
carpet pos,0
pc,0
Time (ms),CH1 Auto-Correlation
1.0,0.06148320436477661
2.0,0.05847666785120964
3.0,0.05587109178304672
4.0,0.0535014383494854
5.0,0.051389772444963455
6.0,0.04939619451761246
7.0,0.04749962314963341
8.0,0.0457429364323616
9.0,0.04405352100729942
10.0,0.04240597411990166
11.0,0.04074851796030998
12.0,0.03927848860621452
13.0,0.03778405487537384
14.0,0.03646958991885185
15.0,0.035221196711063385
16.0,0.03417891636490822
18.0,0.03185442462563515
20.0,0.030009444802999496
22.0,0.028179805725812912
24.0,0.027075644582509995
26.0,0.02601681463420391
28.0,0.025151891633868217
30.0,0.02454524300992489
32.0,0.02408350072801113
36.0,0.023285983130335808
40.0,0.022852091118693352
44.0,0.022013166919350624
48.0,0.02112496644258499
52.0,0.020481206476688385
56.0,0.0198696106672287
60.0,0.01945647783577442
64.0,0.019357312470674515
72.0,0.01893794909119606
80.0,0.018300486728549004
88.0,0.017169978469610214
96.0,0.015187254175543785
104.0,0.013434292748570442
112.0,0.013114968314766884
120.0,0.013443024829030037
128.0,0.014620203524827957
144.0,0.01574300415813923
160.0,0.014800885692238808
176.0,0.01240319013595581
192.0,0.01106677483767271
208.0,0.01241410430520773
224.0,0.012585059739649296
240.0,0.00984356738626957
256.0,0.007338579278439283
288.0,0.009437273256480694
320.0,0.009641114622354507
352.0,0.007535035256296396
384.0,0.008633851073682308
416.0,0.0065247961319983006
448.0,0.00919981487095356
480.0,0.009477655403316021
512.0,0.010332919657230377
576.0,0.008514256216585636
640.0,0.005754931829869747
704.0,0.003182721324265003
768.0,0.00463661877438426
832.0,0.005396138411015272
896.0,0.00399249279871583
960.0,0.00316977477632463
1024.0,0.0017807240365073085
1152.0,0.00045200472231954336
1280.0,-0.001167493057437241
1408.0,-0.002481546951457858
1536.0,-0.00580809498205781
1664.0,-0.007639153860509396
1792.0,-0.006814827676862478
1920.0,-0.006089108996093273
2048.0,-0.0058975182473659515
2304.0,-0.004839901812374592
2560.0,-0.006364257074892521
2816.0,-0.005396401509642601
3072.0,-0.0063533056527376175
3328.0,-0.0037961697671562433
3584.0,0.0003840465215034783
3840.0,-0.0016193739138543606
4096.0,-0.004053529351949692
4608.0,-0.0048508839681744576
5120.0,-0.003821993712335825
5632.0,-0.004430126398801804
6144.0,0.0016735396347939968
6656.0,0.005684398114681244
7168.0,0.02063763327896595
7680.0,0.015192057937383652
8192.0,0.0050498140044510365
end
