version,3.0
numOfCh,1
type,point
parent_name,714af_1dot0-0dot01
ch_type,1_1
kcount,1
numberNandB,1
brightnessNandB,1
carpet pos,0
pc,0
Time (ms),CH1 Auto-Correlation
1.0,0.04006374627351761
2.0,0.03682322800159454
3.0,0.03409102186560631
4.0,0.03169144317507744
5.0,0.029566273093223572
6.0,0.02764212340116501
7.0,0.025916174054145813
8.0,0.024348173290491104
9.0,0.022884640842676163
10.0,0.021560966968536377
11.0,0.020441601052880287
12.0,0.01937052607536316
13.0,0.018335454165935516
14.0,0.01744208298623562
15.0,0.016593659296631813
16.0,0.015908721834421158
18.0,0.014705437235534191
20.0,0.013596847653388977
22.0,0.012650176882743835
24.0,0.011832511983811855
26.0,0.011171401478350163
28.0,0.010648403316736221
30.0,0.010067095048725605
32.0,0.009433867409825325
36.0,0.008131628856062889
40.0,0.007023032754659653
44.0,0.006182643119245768
48.0,0.005587516352534294
52.0,0.005344152916222811
56.0,0.005176103208214045
60.0,0.005219582002609968
64.0,0.005215847864747047
72.0,0.005572395399212837
80.0,0.005352074280381203
88.0,0.005131845362484455
96.0,0.005305849947035313
104.0,0.005603057332336903
112.0,0.0053427014499902725
120.0,0.00515304459258914
128.0,0.004454587586224079
144.0,0.004563683643937111
160.0,0.0042335172183811665
176.0,0.004669197369366884
192.0,0.004225786309689283
208.0,0.0035248780623078346
224.0,0.003346661338582635
240.0,0.0032155204098671675
256.0,0.003535068593919277
288.0,0.0026837412733584642
320.0,0.0018718128558248281
352.0,0.0010680094128474593
384.0,0.0023737531155347824
416.0,0.004136827774345875
448.0,0.0032018637284636497
480.0,0.002466394565999508
512.0,0.004167443141341209
576.0,0.002196813467890024
640.0,0.002682378748431802
704.0,0.0028984216041862965
768.0,0.0017342590726912022
832.0,0.0018965761410072446
896.0,0.0004070704453624785
960.0,0.002274539787322283
1024.0,0.0010159017983824015
1152.0,0.001080757356248796
1280.0,0.0006911527016200125
1408.0,0.001779634039849043
1536.0,0.001671651378273964
1664.0,0.0017796147149056196
1792.0,0.0002899284299928695
1920.0,0.00039176721475087106
2048.0,0.0007812226540409029
2304.0,0.0012532706605270505
2560.0,-8.26071118353866e-05
2816.0,8.558265108149499e-05
3072.0,0.0005373164894990623
3328.0,-7.460379129042849e-05
3584.0,0.0013617097865790129
3840.0,0.000154849563841708
4096.0,-0.0018083020113408566
4608.0,-0.0006454869289882481
5120.0,-0.0011449960293248296
5632.0,0.0011077610542997718
6144.0,0.0009146244847215712
6656.0,0.0008807948906905949
7168.0,-0.0007533527095802128
7680.0,-0.00012555738794617355
8192.0,-0.0026141779962927103
end
