version,3.0
numOfCh,1
type,point
parent_name,714af_1dot0-0dot01
ch_type,1_1
kcount,1
numberNandB,1
brightnessNandB,1
carpet pos,0
pc,0
Time (ms),CH1 Auto-Correlation
1.0,0.04026993364095688
2.0,0.03699025884270668
3.0,0.034078944474458694
4.0,0.031523559242486954
5.0,0.0293250884860754
6.0,0.02730964869260788
7.0,0.025541013106703758
8.0,0.023882169276475906
9.0,0.022325318306684494
10.0,0.02093515731394291
11.0,0.019719745963811874
12.0,0.018650295212864876
13.0,0.0177009254693985
14.0,0.016827676445245743
15.0,0.0161361712962389
16.0,0.01545217540115118
18.0,0.014139960519969463
20.0,0.013136401772499084
22.0,0.012212540954351425
24.0,0.011509309522807598
26.0,0.011006491258740425
28.0,0.0107375867664814
30.0,0.010501140728592873
32.0,0.010049911215901375
36.0,0.009068543091416359
40.0,0.007643943186849356
44.0,0.006383182946592569
48.0,0.005874495953321457
52.0,0.006143518257886171
56.0,0.005909485276788473
60.0,0.0055894129909574986
64.0,0.005002313759177923
72.0,0.0038703535683453083
80.0,0.003278635675087571
88.0,0.0038498444482684135
96.0,0.004110952373594046
104.0,0.003846758743748069
112.0,0.0035749967209994793
120.0,0.0032298548612743616
128.0,0.0025563843082636595
144.0,0.001980629051104188
160.0,0.0027249797713011503
176.0,0.001910533756017685
192.0,0.0019928438123315573
208.0,0.0010904362425208092
224.0,0.0017011871095746756
240.0,0.001243753475137055
256.0,0.0008804067620076239
288.0,0.00046945252688601613
320.0,0.00013161853712517768
352.0,0.0004928542766720057
384.0,-0.0003270061279181391
416.0,-0.0006418026168830693
448.0,-0.0017724978970363736
480.0,-0.0006890763761475682
512.0,0.00041448118281550705
576.0,1.9301278371131048e-05
640.0,-0.0013324483297765255
704.0,-0.0007557498174719512
768.0,-0.0010364120826125145
832.0,-0.0006698155193589628
896.0,-0.0007911647553555667
960.0,-0.00038966970168985426
1024.0,0.00023204644094221294
1152.0,-0.002166734542697668
1280.0,-0.0010254968656226993
1408.0,0.00025330219068564475
1536.0,0.000260220404015854
1664.0,0.0011799572966992855
1792.0,0.0004654361982829869
1920.0,0.00040931982221081853
2048.0,0.0009105048375204206
2304.0,-0.000590275099966675
2560.0,-0.0017823672387748957
2816.0,-0.002490431535989046
3072.0,-0.0013026404194533825
3328.0,0.0010577552020549774
3584.0,-1.7955764633370563e-05
3840.0,0.00037663985858671367
4096.0,0.0007485271198675036
4608.0,-0.0005630605737678707
5120.0,6.976222357479855e-05
5632.0,0.00013135667541064322
6144.0,-0.0008510773768648505
6656.0,0.0005729481927119195
7168.0,0.0013176039792597294
7680.0,5.714537837775424e-05
8192.0,0.0004743907484225929
end
