version,3.0
numOfCh,1
type,point
parent_name,714af_1dot0-0dot01
ch_type,1_1
kcount,1
numberNandB,1
brightnessNandB,1
carpet pos,0
pc,0
Time (ms),CH1 Auto-Correlation
1.0,0.038464341312646866
2.0,0.03528982773423195
3.0,0.032526902854442596
4.0,0.030176453292369843
5.0,0.028047924861311913
6.0,0.026236679404973984
7.0,0.024769945070147514
8.0,0.023306576535105705
9.0,0.021881749853491783
10.0,0.020542923361063004
11.0,0.019493207335472107
12.0,0.0185190811753273
13.0,0.01773686148226261
14.0,0.016975590959191322
15.0,0.01620294526219368
16.0,0.015570408664643764
18.0,0.014523684047162533
20.0,0.013623873703181744
22.0,0.012695719487965107
24.0,0.01162444707006216
26.0,0.01059993077069521
28.0,0.009775204584002495
30.0,0.00927132461220026
32.0,0.00888578686863184
36.0,0.008343849331140518
40.0,0.007378400769084692
44.0,0.006361087318509817
48.0,0.005927231628447771
52.0,0.0057817986235022545
56.0,0.0055549233220517635
60.0,0.005445437505841255
64.0,0.005072228144854307
72.0,0.004815883468836546
80.0,0.00470730708912015
88.0,0.004473506938666105
96.0,0.004534127656370401
104.0,0.004631809424608946
112.0,0.004416704643517733
120.0,0.004975443705916405
128.0,0.0050027561374008656
144.0,0.0029608700424432755
160.0,0.0004548839933704585
176.0,-0.0008634311961941421
192.0,-0.0006592455320060253
208.0,-0.001022379845380783
224.0,-0.0007397939916700125
240.0,-0.0013366773491725326
256.0,-0.0007817674777470529
288.0,-0.000884255685377866
320.0,-0.0007595294737257063
352.0,-0.0012964610941708088
384.0,3.5886499972548336e-05
416.0,-0.0002784069220069796
448.0,0.00019809784134849906
480.0,-2.9569389880634844e-05
512.0,-0.0011350619606673717
576.0,-0.001228587469086051
640.0,-0.002133065601810813
704.0,-0.002063206396996975
768.0,-0.0008938276441767812
832.0,-0.0006806294550187886
896.0,-0.0006065773777663708
960.0,-0.00174171500839293
1024.0,-0.0017210060032084584
1152.0,-0.0001794148120097816
1280.0,0.0013426735531538725
1408.0,0.00019565988623071462
1536.0,0.0008026354480534792
1664.0,0.0014873830368742347
1792.0,-3.8086960557848215e-05
1920.0,0.0003708252916112542
2048.0,-0.0004385638458188623
2304.0,-0.0016506686806678772
2560.0,-0.002286359202116728
2816.0,0.0007623502751812339
3072.0,0.00010550701699685305
3328.0,6.964283966226503e-05
3584.0,0.0012446306645870209
3840.0,-8.935437654145062e-05
4096.0,-0.00134904938749969
4608.0,0.00043028115760535
5120.0,-0.0010502112563699484
5632.0,-0.00024265384126920253
6144.0,5.0618611567188054e-05
6656.0,7.095136243151501e-05
7168.0,0.0005027077859267592
7680.0,0.00015828809409867972
8192.0,0.00019709172192960978
end
