version,3.0
numOfCh,1
type,point
parent_name,714af_1dot0-0dot01
ch_type,1_1
kcount,1
numberNandB,1
brightnessNandB,1
carpet pos,0
pc,0
Time (ms),CH1 Auto-Correlation
1.0,0.04595370963215828
2.0,0.04273094981908798
3.0,0.039875179529190063
4.0,0.03749864548444748
5.0,0.03535115346312523
6.0,0.03347381204366684
7.0,0.03186730667948723
8.0,0.030350888147950172
9.0,0.02890949696302414
10.0,0.027603626251220703
11.0,0.026411404833197594
12.0,0.025406431406736374
13.0,0.02450193092226982
14.0,0.023659968748688698
15.0,0.022862834855914116
16.0,0.02208537422120571
18.0,0.02075805701315403
20.0,0.019578777253627777
22.0,0.01842438243329525
24.0,0.017428748309612274
26.0,0.016627918928861618
28.0,0.015864616259932518
30.0,0.01513148657977581
32.0,0.014485311694443226
36.0,0.013323908671736717
40.0,0.012490816414356232
44.0,0.011884924955666065
48.0,0.011301351711153984
52.0,0.010875596664845943
56.0,0.010648751631379128
60.0,0.010409151203930378
64.0,0.010204767808318138
72.0,0.009569335728883743
80.0,0.008759167045354843
88.0,0.008353888988494873
96.0,0.007860084995627403
104.0,0.008314079605042934
112.0,0.008202260360121727
120.0,0.007674175780266523
128.0,0.0072800288908183575
144.0,0.0066565461456775665
160.0,0.006338545121252537
176.0,0.005634115543216467
192.0,0.0048414794728159904
208.0,0.005317533388733864
224.0,0.004201546777039766
240.0,0.002692007226869464
256.0,0.002230144338682294
288.0,0.001900746370665729
320.0,0.0016005978686735034
352.0,0.000840348016936332
384.0,7.528105925302953e-05
416.0,0.0008818989736028016
448.0,0.00124333705753088
480.0,0.0019070672569796443
512.0,0.0005908367456868291
576.0,0.0003105007635895163
640.0,0.0009442077716812491
704.0,0.0007978692301549017
768.0,0.0012677639024332166
832.0,0.0035652846563607454
896.0,0.00434446195140481
960.0,0.004133741371333599
1024.0,0.0025776615366339684
1152.0,0.0016539451899006963
1280.0,0.002586232265457511
1408.0,0.001766474568285048
1536.0,0.0010955495527014136
1664.0,0.0023446418344974518
1792.0,0.0032834599260240793
1920.0,0.0015593795105814934
2048.0,-0.00011668587103486061
2304.0,-0.0010737745324149728
2560.0,-0.00019361281010787934
2816.0,0.0018811310874298215
3072.0,0.0005986446049064398
3328.0,0.0009149343823082745
3584.0,-0.0008853256003931165
3840.0,0.0001410264812875539
4096.0,0.0007723953458480537
4608.0,-0.001302139600738883
5120.0,0.0004938729689456522
5632.0,-0.0008499843534082174
6144.0,-0.0018895856337621808
6656.0,-0.00017263730114791542
7168.0,-0.002637730445712805
7680.0,-0.0011879828525707126
8192.0,-0.0032759353052824736
end
