version,3.0
numOfCh,1
type,point
parent_name,714af_1dot0-0dot01
ch_type,1_1
kcount,1
numberNandB,1
brightnessNandB,1
carpet pos,0
pc,0
Time (ms),CH1 Auto-Correlation
1.0,0.04487369582056999
2.0,0.04162725433707237
3.0,0.0388689748942852
4.0,0.03648253530263901
5.0,0.03436093032360077
6.0,0.03249427303671837
7.0,0.030827920883893967
8.0,0.029302405193448067
9.0,0.027854418382048607
10.0,0.026538746431469917
11.0,0.025396356359124184
12.0,0.024407802149653435
13.0,0.02343928813934326
14.0,0.022503739222884178
15.0,0.021611802279949188
16.0,0.020810527727007866
18.0,0.01957160048186779
20.0,0.01853872649371624
22.0,0.017671503126621246
24.0,0.016881970688700676
26.0,0.01631934754550457
28.0,0.0157881248742342
30.0,0.015361858531832695
32.0,0.014905071817338467
36.0,0.013955196365714073
40.0,0.013006094843149185
44.0,0.01210244745016098
48.0,0.011439817026257515
52.0,0.011147026903927326
56.0,0.010768608190119267
60.0,0.010378535836935043
64.0,0.009923754259943962
72.0,0.009110672399401665
80.0,0.00808801781386137
88.0,0.007085131946951151
96.0,0.006634475663304329
104.0,0.006014319136738777
112.0,0.0057079545222222805
120.0,0.00527154328301549
128.0,0.004248509649187326
144.0,0.002007033908739686
160.0,0.0016488481778651476
176.0,0.0013858270831406116
192.0,0.0008851006277836859
208.0,2.1860765627934597e-05
224.0,0.0004323252651374787
240.0,0.0017236900748685002
256.0,0.0018730798037722707
288.0,0.001468178816139698
320.0,0.003139267675578594
352.0,0.004108007065951824
384.0,0.0035752402618527412
416.0,0.0016541650984436274
448.0,0.0022441053297370672
480.0,0.001988674746826291
512.0,0.001442548236809671
576.0,0.00014104775618761778
640.0,-0.0007370199309661984
704.0,-0.0008196815033443272
768.0,-0.0013397086877375841
832.0,-0.00027052880614064634
896.0,0.00037846664781682193
960.0,0.00039685488445684314
1024.0,0.0008300330955535173
1152.0,-0.0003862174635287374
1280.0,-0.0004573116893880069
1408.0,0.0005113985389471054
1536.0,-0.0013575268676504493
1664.0,0.00021824100986123085
1792.0,0.000350037997122854
1920.0,-0.00029556528897956014
2048.0,-0.0021606050431728363
2304.0,0.0003626099496614188
2560.0,9.254036558559164e-05
2816.0,6.201509677339345e-06
3072.0,-0.0007516815094277263
3328.0,-0.000819321081507951
3584.0,-0.0016024167416617274
3840.0,-0.001387035590596497
4096.0,-0.0012573333224281669
4608.0,0.0008880664245225489
5120.0,-0.00219354429282248
5632.0,-0.0015058512799441814
6144.0,-0.0003421111323405057
6656.0,4.2784067773027346e-05
7168.0,0.0013638383243232965
7680.0,-0.0014829516876488924
8192.0,-0.001565905986353755
end
