version,3.0
numOfCh,1
type,point
parent_name,714af_1dot0-0dot01
ch_type,1_1
kcount,1
numberNandB,1
brightnessNandB,1
carpet pos,0
pc,0
Time (ms),CH1 Auto-Correlation
1.0,0.04252633824944496
2.0,0.03940628841519356
3.0,0.036805979907512665
4.0,0.03451292961835861
5.0,0.032555148005485535
6.0,0.030828097835183144
7.0,0.029344044625759125
8.0,0.028024965897202492
9.0,0.02687450684607029
10.0,0.025799956172704697
11.0,0.02475128136575222
12.0,0.0238371342420578
13.0,0.023077312856912613
14.0,0.02235807478427887
15.0,0.021660171449184418
16.0,0.021005971357226372
18.0,0.019823189824819565
20.0,0.018828658387064934
22.0,0.01809871755540371
24.0,0.01740287058055401
26.0,0.01662038452923298
28.0,0.015890207141637802
30.0,0.015155669301748276
32.0,0.014294734224677086
36.0,0.0125609515234828
40.0,0.01126097608357668
44.0,0.010505386628210545
48.0,0.009917099960148335
52.0,0.009005574509501457
56.0,0.008163686841726303
60.0,0.007661020383238792
64.0,0.007553325034677982
72.0,0.007253238465636969
80.0,0.006049894727766514
88.0,0.004765257705003023
96.0,0.003513640956953168
104.0,0.0027596422005444765
112.0,0.0025698384270071983
120.0,0.002075269352644682
128.0,0.0014881481183692813
144.0,0.0008807979174889624
160.0,0.0009340281831100583
176.0,0.0008545693126507103
192.0,0.0021900837309658527
208.0,0.003004178637638688
224.0,0.003217862220481038
240.0,0.002750207670032978
256.0,0.001691313460469246
288.0,0.0028428668156266212
320.0,0.0028157015331089497
352.0,0.0028796715196222067
384.0,0.002055445685982704
416.0,0.0015948534710332751
448.0,0.0024665496312081814
480.0,0.002283558715134859
512.0,0.003127295058220625
576.0,0.0010116132907569408
640.0,-6.752923945896327e-05
704.0,0.0015684725949540734
768.0,0.0026473200414329767
832.0,0.0021539186127483845
896.0,0.0019116547191515565
960.0,-0.0004591330944094807
1024.0,-0.0016311362851411104
1152.0,-0.0009894829709082842
1280.0,-0.0011360279750078917
1408.0,-0.00028335853130556643
1536.0,-0.0003528399392962456
1664.0,-0.0001594828354427591
1792.0,0.0005408039432950318
1920.0,0.0007969608996063471
2048.0,-0.0016583024989813566
2304.0,0.0008887781878001988
2560.0,0.0007762302993796766
2816.0,0.0019200369715690613
3072.0,0.0013359715230762959
3328.0,-0.00022452627308666706
3584.0,-0.0006433565285988152
3840.0,-0.00042287734686397016
4096.0,-0.0016861694166436791
4608.0,-0.0020601421128958464
5120.0,-0.0010394923156127334
5632.0,-0.0005228511872701347
6144.0,-0.0019531019497662783
6656.0,-0.0015786881558597088
7168.0,-0.002407828578725457
7680.0,-0.0030667001847177744
8192.0,8.297576277982444e-05
end
