version,3.0
numOfCh,1
type,point
parent_name,714af_1dot0-0dot01
ch_type,1_1
kcount,1
numberNandB,1
brightnessNandB,1
carpet pos,0
pc,0
Time (ms),CH1 Auto-Correlation
1.0,0.04525899887084961
2.0,0.04241730272769928
3.0,0.03999500721693039
4.0,0.037894025444984436
5.0,0.03602736070752144
6.0,0.03433594852685928
7.0,0.03286457061767578
8.0,0.03139793500304222
9.0,0.030025849118828773
10.0,0.02877289429306984
11.0,0.027662815526127815
12.0,0.026650017127394676
13.0,0.025809621438384056
14.0,0.025026630610227585
15.0,0.024335263296961784
16.0,0.02365758642554283
18.0,0.0225082878023386
20.0,0.021539896726608276
22.0,0.020614612847566605
24.0,0.01958901435136795
26.0,0.018464166671037674
28.0,0.01736079715192318
30.0,0.016408927738666534
32.0,0.015704622492194176
36.0,0.01464912761002779
40.0,0.013647178187966347
44.0,0.013009578920900822
48.0,0.012374786660075188
52.0,0.012062233872711658
56.0,0.01198799628764391
60.0,0.011789494194090366
64.0,0.011868503876030445
72.0,0.01153939962387085
80.0,0.010606883093714714
88.0,0.00951707549393177
96.0,0.008644799701869488
104.0,0.008228668011724949
112.0,0.007932095788419247
120.0,0.008358770981431007
128.0,0.00829655397683382
144.0,0.008145025931298733
160.0,0.006110672373324633
176.0,0.0050047035329043865
192.0,0.004325373563915491
208.0,0.004729290027171373
224.0,0.005225075408816338
240.0,0.004926752764731646
256.0,0.004801607690751553
288.0,0.0046670990996062756
320.0,0.004110628738999367
352.0,0.004106213804334402
384.0,0.0024917121045291424
416.0,0.002985419239848852
448.0,0.0030293648596853018
480.0,0.0023685013875365257
512.0,0.003785347333177924
576.0,0.005759080406278372
640.0,0.00450188247486949
704.0,0.002977504162117839
768.0,0.0022299394477158785
832.0,0.002262185327708721
896.0,0.0024652776774019003
960.0,0.0017088244203478098
1024.0,0.0024372271727770567
1152.0,0.004931761883199215
1280.0,0.0030243434011936188
1408.0,0.002794689266011119
1536.0,0.0028378881979733706
1664.0,0.0025363191962242126
1792.0,0.003596923081204295
1920.0,0.0015718784416094422
2048.0,-0.0011490397155284882
2304.0,0.002912588883191347
2560.0,0.0008756098686717451
2816.0,0.0005647368961945176
3072.0,-0.0017849812284111977
3328.0,-0.0029172110371291637
3584.0,-7.120153895812109e-05
3840.0,-0.003622891614213586
4096.0,0.0010302364826202393
4608.0,-0.0024545183405280113
5120.0,-0.000464290234958753
5632.0,-0.003510337555781007
6144.0,-0.004042983520776033
6656.0,-0.0030994294211268425
7168.0,-0.005453676916658878
7680.0,-0.005260041914880276
8192.0,-0.007400953210890293
end
