version,3.0
numOfCh,1
type,point
parent_name,714af_1dot0-0dot01
ch_type,1_1
kcount,1
numberNandB,1
brightnessNandB,1
carpet pos,0
pc,0
Time (ms),CH1 Auto-Correlation
1.0,0.040221113711595535
2.0,0.03737332299351692
3.0,0.034978438168764114
4.0,0.032767850905656815
5.0,0.03083660826086998
6.0,0.029065489768981934
7.0,0.027410825714468956
8.0,0.025940559804439545
9.0,0.024659760296344757
10.0,0.02339484542608261
11.0,0.02214854024350643
12.0,0.021031048148870468
13.0,0.020101841539144516
14.0,0.019167399033904076
15.0,0.018480923026800156
16.0,0.017880534753203392
18.0,0.0166693814098835
20.0,0.015514922328293324
22.0,0.014490224421024323
24.0,0.013693994842469692
26.0,0.013237008824944496
28.0,0.012562048621475697
30.0,0.01206040009856224
32.0,0.011572761461138725
36.0,0.01125570572912693
40.0,0.01116314809769392
44.0,0.011086050420999527
48.0,0.010602871887385845
52.0,0.010087775997817516
56.0,0.009309889748692513
60.0,0.008732414804399014
64.0,0.008409284986555576
72.0,0.007157101295888424
80.0,0.006304678972810507
88.0,0.00555682647973299
96.0,0.005307940766215324
104.0,0.004108463879674673
112.0,0.0020698418375104666
120.0,0.002425573766231537
128.0,0.002888717455789447
144.0,0.004768185317516327
160.0,0.004357518162578344
176.0,0.005273744929581881
192.0,0.0036730116698890924
208.0,0.005674912128597498
224.0,0.006713765673339367
240.0,0.00805397517979145
256.0,0.007008461281657219
288.0,0.00627494091168046
320.0,0.006590553093701601
352.0,0.003919034730643034
384.0,0.003354388754814863
416.0,0.002062642714008689
448.0,0.0015811468474566936
480.0,0.003418621839955449
512.0,0.0033260181080549955
576.0,0.008942889980971813
640.0,0.006573475431650877
704.0,0.001627469202503562
768.0,0.003786390880122781
832.0,0.007136107422411442
896.0,0.00421835295855999
960.0,0.0010019427863880992
1024.0,0.0002744348021224141
1152.0,0.003614032408222556
1280.0,0.000919735583011061
1408.0,0.001360088586807251
1536.0,-0.0033406384754925966
1664.0,-0.0011819313513115048
1792.0,-0.0016074845334514976
1920.0,-0.004745750688016415
2048.0,-0.004014602396637201
2304.0,-0.004561467096209526
2560.0,-0.004348837770521641
2816.0,-0.005629225634038448
3072.0,-0.004927491769194603
3328.0,-0.0037915438879281282
3584.0,-0.004217501729726791
3840.0,-0.006190658546984196
4096.0,0.0002894090721383691
end
