version,3.0
numOfCh,1
type,point
parent_name,714af_1dot0-0dot01
ch_type,1_1
kcount,1
numberNandB,1
brightnessNandB,1
carpet pos,0
pc,0
Time (ms),CH1 Auto-Correlation
1.0,0.04016811028122902
2.0,0.0371239073574543
3.0,0.034468695521354675
4.0,0.03210490569472313
5.0,0.030107030645012856
6.0,0.028363553807139397
7.0,0.0267532616853714
8.0,0.02521590143442154
9.0,0.02372843027114868
10.0,0.022464290261268616
11.0,0.021330785006284714
12.0,0.020357511937618256
13.0,0.019437100738286972
14.0,0.018508147448301315
15.0,0.017675936222076416
16.0,0.016827605664730072
18.0,0.0153353838250041
20.0,0.014046345837414265
22.0,0.012775697745382786
24.0,0.01139212679117918
26.0,0.010220082476735115
28.0,0.009057082235813141
30.0,0.008065888658165932
32.0,0.00725169014185667
36.0,0.005933470092713833
40.0,0.0049969288520514965
44.0,0.0043525127694010735
48.0,0.003719942644238472
52.0,0.0035679242573678493
56.0,0.0035649652127176523
60.0,0.0033122145105153322
64.0,0.003121450776234269
72.0,0.0028084705118089914
80.0,0.0027603076305240393
88.0,0.0020250531379133463
96.0,0.0014463892439380288
104.0,0.0014117464888840914
112.0,0.001865450874902308
120.0,0.001780857564881444
128.0,0.0018228975823149085
144.0,0.0013440744951367378
160.0,0.0007237563258968294
176.0,0.0014279455645009875
192.0,0.0016010852996259928
208.0,0.0012501664459705353
224.0,0.0001457840990042314
240.0,0.000325481581967324
256.0,0.00017555279191583395
288.0,-0.0003293799818493426
320.0,-0.0007817017030902207
352.0,-0.0008418007055297494
384.0,-0.00028182202368043363
416.0,-0.0013945897808298469
448.0,-0.0014780143974348903
480.0,-0.0006073372787795961
512.0,-0.002008440438657999
576.0,-0.0022393991239368916
640.0,-0.0015317993238568306
704.0,-0.0016098709311336279
768.0,-0.0016418385785073042
832.0,-0.00032516333158127964
896.0,-0.00035645670141093433
960.0,0.00021138439478818327
1024.0,-0.00013936051982454956
1152.0,-0.0009768817108124495
1280.0,-0.0005859919474460185
1408.0,-0.00019316808902658522
1536.0,0.0013892848510295153
1664.0,0.0007334696128964424
1792.0,0.0009112364496104419
1920.0,-0.00042060710256919265
2048.0,-0.002098080702126026
2304.0,0.00042863862472586334
2560.0,0.0017280889442190528
2816.0,0.0004894061712548137
3072.0,-0.0016217530937865376
3328.0,-6.62446764181368e-05
3584.0,0.0007341906311921775
3840.0,-0.0005954791558906436
4096.0,6.922277680132538e-05
4608.0,-0.0012674120953306556
5120.0,0.001130386139266193
5632.0,-8.734475704841316e-05
6144.0,-0.0005506653687916696
6656.0,-8.21140201878734e-05
7168.0,-0.0001962299575097859
7680.0,-0.00037919628084637225
8192.0,0.0012563978089019656
end
