version,3.0
numOfCh,1
type,point
parent_name,714af_1dot0-0dot01
ch_type,1_1
kcount,1
numberNandB,1
brightnessNandB,1
carpet pos,0
pc,0
Time (ms),CH1 Auto-Correlation
1.0,0.039202284067869186
2.0,0.036137182265520096
3.0,0.03351747244596481
4.0,0.031333353370428085
5.0,0.029369883239269257
6.0,0.027627741917967796
7.0,0.025997912511229515
8.0,0.02453305572271347
9.0,0.023222018033266068
10.0,0.02205229550600052
11.0,0.020975524559617043
12.0,0.020025257021188736
13.0,0.019225819036364555
14.0,0.01837943121790886
15.0,0.017584817484021187
16.0,0.016893437132239342
18.0,0.015689441934227943
20.0,0.014757293276488781
22.0,0.013866675086319447
24.0,0.013050694018602371
26.0,0.012321976944804192
28.0,0.011450043879449368
30.0,0.010936490260064602
32.0,0.010587085969746113
36.0,0.00957744661718607
40.0,0.008727910928428173
44.0,0.008171189576387405
48.0,0.007472483906894922
52.0,0.006731710862368345
56.0,0.006090034265071154
60.0,0.005624118261039257
64.0,0.005307063926011324
72.0,0.004473092965781689
80.0,0.004057931248098612
88.0,0.0044736480340361595
96.0,0.004752630367875099
104.0,0.004877772182226181
112.0,0.003901735646650195
120.0,0.002708397340029478
128.0,0.0021103841718286276
144.0,0.0010241387644782662
160.0,0.0004789670347236097
176.0,0.0004960970254614949
192.0,0.0010363362962380052
208.0,0.0006774011999368668
224.0,-0.0003674224717542529
240.0,-0.0015463666059076786
256.0,-0.002510163001716137
288.0,-0.0015711862361058593
320.0,0.0004699467681348324
352.0,0.0026845058891922235
384.0,0.004672911483794451
416.0,0.004079907201230526
448.0,0.0031574086751788855
480.0,0.002988268621265888
512.0,0.0008156593539752066
576.0,0.0006073242984712124
640.0,-0.0015482617309316993
704.0,-0.0009742481634020805
768.0,-0.0005596125265583396
832.0,0.000974795431829989
896.0,0.0026210672222077847
960.0,0.0022277808748185635
1024.0,0.0006132255075499415
1152.0,-0.0002040541439782828
1280.0,0.0005946788587607443
1408.0,0.0007102781091816723
1536.0,-0.0025845752097666264
1664.0,-0.00209373002871871
1792.0,0.00023880689695943147
1920.0,-0.001017361064441502
2048.0,-0.0009210319258272648
2304.0,-0.0002896095102187246
2560.0,0.0004398144956212491
2816.0,-0.0012363959103822708
3072.0,0.0008358407649211586
3328.0,-0.000261011125985533
3584.0,-0.0012748719891533256
3840.0,-0.0004311585216782987
4096.0,-0.001173902302980423
4608.0,0.0005332148866727948
5120.0,0.0009129326208494604
5632.0,0.00053332035895437
6144.0,5.375968976295553e-05
6656.0,-0.0012687487760558724
7168.0,-0.0014983309665694833
7680.0,-0.0013113468885421753
8192.0,0.0002811457961797714
9216.0,-0.0001915460015879944
10240.0,-0.0003863858000840992
11264.0,0.0004302270244807005
12288.0,5.282055644784123e-05
13312.0,-0.0004301549051888287
14336.0,0.0002994390670210123
end
