version,3.0
numOfCh,1
type,point
parent_name,714af_1dot0-0dot01
ch_type,1_1
kcount,1
numberNandB,1
brightnessNandB,1
carpet pos,0
pc,0
Time (ms),CH1 Auto-Correlation
1.0,0.04233015701174736
2.0,0.03928446024656296
3.0,0.036684710532426834
4.0,0.03433039039373398
5.0,0.032321106642484665
6.0,0.03059878945350647
7.0,0.02895570732653141
8.0,0.027676647529006004
9.0,0.02639302797615528
10.0,0.02521946281194687
11.0,0.024048108607530594
12.0,0.022958921268582344
13.0,0.021981019526720047
14.0,0.020931370556354523
15.0,0.02002852037549019
16.0,0.01920522004365921
18.0,0.01762453280389309
20.0,0.01623479090631008
22.0,0.015101184137165546
24.0,0.01419572252780199
26.0,0.013544363901019096
28.0,0.012986894696950912
30.0,0.012457658536732197
32.0,0.011980253271758556
36.0,0.011104022152721882
40.0,0.010155818425118923
44.0,0.009734836407005787
48.0,0.009626820683479309
52.0,0.009479754604399204
56.0,0.00906711257994175
60.0,0.00824867095798254
64.0,0.007813338190317154
72.0,0.006994195748120546
80.0,0.006958754267543554
88.0,0.007168175186961889
96.0,0.006755512673407793
104.0,0.006135709583759308
112.0,0.004259228706359863
120.0,0.003627010388299823
128.0,0.0034990734420716763
144.0,0.0038547071162611246
160.0,0.0036979797296226025
176.0,0.0014100242406129837
192.0,0.0007891973946243525
208.0,0.0015813744394108653
224.0,0.0015639830380678177
240.0,-4.1486971895210445e-05
256.0,0.001150393974967301
288.0,0.0013737824046984315
320.0,0.0008243749616667628
352.0,0.00022231333423405886
384.0,0.00013374505215324461
416.0,0.0007456925231963396
448.0,-0.001597110298462212
480.0,-0.0018702838569879532
512.0,-0.0007806123467162251
576.0,-0.0010855152504518628
640.0,0.0008492855122312903
704.0,0.001171270851045847
768.0,0.0027209173422306776
832.0,0.0021398121025413275
896.0,0.0025206119753420353
960.0,0.0012347855372354388
1024.0,0.00017726668738760054
1152.0,-0.00036970857763662934
1280.0,-0.0012229912681505084
1408.0,0.0029471986927092075
1536.0,-0.0005607778439298272
1664.0,-0.0017034199554473162
1792.0,0.00029983784770593047
1920.0,0.0010796168353408575
2048.0,0.0006288894801400602
2304.0,0.001062762108631432
2560.0,0.0016030018450692296
2816.0,0.0017706425860524178
3072.0,-0.0014690238749608397
3328.0,-0.0008054178324528039
3584.0,-0.0002615779230836779
3840.0,-0.002911966759711504
4096.0,-0.0018093432299792767
4608.0,-0.002512445207685232
5120.0,-0.0004609448369592428
5632.0,-0.003117974381893873
6144.0,-0.0009739011875353754
6656.0,-0.0012813591165468097
7168.0,-0.004473231267184019
7680.0,-0.00048543588491156697
8192.0,-0.004539533983916044
end
