version,3.0
numOfCh,1
type,point
parent_name,714af_1dot0-0dot01
ch_type,1_1
kcount,1
numberNandB,1
brightnessNandB,1
carpet pos,0
pc,0
Time (ms),CH1 Auto-Correlation
1.0,0.041557714343070984
2.0,0.03834123536944389
3.0,0.035587988793849945
4.0,0.03320339322090149
5.0,0.031114278361201286
6.0,0.029221421107649803
7.0,0.027419812977313995
8.0,0.025823162868618965
9.0,0.024405455216765404
10.0,0.02314704842865467
11.0,0.021958036348223686
12.0,0.02091161534190178
13.0,0.019919278100132942
14.0,0.01899717189371586
15.0,0.018166998401284218
16.0,0.017435457557439804
18.0,0.016184374690055847
20.0,0.015093492344021797
22.0,0.01428566686809063
24.0,0.013501312583684921
26.0,0.012873836793005466
28.0,0.012364858761429787
30.0,0.011861070059239864
32.0,0.011524570174515247
36.0,0.010284404270350933
40.0,0.009112823754549026
44.0,0.008403765968978405
48.0,0.007893647998571396
52.0,0.0073550972156226635
56.0,0.006894123740494251
60.0,0.006387911271303892
64.0,0.00603087805211544
72.0,0.0061743478290736675
80.0,0.006055603735148907
88.0,0.005580500699579716
96.0,0.004654245916754007
104.0,0.0038151948247104883
112.0,0.0034487396478652954
120.0,0.0030397907830774784
128.0,0.0027973956894129515
144.0,0.0026086217258125544
160.0,0.0021473749075084925
176.0,0.001214889925904572
192.0,0.00020096343359909952
208.0,-0.000251354300417006
224.0,-0.0010336063569411635
240.0,-0.0012852916261181235
256.0,5.8325411373516545e-05
288.0,-0.00023768568644300103
320.0,-0.0004326892667450011
352.0,0.0007222108542919159
384.0,0.00010053885489469394
416.0,-0.0003397929249331355
448.0,-0.0006060156156308949
480.0,0.0009887322084978223
512.0,0.0007653905777260661
576.0,-0.0004719618009403348
640.0,-0.0007707257173024118
704.0,0.00044689353671856225
768.0,0.0009997375309467316
832.0,0.000979481264948845
896.0,0.0002588956558611244
960.0,-0.0011692530242726207
1024.0,-0.0018520712619647384
1152.0,-0.0006229993305169046
1280.0,0.0005396395572461188
1408.0,-0.0004905701498501003
1536.0,0.000676636875141412
1664.0,0.0008478776435367763
1792.0,-0.00046869725338183343
1920.0,-0.0011322246864438057
2048.0,0.0009009313071146607
2304.0,0.0002756365283858031
2560.0,-2.6301964680897072e-05
2816.0,2.2227475710678846e-05
3072.0,-0.0015049501089379191
3328.0,0.0008069687173701823
3584.0,0.00029683957109227777
3840.0,-0.0013650248292833567
4096.0,0.0012304610572755337
4608.0,-8.778216397331562e-06
5120.0,0.00013228788156993687
5632.0,-0.0005538631812669337
6144.0,-0.0011122849537059665
6656.0,-0.001021571340970695
7168.0,0.0010153279872611165
7680.0,-0.00018514164548832923
8192.0,-0.0004161821270827204
9216.0,0.0005042224074713886
10240.0,-0.0015968997031450272
11264.0,-0.00024998848675750196
12288.0,0.001211318071000278
13312.0,-0.001404297654516995
14336.0,0.0004091951414011419
end
