version,3.0
numOfCh,1
type,point
parent_name,714af_1dot0-0dot01
ch_type,1_1
kcount,1
numberNandB,1
brightnessNandB,1
carpet pos,0
pc,0
Time (ms),CH1 Auto-Correlation
1.0,0.03926088660955429
2.0,0.03604744374752045
3.0,0.03330860659480095
4.0,0.031002672389149666
5.0,0.029019592329859734
6.0,0.027369201183319092
7.0,0.025846485048532486
8.0,0.024465275928378105
9.0,0.02324584499001503
10.0,0.02216362953186035
11.0,0.021121950820088387
12.0,0.020308125764131546
13.0,0.019551055505871773
14.0,0.018890338018536568
15.0,0.018124615773558617
16.0,0.017461378127336502
18.0,0.016039270907640457
20.0,0.014598080888390541
22.0,0.013371983543038368
24.0,0.012157144956290722
26.0,0.011284790933132172
28.0,0.01062448974698782
30.0,0.009852076880633831
32.0,0.009162230417132378
36.0,0.008365476503968239
40.0,0.007641425356268883
44.0,0.006888550706207752
48.0,0.006367186084389687
52.0,0.0061575560830533504
56.0,0.005879916716367006
60.0,0.00503045367076993
64.0,0.004341156221926212
72.0,0.003951254300773144
80.0,0.004156180191785097
88.0,0.004173882305622101
96.0,0.004374298267066479
104.0,0.004492736421525478
112.0,0.003908558748662472
120.0,0.0033520653378218412
128.0,0.0028133399318903685
144.0,0.002271458972245455
160.0,0.0010937704937532544
176.0,0.0008806946570985019
192.0,0.0016688586911186576
208.0,0.0028896359726786613
224.0,0.0036663839127868414
240.0,0.004734642803668976
256.0,0.00498192198574543
288.0,0.002294000471010804
320.0,0.0013980937656015158
352.0,0.0020422942470759153
384.0,0.0022860022727400064
416.0,0.0023862156085669994
448.0,0.0020941963884979486
480.0,0.0017965207807719707
512.0,0.00065898202592507
576.0,-6.784821016481146e-05
640.0,0.0007072099833749235
704.0,0.00039498956175521016
768.0,-0.00037683197297155857
832.0,0.0009265056578442454
896.0,-0.00031529940315522254
960.0,-0.0013062036596238613
1024.0,-0.0011351949069648981
1152.0,0.0007185334106907248
1280.0,-0.0018646351527422667
1408.0,-0.0007792215328663588
1536.0,-0.0011102913413196802
1664.0,-0.0002094563824357465
1792.0,-0.00019356230041012168
1920.0,-0.000666496402118355
2048.0,-0.00023412230075336993
2304.0,0.0005256818258203566
2560.0,-4.295973485568538e-05
2816.0,-0.0007472229190170765
3072.0,-0.0009728276636451483
3328.0,-0.00021342404943425208
3584.0,-0.0005171915981918573
3840.0,-5.4564634410780855e-06
4096.0,-0.0005871615721844137
4608.0,-0.0008195167174562812
5120.0,-0.0005073187057860196
5632.0,0.0009955186396837234
6144.0,0.000836958410218358
6656.0,-0.002080292208120227
7168.0,-0.0016132709570229053
7680.0,-0.0004055939498357475
8192.0,-0.0003973307029809803
end
