version,3.0
numOfCh,1
type,point
parent_name,714af_1dot0-0dot01
ch_type,1_1
kcount,1
numberNandB,1
brightnessNandB,1
carpet pos,0
pc,0
Time (ms),CH1 Auto-Correlation
1.0,0.06009187176823616
2.0,0.056725796312093735
3.0,0.053803931921720505
4.0,0.0512552373111248
5.0,0.04886752367019653
6.0,0.04671527072787285
7.0,0.04477439075708389
8.0,0.042979709804058075
9.0,0.041337307542562485
10.0,0.03981287032365799
11.0,0.038334865123033524
12.0,0.036983080208301544
13.0,0.0357772596180439
14.0,0.034596554934978485
15.0,0.03352942317724228
16.0,0.03258657455444336
18.0,0.03068852424621582
20.0,0.029093701392412186
22.0,0.027733294293284416
24.0,0.026728486642241478
26.0,0.025852695107460022
28.0,0.024902235716581345
30.0,0.024066641926765442
32.0,0.023016484454274178
36.0,0.020256677642464638
40.0,0.018424030393362045
44.0,0.016810964792966843
48.0,0.015491369180381298
52.0,0.015217193402349949
56.0,0.01503739133477211
60.0,0.015102813020348549
64.0,0.01477218046784401
72.0,0.014243206940591335
80.0,0.013302534818649292
88.0,0.012332765385508537
96.0,0.011375831440091133
104.0,0.010523663833737373
112.0,0.010137385688722134
120.0,0.009827419184148312
128.0,0.010337174870073795
144.0,0.011003058403730392
160.0,0.010260519571602345
176.0,0.008883865550160408
192.0,0.008910582400858402
208.0,0.008832833729684353
224.0,0.0072291637770831585
240.0,0.005062640644609928
256.0,0.00397381279617548
288.0,0.003813520073890686
320.0,0.0029091439209878445
352.0,0.0035690346267074347
384.0,0.005957712884992361
416.0,0.007008603308349848
448.0,0.006663843523710966
480.0,0.006282685324549675
512.0,0.00418044300749898
576.0,0.006659864913672209
640.0,0.005947468802332878
704.0,0.0032974807545542717
768.0,0.0017138798721134663
832.0,0.002850871765986085
896.0,0.0012251370353624225
960.0,0.0017046252032741904
1024.0,0.001751886447891593
1152.0,-0.00019707703904714435
1280.0,-0.0023771056439727545
1408.0,-0.0022504646331071854
1536.0,-0.0007358543807640672
1664.0,0.00012828948092646897
1792.0,-0.0013632482150569558
1920.0,-0.00012153610441600904
2048.0,-0.00016223496641032398
2304.0,-0.0029679127037525177
2560.0,0.0009113104897551239
2816.0,0.0013525014510378242
3072.0,-0.000195037922821939
3328.0,0.000179506532731466
3584.0,0.0018645168747752905
3840.0,0.0010972943855449557
4096.0,0.00266740913502872
4608.0,-0.0005153027013875544
5120.0,-0.0009776183869689703
5632.0,0.0018449501367285848
6144.0,-0.0018247253028675914
6656.0,0.0005907824961468577
7168.0,0.0005610273219645023
7680.0,-0.002587399911135435
8192.0,0.00315212388522923
end
