version,3.0
numOfCh,1
type,point
parent_name,714af_1dot0-0dot01
ch_type,1_1
kcount,1
numberNandB,1
brightnessNandB,1
carpet pos,0
pc,0
Time (ms),CH1 Auto-Correlation
1.0,0.2884608507156372
2.0,0.2790795862674713
3.0,0.2694129943847656
4.0,0.25990381836891174
5.0,0.2501048743724823
6.0,0.24043674767017365
7.0,0.23044100403785706
8.0,0.21827082335948944
9.0,0.20508676767349243
10.0,0.19158461689949036
11.0,0.17895938456058502
12.0,0.16728942096233368
13.0,0.15452724695205688
14.0,0.14183342456817627
15.0,0.129096120595932
16.0,0.11769957095384598
18.0,0.09275166690349579
20.0,0.06915546208620071
22.0,0.049916792660951614
24.0,0.031837597489356995
26.0,0.014597771689295769
28.0,0.004343925043940544
30.0,0.001820455421693623
32.0,7.14151537977159e-05
36.0,-0.00361426267772913
40.0,-0.006173927336931229
44.0,-0.006711652036756277
48.0,-0.007557679899036884
52.0,-0.006764679681509733
56.0,-0.0042513636872172356
60.0,-0.0019712119828909636
64.0,-0.0004791932587977499
72.0,-0.0012928745709359646
80.0,-0.0003974132996518165
88.0,0.0029493249021470547
96.0,0.007128128316253424
104.0,0.0060851494781672955
112.0,-0.0046075452119112015
120.0,-0.015308043919503689
128.0,-0.022877976298332214
144.0,-0.01238810084760189
160.0,-0.0002864293346647173
176.0,0.005322713404893875
192.0,0.01541921403259039
208.0,0.011338072828948498
224.0,-0.010419975034892559
240.0,-0.011517181992530823
256.0,0.0040095713920891285
288.0,-0.0013692128704860806
320.0,-0.003802410326898098
352.0,-0.0018997455481439829
384.0,0.0001817170559661463
416.0,0.004399255849421024
448.0,0.0076786428689956665
480.0,0.009262973442673683
512.0,0.015360554680228233
end
