version,3.0
numOfCh,1
type,point
parent_name,714af_1dot0-0dot01
ch_type,1_1
kcount,1
numberNandB,1
brightnessNandB,1
carpet pos,0
pc,0
Time (ms),CH1 Auto-Correlation
1.0,0.04547824710607529
2.0,0.04251096397638321
3.0,0.039973482489585876
4.0,0.03772709518671036
5.0,0.03593222796916962
6.0,0.03423771262168884
7.0,0.03273686021566391
8.0,0.03137166425585747
9.0,0.03014364279806614
10.0,0.02901003509759903
11.0,0.027941744774580002
12.0,0.026934534311294556
13.0,0.026026932522654533
14.0,0.025226224213838577
15.0,0.02450232394039631
16.0,0.023794855922460556
18.0,0.02248844876885414
20.0,0.021425560116767883
22.0,0.02044489048421383
24.0,0.019644109532237053
26.0,0.018945755437016487
28.0,0.018224962055683136
30.0,0.017445329576730728
32.0,0.01657145656645298
36.0,0.015281427651643753
40.0,0.014129089191555977
44.0,0.013237240724265575
48.0,0.01243427861481905
52.0,0.012003683485090733
56.0,0.011568943969905376
60.0,0.011271020397543907
64.0,0.010996108874678612
72.0,0.009973243810236454
80.0,0.008792225271463394
88.0,0.0072263930924236774
96.0,0.006539786234498024
104.0,0.006406304892152548
112.0,0.005678855814039707
120.0,0.0048169963993132114
128.0,0.004379381891340017
144.0,0.0036903407890349627
160.0,0.003631023457273841
176.0,0.0032736416906118393
192.0,0.0023929253220558167
208.0,0.0013139750808477402
224.0,0.0012490965891629457
240.0,0.0025252290070056915
256.0,0.0037398224230855703
288.0,0.0043850732035934925
320.0,0.004676406737416983
352.0,0.00538095086812973
384.0,0.004658855497837067
416.0,0.004065679851919413
448.0,0.0027647102251648903
480.0,0.0033943885937333107
512.0,0.004301735199987888
576.0,0.0029121374245733023
640.0,0.0039822133257985115
704.0,0.0024067643098533154
768.0,0.0010752021335065365
832.0,0.0009256237535737455
896.0,0.00248151202686131
960.0,0.002433122368529439
1024.0,0.002603222383186221
1152.0,0.0023664108011871576
1280.0,1.2474651157390326e-05
1408.0,-0.002366458997130394
1536.0,0.0008262584451586008
1664.0,-0.0017502071568742394
1792.0,0.001254185801371932
1920.0,0.0009370109182782471
2048.0,0.002571906428784132
2304.0,-0.0021149958483874798
2560.0,-0.0005521092680282891
2816.0,-0.0004251608916092664
3072.0,0.0012008509365841746
3328.0,0.0016982826637104154
3584.0,0.0018810086185112596
3840.0,0.0026730638928711414
4096.0,0.005077130161225796
4608.0,0.0003082144830841571
5120.0,-0.0008048907620832324
5632.0,-0.004603194538503885
6144.0,-0.0030301164370030165
6656.0,-0.004152384586632252
7168.0,-0.0030893858056515455
7680.0,-0.0012159234611317515
8192.0,0.00041349115781486034
end
