version,3.0
numOfCh,1
type,point
parent_name,714af_1dot0-0dot01
ch_type,1_1
kcount,1
numberNandB,1
brightnessNandB,1
carpet pos,0
pc,0
Time (ms),CH1 Auto-Correlation
1.0,0.6618820428848267
2.0,0.6589125990867615
3.0,0.6562403440475464
4.0,0.6536877751350403
5.0,0.6512515544891357
6.0,0.6489943265914917
7.0,0.6468746066093445
8.0,0.6448788642883301
9.0,0.6429710984230042
10.0,0.6411681175231934
11.0,0.6394556164741516
12.0,0.6378867626190186
13.0,0.6363850831985474
14.0,0.634921133518219
15.0,0.6335408091545105
16.0,0.6322169303894043
18.0,0.6299558281898499
20.0,0.6279236078262329
22.0,0.6258338093757629
24.0,0.6236449480056763
26.0,0.6213935613632202
28.0,0.6192187070846558
30.0,0.616987943649292
32.0,0.6146971583366394
36.0,0.6079529523849487
40.0,0.6035752892494202
44.0,0.5996175408363342
48.0,0.5956262946128845
52.0,0.592289924621582
56.0,0.5890299081802368
60.0,0.5860026478767395
64.0,0.5827417373657227
72.0,0.5718508362770081
80.0,0.5647796988487244
88.0,0.5577899813652039
96.0,0.5499109029769897
104.0,0.5417121648788452
112.0,0.5350949764251709
120.0,0.5288222432136536
128.0,0.522701621055603
144.0,0.5005679726600647
160.0,0.4869077801704407
176.0,0.4721481204032898
192.0,0.45426204800605774
208.0,0.43742161989212036
224.0,0.42209962010383606
240.0,0.4057644307613373
256.0,0.3875278830528259
288.0,0.35103967785835266
320.0,0.3139493465423584
352.0,0.27635204792022705
384.0,0.23667356371879578
416.0,0.20166455209255219
448.0,0.16754330694675446
480.0,0.13520994782447815
512.0,0.10825352370738983
576.0,0.052744969725608826
640.0,-0.004628813359886408
704.0,-0.004447959363460541
768.0,-0.004668559413403273
832.0,-0.004411951173096895
896.0,-0.005292191170156002
960.0,-0.0095101622864604
1024.0,-0.006436813157051802
1152.0,-0.01171283982694149
1280.0,-0.018222074955701828
1408.0,-0.013032297603785992
1536.0,-0.010218950919806957
1664.0,-0.009907102212309837
1792.0,-0.005560788791626692
1920.0,-0.008102735504508018
2048.0,-0.012252474203705788
2304.0,-0.014386397786438465
2560.0,-0.012621983885765076
2816.0,-0.01293521374464035
3072.0,-0.014392012730240822
3328.0,-0.01255824975669384
3584.0,-0.019761772826313972
3840.0,-0.023021476343274117
4096.0,-0.030016278848052025
4608.0,0.021323857828974724
5120.0,0.0024039235431700945
5632.0,0.003624922363087535
6144.0,0.007016245741397142
6656.0,-0.021898062899708748
7168.0,-0.014802727848291397
7680.0,-0.04070467874407768
8192.0,-0.0259805116802454
end
