version,3.0
numOfCh,1
type,point
parent_name,714af_1dot0-0dot01
ch_type,1_1
kcount,1
numberNandB,1
brightnessNandB,1
carpet pos,0
pc,0
Time (ms),CH1 Auto-Correlation
1.0,0.0457928366959095
2.0,0.042541712522506714
3.0,0.03963896259665489
4.0,0.03710135444998741
5.0,0.03498781472444534
6.0,0.03310495987534523
7.0,0.031437117606401443
8.0,0.02993598021566868
9.0,0.028538335114717484
10.0,0.027303965762257576
11.0,0.02625858224928379
12.0,0.02515615150332451
13.0,0.024280836805701256
14.0,0.02338743768632412
15.0,0.022661413997411728
16.0,0.021961979568004608
18.0,0.020598838105797768
20.0,0.019283264875411987
22.0,0.018173521384596825
24.0,0.01713334210216999
26.0,0.01624002866446972
28.0,0.015556090511381626
30.0,0.014959095977246761
32.0,0.01418385375291109
36.0,0.012776188552379608
40.0,0.011983747594058514
44.0,0.011310803703963757
48.0,0.010455138981342316
52.0,0.00959459226578474
56.0,0.008774591609835625
60.0,0.008060324005782604
64.0,0.007647413294762373
72.0,0.0078112054616212845
80.0,0.007985685020685196
88.0,0.007824532687664032
96.0,0.0064980690367519855
104.0,0.005909909028559923
112.0,0.005758256185799837
120.0,0.0054536256939172745
128.0,0.005448018200695515
144.0,0.006392382550984621
160.0,0.005525026470422745
176.0,0.004057690966874361
192.0,0.003774170530959964
208.0,0.0031529595144093037
224.0,0.004065987654030323
240.0,0.0046543097123503685
256.0,0.006252889987081289
288.0,0.0053301528096199036
320.0,0.003686506999656558
352.0,0.0034543105866760015
384.0,0.0023947858717292547
416.0,0.00388419721275568
448.0,0.003030882915481925
480.0,0.001578868250362575
512.0,0.0019525651587173343
576.0,0.0018021974246948957
640.0,0.0038708311039954424
704.0,0.0016666582087054849
768.0,0.002378089353442192
832.0,0.002519113477319479
896.0,0.0016888941172510386
960.0,0.0012172850547358394
1024.0,0.0030743354000151157
1152.0,-0.0004672551294788718
1280.0,-0.0016696933889761567
1408.0,-0.0018016063841059804
1536.0,-0.0014128960901871324
1664.0,-0.0018458357080817223
1792.0,-0.0008509137551300228
1920.0,-0.002768995240330696
2048.0,-0.004944842774420977
2304.0,-0.0018799144309014082
2560.0,-0.0006545803043991327
2816.0,-0.0016965002287179232
3072.0,-0.002669674577191472
3328.0,-0.0024193073622882366
3584.0,-0.0020177564583718777
3840.0,-0.002443443052470684
4096.0,-0.003013018751516938
4608.0,-0.0005280748591758311
5120.0,0.00032007199479267
5632.0,0.0012058394495397806
6144.0,0.0011753392172977328
6656.0,0.002671735594049096
7168.0,0.0021250916179269552
7680.0,0.0010966981062665582
8192.0,-0.0002905799774453044
end
