version,3.0
numOfCh,1
type,point
parent_name,34766_0dot08-0dot01
ch_type,1_1
kcount,1
numberNandB,1
brightnessNandB,1
carpet pos,0
pc,0
Time (ms),CH1 Auto-Correlation
1.0,0.02910330705344677
2.0,0.02885930985212326
3.0,0.02861958183348179
4.0,0.028384406119585037
5.0,0.028150780126452446
6.0,0.027919944375753403
7.0,0.02769741788506508
8.0,0.027483418583869934
9.0,0.027274059131741524
10.0,0.027069123461842537
11.0,0.026867982000112534
12.0,0.026667391881346703
13.0,0.026476673781871796
14.0,0.026284685358405113
15.0,0.026094939559698105
16.0,0.02590700052678585
18.0,0.025526393204927444
20.0,0.025150401517748833
22.0,0.024772338569164276
24.0,0.02441706508398056
26.0,0.02407103031873703
28.0,0.023741062730550766
30.0,0.023415101692080498
32.0,0.023094186559319496
36.0,0.0225293580442667
40.0,0.022035501897335052
44.0,0.021588481962680817
48.0,0.02115892805159092
52.0,0.020748497918248177
56.0,0.020347386598587036
60.0,0.01994229294359684
64.0,0.01955043524503708
72.0,0.018752817064523697
80.0,0.01787874847650528
88.0,0.01702590472996235
96.0,0.01634940505027771
104.0,0.0157355647534132
112.0,0.015065953135490417
120.0,0.014379044994711876
128.0,0.01368231326341629
144.0,0.012502175755798817
160.0,0.011401134543120861
176.0,0.010469241067767143
192.0,0.009702772833406925
208.0,0.00908688921481371
224.0,0.008414152078330517
240.0,0.007885557599365711
256.0,0.007226650137454271
288.0,0.005271933972835541
320.0,0.0034682685509324074
352.0,0.0027217762544751167
384.0,0.00209740549325943
416.0,0.0016676478553563356
448.0,0.0010684729786589742
480.0,0.000329211528878659
512.0,-1.2587309356604237e-05
576.0,2.5835985070443712e-05
640.0,0.001575342146679759
704.0,0.0022219920065253973
768.0,0.001675118925049901
832.0,0.002858548192307353
896.0,0.004598930478096008
960.0,0.004659702070057392
1024.0,0.0030747719574719667
1152.0,-0.00029267449281178415
1280.0,-0.002913451986387372
1408.0,-0.006470030173659325
1536.0,-0.006281017325818539
1664.0,-0.006816573906689882
1792.0,-0.005530030466616154
1920.0,-0.004255028907209635
2048.0,-0.0026817028410732746
2304.0,-0.0029259580187499523
2560.0,-0.003021166892722249
2816.0,0.0009924662299454212
3072.0,0.0027494304813444614
3328.0,-0.0019184766570106149
3584.0,-0.0021348311565816402
3840.0,0.0020720032043755054
4096.0,0.0017568328185006976
4608.0,-0.0027396008372306824
5120.0,-0.0008149317582137883
5632.0,0.0017554372316226363
6144.0,0.002628936665132642
6656.0,0.004721386358141899
7168.0,0.0007954165921546519
7680.0,-0.004924174398183823
8192.0,-0.00362495519220829
end
