version,3.0
numOfCh,1
type,point
parent_name,34766_0dot08-0dot01
ch_type,1_1
kcount,1
numberNandB,1
brightnessNandB,1
carpet pos,0
pc,0
Time (ms),CH1 Auto-Correlation
1.0,0.05396641045808792
2.0,0.05367274954915047
3.0,0.053384773433208466
4.0,0.05309632048010826
5.0,0.05281376093626022
6.0,0.05253016948699951
7.0,0.05225427448749542
8.0,0.05197633057832718
9.0,0.05170200392603874
10.0,0.05142484977841377
11.0,0.05114581808447838
12.0,0.05087462067604065
13.0,0.05060703307390213
14.0,0.05033957585692406
15.0,0.050074514001607895
16.0,0.04981163889169693
18.0,0.04929298534989357
20.0,0.04878809303045273
22.0,0.048315513879060745
24.0,0.04787248745560646
26.0,0.04746408015489578
28.0,0.04707882180809975
30.0,0.04669000953435898
32.0,0.046322956681251526
36.0,0.045617591589689255
40.0,0.04494680091738701
44.0,0.04433806613087654
48.0,0.043737221509218216
52.0,0.04313421994447708
56.0,0.04255020618438721
60.0,0.041995394974946976
64.0,0.0414995402097702
72.0,0.040622860193252563
80.0,0.03975103795528412
88.0,0.03883928433060646
96.0,0.03799828141927719
104.0,0.037217602133750916
112.0,0.036659400910139084
120.0,0.03618470951914787
128.0,0.035664867609739304
144.0,0.03427477926015854
160.0,0.03290124237537384
176.0,0.03157084062695503
192.0,0.03016846999526024
208.0,0.02886793203651905
224.0,0.0276506207883358
240.0,0.026915952563285828
256.0,0.026498176157474518
288.0,0.025956664234399796
320.0,0.025172797963023186
352.0,0.024482594802975655
384.0,0.023798290640115738
416.0,0.02335931919515133
448.0,0.022668922320008278
480.0,0.021597201004624367
512.0,0.020489199087023735
576.0,0.018289931118488312
640.0,0.017383068799972534
704.0,0.016700074076652527
768.0,0.015194377861917019
832.0,0.013593141920864582
896.0,0.011446094140410423
960.0,0.008104325272142887
1024.0,0.004630678799003363
1152.0,-0.00032238379935733974
1280.0,-0.0034621921367943287
1408.0,-0.005019790027290583
1536.0,-0.005813022144138813
1664.0,-0.00383301661349833
1792.0,-0.0022088156547397375
1920.0,-0.005295636598020792
2048.0,-0.005448877811431885
2304.0,-0.003144739428535104
2560.0,0.00034527655225247145
2816.0,0.0012671335134655237
3072.0,0.0005500527913682163
3328.0,0.004892364144325256
3584.0,0.006454086396843195
3840.0,0.00428763497620821
4096.0,0.005351585801690817
4608.0,-0.003364994190633297
5120.0,-0.014879008755087852
5632.0,-0.021998953074216843
6144.0,-0.020274413749575615
6656.0,-0.006534791085869074
7168.0,-0.0019171858439221978
7680.0,0.0015028472989797592
8192.0,-0.003120163455605507
end
