version,3.0
numOfCh,1
type,point
parent_name,34766_0dot08-0dot01
ch_type,1_1
kcount,1
numberNandB,1
brightnessNandB,1
carpet pos,0
pc,0
Time (ms),CH1 Auto-Correlation
1.0,0.04049915820360184
2.0,0.04023642838001251
3.0,0.03997731953859329
4.0,0.03972446918487549
5.0,0.039481353014707565
6.0,0.03923802450299263
7.0,0.03899627923965454
8.0,0.03875885531306267
9.0,0.03851872682571411
10.0,0.03828539326786995
11.0,0.03805718943476677
12.0,0.03783121332526207
13.0,0.037607453763484955
14.0,0.03738835081458092
15.0,0.037162940949201584
16.0,0.03694314509630203
18.0,0.03651925548911095
20.0,0.03610321506857872
22.0,0.03568712994456291
24.0,0.03527642413973808
26.0,0.03486653417348862
28.0,0.03446250408887863
30.0,0.03404582664370537
32.0,0.03363901004195213
36.0,0.03287314996123314
40.0,0.032151978462934494
44.0,0.03145645558834076
48.0,0.030780723318457603
52.0,0.030138660222291946
56.0,0.029539842158555984
60.0,0.028963100165128708
64.0,0.028425976634025574
72.0,0.027463862672448158
80.0,0.026552006602287292
88.0,0.025741761550307274
96.0,0.025037793442606926
104.0,0.02434011735022068
112.0,0.023664424195885658
120.0,0.02301264926791191
128.0,0.02233865112066269
144.0,0.02111256867647171
160.0,0.019964367151260376
176.0,0.018849419429898262
192.0,0.017442701384425163
208.0,0.01614992693066597
224.0,0.015137983486056328
240.0,0.014316423796117306
256.0,0.013491339050233364
288.0,0.011390933766961098
320.0,0.009020310826599598
352.0,0.006510014645755291
384.0,0.004877990577369928
416.0,0.004266080446541309
448.0,0.003968197852373123
480.0,0.0034008161164820194
512.0,0.0028498859610408545
576.0,0.001183359301649034
640.0,8.760331547819078e-05
704.0,0.00011961255950154737
768.0,0.0008529865881428123
832.0,0.0011001884704455733
896.0,0.0007070780266076326
960.0,-0.0005087127792648971
1024.0,-0.0011836560443043709
1152.0,-0.002842674031853676
1280.0,-0.0030083388555794954
1408.0,-0.003375464119017124
1536.0,-0.0012412267969921231
1664.0,0.00016857577429618686
1792.0,0.0009674244793131948
1920.0,0.0015105141792446375
2048.0,-0.0003193332231603563
2304.0,-0.007340491749346256
2560.0,-0.009723649360239506
2816.0,-0.003891920205205679
3072.0,-0.003927631303668022
3328.0,-0.006709433160722256
3584.0,-0.007898453623056412
3840.0,-0.009065084159374237
4096.0,-0.006416116375476122
4608.0,-0.0014363947557285428
5120.0,0.007673350162804127
5632.0,0.0029755202122032642
6144.0,0.0070459963753819466
6656.0,0.011280350387096405
7168.0,0.005887202452868223
7680.0,-0.0019364585168659687
8192.0,-0.0038348594680428505
end
