version,3.0
numOfCh,1
type,point
parent_name,34766_0dot08-0dot01
ch_type,1_1
kcount,1
numberNandB,1
brightnessNandB,1
carpet pos,0
pc,0
Time (ms),CH1 Auto-Correlation
1.0,0.051767878234386444
2.0,0.05149227753281593
3.0,0.05121750012040138
4.0,0.05094495415687561
5.0,0.050674136728048325
6.0,0.050411004573106766
7.0,0.05014534294605255
8.0,0.049882709980010986
9.0,0.04962220788002014
10.0,0.049359969794750214
11.0,0.04909804090857506
12.0,0.04884019494056702
13.0,0.048583246767520905
14.0,0.04832874611020088
15.0,0.048081174492836
16.0,0.04783573001623154
18.0,0.04734006151556969
20.0,0.04685045778751373
22.0,0.046359021216630936
24.0,0.045865874737501144
26.0,0.04537747800350189
28.0,0.044915854930877686
30.0,0.04446486011147499
32.0,0.04402945935726166
36.0,0.04316725209355354
40.0,0.042321231216192245
44.0,0.041512347757816315
48.0,0.04074806347489357
52.0,0.04002935066819191
56.0,0.03935735300183296
60.0,0.03871073201298714
64.0,0.038101524114608765
72.0,0.03696615248918533
80.0,0.03598232567310333
88.0,0.03506278246641159
96.0,0.034153979271650314
104.0,0.03327492997050285
112.0,0.03248947858810425
120.0,0.03177346661686897
128.0,0.031221093609929085
144.0,0.03015321120619774
160.0,0.028813695535063744
176.0,0.0270785391330719
192.0,0.025355257093906403
208.0,0.024054456502199173
224.0,0.02310262806713581
240.0,0.022248312830924988
256.0,0.021210424602031708
288.0,0.019317492842674255
320.0,0.018130386248230934
352.0,0.01702181249856949
384.0,0.016124330461025238
416.0,0.014996006153523922
448.0,0.013305661268532276
480.0,0.011456896550953388
512.0,0.010479562915861607
576.0,0.01016225479543209
640.0,0.009426114149391651
704.0,0.009601959958672523
768.0,0.010508856736123562
832.0,0.0107920803129673
896.0,0.009445196948945522
960.0,0.00902479887008667
1024.0,0.0070749795995652676
1152.0,0.003020255593582988
1280.0,0.002521153539419174
1408.0,0.000816298124846071
1536.0,-1.5838253602851182e-05
1664.0,-0.000914800853934139
1792.0,-0.002071754075586796
1920.0,-0.00028730733902193606
2048.0,0.0021800328977406025
2304.0,-0.0007743971655145288
2560.0,-0.006233400199562311
2816.0,-0.0028091538697481155
3072.0,0.002435938687995076
3328.0,0.002523965435102582
3584.0,-0.002658536657691002
3840.0,-0.006196974311023951
4096.0,-0.0015512323006987572
4608.0,-0.0012738712830469012
5120.0,0.006276255007833242
5632.0,0.0068344916217029095
6144.0,0.00332087860442698
6656.0,-0.001927453326061368
7168.0,-0.004256385378539562
7680.0,-0.01533341221511364
8192.0,-0.021715601906180382
end
