version,3.0
numOfCh,1
type,point
parent_name,34766_0dot08-0dot01
ch_type,1_1
kcount,1
numberNandB,1
brightnessNandB,1
carpet pos,0
pc,0
Time (ms),CH1 Auto-Correlation
1.0,0.03835520148277283
2.0,0.038083676248788834
3.0,0.03782759979367256
4.0,0.037577711045742035
5.0,0.03732703998684883
6.0,0.03707608953118324
7.0,0.03682682663202286
8.0,0.03657687455415726
9.0,0.03632742539048195
10.0,0.03607697784900665
11.0,0.03582991287112236
12.0,0.0355856791138649
13.0,0.035342320799827576
14.0,0.03510483354330063
15.0,0.03487247973680496
16.0,0.03465164825320244
18.0,0.03421586751937866
20.0,0.03378964215517044
22.0,0.03337470442056656
24.0,0.03296482935547829
26.0,0.032567914575338364
28.0,0.03218023106455803
30.0,0.031797975301742554
32.0,0.031437329947948456
36.0,0.030786404386162758
40.0,0.030200358480215073
44.0,0.029632290825247765
48.0,0.02907527983188629
52.0,0.028539026156067848
56.0,0.02804122492671013
60.0,0.027595169842243195
64.0,0.027194082736968994
72.0,0.02642558328807354
80.0,0.025624599307775497
88.0,0.024784768000245094
96.0,0.023934390395879745
104.0,0.02313082478940487
112.0,0.022432858124375343
120.0,0.021840330213308334
128.0,0.021304724738001823
144.0,0.02028590813279152
160.0,0.019253959879279137
176.0,0.018290149047970772
192.0,0.01744779385626316
208.0,0.016655949875712395
224.0,0.016172122210264206
240.0,0.01611320488154888
256.0,0.016118163242936134
288.0,0.01561050396412611
320.0,0.01587453857064247
352.0,0.016072627156972885
384.0,0.015820713713765144
416.0,0.015857137739658356
448.0,0.01563592068850994
480.0,0.015025800094008446
512.0,0.01523735374212265
576.0,0.013996212743222713
640.0,0.0126924067735672
704.0,0.01106039434671402
768.0,0.00951442588120699
832.0,0.008831864222884178
896.0,0.008475236594676971
960.0,0.0081325126811862
1024.0,0.007703408133238554
1152.0,0.006453198380768299
1280.0,0.004117251373827457
1408.0,0.005114881321787834
1536.0,0.006191188935190439
1664.0,0.006298801861703396
1792.0,0.003972148057073355
1920.0,0.0009584611398167908
2048.0,0.00045704079093411565
2304.0,-0.0021777015645056963
2560.0,-0.0024118307046592236
2816.0,-0.003436218248680234
3072.0,-0.004886622074991465
3328.0,-0.004663197323679924
3584.0,-0.004158313851803541
3840.0,-0.0029050474986433983
4096.0,-0.0005124186282046139
4608.0,0.0014411897864192724
5120.0,-0.0008096574456430972
5632.0,0.0053745415061712265
6144.0,0.007186399307101965
6656.0,0.0017025177367031574
7168.0,-0.0012980536557734013
7680.0,-0.0037570151034742594
8192.0,-0.004181042779237032
end
