version,3.0
numOfCh,1
type,point
parent_name,34766_0dot08-0dot01
ch_type,1_1
kcount,1
numberNandB,1
brightnessNandB,1
carpet pos,0
pc,0
Time (ms),CH1 Auto-Correlation
1.0,0.04663169011473656
2.0,0.04633340612053871
3.0,0.04604179412126541
4.0,0.04574449732899666
5.0,0.0454634390771389
6.0,0.0451827198266983
7.0,0.04490182548761368
8.0,0.044637102633714676
9.0,0.044359322637319565
10.0,0.044084835797548294
11.0,0.04381253942847252
12.0,0.0435434989631176
13.0,0.04327881336212158
14.0,0.043013136833906174
15.0,0.042745430022478104
16.0,0.04248959943652153
18.0,0.04200078547000885
20.0,0.041557300835847855
22.0,0.04112721607089043
24.0,0.04069563001394272
26.0,0.0402829572558403
28.0,0.03988581895828247
30.0,0.03950676694512367
32.0,0.03914114832878113
36.0,0.038445860147476196
40.0,0.037772584706544876
44.0,0.037152379751205444
48.0,0.03656894713640213
52.0,0.035992495715618134
56.0,0.035423848778009415
60.0,0.03491079434752464
64.0,0.03444579243659973
72.0,0.03360292315483093
80.0,0.03283636271953583
88.0,0.032030217349529266
96.0,0.031242553144693375
104.0,0.030411338433623314
112.0,0.02960548736155033
120.0,0.028888899832963943
128.0,0.028154922649264336
144.0,0.02692405693233013
160.0,0.025983469560742378
176.0,0.024787327274680138
192.0,0.023407205939292908
208.0,0.021863218396902084
224.0,0.020227134227752686
240.0,0.01830754242837429
256.0,0.016571175307035446
288.0,0.013545701280236244
320.0,0.010934948921203613
352.0,0.008307324722409248
384.0,0.00623706029728055
416.0,0.004503318574279547
448.0,0.0033172504045069218
480.0,0.002564982045441866
512.0,0.001472751027904451
576.0,0.0007279456476680934
640.0,0.0012147005181759596
704.0,0.0007504810346290469
768.0,0.0006878611166030169
832.0,0.0018883714219555259
896.0,0.0032493534963577986
960.0,0.00328649184666574
1024.0,0.0033909273333847523
1152.0,0.0018108298536390066
1280.0,-0.0021675564348697662
1408.0,-0.0039004760328680277
1536.0,-0.0021812873892486095
1664.0,-0.0003656805492937565
1792.0,0.003826887346804142
1920.0,0.004264777060598135
2048.0,0.0066209458746016026
2304.0,0.0019664433784782887
2560.0,0.0029393434524536133
2816.0,-0.0028558855410665274
3072.0,-0.006434453651309013
3328.0,-0.007189474534243345
3584.0,-0.003890128806233406
3840.0,-0.0035192640498280525
4096.0,-0.0061525763012468815
4608.0,-0.009411941282451153
5120.0,-0.005035989917814732
5632.0,-0.0028255421202629805
6144.0,0.004311871249228716
6656.0,0.004540476016700268
7168.0,-0.002066217828541994
7680.0,0.004211891908198595
8192.0,0.008004747331142426
end
