version,3.0
numOfCh,1
type,point
parent_name,34766_0dot08-0dot01
ch_type,1_1
kcount,1
numberNandB,1
brightnessNandB,1
carpet pos,0
pc,0
Time (ms),CH1 Auto-Correlation
1.0,0.03561205416917801
2.0,0.03529636189341545
3.0,0.03498328849673271
4.0,0.03466960787773132
5.0,0.034363843500614166
6.0,0.03406934440135956
7.0,0.03378155827522278
8.0,0.03350092098116875
9.0,0.033236004412174225
10.0,0.032970380038022995
11.0,0.03270688280463219
12.0,0.032439202070236206
13.0,0.03218073397874832
14.0,0.03191973268985748
15.0,0.03167111799120903
16.0,0.03143078461289406
18.0,0.030897241085767746
20.0,0.030432701110839844
22.0,0.029978834092617035
24.0,0.029528511688113213
26.0,0.029090944677591324
28.0,0.028663363307714462
30.0,0.028247110545635223
32.0,0.02784203737974167
36.0,0.027056241407990456
40.0,0.026361122727394104
44.0,0.02576547861099243
48.0,0.025248823687434196
52.0,0.024790093302726746
56.0,0.024339521303772926
60.0,0.02391357161104679
64.0,0.023506546393036842
72.0,0.022729143500328064
80.0,0.02199297398328781
88.0,0.021359847858548164
96.0,0.020848136395215988
104.0,0.020313479006290436
112.0,0.019772738218307495
120.0,0.01925736293196678
128.0,0.01859021931886673
144.0,0.017195427790284157
160.0,0.01602761447429657
176.0,0.015001045539975166
192.0,0.013844424858689308
208.0,0.01291439775377512
224.0,0.012051268480718136
240.0,0.011109508574008942
256.0,0.010110583156347275
288.0,0.007648801431059837
320.0,0.005452271085232496
352.0,0.003977200947701931
384.0,0.002676952863112092
416.0,0.002048965310677886
448.0,0.0013293985975906253
480.0,0.00072531180921942
512.0,-0.0002767351979855448
576.0,-0.0020968830212950706
640.0,-0.0031953516881912947
704.0,-0.0015336578944697976
768.0,7.847890083212405e-05
832.0,0.0006331277545541525
896.0,0.0018375557847321033
960.0,0.00295570632442832
1024.0,0.0021757769864052534
1152.0,0.0014287621015682817
1280.0,0.0008599918219260871
1408.0,-0.0005708375247195363
1536.0,-0.0012362540001049638
1664.0,-0.0020033062901347876
1792.0,-0.0031658934894949198
1920.0,-0.0027909702621400356
2048.0,-0.004062317311763763
2304.0,-0.007221167907118797
2560.0,-0.0072141531854867935
2816.0,-0.006995256058871746
3072.0,-0.00213722069747746
3328.0,0.0050949775613844395
3584.0,0.004187724553048611
3840.0,0.00181657075881958
4096.0,0.0009524194756522775
4608.0,0.006108962930738926
5120.0,0.004403526429086924
5632.0,-0.0030163556803017855
6144.0,-0.00037169252755120397
6656.0,-0.003911459818482399
7168.0,-0.0037769931368529797
7680.0,-0.01732153818011284
8192.0,-0.002406622748821974
end
