version,3.0
numOfCh,1
type,point
parent_name,34766_0dot08-0dot01
ch_type,1_1
kcount,1
numberNandB,1
brightnessNandB,1
carpet pos,0
pc,0
Time (ms),CH1 Auto-Correlation
1.0,0.03454067185521126
2.0,0.03427465632557869
3.0,0.034011662006378174
4.0,0.03375716507434845
5.0,0.03350469842553139
6.0,0.033255867660045624
7.0,0.03301192447543144
8.0,0.032769639045000076
9.0,0.03253455460071564
10.0,0.032297056168317795
11.0,0.03206227347254753
12.0,0.03183039650321007
13.0,0.03160018473863602
14.0,0.03137693181633949
15.0,0.031144803389906883
16.0,0.03091019205749035
18.0,0.030437028035521507
20.0,0.02997058816254139
22.0,0.029505280777812004
24.0,0.029055705294013023
26.0,0.028607551008462906
28.0,0.02816610224545002
30.0,0.02773396112024784
32.0,0.02730073221027851
36.0,0.026455631479620934
40.0,0.02560369484126568
44.0,0.024737371131777763
48.0,0.023961002007126808
52.0,0.023251939564943314
56.0,0.022601576521992683
60.0,0.021963177248835564
64.0,0.02140597067773342
72.0,0.020496930927038193
80.0,0.019757084548473358
88.0,0.019113320857286453
96.0,0.01857069507241249
104.0,0.01810435950756073
112.0,0.01762574166059494
120.0,0.01719054952263832
128.0,0.01679636910557747
144.0,0.016159841790795326
160.0,0.015554066747426987
176.0,0.014856928028166294
192.0,0.014052980579435825
208.0,0.013171717524528503
224.0,0.01214553788304329
240.0,0.010978395119309425
256.0,0.009681631810963154
288.0,0.007463145535439253
320.0,0.006717507727444172
352.0,0.0062554460018873215
384.0,0.005298984237015247
416.0,0.004302553366869688
448.0,0.0033926016185432673
480.0,0.002495505614206195
512.0,0.0025220452807843685
576.0,0.0025539363268762827
640.0,0.0018586894730105996
704.0,0.00071469641989097
768.0,-0.0012044261675328016
832.0,-0.0024473206140100956
896.0,-0.0016609920421615243
960.0,0.0005731324781663716
1024.0,0.0007084485841915011
1152.0,0.001137189450673759
1280.0,-0.0008094859076663852
1408.0,-0.004138759337365627
1536.0,-0.006324593909084797
1664.0,-0.005741632077842951
1792.0,-0.00555162550881505
1920.0,-0.004635455086827278
2048.0,-0.004167515318840742
2304.0,0.0003099036403000355
2560.0,0.0019519703928381205
2816.0,0.0001748137583490461
3072.0,0.002839581109583378
3328.0,0.002002184744924307
3584.0,-4.161478136666119e-05
3840.0,-0.004932908341288567
4096.0,-0.0052192313596606255
4608.0,-0.011330371722579002
5120.0,-0.004789228085428476
5632.0,0.0022678941022604704
6144.0,0.002750159939751029
6656.0,0.0023432536981999874
7168.0,-0.0012040295405313373
7680.0,0.004125863313674927
8192.0,-0.00029791859560646117
end
