version,3.0
numOfCh,1
type,point
parent_name,34766_0dot08-0dot01
ch_type,1_1
kcount,1
numberNandB,1
brightnessNandB,1
carpet pos,0
pc,0
Time (ms),CH1 Auto-Correlation
1.0,0.2729172110557556
2.0,0.2718367278575897
3.0,0.27077606320381165
4.0,0.2696382701396942
5.0,0.2685047686100006
6.0,0.26735472679138184
7.0,0.26625877618789673
8.0,0.2651634216308594
9.0,0.26407963037490845
10.0,0.26297929883003235
11.0,0.2618635296821594
12.0,0.26073822379112244
13.0,0.2596276104450226
14.0,0.2585071921348572
15.0,0.2574138641357422
16.0,0.2563672363758087
18.0,0.25438228249549866
20.0,0.2522011995315552
22.0,0.24979853630065918
24.0,0.24737083911895752
26.0,0.2451143115758896
28.0,0.24296700954437256
30.0,0.2406243532896042
32.0,0.23816797137260437
36.0,0.23341479897499084
40.0,0.2289273589849472
44.0,0.224407359957695
48.0,0.22005906701087952
52.0,0.21583828330039978
56.0,0.21164454519748688
60.0,0.20728124678134918
64.0,0.20275233685970306
72.0,0.19327519834041595
80.0,0.1837550699710846
88.0,0.17478227615356445
96.0,0.16693510115146637
104.0,0.15986734628677368
112.0,0.15329353511333466
120.0,0.14731702208518982
128.0,0.14205950498580933
144.0,0.13186663389205933
160.0,0.12301164120435715
176.0,0.11296017467975616
192.0,0.10267593711614609
208.0,0.0945909321308136
224.0,0.08931834250688553
240.0,0.08446706831455231
256.0,0.08084163069725037
288.0,0.0765068382024765
320.0,0.0735175833106041
352.0,0.06946102529764175
384.0,0.06261584907770157
416.0,0.05759178474545479
448.0,0.055564574897289276
480.0,0.05448200926184654
512.0,0.05318206921219826
576.0,0.05049697309732437
640.0,0.045705001801252365
704.0,0.05155691131949425
768.0,0.05632501468062401
832.0,0.05044074356555939
896.0,0.04571704939007759
960.0,0.041903384029865265
1024.0,0.034085795283317566
1152.0,0.006106275599449873
1280.0,-0.009743879549205303
1408.0,-0.004352332092821598
1536.0,-0.006505952682346106
1664.0,-0.007061714306473732
1792.0,-0.010443923994898796
1920.0,-0.01384331751614809
2048.0,-0.008174611255526543
2304.0,-0.013469208963215351
2560.0,-0.0077655743807554245
2816.0,-0.00951689388602972
3072.0,-0.026270003989338875
3328.0,-0.011162458918988705
3584.0,-0.004347598645836115
3840.0,-0.012365448288619518
4096.0,-0.017665697261691093
4608.0,-0.032810889184474945
5120.0,-0.0515204593539238
5632.0,-0.037344224750995636
6144.0,-0.012543575838208199
6656.0,-0.011393342167139053
7168.0,-0.04156682640314102
7680.0,-0.0879983976483345
8192.0,-0.06831151992082596
end
