version,3.0
numOfCh,1
type,point
parent_name,34766_0dot08-0dot01
ch_type,1_1
kcount,1
numberNandB,1
brightnessNandB,1
carpet pos,0
pc,0
Time (ms),CH1 Auto-Correlation
1.0,0.09179507941007614
2.0,0.09129729121923447
3.0,0.09084385633468628
4.0,0.09041782468557358
5.0,0.08999953418970108
6.0,0.08958026021718979
7.0,0.08918062597513199
8.0,0.08879028260707855
9.0,0.08838813751935959
10.0,0.08798474818468094
11.0,0.08757976442575455
12.0,0.08716776967048645
13.0,0.08675986528396606
14.0,0.08633936941623688
15.0,0.0859406366944313
16.0,0.0855783075094223
18.0,0.08478455990552902
20.0,0.08409274369478226
22.0,0.08343780040740967
24.0,0.08276605606079102
26.0,0.08212735503911972
28.0,0.08149617910385132
30.0,0.08088912814855576
32.0,0.08029153943061829
36.0,0.07909689843654633
40.0,0.07793863117694855
44.0,0.07690407335758209
48.0,0.07591477781534195
52.0,0.07499713450670242
56.0,0.07416044920682907
60.0,0.07326614856719971
64.0,0.07232566922903061
72.0,0.07045220583677292
80.0,0.06853807717561722
88.0,0.06665822863578796
96.0,0.06480690836906433
104.0,0.06279002130031586
112.0,0.060884881764650345
120.0,0.059147559106349945
128.0,0.057862814515829086
144.0,0.05565895885229111
160.0,0.05329194664955139
176.0,0.050567686557769775
192.0,0.04803921654820442
208.0,0.04570837318897247
224.0,0.04294270649552345
240.0,0.04053892940282822
256.0,0.03818446397781372
288.0,0.03345884010195732
320.0,0.03032076358795166
352.0,0.027822716161608696
384.0,0.026922935619950294
416.0,0.02775445207953453
448.0,0.03010602481663227
480.0,0.032856639474630356
512.0,0.035141799598932266
576.0,0.03784127160906792
640.0,0.037848878651857376
704.0,0.0345880500972271
768.0,0.02884916216135025
832.0,0.021078720688819885
896.0,0.015427298843860626
960.0,0.013424472883343697
1024.0,0.012093455530703068
1152.0,0.012772392481565475
1280.0,0.013472643680870533
1408.0,0.01088336668908596
1536.0,0.006588354241102934
1664.0,0.007266187574714422
1792.0,0.010027313604950905
1920.0,0.007542569190263748
2048.0,0.00677336985245347
2304.0,0.006365032866597176
2560.0,0.007056176662445068
2816.0,0.006816163659095764
3072.0,0.002769370097666979
3328.0,0.0018099554581567645
3584.0,-0.0011888921726495028
3840.0,-0.0040074423886835575
4096.0,-0.002884472720324993
4608.0,-0.0029851244762539864
5120.0,-0.002571964869275689
5632.0,-0.010257663205265999
6144.0,-0.009114253334701061
6656.0,-0.007534909527748823
7168.0,0.00613716896623373
7680.0,0.006313053425401449
8192.0,-0.011412306688725948
end
