version,3.0
numOfCh,1
type,point
parent_name,714af_0dot069-1dot0
ch_type,1_1
kcount,1
numberNandB,1
brightnessNandB,1
carpet pos,0
pc,0
Time (ms),CH1 Auto-Correlation
1.0,0.07989291101694107
2.0,0.07909392565488815
3.0,0.07839078456163406
4.0,0.07779229432344437
5.0,0.07714983075857162
6.0,0.07658237963914871
7.0,0.07601342350244522
8.0,0.07550179958343506
9.0,0.07499073445796967
10.0,0.07449605315923691
11.0,0.0740227997303009
12.0,0.07357054948806763
13.0,0.07311343401670456
14.0,0.07263355702161789
15.0,0.07216256111860275
16.0,0.07172948122024536
18.0,0.07089351117610931
20.0,0.07008636742830276
22.0,0.06933534890413284
24.0,0.06861768662929535
26.0,0.06790386140346527
28.0,0.06720546633005142
30.0,0.06645634025335312
32.0,0.06578464806079865
36.0,0.06445308029651642
40.0,0.06319481879472733
44.0,0.062139078974723816
48.0,0.06113828718662262
52.0,0.06019183620810509
56.0,0.05924943834543228
60.0,0.05830027535557747
64.0,0.05734442546963692
72.0,0.05550958216190338
80.0,0.05382458493113518
88.0,0.05232541263103485
96.0,0.05082154646515846
104.0,0.04939008504152298
112.0,0.047917116433382034
120.0,0.04634156823158264
128.0,0.04499197006225586
144.0,0.042531151324510574
160.0,0.03985372930765152
176.0,0.03680010139942169
192.0,0.0341540202498436
208.0,0.031967319548130035
224.0,0.030427999794483185
240.0,0.028372926637530327
256.0,0.02654937654733658
288.0,0.020975444465875626
320.0,0.01610465534031391
352.0,0.012940014712512493
384.0,0.010991283692419529
416.0,0.008828401565551758
448.0,0.006919255014508963
480.0,0.005164353642612696
512.0,0.0041530439630150795
576.0,0.002798855071887374
640.0,0.0006371986237354577
704.0,-0.0007726368494331837
768.0,0.0011629096698015928
832.0,0.002024373272433877
896.0,0.0035896627232432365
960.0,0.004354947246611118
1024.0,0.0034115328453481197
1152.0,-0.0008062838460318744
1280.0,-0.0022179961670190096
1408.0,-0.0022631168831139803
1536.0,-0.004632321652024984
1664.0,-0.006182898301631212
1792.0,-0.0034493643324822187
1920.0,0.004791658371686935
2048.0,0.011174820363521576
2304.0,0.005825963336974382
2560.0,-0.012385754846036434
2816.0,-0.019208284094929695
3072.0,-0.00685585243627429
3328.0,0.00034260161919519305
3584.0,0.0034634501207619905
3840.0,0.01133284904062748
4096.0,0.01991373859345913
4608.0,0.014030995778739452
5120.0,-0.007281450554728508
5632.0,0.00390287465415895
6144.0,-0.006977248005568981
6656.0,-0.0029344772920012474
7168.0,-0.022425981238484383
7680.0,0.006630597170442343
8192.0,-0.005635482259094715
end
