version,3.0
numOfCh,1
type,point
parent_name,714af_0dot069-1dot0
ch_type,1_1
kcount,1
numberNandB,1
brightnessNandB,1
carpet pos,0
pc,0
Time (ms),CH1 Auto-Correlation
1.0,0.09340857714414597
2.0,0.09221570938825607
3.0,0.09127368777990341
4.0,0.09049663692712784
5.0,0.08972633630037308
6.0,0.08904296904802322
7.0,0.08835861086845398
8.0,0.0876312181353569
9.0,0.08700644224882126
10.0,0.08636350929737091
11.0,0.08577607572078705
12.0,0.08510930091142654
13.0,0.08450187742710114
14.0,0.08382011204957962
15.0,0.08321496099233627
16.0,0.08260639011859894
18.0,0.08146265149116516
20.0,0.08035054057836533
22.0,0.07934020459651947
24.0,0.07844415307044983
26.0,0.07758862525224686
28.0,0.07662669569253922
30.0,0.07572796940803528
32.0,0.07478830963373184
36.0,0.07304912060499191
40.0,0.07142556458711624
44.0,0.06990937888622284
48.0,0.06841032952070236
52.0,0.06692006438970566
56.0,0.06559810042381287
60.0,0.06439868360757828
64.0,0.06319265812635422
72.0,0.06092203035950661
80.0,0.05869703367352486
88.0,0.056234631687402725
96.0,0.05388154461979866
104.0,0.052230462431907654
112.0,0.05062154680490494
120.0,0.04908352717757225
128.0,0.04774586483836174
144.0,0.04612455889582634
160.0,0.04441804811358452
176.0,0.04355693981051445
192.0,0.043400395661592484
208.0,0.042988892644643784
224.0,0.04232874885201454
240.0,0.041929490864276886
256.0,0.04145514965057373
288.0,0.03824865072965622
320.0,0.034587569534778595
352.0,0.03169243782758713
384.0,0.030664809048175812
416.0,0.031458865851163864
448.0,0.03046591579914093
480.0,0.029372818768024445
512.0,0.027972089126706123
576.0,0.025451883673667908
640.0,0.02264179103076458
704.0,0.016123240813612938
768.0,0.011491009965538979
832.0,0.00611890247091651
896.0,0.0011638522846624255
960.0,-0.0032732291147112846
1024.0,-0.0033022407442331314
1152.0,-0.004945564549416304
1280.0,-0.007661808282136917
1408.0,-0.010081361047923565
1536.0,-0.0138480756431818
1664.0,-0.010689795948565006
1792.0,-0.007396608125418425
1920.0,-0.005672217812389135
2048.0,-0.004165482707321644
2304.0,-0.0030033471994102
2560.0,-0.00341574614867568
2816.0,-0.006767952814698219
3072.0,-0.012373743578791618
3328.0,-0.011970953084528446
3584.0,-0.009310956113040447
3840.0,-0.006108715198934078
4096.0,-0.0051838732324540615
4608.0,-0.005446015857160091
5120.0,-0.013022957369685173
5632.0,-0.020598143339157104
6144.0,-0.009466136805713177
6656.0,0.011096962727606297
7168.0,0.021065756678581238
7680.0,0.0007494792225770652
8192.0,-0.024235429242253304
end
