version,3.0
numOfCh,1
type,point
parent_name,714af_0dot069-1dot0
ch_type,1_1
kcount,1
numberNandB,1
brightnessNandB,1
carpet pos,0
pc,0
Time (ms),CH1 Auto-Correlation
1.0,0.08365999162197113
2.0,0.0829201489686966
3.0,0.0822201743721962
4.0,0.08154845982789993
5.0,0.08095547556877136
6.0,0.08032011985778809
7.0,0.07971199601888657
8.0,0.07913380861282349
9.0,0.07853830605745316
10.0,0.07794402539730072
11.0,0.07743438333272934
12.0,0.07691861689090729
13.0,0.07640063762664795
14.0,0.0758960098028183
15.0,0.07534708827733994
16.0,0.07481745630502701
18.0,0.07384871691465378
20.0,0.07294555753469467
22.0,0.07210417836904526
24.0,0.07131632417440414
26.0,0.070524662733078
28.0,0.06974464654922485
30.0,0.06900202482938766
32.0,0.06830710917711258
36.0,0.06689824163913727
40.0,0.06545091420412064
44.0,0.06405208259820938
48.0,0.06263826042413712
52.0,0.06117376312613487
56.0,0.059892263263463974
60.0,0.05865838751196861
64.0,0.057416800409555435
72.0,0.05523586645722389
80.0,0.05304041504859924
88.0,0.05098346993327141
96.0,0.04923807457089424
104.0,0.04780535772442818
112.0,0.04645313322544098
120.0,0.0451788492500782
128.0,0.04357317462563515
144.0,0.04048626497387886
160.0,0.037933751940727234
176.0,0.03500105068087578
192.0,0.031806573271751404
208.0,0.029138190671801567
224.0,0.026757152751088142
240.0,0.024687455967068672
256.0,0.02252962253987789
288.0,0.017506534233689308
320.0,0.013242307119071484
352.0,0.010474586859345436
384.0,0.009058644063770771
416.0,0.006955621298402548
448.0,0.004010944627225399
480.0,0.0023963095154613256
512.0,0.0018269935389980674
576.0,0.0025673306081444025
640.0,-0.00044908339623361826
704.0,-0.001336315763182938
768.0,3.7996996979927644e-05
832.0,0.0007518213824369013
896.0,0.004391050431877375
960.0,0.005897440016269684
1024.0,0.005867306143045425
1152.0,0.003897534217685461
1280.0,0.00302229356020689
1408.0,0.007453619502484798
1536.0,0.01479047816246748
1664.0,0.013487995602190495
1792.0,0.0058909994550049305
1920.0,-0.0011589436326175928
2048.0,0.000509785080794245
2304.0,-0.005341848824173212
2560.0,-0.008555278182029724
2816.0,-0.009931240230798721
3072.0,0.0035441406071186066
3328.0,0.007690486963838339
3584.0,0.0035323614720255136
3840.0,0.004890788346529007
4096.0,0.0019190720049664378
4608.0,-0.006588302552700043
5120.0,-0.012559178285300732
5632.0,-0.006547572091221809
6144.0,-0.009430043399333954
6656.0,-0.011710941791534424
7168.0,-0.015889847651124
7680.0,-0.0002730966079980135
8192.0,-0.015217899344861507
end
