version,3.0
numOfCh,1
type,point
parent_name,714af_0dot069-1dot0
ch_type,1_1
kcount,1
numberNandB,1
brightnessNandB,1
carpet pos,0
pc,0
Time (ms),CH1 Auto-Correlation
1.0,0.06259659677743912
2.0,0.06161900609731674
3.0,0.060784436762332916
4.0,0.05998341739177704
5.0,0.059231724590063095
6.0,0.05854545161128044
7.0,0.057967789471149445
8.0,0.05745185539126396
9.0,0.05687388405203819
10.0,0.05627180635929108
11.0,0.05575209856033325
12.0,0.055220749229192734
13.0,0.054701365530490875
14.0,0.05420788750052452
15.0,0.05364253744482994
16.0,0.05310504883527756
18.0,0.05210859328508377
20.0,0.051158275455236435
22.0,0.05020853877067566
24.0,0.04923487454652786
26.0,0.048286136239767075
28.0,0.047327108681201935
30.0,0.04637294262647629
32.0,0.0454680509865284
36.0,0.043729860335588455
40.0,0.0420004166662693
44.0,0.04040641710162163
48.0,0.039019305258989334
52.0,0.03765793889760971
56.0,0.0362728051841259
60.0,0.03503866121172905
64.0,0.033930178731679916
72.0,0.031670309603214264
80.0,0.029460769146680832
88.0,0.027126852422952652
96.0,0.02479889988899231
104.0,0.022685877978801727
112.0,0.02061665616929531
120.0,0.018417002633213997
128.0,0.016749411821365356
144.0,0.014431742951273918
160.0,0.012640237808227539
176.0,0.01131455972790718
192.0,0.009959033690392971
208.0,0.00897092092782259
224.0,0.007661156821995974
240.0,0.006660794373601675
256.0,0.006310473661869764
288.0,0.005516364239156246
320.0,0.004273600876331329
352.0,0.003427195129916072
384.0,0.0034388594795018435
416.0,0.0032002420630306005
448.0,0.0034707197919487953
480.0,0.004994313698261976
512.0,0.005092215724289417
576.0,0.0032398973125964403
640.0,0.0019412575056776404
704.0,0.0011781849898397923
768.0,0.0020832857117056847
832.0,-0.0005192837561480701
896.0,-0.0012566368095576763
960.0,-0.0017109800828620791
1024.0,-0.003033815184608102
1152.0,-0.0017475420609116554
1280.0,0.001753946184180677
1408.0,-0.0017841961234807968
1536.0,0.00023793222499080002
1664.0,0.001384001225233078
1792.0,0.0039899167604744434
1920.0,-0.0031167464330792427
2048.0,-0.012279985472559929
2304.0,-0.009566296823322773
2560.0,-0.0016837678849697113
2816.0,-0.006466432008892298
3072.0,-0.0018482976593077183
3328.0,0.003886534832417965
3584.0,0.007793942000716925
3840.0,0.007949631661176682
4096.0,0.0014822138473391533
4608.0,0.0017869442235678434
5120.0,-0.003576653078198433
5632.0,-0.005217814818024635
6144.0,-0.0059684403240680695
6656.0,-0.004189231898635626
7168.0,0.002702913014218211
7680.0,0.0033324009273201227
8192.0,-0.0013441238552331924
end
