version,3.0
numOfCh,1
type,point
parent_name,714af_0dot069-1dot0
ch_type,1_1
kcount,1
numberNandB,1
brightnessNandB,1
carpet pos,0
pc,0
Time (ms),CH1 Auto-Correlation
1.0,0.0853390321135521
2.0,0.08454809337854385
3.0,0.08382466435432434
4.0,0.08313889056444168
5.0,0.08244874328374863
6.0,0.08176808059215546
7.0,0.08115747570991516
8.0,0.0805763453245163
9.0,0.07999216765165329
10.0,0.07945699989795685
11.0,0.0788605585694313
12.0,0.07829800248146057
13.0,0.0777355432510376
14.0,0.07714956253767014
15.0,0.07657106965780258
16.0,0.07599262148141861
18.0,0.07492593675851822
20.0,0.07388381659984589
22.0,0.07288821041584015
24.0,0.07188457250595093
26.0,0.0710010826587677
28.0,0.07015878707170486
30.0,0.06933355331420898
32.0,0.06852070987224579
36.0,0.06691874563694
40.0,0.06537226587533951
44.0,0.06393955647945404
48.0,0.06251168251037598
52.0,0.061248090118169785
56.0,0.06007855385541916
60.0,0.0589476078748703
64.0,0.05789775028824806
72.0,0.055744800716638565
80.0,0.05361699312925339
88.0,0.051494356244802475
96.0,0.049455903470516205
104.0,0.04781564325094223
112.0,0.04615844786167145
120.0,0.04456024244427681
128.0,0.04328080639243126
144.0,0.04108289256691933
160.0,0.03912045434117317
176.0,0.03829232603311539
192.0,0.0379614382982254
208.0,0.037237901240587234
224.0,0.03587866947054863
240.0,0.0339718759059906
256.0,0.03188011422753334
288.0,0.028941914439201355
320.0,0.025438599288463593
352.0,0.02284897118806839
384.0,0.020393826067447662
416.0,0.018063906580209732
448.0,0.016370287165045738
480.0,0.01602807268500328
512.0,0.015641015022993088
576.0,0.01581636071205139
640.0,0.0151669355109334
704.0,0.013771849684417248
768.0,0.015439032576978207
832.0,0.01576514169573784
896.0,0.015787046402692795
960.0,0.018899258226156235
1024.0,0.020413508638739586
1152.0,0.013415267691016197
1280.0,0.008685675449669361
1408.0,0.008202143013477325
1536.0,0.0035330282989889383
1664.0,0.0027327716816216707
1792.0,-0.0006833847728557885
1920.0,-0.0015892770607024431
2048.0,-0.0009229980641975999
2304.0,-0.002742623444646597
2560.0,-0.004651444498449564
2816.0,0.0018123494228348136
3072.0,0.0044779484160244465
3328.0,-0.001913847285322845
3584.0,-0.008994834497570992
3840.0,-0.009769978001713753
4096.0,-0.007910950109362602
4608.0,-0.011613184586167336
5120.0,-0.01156094204634428
5632.0,4.990228990209289e-05
6144.0,-0.0033182953484356403
6656.0,-0.008645350113511086
7168.0,-0.015399660915136337
7680.0,-0.019909601658582687
8192.0,-0.017790835350751877
end
