version,3.0
numOfCh,1
type,point
parent_name,714af_0dot069-1dot0
ch_type,1_1
kcount,1
numberNandB,1
brightnessNandB,1
carpet pos,0
pc,0
Time (ms),CH1 Auto-Correlation
1.0,0.07702849060297012
2.0,0.07616307586431503
3.0,0.07542184740304947
4.0,0.0747116208076477
5.0,0.07402434945106506
6.0,0.07335838675498962
7.0,0.0727568045258522
8.0,0.0721159428358078
9.0,0.07154703140258789
10.0,0.07098524272441864
11.0,0.07045582681894302
12.0,0.0699026957154274
13.0,0.0693667009472847
14.0,0.06886596232652664
15.0,0.06834817677736282
16.0,0.06785786151885986
18.0,0.06684712320566177
20.0,0.06588899344205856
22.0,0.06487482041120529
24.0,0.06387743353843689
26.0,0.06296932697296143
28.0,0.06201650947332382
30.0,0.061142534017562866
32.0,0.06024472042918205
36.0,0.05846118554472923
40.0,0.05678248777985573
44.0,0.055119775235652924
48.0,0.053559571504592896
52.0,0.0520368367433548
56.0,0.050495173782110214
60.0,0.048995114862918854
64.0,0.047408491373062134
72.0,0.04433519393205643
80.0,0.04148833453655243
88.0,0.038588423281908035
96.0,0.03601671755313873
104.0,0.03409424424171448
112.0,0.03227179870009422
120.0,0.030480096116662025
128.0,0.028745805844664574
144.0,0.02582140453159809
160.0,0.02317601628601551
176.0,0.020641347393393517
192.0,0.01794908195734024
208.0,0.015646647661924362
224.0,0.014154198579490185
240.0,0.01270199753344059
256.0,0.011332385241985321
288.0,0.008414351381361485
320.0,0.0044459146447479725
352.0,0.0004444201767910272
384.0,-0.001441703294403851
416.0,-0.002553215716034174
448.0,-0.0018284466350451112
480.0,-0.00032078142976388335
512.0,0.0021728468127548695
576.0,0.005927978549152613
640.0,0.005588536150753498
704.0,0.004694185685366392
768.0,0.004244619514793158
832.0,0.004125466104596853
896.0,0.003711144207045436
960.0,0.0038298736326396465
1024.0,0.0018476564437150955
1152.0,0.0010063628433272243
1280.0,-0.0023724662605673075
1408.0,0.0025034004356712103
1536.0,0.013068873435258865
1664.0,0.01219227910041809
1792.0,0.009498643688857555
1920.0,-0.0012529754312708974
2048.0,-0.003963848110288382
2304.0,-0.0028515243902802467
2560.0,0.0014376277104020119
2816.0,0.005383611656725407
3072.0,0.007488325238227844
3328.0,0.001349506201222539
3584.0,-0.0008816813351586461
3840.0,-0.008521125651896
4096.0,-0.009213816374540329
4608.0,-0.00494023784995079
5120.0,-0.0033087555784732103
5632.0,0.0051455385982990265
6144.0,-0.005266859661787748
6656.0,0.008587289601564407
7168.0,0.005804520566016436
7680.0,-0.0029084503185003996
8192.0,0.013765381649136543
end
