version,3.0
numOfCh,1
type,point
parent_name,714af_0dot069-1dot0
ch_type,1_1
kcount,1
numberNandB,1
brightnessNandB,1
carpet pos,0
pc,0
Time (ms),CH1 Auto-Correlation
1.0,0.09176354855298996
2.0,0.09083086252212524
3.0,0.08999969065189362
4.0,0.08923636376857758
5.0,0.08846989274024963
6.0,0.08777476847171783
7.0,0.08713329583406448
8.0,0.08647855371236801
9.0,0.08583144098520279
10.0,0.0852937176823616
11.0,0.08468815684318542
12.0,0.08412422984838486
13.0,0.08359026908874512
14.0,0.08311428129673004
15.0,0.08264607191085815
16.0,0.08218709379434586
18.0,0.08125001937150955
20.0,0.08030953258275986
22.0,0.0793766975402832
24.0,0.07840458303689957
26.0,0.07750049233436584
28.0,0.07664164155721664
30.0,0.07580526918172836
32.0,0.07496671378612518
36.0,0.07335487008094788
40.0,0.0718095675110817
44.0,0.07028790563344955
48.0,0.06887094676494598
52.0,0.06749533116817474
56.0,0.06617993116378784
60.0,0.06500440835952759
64.0,0.06374482065439224
72.0,0.06136806681752205
80.0,0.05899054929614067
88.0,0.05687985569238663
96.0,0.05476105213165283
104.0,0.05283183604478836
112.0,0.05105438455939293
120.0,0.04926130920648575
128.0,0.04766085743904114
144.0,0.04453078284859657
160.0,0.041197989135980606
176.0,0.03837195038795471
192.0,0.036277886480093
208.0,0.034609273076057434
224.0,0.033007051795721054
240.0,0.03156072273850441
256.0,0.030768055468797684
288.0,0.028424175456166267
320.0,0.026954112574458122
352.0,0.026011275127530098
384.0,0.023966146633028984
416.0,0.02215709164738655
448.0,0.02179202437400818
480.0,0.021839560940861702
512.0,0.020785843953490257
576.0,0.019852932542562485
640.0,0.018040817230939865
704.0,0.014946307986974716
768.0,0.011063857935369015
832.0,0.008207276463508606
896.0,0.007201231550425291
960.0,0.010248063132166862
1024.0,0.012624635361135006
1152.0,0.01373561192303896
1280.0,0.009827367961406708
1408.0,0.004895559046417475
1536.0,0.0006460132426582277
1664.0,0.006458220537751913
1792.0,0.009195206686854362
1920.0,0.006645106710493565
2048.0,0.004730315413326025
2304.0,-0.0022763116285204887
2560.0,-0.007967689074575901
2816.0,-0.011106864549219608
3072.0,-0.009327536448836327
3328.0,-0.0011318635661154985
3584.0,0.0005992013029754162
3840.0,-0.014416373334825039
4096.0,-0.018544230610132217
4608.0,-0.016985587775707245
5120.0,-0.01224195770919323
5632.0,-0.004663398489356041
6144.0,-0.008364584296941757
6656.0,0.006332221440970898
7168.0,0.013593034818768501
7680.0,0.008453244343400002
8192.0,0.008460543118417263
end
