version,3.0
numOfCh,1
type,point
parent_name,714af_0dot069-1dot0
ch_type,1_1
kcount,1
numberNandB,1
brightnessNandB,1
carpet pos,0
pc,0
Time (ms),CH1 Auto-Correlation
1.0,0.0826965942978859
2.0,0.08145864307880402
3.0,0.08046863228082657
4.0,0.07949904352426529
5.0,0.0786266103386879
6.0,0.07781301438808441
7.0,0.07708815485239029
8.0,0.07639944553375244
9.0,0.07566070556640625
10.0,0.07497766613960266
11.0,0.07436088472604752
12.0,0.07371923327445984
13.0,0.07308231294155121
14.0,0.07242003083229065
15.0,0.07178469747304916
16.0,0.07115945965051651
18.0,0.06990888714790344
20.0,0.06859587132930756
22.0,0.06733443588018417
24.0,0.06610920280218124
26.0,0.06499818712472916
28.0,0.06389295309782028
30.0,0.062837153673172
32.0,0.06174840033054352
36.0,0.05972762033343315
40.0,0.057666897773742676
44.0,0.055806923657655716
48.0,0.053946614265441895
52.0,0.052224960178136826
56.0,0.05057721957564354
60.0,0.04916970059275627
64.0,0.04791172593832016
72.0,0.04532034695148468
80.0,0.042612720280885696
88.0,0.04010587930679321
96.0,0.03759380429983139
104.0,0.0347200371325016
112.0,0.03238280117511749
120.0,0.030850304290652275
128.0,0.0295131616294384
144.0,0.02690836600959301
160.0,0.02434346079826355
176.0,0.021169034764170647
192.0,0.017548570409417152
208.0,0.014926719479262829
224.0,0.01292010024189949
240.0,0.01194943580776453
256.0,0.01175120659172535
288.0,0.010564691387116909
320.0,0.011411180719733238
352.0,0.011863930150866508
384.0,0.01157225202769041
416.0,0.011321543715894222
448.0,0.010853112675249577
480.0,0.010865899734199047
512.0,0.012159883044660091
576.0,0.013925805687904358
640.0,0.012645126320421696
704.0,0.007226788438856602
768.0,0.003437985200434923
832.0,0.0016663824208080769
896.0,-0.00010449980618432164
960.0,-0.002188529819250107
1024.0,-0.006365003064274788
1152.0,-0.003732845885679126
1280.0,-0.0034927381202578545
1408.0,-0.004215674940496683
1536.0,6.106980436015874e-05
1664.0,-0.0004540417867247015
1792.0,-0.0015945815248414874
1920.0,-0.0015857454854995012
2048.0,-0.007610662374645472
2304.0,0.001587197300978005
2560.0,-0.003472310956567526
2816.0,-0.0065094842575490475
3072.0,0.0032198422122746706
3328.0,-0.0006408320623449981
3584.0,0.002616121666505933
3840.0,0.007492476142942905
4096.0,0.0034720776602625847
4608.0,-0.001849198597483337
5120.0,-0.005515988450497389
5632.0,0.005518345627933741
6144.0,0.00022975483443588018
6656.0,-0.01152452826499939
7168.0,0.009537775069475174
7680.0,0.012752998620271683
8192.0,-0.008493342436850071
end
