version,3.0
numOfCh,1
type,point
parent_name,714af_0dot069-1dot0
ch_type,1_1
kcount,1
numberNandB,1
brightnessNandB,1
carpet pos,0
pc,0
Time (ms),CH1 Auto-Correlation
1.0,0.10281827300786972
2.0,0.10152038931846619
3.0,0.10045554488897324
4.0,0.09961815923452377
5.0,0.09887298941612244
6.0,0.0981716737151146
7.0,0.09759646654129028
8.0,0.09707696735858917
9.0,0.09646255522966385
10.0,0.09583964198827744
11.0,0.09518648684024811
12.0,0.09461338818073273
13.0,0.09404813498258591
14.0,0.09356703609228134
15.0,0.09301719814538956
16.0,0.092598095536232
18.0,0.09168396890163422
20.0,0.09072856605052948
22.0,0.08979449421167374
24.0,0.08896742761135101
26.0,0.08815865218639374
28.0,0.08738354593515396
30.0,0.08658027648925781
32.0,0.08568481355905533
36.0,0.08393639326095581
40.0,0.08236608654260635
44.0,0.08088627457618713
48.0,0.0793101042509079
52.0,0.07778158783912659
56.0,0.07632161676883698
60.0,0.07496259361505508
64.0,0.0735771581530571
72.0,0.07122936844825745
80.0,0.06864307820796967
88.0,0.0658213347196579
96.0,0.06350737065076828
104.0,0.06113523244857788
112.0,0.058857645839452744
120.0,0.05651997774839401
128.0,0.05418337136507034
144.0,0.049712568521499634
160.0,0.045296233147382736
176.0,0.04064689949154854
192.0,0.03620620444417
208.0,0.032485827803611755
224.0,0.029599500820040703
240.0,0.027314534410834312
256.0,0.025121420621871948
288.0,0.01995406299829483
320.0,0.01450088806450367
352.0,0.008872932754456997
384.0,0.003902205964550376
416.0,0.000852496363222599
448.0,-0.00011841884406749159
480.0,-0.0012700948864221573
512.0,-0.002757294336333871
576.0,-0.004692580550909042
640.0,-0.007312691770493984
704.0,-0.007795084733515978
768.0,-0.008740970864892006
832.0,-0.010378262028098106
896.0,-0.008891372010111809
960.0,-0.005905668716877699
1024.0,-0.0008874467457644641
1152.0,-0.00016558171773795038
1280.0,-0.007383586373180151
1408.0,-0.015510733239352703
1536.0,-0.015493790619075298
1664.0,-0.012757103890180588
1792.0,-0.007390901912003756
1920.0,-0.006629375275224447
2048.0,-0.0003180048370268196
2304.0,-0.003364778123795986
2560.0,-0.01157001405954361
2816.0,-0.014932076446712017
3072.0,-0.009654935449361801
3328.0,-0.008224932476878166
3584.0,0.0017126081511378288
3840.0,0.011311403475701809
4096.0,0.01000140979886055
4608.0,0.005408190656453371
5120.0,0.013587531633675098
5632.0,-0.00974986795336008
6144.0,-0.0035393862053751945
6656.0,-0.009142986498773098
7168.0,-0.013875310309231281
7680.0,0.001729595591314137
8192.0,0.01848682202398777
end
