version,3.0
numOfCh,1
type,point
parent_name,714af_0dot069-1dot0
ch_type,1_1
kcount,1
numberNandB,1
brightnessNandB,1
carpet pos,0
pc,0
Time (ms),CH1 Auto-Correlation
1.0,0.09562487155199051
2.0,0.09455090016126633
3.0,0.0936855748295784
4.0,0.09292321652173996
5.0,0.09222616255283356
6.0,0.09156335145235062
7.0,0.09094992280006409
8.0,0.0903632715344429
9.0,0.08972633630037308
10.0,0.0892835184931755
11.0,0.08874431997537613
12.0,0.08815313130617142
13.0,0.08761703968048096
14.0,0.08714073151350021
15.0,0.08663724362850189
16.0,0.08607396483421326
18.0,0.08511276543140411
20.0,0.08418644964694977
22.0,0.08323878794908524
24.0,0.08226003497838974
26.0,0.08139635622501373
28.0,0.08062694221735
30.0,0.07985546439886093
32.0,0.07915431261062622
36.0,0.07778272777795792
40.0,0.07639975845813751
44.0,0.075030617415905
48.0,0.07386510074138641
52.0,0.0726475715637207
56.0,0.07142455130815506
60.0,0.07037288695573807
64.0,0.06925329566001892
72.0,0.06695917248725891
80.0,0.06462669372558594
88.0,0.06235305964946747
96.0,0.060041505843400955
104.0,0.0579361692070961
112.0,0.05560280382633209
120.0,0.05330238863825798
128.0,0.05144253745675087
144.0,0.048446252942085266
160.0,0.04563058167695999
176.0,0.042803917080163956
192.0,0.04037301614880562
208.0,0.038019776344299316
224.0,0.03522524982690811
240.0,0.032047089189291
256.0,0.02900134027004242
288.0,0.023326244205236435
320.0,0.019953839480876923
352.0,0.01931810937821865
384.0,0.018798980861902237
416.0,0.019432857632637024
448.0,0.019156314432621002
480.0,0.01960715278983116
512.0,0.022122135385870934
576.0,0.025808779522776604
640.0,0.02789442054927349
704.0,0.027761396020650864
768.0,0.026622332632541656
832.0,0.025154152885079384
896.0,0.023278577253222466
960.0,0.02172192558646202
1024.0,0.020238319411873817
1152.0,0.017924118787050247
1280.0,0.015875564888119698
1408.0,0.012197204865515232
1536.0,0.010416310280561447
1664.0,0.008677329868078232
1792.0,0.007131670601665974
1920.0,0.011875888332724571
2048.0,0.01531321182847023
2304.0,0.010386357083916664
2560.0,0.011042199097573757
2816.0,0.009030725806951523
3072.0,-0.002214389154687524
3328.0,-0.016205960884690285
3584.0,-0.0136036928743124
3840.0,-0.012963075190782547
4096.0,-0.025427117943763733
4608.0,-0.008995582349598408
5120.0,-0.011896807700395584
5632.0,-0.012578165158629417
6144.0,-0.0310701634734869
6656.0,-0.01812213845551014
7168.0,-0.015365415252745152
7680.0,-0.001394488150253892
8192.0,-0.010783841833472252
end
