version,3.0
numOfCh,1
type,point
parent_name,714af_0dot069-1dot0
ch_type,1_1
kcount,1
numberNandB,1
brightnessNandB,1
carpet pos,0
pc,0
Time (ms),CH1 Auto-Correlation
1.0,0.2113276571035385
2.0,0.19656440615653992
3.0,0.18170930445194244
4.0,0.17104175686836243
5.0,0.15866751968860626
6.0,0.14924106001853943
7.0,0.13873088359832764
8.0,0.12979385256767273
9.0,0.12072811275720596
10.0,0.11964217573404312
11.0,0.11875507235527039
12.0,0.11790601164102554
13.0,0.11722627282142639
14.0,0.11634203046560287
15.0,0.11539345234632492
16.0,0.11460608243942261
18.0,0.11334504187107086
20.0,0.11231997609138489
22.0,0.11122901737689972
24.0,0.11032994091510773
26.0,0.10951452702283859
28.0,0.1089329794049263
30.0,0.10823331028223038
32.0,0.10720904916524887
36.0,0.10537281632423401
40.0,0.10399112850427628
44.0,0.10272448509931564
48.0,0.10103035718202591
52.0,0.09876900911331177
56.0,0.09647835791110992
60.0,0.09453281760215759
64.0,0.09286026656627655
72.0,0.09190528094768524
80.0,0.08917460590600967
88.0,0.0864444300532341
96.0,0.08386817574501038
104.0,0.08155786991119385
112.0,0.07942917943000793
120.0,0.07772784680128098
128.0,0.0763680562376976
144.0,0.0735783502459526
160.0,0.07073932141065598
176.0,0.06841732561588287
192.0,0.06691888719797134
208.0,0.06514003872871399
224.0,0.06309792399406433
240.0,0.061177805066108704
256.0,0.059412743896245956
288.0,0.05878158658742905
320.0,0.057886675000190735
352.0,0.05625344067811966
384.0,0.05515541136264801
416.0,0.0530693456530571
448.0,0.052196159958839417
480.0,0.05049389973282814
512.0,0.04817033186554909
576.0,0.045508913695812225
640.0,0.03967762365937233
704.0,0.03436975181102753
768.0,0.03144049271941185
832.0,0.02672121487557888
896.0,0.020702729001641273
960.0,0.014961848966777325
1024.0,0.007599422242492437
1152.0,-0.004235458560287952
1280.0,-0.007454661652445793
1408.0,-0.0038219518028199673
1536.0,-0.00695910444483161
1664.0,-0.012380357831716537
1792.0,-0.016040844842791557
1920.0,-0.016008934006094933
2048.0,-0.01785728707909584
2304.0,-0.0261714905500412
2560.0,-0.026261158287525177
2816.0,-0.02393934689462185
3072.0,-0.02569614164531231
3328.0,-0.01932608336210251
3584.0,-0.016047278419137
3840.0,-0.00927212368696928
4096.0,-0.0021806065924465656
4608.0,-0.005027041304856539
5120.0,-0.006811780855059624
5632.0,-0.0013242659624665976
6144.0,-0.00040064388304017484
6656.0,-0.013093916699290276
7168.0,-0.01730547472834587
7680.0,-0.00703884894028306
8192.0,-0.007695348933339119
end
