version,3.0
numOfCh,1
type,point
parent_name,714af_0dot069-1dot0
ch_type,1_1
kcount,1
numberNandB,1
brightnessNandB,1
carpet pos,0
pc,0
Time (ms),CH1 Auto-Correlation
1.0,0.08835750073194504
2.0,0.08586855977773666
3.0,0.08466996997594833
4.0,0.08363845199346542
5.0,0.08221462368965149
6.0,0.08094935864210129
7.0,0.0800970047712326
8.0,0.0793910101056099
9.0,0.07850027829408646
10.0,0.0774349644780159
11.0,0.07661763578653336
12.0,0.07603269070386887
13.0,0.07537154853343964
14.0,0.07478336244821548
15.0,0.07421644777059555
16.0,0.07368938624858856
18.0,0.07274176180362701
20.0,0.07188428938388824
22.0,0.07108865678310394
24.0,0.0702914297580719
26.0,0.06965828686952591
28.0,0.06897642463445663
30.0,0.06827176362276077
32.0,0.06758352369070053
36.0,0.06613091379404068
40.0,0.06480277329683304
44.0,0.06350857019424438
48.0,0.06220110505819321
52.0,0.06109204515814781
56.0,0.06005396321415901
60.0,0.05898561701178551
64.0,0.057725097984075546
72.0,0.05562388896942139
80.0,0.054009269922971725
88.0,0.05246562510728836
96.0,0.050747133791446686
104.0,0.04917723685503006
112.0,0.047671157866716385
120.0,0.04610735923051834
128.0,0.04465483874082565
144.0,0.04180761054158211
160.0,0.03936923295259476
176.0,0.037375692278146744
192.0,0.03576846793293953
208.0,0.03357887268066406
224.0,0.03161197155714035
240.0,0.029271509498357773
256.0,0.027541162446141243
288.0,0.02377721481025219
320.0,0.021508168429136276
352.0,0.01874183863401413
384.0,0.017183654010295868
416.0,0.016239801421761513
448.0,0.014716120436787605
480.0,0.013241167180240154
512.0,0.012601595371961594
576.0,0.01032065600156784
640.0,0.007121474016457796
704.0,0.004988499451428652
768.0,0.003844844177365303
832.0,0.002105712192133069
896.0,0.0003881856973748654
960.0,-0.0022376475390046835
1024.0,-0.00804820191115141
1152.0,-0.014015060849487782
1280.0,-0.011668412946164608
1408.0,-0.0034661060199141502
1536.0,-0.0031661943066865206
1664.0,-0.004101780243217945
1792.0,-0.007794259116053581
1920.0,-0.008941023610532284
2048.0,-0.008425910957157612
2304.0,-0.014938312582671642
2560.0,-0.0249337088316679
2816.0,-0.022708134725689888
3072.0,-0.016499783843755722
3328.0,-0.011732866987586021
3584.0,0.0010524472454562783
3840.0,0.014682636596262455
4096.0,0.020261133089661598
4608.0,0.007447655778378248
5120.0,-0.0009707571007311344
5632.0,0.00976042915135622
6144.0,-0.0014661820605397224
6656.0,-0.02341381646692753
7168.0,-0.019866686314344406
7680.0,-0.001864608726464212
8192.0,0.013678191229701042
end
