version,3.0
numOfCh,1
type,point
parent_name,714af_0dot069-1dot0
ch_type,1_1
kcount,1
numberNandB,1
brightnessNandB,1
carpet pos,0
pc,0
Time (ms),CH1 Auto-Correlation
1.0,0.0600619874894619
2.0,0.05921294540166855
3.0,0.05848075449466705
4.0,0.057741425931453705
5.0,0.05710584670305252
6.0,0.056457605212926865
7.0,0.05585017800331116
8.0,0.05527890473604202
9.0,0.05475129187107086
10.0,0.05421750992536545
11.0,0.05369596183300018
12.0,0.05319654569029808
13.0,0.05271920561790466
14.0,0.05225951969623566
15.0,0.051779113709926605
16.0,0.051331356167793274
18.0,0.05049983039498329
20.0,0.0497596301138401
22.0,0.04900849238038063
24.0,0.04832325130701065
26.0,0.04758545756340027
28.0,0.046902965754270554
30.0,0.04625282064080238
32.0,0.04559962823987007
36.0,0.04432372376322746
40.0,0.04328438639640808
44.0,0.04221991449594498
48.0,0.04112652316689491
52.0,0.039996761828660965
56.0,0.03888801485300064
60.0,0.03789651393890381
64.0,0.03708409145474434
72.0,0.035808272659778595
80.0,0.03448505699634552
88.0,0.033101461827754974
96.0,0.03182389587163925
104.0,0.03045213595032692
112.0,0.0295008085668087
120.0,0.028605137020349503
128.0,0.027575496584177017
144.0,0.025351788848638535
160.0,0.02321612648665905
176.0,0.02199282869696617
192.0,0.020634807646274567
208.0,0.01862512342631817
224.0,0.016628170385956764
240.0,0.014751116745173931
256.0,0.013104891404509544
288.0,0.010747963562607765
320.0,0.009473415091633797
352.0,0.007959747686982155
384.0,0.00714559480547905
416.0,0.004835434257984161
448.0,0.002886065049096942
480.0,0.0016689627664163709
512.0,2.0076400687685236e-05
576.0,-0.005504492204636335
640.0,-0.009819474071264267
704.0,-0.012293879874050617
768.0,-0.013270480558276176
832.0,-0.015721328556537628
896.0,-0.017548885196447372
960.0,-0.01976386457681656
1024.0,-0.020223380997776985
1152.0,-0.0166001096367836
1280.0,-0.009467928670346737
1408.0,-0.0005226516514085233
1536.0,0.00488723861053586
1664.0,0.008203978650271893
1792.0,0.00949700828641653
1920.0,0.011056097224354744
2048.0,0.009927235543727875
2304.0,0.00509782275184989
2560.0,-0.003401124617084861
2816.0,-0.003898114897310734
3072.0,-0.0012902943417429924
3328.0,-0.0014026822755113244
3584.0,0.005575170740485191
3840.0,0.0007246152381412685
4096.0,0.00024040116113610566
4608.0,-0.004560641944408417
5120.0,0.0038940638769418
5632.0,0.004200498573482037
6144.0,-0.00135043787304312
6656.0,-0.009819709695875645
7168.0,-0.0022722191642969847
7680.0,0.00848141498863697
8192.0,-0.0015968459192663431
end
