version,3.0
numOfCh,1
type,point
parent_name,714af_0dot069-1dot0
ch_type,1_1
kcount,1
numberNandB,1
brightnessNandB,1
carpet pos,0
pc,0
Time (ms),CH1 Auto-Correlation
1.0,0.060127269476652145
2.0,0.05887357518076897
3.0,0.057808227837085724
4.0,0.0569315068423748
5.0,0.05626697465777397
6.0,0.05562552437186241
7.0,0.05490991100668907
8.0,0.05433204397559166
9.0,0.05379701778292656
10.0,0.05332015082240105
11.0,0.05284763127565384
12.0,0.05234120786190033
13.0,0.0517747700214386
14.0,0.051367972046136856
15.0,0.0509304516017437
16.0,0.05052507668733597
18.0,0.04959587752819061
20.0,0.048781994730234146
22.0,0.04809674620628357
24.0,0.04723968729376793
26.0,0.04651784896850586
28.0,0.04582269862294197
30.0,0.0451260507106781
32.0,0.0444481298327446
36.0,0.04304569214582443
40.0,0.04171769693493843
44.0,0.04033125191926956
48.0,0.03910232335329056
52.0,0.0379781611263752
56.0,0.03673943132162094
60.0,0.035685937851667404
64.0,0.034789685159921646
72.0,0.0329878143966198
80.0,0.03125707805156708
88.0,0.029799923300743103
96.0,0.028481507673859596
104.0,0.027170512825250626
112.0,0.025690466165542603
120.0,0.024226540699601173
128.0,0.023074550554156303
144.0,0.021486405283212662
160.0,0.020490162074565887
176.0,0.019412105903029442
192.0,0.017897851765155792
208.0,0.016156282275915146
224.0,0.014293431304395199
240.0,0.013298296369612217
256.0,0.012495205737650394
288.0,0.010939548723399639
320.0,0.008534900844097137
352.0,0.00845476146787405
384.0,0.008981692604720592
416.0,0.0075615085661411285
448.0,0.007456142921000719
480.0,0.008566305972635746
512.0,0.009644522331655025
576.0,0.010939492844045162
640.0,0.010121925733983517
704.0,0.008087651804089546
768.0,0.006873579695820808
832.0,0.005258388351649046
896.0,0.005259957164525986
960.0,0.007727323565632105
1024.0,0.01072291936725378
1152.0,0.01171206682920456
1280.0,0.01113610714673996
1408.0,0.007648051250725985
1536.0,0.004744840320199728
1664.0,0.0009543430642224848
1792.0,-0.0009568522800691426
1920.0,-0.00016331637743860483
2048.0,0.0020373479928821325
2304.0,-0.00574357807636261
2560.0,9.308438166044652e-05
2816.0,-0.0072418563067913055
3072.0,-0.009708434343338013
3328.0,-0.011415072716772556
3584.0,-0.008547119796276093
3840.0,-0.003714941442012787
4096.0,-0.0076942420564591885
4608.0,-0.0005485380534082651
5120.0,-0.0013587938155978918
5632.0,0.009400793351233006
6144.0,0.005957374814897776
6656.0,0.013340168632566929
7168.0,0.008061662316322327
7680.0,0.002500597620382905
8192.0,-0.00377729837782681
end
