version,3.0
numOfCh,1
type,point
parent_name,714af_0dot069-1dot0
ch_type,1_1
kcount,1
numberNandB,1
brightnessNandB,1
carpet pos,0
pc,0
Time (ms),CH1 Auto-Correlation
1.0,0.07591614127159119
2.0,0.07505525648593903
3.0,0.07431092113256454
4.0,0.07365038245916367
5.0,0.07298120111227036
6.0,0.07236168533563614
7.0,0.07173113524913788
8.0,0.0711301863193512
9.0,0.07050563395023346
10.0,0.06992430239915848
11.0,0.06940903514623642
12.0,0.06887801736593246
13.0,0.0683731660246849
14.0,0.06789067387580872
15.0,0.06741184741258621
16.0,0.06691107153892517
18.0,0.06591637432575226
20.0,0.0649571344256401
22.0,0.06401734799146652
24.0,0.06314667314291
26.0,0.06234779953956604
28.0,0.061589356511831284
30.0,0.06086565926671028
32.0,0.06023132801055908
36.0,0.05882185697555542
40.0,0.05736184120178223
44.0,0.055811699479818344
48.0,0.05424008518457413
52.0,0.0527096688747406
56.0,0.05134292319417
60.0,0.05004235357046127
64.0,0.048876188695430756
72.0,0.04674103856086731
80.0,0.044440556317567825
88.0,0.042312297970056534
96.0,0.04045025631785393
104.0,0.03882211819291115
112.0,0.03719102591276169
120.0,0.035508893430233
128.0,0.033864155411720276
144.0,0.03180669620633125
160.0,0.03083868697285652
176.0,0.030024519190192223
192.0,0.028992226347327232
208.0,0.028188524767756462
224.0,0.02771514654159546
240.0,0.027056435123085976
256.0,0.026594551280140877
288.0,0.025285689160227776
320.0,0.023618394508957863
352.0,0.022300032898783684
384.0,0.021993204951286316
416.0,0.021967638283967972
448.0,0.02183878980576992
480.0,0.020201081410050392
512.0,0.01840415596961975
576.0,0.0164058655500412
640.0,0.015225977636873722
704.0,0.01444051694124937
768.0,0.014336897991597652
832.0,0.012417640537023544
896.0,0.012347884476184845
960.0,0.01089455746114254
1024.0,0.011275915428996086
1152.0,0.0086191575974226
1280.0,0.008865716867148876
1408.0,0.008311089128255844
1536.0,0.0061681452207267284
1664.0,0.0047597577795386314
1792.0,0.00291564897634089
1920.0,0.00027095433324575424
2048.0,-0.0024755189660936594
2304.0,-0.0012944501359015703
2560.0,0.001025067875161767
2816.0,0.007075040135532618
3072.0,-0.00393670005723834
3328.0,-0.008093904703855515
3584.0,-0.009502940811216831
3840.0,-0.013721629977226257
4096.0,-0.006603472400456667
4608.0,-0.018658258020877838
5120.0,-0.019214514642953873
5632.0,-0.019910218194127083
6144.0,-0.023864243179559708
6656.0,-0.01204789150506258
7168.0,-0.005995402578264475
7680.0,-0.011738997884094715
8192.0,-0.0022740615531802177
end
