version,3.0
numOfCh,1
type,point
parent_name,714af_0dot069-1dot0
ch_type,1_1
kcount,1
numberNandB,1
brightnessNandB,1
carpet pos,0
pc,0
Time (ms),CH1 Auto-Correlation
1.0,0.07022356241941452
2.0,0.06919695436954498
3.0,0.06833682209253311
4.0,0.06749041378498077
5.0,0.06680197268724442
6.0,0.06615380197763443
7.0,0.06551257520914078
8.0,0.06497643142938614
9.0,0.06436176598072052
10.0,0.06378854066133499
11.0,0.06322571635246277
12.0,0.06262990832328796
13.0,0.06207882985472679
14.0,0.06156548857688904
15.0,0.06108442321419716
16.0,0.06059819832444191
18.0,0.059636835008859634
20.0,0.05863891541957855
22.0,0.05771002545952797
24.0,0.056859999895095825
26.0,0.05605161935091019
28.0,0.055269867181777954
30.0,0.0545283704996109
32.0,0.05378751456737518
36.0,0.05245110020041466
40.0,0.05118393898010254
44.0,0.04985591769218445
48.0,0.0485883504152298
52.0,0.047406598925590515
56.0,0.046162307262420654
60.0,0.044879570603370667
64.0,0.04398059472441673
72.0,0.042252492159605026
80.0,0.040332578122615814
88.0,0.038457322865724564
96.0,0.03671536594629288
104.0,0.035242993384599686
112.0,0.03392546996474266
120.0,0.032725658267736435
128.0,0.03152330219745636
144.0,0.029440483078360558
160.0,0.026952188462018967
176.0,0.024502839893102646
192.0,0.023151354864239693
208.0,0.022274784743785858
224.0,0.02273460291326046
240.0,0.023336047306656837
256.0,0.023395871743559837
288.0,0.022727254778146744
320.0,0.021783914417028427
352.0,0.01981230080127716
384.0,0.017787784337997437
416.0,0.01538874488323927
448.0,0.014071140438318253
480.0,0.012991414405405521
512.0,0.01088684517890215
576.0,0.007972571067512035
640.0,0.006130503956228495
704.0,0.00536084920167923
768.0,0.005592579487711191
832.0,0.004567870870232582
896.0,0.004974166862666607
960.0,0.00788905005902052
1024.0,0.007075286004692316
1152.0,0.0037638877984136343
1280.0,0.002478464273735881
1408.0,0.0012386490125209093
1536.0,0.0025915743317455053
1664.0,0.0020943344570696354
1792.0,-0.0002742560754995793
1920.0,0.0019341197330504656
2048.0,0.0010976092889904976
2304.0,0.0013285408494994044
2560.0,-0.0011277704034000635
2816.0,-0.009452065452933311
3072.0,-0.016320843249559402
3328.0,-0.012788851745426655
3584.0,-0.011607249267399311
3840.0,-0.010787193663418293
4096.0,-0.010095341131091118
4608.0,0.01487627811729908
5120.0,0.008828865364193916
5632.0,0.0029873643070459366
6144.0,0.008159036748111248
6656.0,0.004256703890860081
7168.0,0.002929673995822668
7680.0,-0.012042608112096786
8192.0,-0.014909115619957447
end
