version,3.0
numOfCh,1
type,point
parent_name,714af_0dot069-1dot0
ch_type,1_1
kcount,1
numberNandB,1
brightnessNandB,1
carpet pos,0
pc,0
Time (ms),CH1 Auto-Correlation
1.0,0.07323139905929565
2.0,0.07180987298488617
3.0,0.07061590999364853
4.0,0.06956993788480759
5.0,0.06854108721017838
6.0,0.06763336807489395
7.0,0.06674988567829132
8.0,0.06592956185340881
9.0,0.0651579275727272
10.0,0.06439459323883057
11.0,0.06363360583782196
12.0,0.06293140351772308
13.0,0.06216968595981598
14.0,0.061394963413476944
15.0,0.06070392206311226
16.0,0.060044560581445694
18.0,0.058834243565797806
20.0,0.05763416737318039
22.0,0.05645476654171944
24.0,0.05530714616179466
26.0,0.05422205477952957
28.0,0.053163792937994
30.0,0.05224566161632538
32.0,0.051312804222106934
36.0,0.049313317984342575
40.0,0.04728887602686882
44.0,0.045339688658714294
48.0,0.043453142046928406
52.0,0.041627634316682816
56.0,0.040030546486377716
60.0,0.03859396278858185
64.0,0.03726998716592789
72.0,0.035138603299856186
80.0,0.03355056419968605
88.0,0.031875912100076675
96.0,0.030076194554567337
104.0,0.028428800404071808
112.0,0.026972807943820953
120.0,0.026242638006806374
128.0,0.026161113753914833
144.0,0.026345612481236458
160.0,0.02580653503537178
176.0,0.025088325142860413
192.0,0.023031968623399734
208.0,0.021228313446044922
224.0,0.01974981464445591
240.0,0.018580535426735878
256.0,0.017390552908182144
288.0,0.014861113391816616
320.0,0.011871077120304108
352.0,0.010069341398775578
384.0,0.010341496206820011
416.0,0.011836569756269455
448.0,0.012448698282241821
480.0,0.010205633006989956
512.0,0.006543993018567562
576.0,0.007699537090957165
640.0,0.007979204878211021
704.0,0.004631402902305126
768.0,0.005271608475595713
832.0,0.0061731222085654736
896.0,0.002686809515580535
960.0,-0.0013716642279177904
1024.0,0.0013591283932328224
1152.0,-0.0012112365802749991
1280.0,0.0025996658951044083
1408.0,-0.0019883650820702314
1536.0,-0.0008891880279406905
1664.0,-0.00021921175357419997
1792.0,0.0005946133169345558
1920.0,0.013234004378318787
2048.0,0.012322735041379929
2304.0,0.004467842169106007
2560.0,0.0045759365893900394
2816.0,0.006030612625181675
3072.0,0.006350359413772821
3328.0,0.0035785874351859093
3584.0,-0.0019116008188575506
3840.0,-0.004739534109830856
4096.0,-0.0006033577956259251
4608.0,-0.006837309803813696
5120.0,0.00023792327556293458
5632.0,-0.002058320678770542
6144.0,-0.01102736871689558
6656.0,-0.012975821271538734
7168.0,-0.011287538334727287
7680.0,-0.010717995464801788
8192.0,-0.004092939663678408
end
