version,3.0
numOfCh,1
type,point
parent_name,714af_0dot069-1dot0
ch_type,1_1
kcount,1
numberNandB,1
brightnessNandB,1
carpet pos,0
pc,0
Time (ms),CH1 Auto-Correlation
1.0,0.059304215013980865
2.0,0.05856204405426979
3.0,0.05788658186793327
4.0,0.05728112906217575
5.0,0.05667860060930252
6.0,0.0560794360935688
7.0,0.05551846697926521
8.0,0.055019136518239975
9.0,0.05448753014206886
10.0,0.05398379638791084
11.0,0.053454965353012085
12.0,0.05298713222146034
13.0,0.05252114310860634
14.0,0.05205339193344116
15.0,0.05157269164919853
16.0,0.051116783171892166
18.0,0.05025764927268028
20.0,0.04945453256368637
22.0,0.048706259578466415
24.0,0.04797040671110153
26.0,0.04721273109316826
28.0,0.04643266275525093
30.0,0.04574037715792656
32.0,0.04505879059433937
36.0,0.04371240362524986
40.0,0.042381271719932556
44.0,0.041128840297460556
48.0,0.03996831923723221
52.0,0.03893551975488663
56.0,0.03799710050225258
60.0,0.0371694341301918
64.0,0.03628608211874962
72.0,0.034655578434467316
80.0,0.03314950689673424
88.0,0.031563665717840195
96.0,0.030029647052288055
104.0,0.02856382355093956
112.0,0.027327708899974823
120.0,0.02638631872832775
128.0,0.025447266176342964
144.0,0.023597637191414833
160.0,0.02146911434829235
176.0,0.01987828128039837
192.0,0.018586231395602226
208.0,0.01769779436290264
224.0,0.0168256014585495
240.0,0.01583041250705719
256.0,0.015316099859774113
288.0,0.013413509353995323
320.0,0.011604087427258492
352.0,0.010565859265625477
384.0,0.00970910582691431
416.0,0.009162629954516888
448.0,0.009675190784037113
480.0,0.009786941111087799
512.0,0.008261838927865028
576.0,0.007793355267494917
640.0,0.007526237517595291
704.0,0.007979052141308784
768.0,0.008459549397230148
832.0,0.010807132348418236
896.0,0.011850719340145588
960.0,0.012094151228666306
1024.0,0.012606778182089329
1152.0,0.015526519156992435
1280.0,0.014841455966234207
1408.0,0.01255629863590002
1536.0,0.008596214465796947
1664.0,0.007777146529406309
1792.0,0.004142426885664463
1920.0,0.0014101940905675292
2048.0,0.0017588598420843482
2304.0,0.007552233058959246
2560.0,0.0030028896871954203
2816.0,-0.0006989450776018202
3072.0,-0.007198575418442488
3328.0,-0.00830723438411951
3584.0,-0.00710788881406188
3840.0,-0.010983675718307495
4096.0,-0.011726150289177895
4608.0,-0.01381279993802309
5120.0,-0.012989060021936893
5632.0,-0.01448356918990612
6144.0,-0.013534817844629288
6656.0,-0.01202758215367794
7168.0,-0.00038732209941372275
7680.0,-0.0029434591997414827
8192.0,-0.0008626430062577128
end
