version,3.0
numOfCh,1
type,point
parent_name,714af_0dot069-1dot0
ch_type,1_1
kcount,1
numberNandB,1
brightnessNandB,1
carpet pos,0
pc,0
Time (ms),CH1 Auto-Correlation
1.0,0.08361172676086426
2.0,0.0825435221195221
3.0,0.08160130679607391
4.0,0.08074275404214859
5.0,0.07999855279922485
6.0,0.07933211326599121
7.0,0.0786781832575798
8.0,0.07801052182912827
9.0,0.0773153230547905
10.0,0.0766984298825264
11.0,0.07610193639993668
12.0,0.07546282559633255
13.0,0.07485008984804153
14.0,0.07424494624137878
15.0,0.07368987053632736
16.0,0.07315193861722946
18.0,0.07196671515703201
20.0,0.07073834538459778
22.0,0.06955170631408691
24.0,0.06841599196195602
26.0,0.06731784343719482
28.0,0.06633550673723221
30.0,0.0653611421585083
32.0,0.06432292610406876
36.0,0.062277983874082565
40.0,0.06012764573097229
44.0,0.058056097477674484
48.0,0.056172821670770645
52.0,0.054446183145046234
56.0,0.052832361310720444
60.0,0.05125657096505165
64.0,0.049838192760944366
72.0,0.04728078842163086
80.0,0.04482680931687355
88.0,0.04275345802307129
96.0,0.04083044081926346
104.0,0.039305321872234344
112.0,0.037835367023944855
120.0,0.036475542932748795
128.0,0.035449665039777756
144.0,0.03381234034895897
160.0,0.031224582344293594
176.0,0.028111841529607773
192.0,0.025562165305018425
208.0,0.023132415488362312
224.0,0.02130717784166336
240.0,0.01973768137395382
256.0,0.01902267150580883
288.0,0.0176959540694952
320.0,0.018667731434106827
352.0,0.020735716447234154
384.0,0.02183670550584793
416.0,0.02131955698132515
448.0,0.02017403393983841
480.0,0.017972979694604874
512.0,0.01494750939309597
576.0,0.010983383283019066
640.0,0.007419961038976908
704.0,0.00740843778476119
768.0,0.0046701328828930855
832.0,0.0033840909600257874
896.0,0.003193977288901806
960.0,0.0006642915541306138
1024.0,-0.002695227274671197
1152.0,-0.014610243029892445
1280.0,-0.014266780577600002
1408.0,-0.005906177684664726
1536.0,-0.004833756946027279
1664.0,-0.005503148306161165
1792.0,-0.0009429492638446391
1920.0,0.0029901659581810236
2048.0,0.002993473783135414
2304.0,0.0014529580948874354
2560.0,0.00606741476804018
2816.0,0.003668987425044179
3072.0,-0.00583341158926487
3328.0,-0.005431357771158218
3584.0,-0.005745927803218365
3840.0,-0.0033730168361216784
4096.0,-0.00276397168636322
4608.0,-0.005668738391250372
5120.0,-0.008278649300336838
5632.0,-0.00034603095264174044
6144.0,0.009589421562850475
6656.0,0.010713930241763592
7168.0,0.00013910647248849273
7680.0,-0.019368214532732964
8192.0,-0.021824749186635017
end
