version,3.0
numOfCh,1
type,point
parent_name,714af_0dot069-1dot0
ch_type,1_1
kcount,1
numberNandB,1
brightnessNandB,1
carpet pos,0
pc,0
Time (ms),CH1 Auto-Correlation
1.0,0.07945681363344193
2.0,0.07861398905515671
3.0,0.07785868644714355
4.0,0.0771404430270195
5.0,0.07637768238782883
6.0,0.07572051882743835
7.0,0.07503698021173477
8.0,0.07446227222681046
9.0,0.07391727715730667
10.0,0.07338444888591766
11.0,0.07283652573823929
12.0,0.07228301465511322
13.0,0.07174815982580185
14.0,0.07120369374752045
15.0,0.07065634429454803
16.0,0.07012789696455002
18.0,0.06903629750013351
20.0,0.0680127739906311
22.0,0.06701569259166718
24.0,0.06600458174943924
26.0,0.06502903252840042
28.0,0.06412312388420105
30.0,0.06322283297777176
32.0,0.062339406460523605
36.0,0.06067042797803879
40.0,0.05909543111920357
44.0,0.057509709149599075
48.0,0.05595267936587334
52.0,0.05460534617304802
56.0,0.05316538363695145
60.0,0.0518924817442894
64.0,0.050782132893800735
72.0,0.04843827337026596
80.0,0.0461990162730217
88.0,0.04404893144965172
96.0,0.042050983756780624
104.0,0.04029994085431099
112.0,0.0390569306910038
120.0,0.03807153180241585
128.0,0.037291865795850754
144.0,0.03573696315288544
160.0,0.03480098769068718
176.0,0.033896759152412415
192.0,0.032283954322338104
208.0,0.03070293925702572
224.0,0.029497966170310974
240.0,0.028073342517018318
256.0,0.026263859122991562
288.0,0.021876586601138115
320.0,0.01864989846944809
352.0,0.015530288219451904
384.0,0.012908977456390858
416.0,0.011076683178544044
448.0,0.00907780509442091
480.0,0.007204550784081221
512.0,0.0047081876546144485
576.0,0.001985676819458604
640.0,-0.00043783735600300133
704.0,-0.0022841221652925014
768.0,-0.006449575070291758
832.0,-0.009855033829808235
896.0,-0.010236660949885845
960.0,-0.011052618734538555
1024.0,-0.012831233441829681
1152.0,-0.018274692818522453
1280.0,-0.021308574825525284
1408.0,-0.017586899921298027
1536.0,-0.010003260336816311
1664.0,-0.005188790615648031
1792.0,-0.002131883753463626
1920.0,-0.0013324817409738898
2048.0,-0.001018984243273735
2304.0,0.008005610667169094
2560.0,0.0011381895747035742
2816.0,-0.007450779899954796
3072.0,-0.012131907977163792
3328.0,-0.008947483263909817
3584.0,-0.003060903400182724
3840.0,0.008367803879082203
4096.0,0.02176688425242901
4608.0,0.007859260775148869
5120.0,-0.01724279671907425
5632.0,-0.023986762389540672
6144.0,0.0034624121617525816
6656.0,0.015279856510460377
7168.0,0.010004146955907345
7680.0,-0.0057456777431070805
8192.0,0.0024976185522973537
end
