version,3.0
numOfCh,1
type,point
parent_name,714af_0dot069-1dot0
ch_type,1_1
kcount,1
numberNandB,1
brightnessNandB,1
carpet pos,0
pc,0
Time (ms),CH1 Auto-Correlation
1.0,0.08345983922481537
2.0,0.08253127336502075
3.0,0.08169109374284744
4.0,0.08091431856155396
5.0,0.0801333338022232
6.0,0.07947036623954773
7.0,0.07880236953496933
8.0,0.07816150039434433
9.0,0.0775446891784668
10.0,0.07694309204816818
11.0,0.07630511373281479
12.0,0.07569026201963425
13.0,0.07508524507284164
14.0,0.07449138909578323
15.0,0.07394085824489594
16.0,0.07339555025100708
18.0,0.07229363918304443
20.0,0.07126644253730774
22.0,0.07023469358682632
24.0,0.06925365328788757
26.0,0.06832756102085114
28.0,0.06736968457698822
30.0,0.06654302030801773
32.0,0.06572557985782623
36.0,0.06416552513837814
40.0,0.0627916157245636
44.0,0.06162078678607941
48.0,0.060352858155965805
52.0,0.05900464206933975
56.0,0.057632941752672195
60.0,0.05631176754832268
64.0,0.05499107390642166
72.0,0.05228348448872566
80.0,0.04972057789564133
88.0,0.04734799265861511
96.0,0.044854287058115005
104.0,0.04262608662247658
112.0,0.040517520159482956
120.0,0.03858690336346626
128.0,0.036671556532382965
144.0,0.03354579210281372
160.0,0.030386611819267273
176.0,0.027422642335295677
192.0,0.024562174454331398
208.0,0.022439751774072647
224.0,0.02146710641682148
240.0,0.02116776630282402
256.0,0.02073170244693756
288.0,0.01874416694045067
320.0,0.017710112035274506
352.0,0.016516679897904396
384.0,0.014768417924642563
416.0,0.012949886731803417
448.0,0.009952646680176258
480.0,0.00883882399648428
512.0,0.009534098207950592
576.0,0.004115307703614235
640.0,-0.0015112545806914568
704.0,-0.004267379175871611
768.0,-0.005960885435342789
832.0,-0.0070548891089856625
896.0,-0.006735859904438257
960.0,-0.008264354430139065
1024.0,-0.012257016263902187
1152.0,-0.01996137946844101
1280.0,-0.011704639531672001
1408.0,-0.004003079142421484
1536.0,-0.00016303612210322171
1664.0,-0.0019073898438364267
1792.0,0.002926436485722661
1920.0,-0.0016739446436986327
2048.0,-0.0013166089775040746
2304.0,0.010348093695938587
2560.0,0.010323808528482914
2816.0,0.0014154387172311544
3072.0,-0.003749464638531208
3328.0,-0.015160148032009602
3584.0,-0.019541628658771515
3840.0,-0.011343848891556263
4096.0,-0.005849891342222691
4608.0,0.0032564708963036537
5120.0,-0.0005015057395212352
5632.0,0.012090112082660198
6144.0,-0.001962384907528758
6656.0,-0.01549757830798626
7168.0,-0.0025475602596998215
7680.0,0.004962985869497061
8192.0,-0.008367788977921009
end
