version,3.0
numOfCh,1
type,point
parent_name,dirty_0dot4-0dot1
ch_type,1_1
kcount,1
numberNandB,1
brightnessNandB,1
carpet pos,0
pc,0
Time (ms),CH1 Auto-Correlation
1.0,0.4435097575187683
2.0,0.438673198223114
3.0,0.43418559432029724
4.0,0.429961234331131
5.0,0.4257030785083771
6.0,0.42149391770362854
7.0,0.4175078868865967
8.0,0.4136120676994324
9.0,0.409872829914093
10.0,0.4061777889728546
11.0,0.40255025029182434
12.0,0.39908143877983093
13.0,0.39552322030067444
14.0,0.3920551836490631
15.0,0.38875460624694824
16.0,0.38546624779701233
18.0,0.37927383184432983
20.0,0.37365657091140747
22.0,0.36859679222106934
24.0,0.363807737827301
26.0,0.35910290479660034
28.0,0.3541416525840759
30.0,0.34909889101982117
32.0,0.344391793012619
36.0,0.3348623216152191
40.0,0.32550278306007385
44.0,0.3157069683074951
48.0,0.30543196201324463
52.0,0.29585686326026917
56.0,0.28656283020973206
60.0,0.2775319516658783
64.0,0.2680877149105072
72.0,0.25075653195381165
80.0,0.2401876300573349
88.0,0.23296287655830383
96.0,0.22619666159152985
104.0,0.2206670045852661
112.0,0.21537929773330688
120.0,0.21141169965267181
128.0,0.2071477174758911
144.0,0.1998242884874344
160.0,0.19442078471183777
176.0,0.18598580360412598
192.0,0.17419064044952393
208.0,0.16044007241725922
224.0,0.1501156985759735
240.0,0.1379588097333908
256.0,0.1237163320183754
288.0,0.1104392483830452
320.0,0.09960056096315384
352.0,0.08743828535079956
384.0,0.06909424811601639
416.0,0.05009148269891739
448.0,0.03887452557682991
480.0,0.03390540927648544
512.0,0.03570353612303734
576.0,0.007267765700817108
640.0,-0.023810941725969315
704.0,-0.04241036996245384
768.0,-0.03936927765607834
832.0,-0.039022188633680344
896.0,-0.03670831397175789
960.0,-0.0360400453209877
1024.0,-0.030594712123274803
1152.0,-0.027936231344938278
1280.0,-0.037500716745853424
1408.0,-0.03866984322667122
1536.0,-0.03095064125955105
1664.0,-0.025524111464619637
1792.0,-0.03350416198372841
1920.0,-0.043657902628183365
2048.0,-0.060774896293878555
2304.0,-0.07501880079507828
2560.0,-0.07900217920541763
2816.0,-0.05819858983159065
3072.0,-0.01138791348785162
3328.0,0.03267890214920044
3584.0,0.026265287771821022
3840.0,0.0016253922367468476
4096.0,-0.013315774500370026
4608.0,0.047777242958545685
5120.0,0.05388583987951279
5632.0,0.06413934379816055
6144.0,-0.014122754335403442
6656.0,-0.032761771231889725
7168.0,-0.07090342789888382
7680.0,-0.06411532312631607
8192.0,0.04085291549563408
9216.0,-0.023226702585816383
10240.0,0.08600324392318726
11264.0,-0.04253607243299484
12288.0,-0.09156179428100586
13312.0,0.09300986677408218
14336.0,0.002257341518998146
end
