version,3.0
numOfCh,1
type,point
parent_name,dirty_0dot4-0dot1
ch_type,1_1
kcount,1
numberNandB,1
brightnessNandB,1
carpet pos,0
pc,0
Time (ms),CH1 Auto-Correlation
1.0,0.19969014823436737
2.0,0.1967225819826126
3.0,0.1938030868768692
4.0,0.19086095690727234
5.0,0.18790790438652039
6.0,0.18499478697776794
7.0,0.18213847279548645
8.0,0.17936772108078003
9.0,0.1767033338546753
10.0,0.1744230091571808
11.0,0.17231278121471405
12.0,0.17006605863571167
13.0,0.16796875
14.0,0.1660073846578598
15.0,0.16402490437030792
16.0,0.16204504668712616
18.0,0.15849830210208893
20.0,0.1550736278295517
22.0,0.151408389210701
24.0,0.14773623645305634
26.0,0.1440759301185608
28.0,0.14060385525226593
30.0,0.1374494582414627
32.0,0.13415060937404633
36.0,0.12736056745052338
40.0,0.12040430307388306
44.0,0.11398962885141373
48.0,0.10885747522115707
52.0,0.10414429754018784
56.0,0.0999714657664299
60.0,0.0958484634757042
64.0,0.09221348166465759
72.0,0.08688408136367798
80.0,0.0808749794960022
88.0,0.07460673898458481
96.0,0.06709805876016617
104.0,0.060479551553726196
112.0,0.05367949604988098
120.0,0.04778962954878807
128.0,0.04425860196352005
144.0,0.04073192551732063
160.0,0.04218572378158569
176.0,0.04397379979491234
192.0,0.045292261987924576
208.0,0.04773733764886856
224.0,0.05066460371017456
240.0,0.054938025772571564
256.0,0.05680084973573685
288.0,0.047428056597709656
320.0,0.032264236360788345
352.0,0.024279024451971054
384.0,0.029171384871006012
416.0,0.04408068209886551
448.0,0.050863832235336304
480.0,0.05418999493122101
512.0,0.05365282669663429
576.0,0.02542666718363762
640.0,0.018909256905317307
704.0,0.038236167281866074
768.0,0.029669053852558136
832.0,0.011167673394083977
896.0,-0.00034922058694064617
960.0,0.0044735935516655445
1024.0,-0.0014714037533849478
1152.0,-0.004208371043205261
1280.0,-0.008184883743524551
1408.0,-0.01867831125855446
1536.0,-0.020207207649946213
1664.0,-0.014859731309115887
1792.0,-0.015738504007458687
1920.0,-0.018750498071312904
2048.0,-0.019058864563703537
2304.0,-0.015849513933062553
2560.0,0.00014439161168411374
2816.0,-0.021826835349202156
3072.0,-0.012812944129109383
3328.0,-0.005393174942582846
3584.0,-0.022534534335136414
3840.0,-0.007564567029476166
4096.0,-0.007624008692800999
4608.0,0.011997796595096588
5120.0,-0.003493500640615821
5632.0,-0.013092920184135437
6144.0,-0.004591099452227354
6656.0,0.0017014326294884086
7168.0,0.0021735529880970716
7680.0,-0.007797632832080126
8192.0,-0.0012776540825143456
9216.0,0.006294734310358763
10240.0,-0.01568026840686798
11264.0,0.0039601377211511135
12288.0,0.003239923855289817
13312.0,0.0033612323459237814
14336.0,-0.005001480225473642
end
