version,3.0
numOfCh,1
type,point
parent_name,dirty_0dot4-0dot1
ch_type,1_1
kcount,1
numberNandB,1
brightnessNandB,1
carpet pos,0
pc,0
Time (ms),CH1 Auto-Correlation
1.0,0.46951234340667725
2.0,0.4658183455467224
3.0,0.46217870712280273
4.0,0.458576500415802
5.0,0.4551083743572235
6.0,0.45157504081726074
7.0,0.44830745458602905
8.0,0.444904625415802
9.0,0.44174495339393616
10.0,0.4383111596107483
11.0,0.43492159247398376
12.0,0.4316553473472595
13.0,0.42860105633735657
14.0,0.4259047210216522
15.0,0.4234045147895813
16.0,0.42083004117012024
18.0,0.4158785343170166
20.0,0.41118308901786804
22.0,0.406232625246048
24.0,0.40109649300575256
26.0,0.39613205194473267
28.0,0.3910960257053375
30.0,0.38615551590919495
32.0,0.3812970221042633
36.0,0.37034696340560913
40.0,0.358832448720932
44.0,0.3475654125213623
48.0,0.3373325765132904
52.0,0.3287261128425598
56.0,0.3207055628299713
60.0,0.31319892406463623
64.0,0.3051812946796417
72.0,0.28941816091537476
80.0,0.278884619474411
88.0,0.27247947454452515
96.0,0.26629501581192017
104.0,0.2624169886112213
112.0,0.259914755821228
120.0,0.25835928320884705
128.0,0.2558135986328125
144.0,0.24846197664737701
160.0,0.23699048161506653
176.0,0.2286524921655655
192.0,0.21701642870903015
208.0,0.20434457063674927
224.0,0.1959216296672821
240.0,0.18076501786708832
256.0,0.16586679220199585
288.0,0.1453922539949417
320.0,0.13442446291446686
352.0,0.13184614479541779
384.0,0.12657392024993896
416.0,0.12237020581960678
448.0,0.13465049862861633
480.0,0.1459112912416458
512.0,0.13297803699970245
576.0,0.11835870891809464
640.0,0.1192096695303917
704.0,0.08791391551494598
768.0,0.047955892980098724
832.0,0.03197750076651573
896.0,0.012709010392427444
960.0,-0.002949492773041129
1024.0,-0.0005722081405110657
1152.0,0.003879978321492672
1280.0,0.006950288079679012
1408.0,-0.011917619034647942
1536.0,-0.0207480750977993
1664.0,-0.01761147938668728
1792.0,0.0016422776971012354
1920.0,0.01552539598196745
2048.0,0.020059291273355484
2304.0,0.04027404263615608
2560.0,0.09238097816705704
2816.0,0.09859702736139297
3072.0,0.11751008778810501
3328.0,0.06774411350488663
3584.0,0.001266001258045435
3840.0,-0.01260456908494234
4096.0,-0.009284391067922115
4608.0,-0.02419903688132763
5120.0,-0.025847451761364937
5632.0,-0.0302495826035738
6144.0,-0.03919271379709244
6656.0,-0.040124163031578064
7168.0,-0.0503770112991333
7680.0,-0.07427162677049637
8192.0,-0.060589857399463654
9216.0,-0.008589143864810467
10240.0,-0.09645575284957886
11264.0,-0.09581803530454636
12288.0,-0.051224417984485626
13312.0,-0.06482865661382675
14336.0,-0.0855240672826767
end
