version,3.0
numOfCh,1
type,point
parent_name,dirty_0dot4-0dot1
ch_type,1_1
kcount,1
numberNandB,1
brightnessNandB,1
carpet pos,0
pc,0
Time (ms),CH1 Auto-Correlation
1.0,0.2471936196088791
2.0,0.24406927824020386
3.0,0.24105742573738098
4.0,0.23817101120948792
5.0,0.23524054884910583
6.0,0.23254984617233276
7.0,0.230072021484375
8.0,0.22782841324806213
9.0,0.225558802485466
10.0,0.22339901328086853
11.0,0.22140665352344513
12.0,0.21930105984210968
13.0,0.21749143302440643
14.0,0.21584905683994293
15.0,0.2140750139951706
16.0,0.21226969361305237
18.0,0.20877692103385925
20.0,0.20495373010635376
22.0,0.20129062235355377
24.0,0.19780497252941132
26.0,0.19463470578193665
28.0,0.1918083280324936
30.0,0.18944640457630157
32.0,0.18712583184242249
36.0,0.1832691878080368
40.0,0.179655522108078
44.0,0.1753031313419342
48.0,0.17027647793293
52.0,0.16553877294063568
56.0,0.16206210851669312
60.0,0.15927571058273315
64.0,0.15616683661937714
72.0,0.14954039454460144
80.0,0.14288873970508575
88.0,0.13611464202404022
96.0,0.12730947136878967
104.0,0.11801952123641968
112.0,0.11005133390426636
120.0,0.10189411789178848
128.0,0.09602010250091553
144.0,0.08307398110628128
160.0,0.0705755278468132
176.0,0.06007198616862297
192.0,0.05071523040533066
208.0,0.044449906796216965
224.0,0.041003867983818054
240.0,0.03926684707403183
256.0,0.03839031979441643
288.0,0.03585328161716461
320.0,0.03522022068500519
352.0,0.03554724529385567
384.0,0.03883444145321846
416.0,0.0364769883453846
448.0,0.03427189588546753
480.0,0.026567958295345306
512.0,0.02540900558233261
576.0,0.029220832511782646
640.0,0.02844936028122902
704.0,0.016298392787575722
768.0,-0.0018612092826515436
832.0,-0.009156032465398312
896.0,-0.014090916141867638
960.0,-0.007000569719821215
1024.0,-0.005273808259516954
1152.0,-0.013321354985237122
1280.0,-0.025361087173223495
1408.0,-0.014147094450891018
1536.0,0.011849998496472836
1664.0,0.0008263901108875871
1792.0,-0.0020799096673727036
1920.0,-0.01755082793533802
2048.0,-0.013882286846637726
2304.0,-0.00878633838146925
2560.0,-0.023817120119929314
2816.0,-0.02228185348212719
3072.0,-0.03292658179998398
3328.0,-0.03489936143159866
3584.0,-0.03377002477645874
3840.0,-0.02408471144735813
4096.0,-0.016751157119870186
4608.0,0.008477816358208656
5120.0,0.06261284649372101
5632.0,0.01164805144071579
6144.0,-0.016306964680552483
6656.0,0.008046898059546947
7168.0,0.009944808669388294
7680.0,-0.013382043689489365
8192.0,-0.03090333379805088
9216.0,-0.006402104161679745
10240.0,-0.012798374518752098
11264.0,-0.016231903806328773
12288.0,0.008695979602634907
13312.0,0.01751081459224224
14336.0,0.016569634899497032
end
