version,3.0
numOfCh,1
type,point
parent_name,dirty_0dot4-0dot1
ch_type,1_1
kcount,1
numberNandB,1
brightnessNandB,1
carpet pos,0
pc,0
Time (ms),CH1 Auto-Correlation
1.0,0.10829899460077286
2.0,0.10572662204504013
3.0,0.10330403596162796
4.0,0.10116788744926453
5.0,0.09884747862815857
6.0,0.09685394167900085
7.0,0.09500062465667725
8.0,0.09318295121192932
9.0,0.09135859459638596
10.0,0.08975709974765778
11.0,0.08798842132091522
12.0,0.08641957491636276
13.0,0.08508317917585373
14.0,0.08364247530698776
15.0,0.08203279972076416
16.0,0.08050648868083954
18.0,0.07736184448003769
20.0,0.07499846816062927
22.0,0.07288826256990433
24.0,0.07108180969953537
26.0,0.06941652297973633
28.0,0.06819012761116028
30.0,0.06713687628507614
32.0,0.06609967350959778
36.0,0.06355632841587067
40.0,0.061165619641542435
44.0,0.059343256056308746
48.0,0.05793621018528938
52.0,0.056289684027433395
56.0,0.05458236485719681
60.0,0.0532056950032711
64.0,0.051513440907001495
72.0,0.04660257697105408
80.0,0.0432448610663414
88.0,0.04140067100524902
96.0,0.0387839637696743
104.0,0.034908633679151535
112.0,0.03051772527396679
120.0,0.02726399339735508
128.0,0.025050519034266472
144.0,0.022042598575353622
160.0,0.019248750060796738
176.0,0.016643870621919632
192.0,0.01616843417286873
208.0,0.016868216916918755
224.0,0.016377901658415794
240.0,0.015797225758433342
256.0,0.014570760540664196
288.0,0.01674135960638523
320.0,0.02066451869904995
352.0,0.024947715923190117
384.0,0.024594558402895927
416.0,0.023889899253845215
448.0,0.02118360809981823
480.0,0.01600947603583336
512.0,0.011415996588766575
576.0,0.008977268822491169
640.0,0.011585982516407967
704.0,0.0176546648144722
768.0,0.02720630168914795
832.0,0.02296597696840763
896.0,0.009189930744469166
960.0,-0.0003535964642651379
1024.0,-0.0038530759047716856
1152.0,-0.0030540525913238525
1280.0,-0.005412218626588583
1408.0,-0.0028548813425004482
1536.0,-0.000889316841494292
1664.0,0.0006072789547033608
1792.0,-0.00798193458467722
1920.0,-0.013266453519463539
2048.0,-0.01184404268860817
2304.0,-0.011700063943862915
2560.0,-0.01220219861716032
2816.0,-0.012098537757992744
3072.0,-0.009253494441509247
3328.0,0.00041399485780857503
3584.0,0.006099135149270296
3840.0,0.0026821778155863285
4096.0,0.0038742716424167156
4608.0,0.0013224954018369317
5120.0,0.005249421112239361
5632.0,0.0005678554880432785
6144.0,-0.004170627798885107
6656.0,-0.005511931609362364
7168.0,-0.00827669445425272
7680.0,-0.009263750165700912
8192.0,-0.0034336172975599766
9216.0,0.003873672569170594
10240.0,-0.0034577641636133194
11264.0,-0.00837009958922863
12288.0,-0.005973997060209513
13312.0,0.0028571877628564835
14336.0,0.0040271105244755745
end
