version,3.0
numOfCh,1
type,point
parent_name,dirty_0dot4-0dot1
ch_type,1_1
kcount,1
numberNandB,1
brightnessNandB,1
carpet pos,0
pc,0
Time (ms),CH1 Auto-Correlation
1.0,0.21255695819854736
2.0,0.20950756967067719
3.0,0.20650319755077362
4.0,0.20385496318340302
5.0,0.20113414525985718
6.0,0.19861054420471191
7.0,0.19630275666713715
8.0,0.193950355052948
9.0,0.19168871641159058
10.0,0.1894315779209137
11.0,0.18724863231182098
12.0,0.18504168093204498
13.0,0.18311664462089539
14.0,0.18124793469905853
15.0,0.17940571904182434
16.0,0.17766189575195312
18.0,0.17461274564266205
20.0,0.1717921495437622
22.0,0.1689596325159073
24.0,0.165567547082901
26.0,0.16195307672023773
28.0,0.15846997499465942
30.0,0.154653400182724
32.0,0.15126445889472961
36.0,0.14490053057670593
40.0,0.13863308727741241
44.0,0.13276854157447815
48.0,0.1270492821931839
52.0,0.12134955823421478
56.0,0.11664688587188721
60.0,0.1123659685254097
64.0,0.10843802243471146
72.0,0.10240499675273895
80.0,0.09763868898153305
88.0,0.09255103021860123
96.0,0.08772128075361252
104.0,0.08360908925533295
112.0,0.07904380559921265
120.0,0.07486645132303238
128.0,0.07053782790899277
144.0,0.059301089495420456
160.0,0.04857616499066353
176.0,0.03898030146956444
192.0,0.03010839968919754
208.0,0.025400249287486076
224.0,0.02682425081729889
240.0,0.029035640880465508
256.0,0.031491294503211975
288.0,0.026781871914863586
320.0,0.02419648878276348
352.0,0.019228721037507057
384.0,0.011670117266476154
416.0,0.005480652675032616
448.0,0.00241752527654171
480.0,0.00030494906241074204
512.0,-0.0020749715622514486
576.0,0.0065925512462854385
640.0,0.021674498915672302
704.0,0.029201773926615715
768.0,0.019848445430397987
832.0,0.021236708387732506
896.0,0.02689863182604313
960.0,0.024140652269124985
1024.0,0.00850602239370346
1152.0,-0.02309023216366768
1280.0,-0.019390666857361794
1408.0,-0.0010091627482324839
1536.0,-0.0005625758203677833
1664.0,0.0025746396277099848
1792.0,0.0029503991827368736
1920.0,-0.01493064220994711
2048.0,-0.02041396126151085
2304.0,0.01808185689151287
2560.0,0.00745617737993598
2816.0,-0.00499881012365222
3072.0,0.003249590052291751
3328.0,-0.002472765278071165
3584.0,-0.0030069341883063316
3840.0,-0.008595605380833149
4096.0,-0.010063495486974716
4608.0,-0.015006164088845253
5120.0,-0.015506783500313759
5632.0,0.0002214759442722425
6144.0,0.011890938505530357
6656.0,0.011768919415771961
7168.0,0.0003291990142315626
7680.0,-0.007448635529726744
8192.0,-0.005376223009079695
9216.0,0.001764417625963688
10240.0,-0.012982895597815514
11264.0,-0.02850445732474327
12288.0,-0.020703069865703583
13312.0,-0.004395064897835255
14336.0,0.01196636725217104
end
