version,3.0
numOfCh,1
type,point
parent_name,dirty_0dot4-0dot1
ch_type,1_1
kcount,1
numberNandB,1
brightnessNandB,1
carpet pos,0
pc,0
Time (ms),CH1 Auto-Correlation
1.0,0.39806100726127625
2.0,0.3934382200241089
3.0,0.3889475166797638
4.0,0.38469159603118896
5.0,0.38045090436935425
6.0,0.3763543963432312
7.0,0.3722679615020752
8.0,0.36814382672309875
9.0,0.36436355113983154
10.0,0.3607889711856842
11.0,0.35731393098831177
12.0,0.35416293144226074
13.0,0.35099518299102783
14.0,0.3478051424026489
15.0,0.34477201104164124
16.0,0.3418721854686737
18.0,0.3363867700099945
20.0,0.33117371797561646
22.0,0.3259349465370178
24.0,0.32136884331703186
26.0,0.31673526763916016
28.0,0.3122316002845764
30.0,0.30744484066963196
32.0,0.3031235337257385
36.0,0.2944992184638977
40.0,0.2865082323551178
44.0,0.2800072729587555
48.0,0.27384352684020996
52.0,0.26783597469329834
56.0,0.26366037130355835
60.0,0.2604685425758362
64.0,0.2585892677307129
72.0,0.25666680932044983
80.0,0.25306442379951477
88.0,0.24820929765701294
96.0,0.24258138239383698
104.0,0.2345041036605835
112.0,0.2253967970609665
120.0,0.21611511707305908
128.0,0.2086355835199356
144.0,0.19877812266349792
160.0,0.18574079871177673
176.0,0.17202065885066986
192.0,0.15842896699905396
208.0,0.147121861577034
224.0,0.13618691265583038
240.0,0.12896858155727386
256.0,0.12022050470113754
288.0,0.11333248019218445
320.0,0.10636698454618454
352.0,0.09370110929012299
384.0,0.08509461581707001
416.0,0.07399871945381165
448.0,0.0641116201877594
480.0,0.06434202194213867
512.0,0.06294851005077362
576.0,0.06052474305033684
640.0,0.046605244278907776
704.0,0.02621438354253769
768.0,0.021596452221274376
832.0,0.01650344207882881
896.0,0.013582112267613411
960.0,0.015149920247495174
1024.0,0.012533401139080524
1152.0,0.05774979665875435
1280.0,0.07625292986631393
1408.0,0.05253433808684349
1536.0,0.035058680921792984
1664.0,0.010714923962950706
1792.0,0.03648693114519119
1920.0,0.055262885987758636
2048.0,0.07185853272676468
2304.0,0.11753583699464798
2560.0,0.15070319175720215
2816.0,0.059206608682870865
3072.0,0.03562064841389656
3328.0,0.03380424529314041
3584.0,0.0442642904818058
3840.0,0.04972964897751808
4096.0,0.002214759588241577
4608.0,0.028276870027184486
5120.0,0.040683895349502563
5632.0,-0.012439154088497162
6144.0,0.023122627288103104
6656.0,-0.03726394101977348
7168.0,-0.0670166090130806
7680.0,-0.054748911410570145
8192.0,-0.041940703988075256
9216.0,-0.08549416065216064
10240.0,-0.10861028730869293
11264.0,-0.11067790538072586
12288.0,-0.1419530212879181
13312.0,-0.15546539425849915
14336.0,-0.13485081493854523
end
