version,3.0
numOfCh,1
type,point
parent_name,dirty_0dot4-0dot1
ch_type,1_1
kcount,1
numberNandB,1
brightnessNandB,1
carpet pos,0
pc,0
Time (ms),CH1 Auto-Correlation
1.0,0.3515375554561615
2.0,0.3468705713748932
3.0,0.3425884246826172
4.0,0.3384784460067749
5.0,0.33448976278305054
6.0,0.3306976556777954
7.0,0.3269471824169159
8.0,0.32281509041786194
9.0,0.318352073431015
10.0,0.31417521834373474
11.0,0.31004443764686584
12.0,0.30600541830062866
13.0,0.30214187502861023
14.0,0.29838797450065613
15.0,0.2948354482650757
16.0,0.2914283573627472
18.0,0.28413429856300354
20.0,0.2773081064224243
22.0,0.27115902304649353
24.0,0.2649539113044739
26.0,0.25914767384529114
28.0,0.2545948922634125
30.0,0.2500884234905243
32.0,0.245693638920784
36.0,0.23758767545223236
40.0,0.2312232255935669
44.0,0.2255522757768631
48.0,0.2208051234483719
52.0,0.2147517204284668
56.0,0.2063964158296585
60.0,0.19738167524337769
64.0,0.1887088567018509
72.0,0.17388692498207092
80.0,0.16270381212234497
88.0,0.1537718027830124
96.0,0.148172065615654
104.0,0.14105579257011414
112.0,0.1305559277534485
120.0,0.12048535794019699
128.0,0.10941944271326065
144.0,0.08811062574386597
160.0,0.07363377511501312
176.0,0.06534381210803986
192.0,0.05638234689831734
208.0,0.0465368889272213
224.0,0.032872676849365234
240.0,0.02324027009308338
256.0,0.018134595826268196
288.0,0.006371167954057455
320.0,0.00029820212512277067
352.0,-0.0032112363260239363
384.0,0.00032483763061463833
416.0,0.012747548520565033
448.0,0.025618107989430428
480.0,0.032428257167339325
512.0,0.03634384647011757
576.0,0.053217820823192596
640.0,0.059178341180086136
704.0,0.03439270332455635
768.0,0.003756451653316617
832.0,-0.012750929221510887
896.0,-0.018541986122727394
960.0,-0.01863817125558853
1024.0,-0.0224901232868433
1152.0,-0.011782926507294178
1280.0,-0.009615154936909676
1408.0,-0.01977030746638775
1536.0,0.003226391738280654
1664.0,0.006980316713452339
1792.0,-0.010954339988529682
1920.0,-0.0168143343180418
2048.0,-0.021579714491963387
2304.0,-0.026144875213503838
2560.0,-0.030967915430665016
2816.0,-0.028795456513762474
3072.0,-0.007151947356760502
3328.0,0.051725588738918304
3584.0,0.015065554529428482
3840.0,0.0858459621667862
4096.0,0.006547051481902599
4608.0,0.01108557265251875
5120.0,-0.0054633826948702335
5632.0,-0.00669839745387435
6144.0,-0.020451653748750687
6656.0,-0.029906541109085083
7168.0,-0.006237158086150885
7680.0,-0.019222896546125412
8192.0,-0.025840332731604576
9216.0,0.0059695118106901646
10240.0,0.012271611019968987
11264.0,-0.05634983256459236
12288.0,-0.06264393776655197
13312.0,0.023242421448230743
14336.0,0.15569058060646057
end
