version,3.0
numOfCh,1
type,point
parent_name,dirty_0dot4-0dot1
ch_type,1_1
kcount,1
numberNandB,1
brightnessNandB,1
carpet pos,0
pc,0
Time (ms),CH1 Auto-Correlation
1.0,0.36547476053237915
2.0,0.3615558445453644
3.0,0.3578435182571411
4.0,0.3543238043785095
5.0,0.35091352462768555
6.0,0.3472016155719757
7.0,0.3437746465206146
8.0,0.34034428000450134
9.0,0.33692672848701477
10.0,0.3337222933769226
11.0,0.33101049065589905
12.0,0.3281228244304657
13.0,0.32530131936073303
14.0,0.32241538166999817
15.0,0.31965121626853943
16.0,0.31701433658599854
18.0,0.31166595220565796
20.0,0.3066653609275818
22.0,0.30148211121559143
24.0,0.29668718576431274
26.0,0.2920028567314148
28.0,0.28758352994918823
30.0,0.2830180823802948
32.0,0.2782967984676361
36.0,0.26934614777565
40.0,0.26164549589157104
44.0,0.2553854286670685
48.0,0.249647855758667
52.0,0.24489451944828033
56.0,0.24100781977176666
60.0,0.23869352042675018
64.0,0.23716141283512115
72.0,0.23115788400173187
80.0,0.22348959743976593
88.0,0.2180708795785904
96.0,0.21373140811920166
104.0,0.20963184535503387
112.0,0.2037232220172882
120.0,0.19376826286315918
128.0,0.1844969093799591
144.0,0.16115105152130127
160.0,0.14164891839027405
176.0,0.1313880831003189
192.0,0.12490102648735046
208.0,0.11204968392848969
224.0,0.09976144880056381
240.0,0.09048749506473541
256.0,0.08272664248943329
288.0,0.0733286589384079
320.0,0.0696382075548172
352.0,0.06879278272390366
384.0,0.057114288210868835
416.0,0.04100572317838669
448.0,0.039496395736932755
480.0,0.04422244429588318
512.0,0.04386485740542412
576.0,0.04635277017951012
640.0,0.04358227923512459
704.0,0.05167265236377716
768.0,0.05355393886566162
832.0,0.056276217103004456
896.0,0.051285270601511
960.0,0.0369509682059288
1024.0,0.013789106160402298
1152.0,-0.009440076537430286
1280.0,-0.023465599864721298
1408.0,-0.030464747920632362
1536.0,-0.020654527470469475
1664.0,-0.017649371176958084
1792.0,-0.02130156382918358
1920.0,-0.026591338217258453
2048.0,-0.029995616525411606
2304.0,-0.0265776626765728
2560.0,-0.026309508830308914
2816.0,-0.03480546548962593
3072.0,-0.04305175691843033
3328.0,-0.0419154167175293
3584.0,-0.03187211602926254
3840.0,-0.03255602717399597
4096.0,-0.03768624737858772
4608.0,-0.05004950985312462
5120.0,-0.041503436863422394
5632.0,0.0017790044657886028
6144.0,0.05098364129662514
6656.0,0.07906971126794815
7168.0,0.021775368601083755
7680.0,0.05547332391142845
8192.0,0.03015284053981304
9216.0,-0.00595674617215991
10240.0,-0.037170857191085815
11264.0,-0.054421745240688324
12288.0,-0.07529523223638535
13312.0,-0.017052186653017998
14336.0,0.13995902240276337
end
