version,3.0
numOfCh,1
type,point
parent_name,dirty_0dot4-0dot1
ch_type,1_1
kcount,1
numberNandB,1
brightnessNandB,1
carpet pos,0
pc,0
Time (ms),CH1 Auto-Correlation
1.0,0.14513449370861053
2.0,0.14270178973674774
3.0,0.140375018119812
4.0,0.13808275759220123
5.0,0.13595439493656158
6.0,0.13386070728302002
7.0,0.13181303441524506
8.0,0.12986481189727783
9.0,0.12806950509548187
10.0,0.1263037770986557
11.0,0.12456586956977844
12.0,0.12290039658546448
13.0,0.1212807297706604
14.0,0.11972106993198395
15.0,0.118254154920578
16.0,0.1169295683503151
18.0,0.11427769809961319
20.0,0.11196443438529968
22.0,0.10976409167051315
24.0,0.10754324495792389
26.0,0.10540582984685898
28.0,0.10340866446495056
30.0,0.10114361345767975
32.0,0.09896437078714371
36.0,0.0944402813911438
40.0,0.09012115746736526
44.0,0.08649679273366928
48.0,0.08347548544406891
52.0,0.0811309963464737
56.0,0.0797744020819664
60.0,0.07838447391986847
64.0,0.07652483880519867
72.0,0.07245609164237976
80.0,0.06974783539772034
88.0,0.06708673387765884
96.0,0.06437304615974426
104.0,0.06173410266637802
112.0,0.05951172485947609
120.0,0.0580487959086895
128.0,0.05741361156105995
144.0,0.06002218276262283
160.0,0.06105317920446396
176.0,0.05994478613138199
192.0,0.056438691914081573
208.0,0.05298492684960365
224.0,0.048733025789260864
240.0,0.04291997104883194
256.0,0.03886443004012108
288.0,0.036417413502931595
320.0,0.03432527929544449
352.0,0.031061872839927673
384.0,0.02904229424893856
416.0,0.01976156234741211
448.0,0.011553613469004631
480.0,0.011179502122104168
512.0,0.01443327497690916
576.0,0.017110154032707214
640.0,0.01729433611035347
704.0,0.011221789754927158
768.0,0.016183070838451385
832.0,0.014513572677969933
896.0,0.007511259522289038
960.0,0.0016026579542085528
1024.0,-0.004420411307364702
1152.0,-0.010657531209290028
1280.0,-0.013830717653036118
1408.0,-0.008781529031693935
1536.0,-0.01451233308762312
1664.0,-0.015321126207709312
1792.0,-0.0171503983438015
1920.0,-0.018174609169363976
2048.0,-0.01545717753469944
2304.0,-0.015997201204299927
2560.0,-0.017087295651435852
2816.0,-0.007660374976694584
3072.0,-0.009334597736597061
3328.0,-0.019274648278951645
3584.0,-0.017068512737751007
3840.0,-0.011756558902561665
4096.0,-0.015232514590024948
4608.0,-0.016279036179184914
5120.0,-0.0008612417732365429
5632.0,0.004955375101417303
6144.0,0.016567759215831757
6656.0,0.04190431907773018
7168.0,0.03997838869690895
7680.0,-2.2124846509541385e-05
8192.0,-0.01099133025854826
9216.0,-0.020406892523169518
10240.0,-0.012087365612387657
11264.0,0.0001068627170752734
12288.0,0.007582751102745533
13312.0,0.006310129538178444
14336.0,0.00349043938331306
end
