version,3.0
numOfCh,1
type,point
parent_name,dirty_0dot4-0dot1
ch_type,1_1
kcount,1
numberNandB,1
brightnessNandB,1
carpet pos,0
pc,0
Time (ms),CH1 Auto-Correlation
1.0,0.5199835300445557
2.0,0.5152860283851624
3.0,0.5108769536018372
4.0,0.5068789124488831
5.0,0.5025967359542847
6.0,0.49822935461997986
7.0,0.4941065311431885
8.0,0.4904855191707611
9.0,0.48709636926651
10.0,0.48387566208839417
11.0,0.4801498353481293
12.0,0.476421058177948
13.0,0.4729461967945099
14.0,0.46960392594337463
15.0,0.4662541151046753
16.0,0.4628901779651642
18.0,0.4558611214160919
20.0,0.4493522047996521
22.0,0.44308850169181824
24.0,0.4370121657848358
26.0,0.43090495467185974
28.0,0.4252980351448059
30.0,0.41997987031936646
32.0,0.4151839315891266
36.0,0.4049328565597534
40.0,0.39523276686668396
44.0,0.3859696388244629
48.0,0.3767669200897217
52.0,0.36734503507614136
56.0,0.35742247104644775
60.0,0.3488001525402069
64.0,0.34163451194763184
72.0,0.32995155453681946
80.0,0.32039520144462585
88.0,0.31213945150375366
96.0,0.3071610629558563
104.0,0.3047204911708832
112.0,0.30557119846343994
120.0,0.3035525977611542
128.0,0.2959311008453369
144.0,0.2775537967681885
160.0,0.25850623846054077
176.0,0.25079503655433655
192.0,0.2500682473182678
208.0,0.2511655390262604
224.0,0.25329726934432983
240.0,0.25158870220184326
256.0,0.2394401580095291
288.0,0.20807485282421112
320.0,0.1797550916671753
352.0,0.15946950018405914
384.0,0.1347002536058426
416.0,0.11819099634885788
448.0,0.11699741333723068
480.0,0.12387210130691528
512.0,0.12372888624668121
576.0,0.11245124042034149
640.0,0.08033455163240433
704.0,0.07983750104904175
768.0,0.0777105763554573
832.0,0.0602877177298069
896.0,0.018265938386321068
960.0,-0.004718299489468336
1024.0,-0.020849760621786118
1152.0,-0.023874741047620773
1280.0,-0.003251561662182212
1408.0,0.0085006607696414
1536.0,0.0036440398544073105
1664.0,0.005428764037787914
1792.0,0.0007318800198845565
1920.0,-0.008016428910195827
2048.0,-0.00843337643891573
2304.0,-0.021672120317816734
2560.0,-0.04079555347561836
2816.0,-0.03615831211209297
3072.0,-0.032661039382219315
3328.0,-0.031189262866973877
3584.0,-0.018873771652579308
3840.0,-0.019247012212872505
4096.0,-0.021508565172553062
4608.0,-0.03689158335328102
5120.0,-0.037033502012491226
5632.0,-0.037959467619657516
6144.0,-0.0359920859336853
6656.0,-0.04436366632580757
7168.0,-0.0496794730424881
7680.0,-0.04824534058570862
8192.0,-0.0513487309217453
9216.0,-0.07295004278421402
10240.0,-0.025793705135583878
11264.0,0.15308767557144165
12288.0,0.1414792835712433
13312.0,-0.0662207081913948
14336.0,-0.08790414035320282
end
