version,3.0
numOfCh,1
type,point
parent_name,dirty_0dot4-0dot1
ch_type,1_1
kcount,1
numberNandB,1
brightnessNandB,1
carpet pos,0
pc,0
Time (ms),CH1 Auto-Correlation
1.0,0.14258641004562378
2.0,0.140385240316391
3.0,0.1382998824119568
4.0,0.13623879849910736
5.0,0.13425937294960022
6.0,0.13216161727905273
7.0,0.12992055714130402
8.0,0.12765012681484222
9.0,0.12548810243606567
10.0,0.12333914637565613
11.0,0.12129057943820953
12.0,0.11936493217945099
13.0,0.1175183653831482
14.0,0.11568625271320343
15.0,0.11373632401227951
16.0,0.11193619668483734
18.0,0.10863184183835983
20.0,0.10563945770263672
22.0,0.10245924443006516
24.0,0.09913159906864166
26.0,0.09592103213071823
28.0,0.0926763191819191
30.0,0.08936496824026108
32.0,0.08613285422325134
36.0,0.08054790645837784
40.0,0.07585927098989487
44.0,0.0720895454287529
48.0,0.0697113648056984
52.0,0.0684567391872406
56.0,0.06774483621120453
60.0,0.06748400628566742
64.0,0.06736461073160172
72.0,0.06824556738138199
80.0,0.06824766099452972
88.0,0.06567016988992691
96.0,0.06185341998934746
104.0,0.0573149248957634
112.0,0.051003389060497284
120.0,0.043648894876241684
128.0,0.039163053035736084
144.0,0.03531170263886452
160.0,0.03229327127337456
176.0,0.029063144698739052
192.0,0.021773135289549828
208.0,0.015578907914459705
224.0,0.01276951190084219
240.0,0.013053386472165585
256.0,0.012322064489126205
288.0,0.0030459880363196135
320.0,0.00015684866230003536
352.0,-0.0014174185926094651
384.0,-0.00026284370687790215
416.0,0.0005572239169850945
448.0,0.0055502853356301785
480.0,0.009354615584015846
512.0,0.011960882693529129
576.0,0.017271526157855988
640.0,0.016475088894367218
704.0,0.011112179607152939
768.0,0.004395895171910524
832.0,-0.003391809528693557
896.0,-0.006720095872879028
960.0,-0.000832434743642807
1024.0,0.0050872573629021645
1152.0,0.012868862599134445
1280.0,0.020230768248438835
1408.0,0.004650620277971029
1536.0,-0.0020280671305954456
1664.0,-0.008529328741133213
1792.0,-0.003611611668020487
1920.0,0.001957329921424389
2048.0,0.004740227945148945
2304.0,-0.004876838065683842
2560.0,-0.006112008821219206
2816.0,-0.009424146264791489
3072.0,-0.006678291130810976
3328.0,-0.00821408350020647
3584.0,-0.0150781674310565
3840.0,-0.0116651626303792
4096.0,-0.012779765762388706
4608.0,-0.012076170183718204
5120.0,0.003125843359157443
5632.0,-0.002473845612257719
6144.0,-0.01236750092357397
6656.0,-0.007940302602946758
7168.0,0.00347399921156466
7680.0,0.001058536465279758
8192.0,0.008115220814943314
9216.0,0.006838342174887657
10240.0,0.00243718596175313
11264.0,-0.0015772792976349592
12288.0,-0.002820383757352829
13312.0,-0.0008814965840429068
14336.0,-0.0035746979992836714
end
