version,3.0
numOfCh,1
type,point
parent_name,dirty_0dot4-0dot1
ch_type,1_1
kcount,1
numberNandB,1
brightnessNandB,1
carpet pos,0
pc,0
Time (ms),CH1 Auto-Correlation
1.0,0.1390617936849594
2.0,0.13692623376846313
3.0,0.13502557575702667
4.0,0.13332563638687134
5.0,0.13169080018997192
6.0,0.1301206648349762
7.0,0.1285971999168396
8.0,0.12697334587574005
9.0,0.1255006492137909
10.0,0.12392570823431015
11.0,0.12249195575714111
12.0,0.12105273455381393
13.0,0.11960913985967636
14.0,0.11816109716892242
15.0,0.11675189435482025
16.0,0.11524952948093414
18.0,0.11246071010828018
20.0,0.11029484868049622
22.0,0.10832156240940094
24.0,0.10653392225503922
26.0,0.10494682192802429
28.0,0.10359973460435867
30.0,0.10234406590461731
32.0,0.10123743116855621
36.0,0.09960539638996124
40.0,0.09792841970920563
44.0,0.09576892107725143
48.0,0.09369160979986191
52.0,0.09114772826433182
56.0,0.08825332671403885
60.0,0.08563879877328873
64.0,0.08310127258300781
72.0,0.0796574130654335
80.0,0.07744716107845306
88.0,0.07499178498983383
96.0,0.07248014211654663
104.0,0.07000688463449478
112.0,0.06698133796453476
120.0,0.06300772726535797
128.0,0.05891204997897148
144.0,0.052058931440114975
160.0,0.04675890877842903
176.0,0.04418087378144264
192.0,0.04176313057541847
208.0,0.041990961879491806
224.0,0.0412222221493721
240.0,0.03469454124569893
256.0,0.030171968042850494
288.0,0.022428452968597412
320.0,0.013749985955655575
352.0,0.006896385457366705
384.0,0.0035081414971500635
416.0,0.0007562960963696241
448.0,-0.000257869774941355
480.0,-0.0004429844848345965
512.0,-0.0016443240456283092
576.0,-0.004464295227080584
640.0,-0.006386773195117712
704.0,-0.009530812501907349
768.0,-0.006877092644572258
832.0,-0.00377609278075397
896.0,-0.004827938042581081
960.0,-0.009977899491786957
1024.0,-0.011244487948715687
1152.0,-0.013854444958269596
1280.0,-0.002118833363056183
1408.0,7.179520616773516e-05
1536.0,-0.0027977717109024525
1664.0,-0.001348029007203877
1792.0,0.002804416697472334
1920.0,0.0006248609861359
2048.0,2.653026422194671e-05
2304.0,-0.003445690730586648
2560.0,-0.01208618376404047
2816.0,-0.00836824532598257
3072.0,-0.0017415201291441917
3328.0,-7.952498708618805e-05
3584.0,-0.007677761372178793
3840.0,-0.010066562332212925
4096.0,-0.008505376055836678
4608.0,-0.0002619144506752491
5120.0,0.0006584258517250419
5632.0,-0.006874424871057272
6144.0,0.030111972242593765
6656.0,0.012880298309028149
7168.0,-0.006939989048987627
7680.0,0.0005826799897477031
8192.0,0.009887995198369026
9216.0,-0.0087565453723073
10240.0,-0.008111387491226196
11264.0,0.0034512572456151247
12288.0,-0.0045365882106125355
13312.0,-0.012821923941373825
14336.0,0.0012019778368994594
end
