version,3.0
numOfCh,1
type,point
parent_name,dirty_0dot4-0dot1
ch_type,1_1
kcount,1
numberNandB,1
brightnessNandB,1
carpet pos,0
pc,0
Time (ms),CH1 Auto-Correlation
1.0,0.2690127193927765
2.0,0.2664039731025696
3.0,0.26394888758659363
4.0,0.2614377737045288
5.0,0.25898438692092896
6.0,0.25681889057159424
7.0,0.25472310185432434
8.0,0.2526603043079376
9.0,0.2506404519081116
10.0,0.2486281543970108
11.0,0.24663658440113068
12.0,0.2445940524339676
13.0,0.24261321127414703
14.0,0.2408027946949005
15.0,0.23895160853862762
16.0,0.2371593713760376
18.0,0.23385795950889587
20.0,0.23053090274333954
22.0,0.22748418152332306
24.0,0.22450442612171173
26.0,0.22168439626693726
28.0,0.21881717443466187
30.0,0.21587775647640228
32.0,0.21279685199260712
36.0,0.20746418833732605
40.0,0.20290915668010712
44.0,0.19894132018089294
48.0,0.19533906877040863
52.0,0.19223247468471527
56.0,0.19022217392921448
60.0,0.18874770402908325
64.0,0.18725433945655823
72.0,0.18356788158416748
80.0,0.17925891280174255
88.0,0.17270812392234802
96.0,0.16718335449695587
104.0,0.16266657412052155
112.0,0.1571311205625534
120.0,0.15275800228118896
128.0,0.14775945246219635
144.0,0.13795208930969238
160.0,0.12758618593215942
176.0,0.11664160341024399
192.0,0.10589071363210678
208.0,0.0994987040758133
224.0,0.08923260867595673
240.0,0.08185507357120514
256.0,0.07826518267393112
288.0,0.06865033507347107
320.0,0.05157355219125748
352.0,0.042570386081933975
384.0,0.03217063844203949
416.0,0.018309732899069786
448.0,0.01248127967119217
480.0,0.012894900515675545
512.0,0.009188697673380375
576.0,-0.0005431218887679279
640.0,-0.01474120281636715
704.0,-0.02400781214237213
768.0,-0.030181916430592537
832.0,-0.0274795088917017
896.0,-0.02774403803050518
960.0,-0.03234247863292694
1024.0,-0.03451855480670929
1152.0,-0.03515397012233734
1280.0,-0.030878081917762756
1408.0,-0.025307388976216316
1536.0,-0.00797447469085455
1664.0,0.025430871173739433
1792.0,0.05622674524784088
1920.0,0.056832924485206604
2048.0,0.04049983620643616
2304.0,0.006182079669088125
2560.0,-0.005518543533980846
2816.0,0.01455206610262394
3072.0,-0.005041430238634348
3328.0,0.03300819918513298
3584.0,0.008497755974531174
3840.0,-0.022795334458351135
4096.0,-0.031101783737540245
4608.0,-0.006136058364063501
5120.0,0.011339761316776276
5632.0,-0.029324861243367195
6144.0,-0.03521164879202843
6656.0,-0.02545485645532608
7168.0,-0.031824275851249695
7680.0,-0.019227150827646255
8192.0,-0.020111095160245895
9216.0,-0.003967305179685354
10240.0,-0.0176825150847435
11264.0,0.00742805702611804
12288.0,0.016123425215482712
13312.0,0.007454320322722197
14336.0,0.020994026213884354
end
