version,3.0
numOfCh,1
type,point
parent_name,dirty_0dot4-0dot1
ch_type,1_1
kcount,1
numberNandB,1
brightnessNandB,1
carpet pos,0
pc,0
Time (ms),CH1 Auto-Correlation
1.0,0.24737665057182312
2.0,0.24423791468143463
3.0,0.24104543030261993
4.0,0.2379436492919922
5.0,0.23481254279613495
6.0,0.2319330871105194
7.0,0.22922839224338531
8.0,0.22664164006710052
9.0,0.224039226770401
10.0,0.22136129438877106
11.0,0.21863682568073273
12.0,0.21588775515556335
13.0,0.21306948363780975
14.0,0.21019157767295837
15.0,0.2071593999862671
16.0,0.20406141877174377
18.0,0.1980055570602417
20.0,0.19213254749774933
22.0,0.1862529218196869
24.0,0.18039242923259735
26.0,0.17490975558757782
28.0,0.16958077251911163
30.0,0.16411522030830383
32.0,0.1588400900363922
36.0,0.1486685425043106
40.0,0.1389387845993042
44.0,0.12939003109931946
48.0,0.1202477216720581
52.0,0.11246449500322342
56.0,0.10592899471521378
60.0,0.09898599237203598
64.0,0.09221924096345901
72.0,0.08035653084516525
80.0,0.07125447690486908
88.0,0.06570403277873993
96.0,0.06314641982316971
104.0,0.06134013831615448
112.0,0.05830419063568115
120.0,0.05427481234073639
128.0,0.04905851185321808
144.0,0.039370402693748474
160.0,0.027832109481096268
176.0,0.016698654741048813
192.0,0.008258448913693428
208.0,0.006074709352105856
224.0,0.005021857563406229
240.0,0.00406614039093256
256.0,0.002302221255376935
288.0,-0.0028194438200443983
320.0,-0.008693336509168148
352.0,-0.012736856006085873
384.0,-0.01261756382882595
416.0,-0.011093738488852978
448.0,-0.008488095365464687
480.0,-0.006073308177292347
512.0,-0.00661894679069519
576.0,-0.012126200832426548
640.0,-0.010330727323889732
704.0,0.007554770912975073
768.0,-0.00524113979190588
832.0,-0.018084874376654625
896.0,-0.013298546895384789
960.0,-0.010528753511607647
1024.0,-0.010878371074795723
1152.0,-0.004679979290813208
1280.0,-0.004876619670540094
1408.0,0.01172774937003851
1536.0,0.016859035938978195
1664.0,-0.0012290471931919456
1792.0,-0.017620427533984184
1920.0,-0.011689993552863598
2048.0,0.0066987089812755585
2304.0,0.005714746657758951
2560.0,-0.006314022466540337
2816.0,-0.004970586858689785
3072.0,0.003992119804024696
3328.0,-0.004489955026656389
3584.0,0.001958231208845973
3840.0,-0.003546779975295067
4096.0,0.004781759809702635
4608.0,-0.014273460954427719
5120.0,-0.015583944506943226
5632.0,-0.01852928288280964
6144.0,-0.001526339678093791
6656.0,-0.005265526007860899
7168.0,0.012178595177829266
7680.0,0.014688883908092976
8192.0,-0.011107929050922394
9216.0,0.02062198333442211
10240.0,0.006339422892779112
11264.0,0.0015825532609596848
12288.0,-0.007548073306679726
13312.0,0.002066380577161908
14336.0,-0.015645714476704597
end
