version,3.0
numOfCh,1
type,point
parent_name,dirty_0dot4-0dot1
ch_type,1_1
kcount,1
numberNandB,1
brightnessNandB,1
carpet pos,0
pc,0
Time (ms),CH1 Auto-Correlation
1.0,0.6304240226745605
2.0,0.6242198944091797
3.0,0.6180041432380676
4.0,0.6122211813926697
5.0,0.6064756512641907
6.0,0.6004908680915833
7.0,0.5944125056266785
8.0,0.5882428884506226
9.0,0.5822083950042725
10.0,0.5760939717292786
11.0,0.5697959065437317
12.0,0.563960611820221
13.0,0.5579224228858948
14.0,0.5517916679382324
15.0,0.5457904934883118
16.0,0.5398056507110596
18.0,0.5280659794807434
20.0,0.5166267156600952
22.0,0.5058802366256714
24.0,0.4952150881290436
26.0,0.4846169352531433
28.0,0.47445958852767944
30.0,0.46417760848999023
32.0,0.45469725131988525
36.0,0.4378073811531067
40.0,0.42234712839126587
44.0,0.40675222873687744
48.0,0.3902987241744995
52.0,0.37359321117401123
56.0,0.357206791639328
60.0,0.3420528471469879
64.0,0.32803165912628174
72.0,0.30067652463912964
80.0,0.27734991908073425
88.0,0.25659042596817017
96.0,0.2414017915725708
104.0,0.22888563573360443
112.0,0.21920527517795563
120.0,0.2109033763408661
128.0,0.20216992497444153
144.0,0.18682348728179932
160.0,0.18170438706874847
176.0,0.17500387132167816
192.0,0.17742584645748138
208.0,0.18310853838920593
224.0,0.17388281226158142
240.0,0.15830254554748535
256.0,0.14752288162708282
288.0,0.10641421377658844
320.0,0.07075975090265274
352.0,0.05059528723359108
384.0,0.042753804475069046
416.0,0.042184483259916306
448.0,0.037307217717170715
480.0,0.0256145391613245
512.0,0.017951078712940216
576.0,0.006199820898473263
640.0,0.024213388562202454
704.0,0.044887203723192215
768.0,0.037127312272787094
832.0,0.034275949001312256
896.0,0.030936667695641518
960.0,0.02464725449681282
1024.0,0.0061063989996910095
1152.0,-0.027315720915794373
1280.0,-0.0583370216190815
1408.0,-0.057445328682661057
1536.0,-0.041257090866565704
1664.0,-0.03329595923423767
1792.0,-0.04194337874650955
1920.0,-0.05395232141017914
2048.0,-0.02903667837381363
2304.0,-0.06341271102428436
2560.0,-0.028482966125011444
2816.0,-0.016369879245758057
3072.0,-0.07052266597747803
3328.0,-0.10585296899080276
3584.0,-0.09727964550256729
3840.0,-0.058138158172369
4096.0,0.0020353461150079966
4608.0,0.05059477686882019
5120.0,-0.0368601493537426
5632.0,0.030274728313088417
6144.0,0.011775516904890537
6656.0,0.0989655926823616
7168.0,0.08242727816104889
7680.0,-0.039690107107162476
8192.0,-0.05759513005614281
9216.0,-0.02799898199737072
10240.0,-0.06645981967449188
11264.0,0.06970108300447464
12288.0,0.058380141854286194
13312.0,-0.007059310097247362
14336.0,-0.04050378128886223
end
