version,3.0
numOfCh,1
type,point
parent_name,dirty_0dot4-0dot1
ch_type,1_1
kcount,1
numberNandB,1
brightnessNandB,1
carpet pos,0
pc,0
Time (ms),CH1 Auto-Correlation
1.0,0.11565237492322922
2.0,0.113554447889328
3.0,0.11161703616380692
4.0,0.10980767011642456
5.0,0.10816340148448944
6.0,0.10640563815832138
7.0,0.10472790151834488
8.0,0.10311383008956909
9.0,0.1014917716383934
10.0,0.09997932612895966
11.0,0.09844635426998138
12.0,0.09696090966463089
13.0,0.09550575166940689
14.0,0.09413007646799088
15.0,0.09273397922515869
16.0,0.09140228480100632
18.0,0.08897052705287933
20.0,0.08684487640857697
22.0,0.08467579632997513
24.0,0.08259571343660355
26.0,0.08074838668107986
28.0,0.07890696823596954
30.0,0.07703851908445358
32.0,0.07490026950836182
36.0,0.07068247348070145
40.0,0.06669268012046814
44.0,0.06294664740562439
48.0,0.05970048904418945
52.0,0.05716593191027641
56.0,0.054397113621234894
60.0,0.05150974169373512
64.0,0.04849434271454811
72.0,0.04244308918714523
80.0,0.037918440997600555
88.0,0.0349193774163723
96.0,0.0322081483900547
104.0,0.030622031539678574
112.0,0.028827620670199394
120.0,0.027728209272027016
128.0,0.025126053020358086
144.0,0.01838167943060398
160.0,0.014887653291225433
176.0,0.012899484485387802
192.0,0.010369017720222473
208.0,0.009686488658189774
224.0,0.010932412929832935
240.0,0.011202298104763031
256.0,0.010840857401490211
288.0,0.010917416773736477
320.0,0.01092037558555603
352.0,0.012242325581610203
384.0,0.014172232709825039
416.0,0.015100403688848019
448.0,0.01410488598048687
480.0,0.010565238073468208
512.0,0.007059137336909771
576.0,0.00812616292387247
640.0,0.009679827839136124
704.0,0.011530793271958828
768.0,0.017913460731506348
832.0,0.010923581197857857
896.0,0.006885809823870659
960.0,0.006799886003136635
1024.0,0.010081034153699875
1152.0,0.00600479356944561
1280.0,0.019335219636559486
1408.0,0.014577813446521759
1536.0,0.006484553683549166
1664.0,0.00887666642665863
1792.0,0.00713496096432209
1920.0,0.014084100723266602
2048.0,0.016707131639122963
2304.0,0.004802347160875797
2560.0,0.0033496092073619366
2816.0,0.0052267443388700485
3072.0,0.005983750801533461
3328.0,0.012818148359656334
3584.0,0.004453307017683983
3840.0,-0.0007997225620783865
4096.0,-0.0053941961377859116
4608.0,-0.006707359571009874
5120.0,-0.006419186480343342
5632.0,-0.006103972904384136
6144.0,-0.005718869157135487
6656.0,-0.00463520921766758
7168.0,-0.0023502346593886614
7680.0,-0.0069567495957016945
8192.0,-0.010471119545400143
9216.0,-0.006998902652412653
10240.0,-0.0036694826558232307
11264.0,-0.011119718663394451
12288.0,-0.012276430614292622
13312.0,-0.01916060596704483
14336.0,-0.013407372869551182
end
