version,3.0
numOfCh,1
type,point
parent_name,dirty_0dot4-0dot1
ch_type,1_1
kcount,1
numberNandB,1
brightnessNandB,1
carpet pos,0
pc,0
Time (ms),CH1 Auto-Correlation
1.0,0.33703023195266724
2.0,0.3337424695491791
3.0,0.33066555857658386
4.0,0.3274698257446289
5.0,0.3245353102684021
6.0,0.32160425186157227
7.0,0.3186073303222656
8.0,0.31575459241867065
9.0,0.3131944239139557
10.0,0.3109794855117798
11.0,0.3091587424278259
12.0,0.307242751121521
13.0,0.30529019236564636
14.0,0.30338045954704285
15.0,0.30109483003616333
16.0,0.2987971901893616
18.0,0.2945426106452942
20.0,0.2897934317588806
22.0,0.28473353385925293
24.0,0.280283659696579
26.0,0.276266872882843
28.0,0.2726741433143616
30.0,0.2699759006500244
32.0,0.2681008577346802
36.0,0.2647892236709595
40.0,0.26172924041748047
44.0,0.2585543096065521
48.0,0.2558136284351349
52.0,0.2544182538986206
56.0,0.2525029182434082
60.0,0.24864570796489716
64.0,0.24376943707466125
72.0,0.2343667596578598
80.0,0.22512312233448029
88.0,0.21812285482883453
96.0,0.21522271633148193
104.0,0.21343235671520233
112.0,0.2108459323644638
120.0,0.2074403464794159
128.0,0.20024213194847107
144.0,0.18674138188362122
160.0,0.17080511152744293
176.0,0.15468162298202515
192.0,0.14023511111736298
208.0,0.1259990781545639
224.0,0.11331870406866074
240.0,0.10176343470811844
256.0,0.08928069472312927
288.0,0.057640448212623596
320.0,0.038055308163166046
352.0,0.022140616551041603
384.0,0.011689738370478153
416.0,-0.0007219075341708958
448.0,-0.009393967688083649
480.0,-0.014589273370802402
512.0,-0.017668643966317177
576.0,-0.016681374981999397
640.0,-0.02006727084517479
704.0,-0.02143116481602192
768.0,-0.024184035137295723
832.0,-0.024643654003739357
896.0,-0.020928779616951942
960.0,-0.02615518681704998
1024.0,-0.025771943852305412
1152.0,-0.013807556591928005
1280.0,0.002338687889277935
1408.0,0.0007724834722466767
1536.0,-0.020885659381747246
1664.0,-0.03570622205734253
1792.0,-0.03325360268354416
1920.0,-0.02863628976047039
2048.0,-0.02412198670208454
2304.0,-0.022515729069709778
2560.0,-0.033063922077417374
2816.0,-0.03170761093497276
3072.0,-0.02075909823179245
3328.0,0.028882717713713646
3584.0,0.12188295274972916
3840.0,0.06692022830247879
4096.0,-0.019287385046482086
4608.0,-0.0026163794100284576
5120.0,-0.019585128873586655
5632.0,-0.040182147175073624
6144.0,-0.02494683302938938
6656.0,-0.008511105552315712
7168.0,-0.0040911100804805756
7680.0,-0.020992755889892578
8192.0,-0.015498087741434574
9216.0,-0.02302635833621025
10240.0,-0.004776375833898783
11264.0,0.012811213731765747
12288.0,0.012495333328843117
13312.0,0.018099794164299965
14336.0,0.009621096774935722
end
