version,3.0
numOfCh,1
type,point
parent_name,2-cuts
ch_type,1_1
kcount,1
numberNandB,1
brightnessNandB,1
carpet pos,0
pc,0
Time (ms),CH1 Auto-Correlation
1.0,0.04318763688206673
2.0,0.03996289521455765
3.0,0.03728482499718666
4.0,0.034911274909973145
5.0,0.03281219303607941
6.0,0.03091965615749359
7.0,0.02912941202521324
8.0,0.027583422139286995
9.0,0.026145892217755318
10.0,0.024886267259716988
11.0,0.023719314485788345
12.0,0.022764168679714203
13.0,0.021857284009456635
14.0,0.02094648964703083
15.0,0.02008873037993908
16.0,0.019343454390764236
18.0,0.017988087609410286
20.0,0.01679503172636032
22.0,0.015703225508332253
24.0,0.01468673162162304
26.0,0.013896152377128601
28.0,0.013170291669666767
30.0,0.012547158636152744
32.0,0.012083553709089756
36.0,0.011409161612391472
40.0,0.010785778053104877
44.0,0.010377270169556141
48.0,0.010223142802715302
52.0,0.009879319928586483
56.0,0.009121241979300976
60.0,0.008366911672055721
64.0,0.007513425778597593
72.0,0.006560415495187044
80.0,0.005586190614849329
88.0,0.0048911841586232185
96.0,0.0041465312242507935
104.0,0.003356456058099866
112.0,0.00255176005885005
120.0,0.0015249300049617887
128.0,0.0014040261739864945
144.0,0.001905565382912755
160.0,0.0028426863718777895
176.0,0.0037277033552527428
192.0,0.004355836194008589
208.0,0.0034409344661980867
224.0,0.003607403254136443
240.0,0.004083814565092325
256.0,0.004002977628260851
288.0,0.0032138307578861713
320.0,0.0012358890380710363
352.0,0.000637791003100574
384.0,-0.0015031874645501375
416.0,-0.0018706650007516146
448.0,-0.0015991468681022525
480.0,-0.002816168125718832
512.0,-0.0022679250687360764
576.0,-0.0005672071129083633
640.0,0.00026918796356767416
704.0,-0.001201384118758142
768.0,-0.001665884512476623
832.0,-0.0005914613138884306
896.0,-0.0004989703302271664
960.0,-0.0017186780460178852
1024.0,-0.0003372018109075725
1152.0,-0.0009945990750566125
1280.0,0.0006281827227212489
1408.0,0.0013908727560192347
1536.0,0.0016411030665040016
1664.0,0.0010997506324201822
1792.0,-0.000440293806605041
1920.0,-0.00010350014053983614
2048.0,0.001086283358745277
2304.0,-0.0015455191023647785
2560.0,-0.0028189397417008877
2816.0,-0.0018892291700467467
3072.0,0.00036393871414475143
3328.0,0.0006657353951595724
3584.0,0.00203175051137805
3840.0,0.0021927712950855494
4096.0,-0.0008000708767212927
4608.0,0.00042355546611361206
5120.0,0.0004526396805886179
5632.0,-0.0010985075496137142
6144.0,-0.0012918115826323628
6656.0,0.0007780771702528
7168.0,-0.0009922666940838099
7680.0,0.0003254603361710906
8192.0,1.4193260540196206e-06
9216.0,-0.0007325729238800704
10240.0,-0.0010299108689650893
11264.0,-0.000910627655684948
12288.0,9.258688078261912e-05
13312.0,0.0003324687131680548
14336.0,0.0004133810580242425
end
