version,3.0
numOfCh,1
type,point
parent_name,2-cuts
ch_type,1_1
kcount,1
numberNandB,1
brightnessNandB,1
carpet pos,0
pc,0
Time (ms),CH1 Auto-Correlation
1.0,0.08273913711309433
2.0,0.07607044279575348
3.0,0.07047102600336075
4.0,0.0655854269862175
5.0,0.06148800998926163
6.0,0.05781179666519165
7.0,0.054550155997276306
8.0,0.05176724120974541
9.0,0.04928378388285637
10.0,0.04676264151930809
11.0,0.04450362175703049
12.0,0.042273178696632385
13.0,0.04018542170524597
14.0,0.03823104128241539
15.0,0.036548953503370285
16.0,0.03482719510793686
18.0,0.03159672021865845
20.0,0.028935281559824944
22.0,0.02653706632554531
24.0,0.02451665699481964
26.0,0.022999245673418045
28.0,0.02157779224216938
30.0,0.020003389567136765
32.0,0.01868833787739277
36.0,0.01715477928519249
40.0,0.01607665605843067
44.0,0.015060528181493282
48.0,0.013728574849665165
52.0,0.012444284744560719
56.0,0.012390626594424248
60.0,0.011851480230689049
64.0,0.010778399184346199
72.0,0.008385651744902134
80.0,0.006445659790188074
88.0,0.005256054922938347
96.0,0.0048493132926523685
104.0,0.005025499500334263
112.0,0.004404324572533369
120.0,0.0029728130903095007
128.0,0.0028265840373933315
144.0,0.0039410777390003204
160.0,0.0038174374494701624
176.0,0.005631933454424143
192.0,0.005345517303794622
208.0,0.006542807910591364
224.0,0.00582929840311408
240.0,0.006708836182951927
256.0,0.006081462372094393
288.0,0.002201444236561656
320.0,-0.0013376144925132394
352.0,0.0029377879109233618
384.0,0.0012490806402638555
416.0,0.002268227282911539
448.0,0.0016308848280459642
480.0,-0.0007884252117946744
512.0,8.653378608869389e-05
576.0,0.00250633736141026
640.0,0.006610138341784477
704.0,0.0026855431497097015
768.0,-0.0009440587600693107
832.0,0.0012852463405579329
896.0,0.004562454763799906
960.0,0.0042492724023759365
1024.0,0.0014223662437871099
1152.0,0.004006434231996536
1280.0,0.003073272528126836
1408.0,0.0011305396910756826
1536.0,0.001044149394147098
1664.0,-0.0009549428941681981
1792.0,-0.001129958196543157
1920.0,-0.0006825191085226834
2048.0,-0.00010187384759774432
2304.0,-0.001586807775311172
2560.0,-0.0018729503499343991
2816.0,0.00028897332958877087
3072.0,-0.001530453097075224
3328.0,-0.004362343344837427
3584.0,-0.004448305815458298
3840.0,-0.0010694739175960422
4096.0,-0.0020277451258152723
4608.0,-0.002318029059097171
5120.0,0.0019706422463059425
5632.0,-0.0006746723083779216
6144.0,-0.0004780485469382256
6656.0,-1.7145210222224705e-05
7168.0,0.0009966245852410793
7680.0,0.002354707568883896
8192.0,0.001574974157847464
9216.0,0.0009341210825368762
10240.0,0.0012977441074326634
11264.0,-0.007208102382719517
12288.0,-0.00534340925514698
13312.0,-0.005257782526314259
14336.0,-0.001716693863272667
end
