version,3.0
numOfCh,1
type,point
parent_name,2-cuts
ch_type,1_1
kcount,1
numberNandB,1
brightnessNandB,1
carpet pos,0
pc,0
Time (ms),CH1 Auto-Correlation
1.0,0.041505951434373856
2.0,0.03816720098257065
3.0,0.035301029682159424
4.0,0.03279712423682213
5.0,0.030616197735071182
6.0,0.02871149405837059
7.0,0.027090728282928467
8.0,0.02552676573395729
9.0,0.024062011390924454
10.0,0.022650405764579773
11.0,0.02141009271144867
12.0,0.020237110555171967
13.0,0.019061990082263947
14.0,0.018136339262127876
15.0,0.017196061089634895
16.0,0.01643250323832035
18.0,0.015192576684057713
20.0,0.013977570459246635
22.0,0.012871161103248596
24.0,0.011856934987008572
26.0,0.011173048056662083
28.0,0.010456981137394905
30.0,0.00969536229968071
32.0,0.008767451159656048
36.0,0.007497187238186598
40.0,0.006540585774928331
44.0,0.005489430855959654
48.0,0.004640388302505016
52.0,0.0037397053092718124
56.0,0.003310908330604434
60.0,0.003206324065104127
64.0,0.0032534257043153048
72.0,0.002380422782152891
80.0,0.002247462049126625
88.0,0.0024238070473074913
96.0,0.002993545029312372
104.0,0.003774027805775404
112.0,0.0035294671542942524
120.0,0.003240015124902129
128.0,0.0030787454452365637
144.0,0.003083518473431468
160.0,0.002678705845028162
176.0,0.0023160025011748075
192.0,0.0016562221571803093
208.0,0.0014756903983652592
224.0,0.0011813980527222157
240.0,0.00038388953544199467
256.0,-0.0015694370958954096
288.0,-0.001691405544988811
320.0,-0.00018707892741076648
352.0,-0.000988406129181385
384.0,-0.0005077500827610493
416.0,-0.0005558065604418516
448.0,-0.0007485419046133757
480.0,5.023637640988454e-05
512.0,0.0002477251400705427
576.0,0.00031951474375091493
640.0,0.0015654793241992593
704.0,0.0011606515618041158
768.0,8.485525177093223e-05
832.0,0.0005548627232201397
896.0,0.0002323961234651506
960.0,0.0005789495189674199
1024.0,-0.0007264135638251901
1152.0,-0.0009627065737731755
1280.0,-0.0014186148764565587
1408.0,7.418949098791927e-05
1536.0,-0.00045856006909161806
1664.0,-0.0002726976526901126
1792.0,0.00030998780857771635
1920.0,-0.0013326533371582627
2048.0,-0.0010757875861600041
2304.0,-6.463676982093602e-05
2560.0,-0.0011129125487059355
2816.0,0.0004100871447008103
3072.0,-0.0013594534248113632
3328.0,-0.0014964859001338482
3584.0,0.0004527886339928955
3840.0,0.00011049275053665042
4096.0,-0.0011064657010138035
4608.0,0.000721112301107496
5120.0,-0.0005877231596969068
5632.0,-0.0009296074858866632
6144.0,-0.0003081305476371199
6656.0,0.0003528189845383167
7168.0,0.0011840024963021278
7680.0,0.0003916349378414452
8192.0,0.0019583147950470448
9216.0,-0.0007419229368679225
10240.0,-0.001157300896011293
11264.0,-0.0005879304371774197
12288.0,-0.0006526866345666349
13312.0,0.0003697776119224727
14336.0,0.001045052194967866
end
