version,3.0
numOfCh,1
type,point
parent_name,2-cuts
ch_type,1_1
kcount,1
numberNandB,1
brightnessNandB,1
carpet pos,0
pc,0
Time (ms),CH1 Auto-Correlation
1.0,0.08460412174463272
2.0,0.07788629084825516
3.0,0.07209727168083191
4.0,0.06717906147241592
5.0,0.06298728287220001
6.0,0.05933528393507004
7.0,0.05610716715455055
8.0,0.0530635342001915
9.0,0.05028459057211876
10.0,0.047692056745290756
11.0,0.045179642736911774
12.0,0.042956165969371796
13.0,0.041015785187482834
14.0,0.039352431893348694
15.0,0.03774772584438324
16.0,0.03613446652889252
18.0,0.03366423770785332
20.0,0.03149395063519478
22.0,0.029651889577507973
24.0,0.027497725561261177
26.0,0.02541961707174778
28.0,0.023543205112218857
30.0,0.022018732503056526
32.0,0.020272672176361084
36.0,0.017845334485173225
40.0,0.01586422510445118
44.0,0.014154608361423016
48.0,0.013040434569120407
52.0,0.012280797585844994
56.0,0.011588655412197113
60.0,0.011380558833479881
64.0,0.011009158566594124
72.0,0.011170630343258381
80.0,0.009835987351834774
88.0,0.008100513368844986
96.0,0.006932982709258795
104.0,0.005474596284329891
112.0,0.004275988787412643
120.0,0.003213569289073348
128.0,0.0002965502499137074
144.0,-0.0013866531662642956
160.0,0.00193238933570683
176.0,0.002867668867111206
192.0,0.0038670876529067755
208.0,0.004040875472128391
224.0,0.001681480323895812
240.0,0.0012182163773104548
256.0,0.00019140045333188027
288.0,0.00028005868080072105
320.0,0.0027570263482630253
352.0,0.0071672918274998665
384.0,0.004174587782472372
416.0,0.0062463246285915375
448.0,0.0010079044150188565
480.0,-0.0010443334467709064
512.0,-0.0027490209322422743
576.0,0.0017855369951575994
640.0,0.001600897521711886
704.0,0.002794179366901517
768.0,0.0010801826138049364
832.0,0.0011035233037546277
896.0,-0.004163171164691448
960.0,-1.8531580280978233e-05
1024.0,-0.003007524413987994
1152.0,-0.0019550228025764227
1280.0,0.000751677667722106
1408.0,-0.0006734576309099793
1536.0,-0.0003590451378840953
1664.0,-0.0010912639554589987
1792.0,-0.0027600955218076706
1920.0,0.0012965139467269182
2048.0,0.002552381716668606
2304.0,0.0033972389064729214
2560.0,0.0011000082595273852
2816.0,-0.0025434254202991724
3072.0,-0.0005064511206001043
3328.0,-0.00012711786257568747
3584.0,-0.0011819129576906562
3840.0,-0.0020692467223852873
4096.0,-0.001343621639534831
4608.0,-0.00020802892686333507
5120.0,-0.001261456753127277
5632.0,-0.001490389695391059
6144.0,-0.001813304959796369
6656.0,0.0005274458671920002
7168.0,-0.0008186957566067576
7680.0,-0.003560096025466919
8192.0,0.0005167130730114877
9216.0,0.0014436898054555058
10240.0,-0.0007097898051142693
11264.0,0.0006944320048205554
12288.0,-0.0030976650305092335
13312.0,-0.0017032012110576034
14336.0,-0.0006248694844543934
end
