version,3.0
numOfCh,1
type,point
parent_name,2-cuts
ch_type,1_1
kcount,1
numberNandB,1
brightnessNandB,1
carpet pos,0
pc,0
Time (ms),CH1 Auto-Correlation
1.0,0.09196509420871735
2.0,0.08523333817720413
3.0,0.07947903871536255
4.0,0.07430090010166168
5.0,0.06969566643238068
6.0,0.06574681401252747
7.0,0.062176380306482315
8.0,0.058887384831905365
9.0,0.05573826655745506
10.0,0.052848029881715775
11.0,0.05039096251130104
12.0,0.047994617372751236
13.0,0.04596148058772087
14.0,0.04403442144393921
15.0,0.042307049036026
16.0,0.04073262959718704
18.0,0.037850555032491684
20.0,0.035265881568193436
22.0,0.032694172114133835
24.0,0.03041127137839794
26.0,0.028302093967795372
28.0,0.026637665927410126
30.0,0.02544349804520607
32.0,0.024132562801241875
36.0,0.02116565778851509
40.0,0.019526757299900055
44.0,0.018800979480147362
48.0,0.017896516248583794
52.0,0.01703435555100441
56.0,0.016820764169096947
60.0,0.01686253771185875
64.0,0.016931923106312752
72.0,0.017125064507126808
80.0,0.016068974509835243
88.0,0.013809249736368656
96.0,0.010408720001578331
104.0,0.009089619852602482
112.0,0.007264785468578339
120.0,0.005184777081012726
128.0,0.005377613939344883
144.0,0.006143797654658556
160.0,0.003911662381142378
176.0,0.0019980010110884905
192.0,0.001424409681931138
208.0,0.001879995223134756
224.0,0.0012580492766574025
240.0,0.0019167858408764005
256.0,0.00256360718049109
288.0,-0.0005244236090220511
320.0,0.0019344518659636378
352.0,0.002145534846931696
384.0,0.0017109967302531004
416.0,0.0003678200300782919
448.0,-0.00156961171887815
480.0,-0.0012583568459376693
512.0,-0.00340832001529634
576.0,-0.0003538948076311499
640.0,0.0004848577664233744
704.0,0.003533017821609974
768.0,0.004514025058597326
832.0,0.0009763998677954078
896.0,-0.002206445438787341
960.0,0.0004826550430152565
1024.0,0.0019296157406643033
1152.0,-4.5881221012678e-05
1280.0,0.0008465316495858133
1408.0,0.0019101141951978207
1536.0,-0.0019133304012939334
1664.0,-0.00269519560970366
1792.0,0.0009301636018790305
1920.0,0.0001039456547005102
2048.0,0.0018710175063461065
2304.0,0.0015384190483018756
2560.0,0.0032013498712331057
2816.0,0.0011582050938159227
3072.0,-0.005533256568014622
3328.0,-0.0030001255217939615
3584.0,0.0008119517005980015
3840.0,-0.004770578816533089
4096.0,-0.004101256839931011
4608.0,-0.0014418561477214098
5120.0,0.00031050958205014467
5632.0,-4.017772516817786e-05
6144.0,-0.002696411684155464
6656.0,-0.001996310194954276
7168.0,-0.001054575783200562
7680.0,-0.0012882343726232648
8192.0,-0.0025857356376945972
9216.0,0.0008644720655865967
10240.0,0.0014205359620973468
11264.0,0.00553000345826149
12288.0,0.005023004021495581
13312.0,-0.0016152450116351247
14336.0,-0.0025632698088884354
end
