version,3.0
numOfCh,1
type,point
parent_name,2-cuts
ch_type,1_1
kcount,1
numberNandB,1
brightnessNandB,1
carpet pos,0
pc,0
Time (ms),CH1 Auto-Correlation
1.0,0.09039226919412613
2.0,0.08366023004055023
3.0,0.07786841690540314
4.0,0.07263556867837906
5.0,0.06820278614759445
6.0,0.06444597989320755
7.0,0.06097208708524704
8.0,0.057721465826034546
9.0,0.05482295900583267
10.0,0.05213804170489311
11.0,0.049646832048892975
12.0,0.04731505736708641
13.0,0.045194707810878754
14.0,0.04320940747857094
15.0,0.04138815402984619
16.0,0.03972054272890091
18.0,0.03639768809080124
20.0,0.0335538312792778
22.0,0.03124084137380123
24.0,0.029236605390906334
26.0,0.027426544576883316
28.0,0.025921640917658806
30.0,0.024846386164426804
32.0,0.023388272151350975
36.0,0.021234354004263878
40.0,0.01934479922056198
44.0,0.016835173591971397
48.0,0.014108607545495033
52.0,0.012237818911671638
56.0,0.011098076589405537
60.0,0.009907431900501251
64.0,0.008943701162934303
72.0,0.00942841824144125
80.0,0.008590804412961006
88.0,0.006679439451545477
96.0,0.0043947454541921616
104.0,0.0048003834672272205
112.0,0.003902423195540905
120.0,0.0014590556966140866
128.0,0.0009850205387920141
144.0,0.0025265382137149572
160.0,0.003004333470016718
176.0,-0.0012615298619493842
192.0,-0.005737059749662876
208.0,-0.0028703089337795973
224.0,-0.0025471497792750597
240.0,-0.00327912881039083
256.0,-0.004159779753535986
288.0,-0.004320612642914057
320.0,-0.0038726450875401497
352.0,-0.0030788739677518606
384.0,-0.00126544083468616
416.0,-0.00046599781489931047
448.0,0.0020942857954651117
480.0,0.004352012183517218
512.0,0.005390865262597799
576.0,0.00242573581635952
640.0,0.0016355904517695308
704.0,-0.0012408519396558404
768.0,0.0006983328494243324
832.0,0.0032604821026325226
896.0,-0.002262008609250188
960.0,-0.005054442211985588
1024.0,-0.004187135957181454
1152.0,-0.0012297768844291568
1280.0,-0.0028482370544224977
1408.0,-0.00443571200594306
1536.0,-0.00247426750138402
1664.0,0.0002641723840497434
1792.0,-0.003737594000995159
1920.0,-0.0012680859072133899
2048.0,-0.002075882162898779
2304.0,-0.005906220059841871
2560.0,-0.0011014491319656372
2816.0,0.0031034855637699366
3072.0,-0.00021156665752641857
3328.0,0.0055896746926009655
3584.0,0.002754936693236232
3840.0,0.004352530464529991
4096.0,-0.0003740135580301285
4608.0,0.0009229539427906275
5120.0,-0.0023197252303361893
5632.0,-0.002211508806794882
6144.0,-0.0015426817117258906
6656.0,0.002733380300924182
7168.0,0.0013628439046442509
7680.0,-0.0012922403402626514
8192.0,2.708238571358379e-05
9216.0,0.00048189295921474695
10240.0,-0.00027339145890437067
11264.0,-0.001621168339625001
12288.0,0.0027050019707530737
13312.0,-0.0017832149751484394
14336.0,-0.003352162893861532
end
