version,3.0
numOfCh,1
type,point
parent_name,2-cuts
ch_type,1_1
kcount,1
numberNandB,1
brightnessNandB,1
carpet pos,0
pc,0
Time (ms),CH1 Auto-Correlation
1.0,0.08866365253925323
2.0,0.08148152381181717
3.0,0.07525795698165894
4.0,0.07000035047531128
5.0,0.0652194619178772
6.0,0.06123006343841553
7.0,0.05779120326042175
8.0,0.055058982223272324
9.0,0.05260976403951645
10.0,0.050262510776519775
11.0,0.048110704869031906
12.0,0.04603569209575653
13.0,0.044176455587148666
14.0,0.042435336858034134
15.0,0.040749650448560715
16.0,0.03921079635620117
18.0,0.03632621467113495
20.0,0.033532675355672836
22.0,0.03118523396551609
24.0,0.029102645814418793
26.0,0.027570148929953575
28.0,0.026217980310320854
30.0,0.024928884580731392
32.0,0.023326432332396507
36.0,0.020302997902035713
40.0,0.01820668950676918
44.0,0.016622070223093033
48.0,0.015683956444263458
52.0,0.014572079293429852
56.0,0.014374855905771255
60.0,0.01434733159840107
64.0,0.01467970758676529
72.0,0.014644998125731945
80.0,0.014074509963393211
88.0,0.014113252982497215
96.0,0.014134848490357399
104.0,0.013876338489353657
112.0,0.01320949848741293
120.0,0.013403593562543392
128.0,0.013268828392028809
144.0,0.011770411394536495
160.0,0.009465117938816547
176.0,0.007807156536728144
192.0,0.00634040730074048
208.0,0.005954486317932606
224.0,0.005028254352509975
240.0,0.005153937730938196
256.0,0.005640127696096897
288.0,0.003708885982632637
320.0,-0.001199539634399116
352.0,-0.0002192657848354429
384.0,0.000605095992796123
416.0,0.0011279594618827105
448.0,-0.00111743516754359
480.0,-0.001529614208266139
512.0,-0.002146216807886958
576.0,-0.0014430951559916139
640.0,-0.0007581145036965609
704.0,0.0006344130379147828
768.0,-0.0027342748362571
832.0,-0.0013858925085514784
896.0,-0.004940882790833712
960.0,-0.004267836920917034
1024.0,-0.006050770170986652
1152.0,-0.005079695489257574
1280.0,-0.0037926246877759695
1408.0,-0.0027249513659626245
1536.0,-0.0015989136882126331
1664.0,0.0004263576411176473
1792.0,0.0017675497801974416
1920.0,0.002193453721702099
2048.0,-0.000994918867945671
2304.0,0.0004369000089354813
2560.0,-9.445296018384397e-05
2816.0,-0.004140036646276712
3072.0,-0.0053704287856817245
3328.0,0.0009192616562359035
3584.0,0.004194536712020636
3840.0,0.006371233146637678
4096.0,0.0037929306272417307
4608.0,-0.0009898223215714097
5120.0,-0.0022520956117659807
5632.0,-0.004075692966580391
6144.0,-0.0023707346990704536
6656.0,-0.00016718078404664993
7168.0,0.0025677154771983624
7680.0,-0.00028325014864094555
8192.0,-0.0005520111881196499
9216.0,0.0006787061574868858
10240.0,0.0017379048513248563
11264.0,0.0013851780677214265
12288.0,-0.0038293676916509867
13312.0,0.0049704257398843765
14336.0,-0.001164678717032075
end
