version,3.0
numOfCh,1
type,point
parent_name,2-cuts
ch_type,1_1
kcount,1
numberNandB,1
brightnessNandB,1
carpet pos,0
pc,0
Time (ms),CH1 Auto-Correlation
1.0,0.08202547580003738
2.0,0.07508121430873871
3.0,0.06894779950380325
4.0,0.06388076394796371
5.0,0.059428125619888306
6.0,0.055651042610406876
7.0,0.052191320806741714
8.0,0.049163568764925
9.0,0.046203382313251495
10.0,0.043380897492170334
11.0,0.04070883244276047
12.0,0.03831882029771805
13.0,0.03613876551389694
14.0,0.03428136929869652
15.0,0.0325482040643692
16.0,0.030906887724995613
18.0,0.028174351900815964
20.0,0.0260609183460474
22.0,0.024174567312002182
24.0,0.02226893976330757
26.0,0.02053203620016575
28.0,0.01891213469207287
30.0,0.017558667808771133
32.0,0.016648927703499794
36.0,0.015571475960314274
40.0,0.01499234139919281
44.0,0.014203728176653385
48.0,0.013968134298920631
52.0,0.013548243790864944
56.0,0.012395495548844337
60.0,0.01104440912604332
64.0,0.009701563976705074
72.0,0.006255950313061476
80.0,0.003885517595335841
88.0,0.0036197996232658625
96.0,0.0033432040363550186
104.0,0.00153523834887892
112.0,0.0016004714416339993
120.0,0.0019259045366197824
128.0,0.0011435389751568437
144.0,-0.002262198133394122
160.0,-0.0015093135880306363
176.0,0.0009484227048233151
192.0,0.0024399503599852324
208.0,0.003701089648529887
224.0,0.002619267674162984
240.0,0.0007927209953777492
256.0,0.0006659335922449827
288.0,-0.0012752838665619493
320.0,-0.0014397609047591686
352.0,-0.0034558980260044336
384.0,-0.006144228391349316
416.0,-0.004366552457213402
448.0,-0.004968185443431139
480.0,-0.004282859154045582
512.0,-0.00403271010145545
576.0,-0.004374619573354721
640.0,-0.0041710385121405125
704.0,0.0020728788804262877
768.0,-0.001572681707330048
832.0,0.002141403965651989
896.0,0.003815206466242671
960.0,0.0035060797818005085
1024.0,0.004302799701690674
1152.0,0.0017421568045392632
1280.0,-0.0017834099708124995
1408.0,-0.003525364212691784
1536.0,-0.0009422075236216187
1664.0,0.0015902185114100575
1792.0,0.0006588251562789083
1920.0,0.0009861757280305028
2048.0,0.0018617756431922317
2304.0,-0.001665204530581832
2560.0,0.002173027489334345
2816.0,-0.0002373112947680056
3072.0,-0.0024550023954361677
3328.0,-0.0011463474947959185
3584.0,-0.0006991578848101199
3840.0,0.0010642320849001408
4096.0,0.0021873670630156994
4608.0,-0.003561369376257062
5120.0,0.001225592102855444
5632.0,-0.003433440811932087
6144.0,0.0022232746705412865
6656.0,0.0010913400910794735
7168.0,0.00025904286303557456
7680.0,-0.003697060514241457
8192.0,0.003477272344753146
9216.0,0.0008239361923187971
10240.0,0.00030056253308430314
11264.0,0.00032033416209742427
12288.0,0.0010364367626607418
13312.0,0.00018680388166103512
14336.0,-0.0037599201314151287
end
