version,3.0
numOfCh,1
type,point
parent_name,2-cuts
ch_type,1_1
kcount,1
numberNandB,1
brightnessNandB,1
carpet pos,0
pc,0
Time (ms),CH1 Auto-Correlation
1.0,0.043383024632930756
2.0,0.04007433354854584
3.0,0.03715925291180611
4.0,0.03455033153295517
5.0,0.03229166939854622
6.0,0.030345480889081955
7.0,0.02853997051715851
8.0,0.026979422196745872
9.0,0.02559185028076172
10.0,0.024368081241846085
11.0,0.023246129974722862
12.0,0.022209087386727333
13.0,0.02132745087146759
14.0,0.02057330496609211
15.0,0.019865985959768295
16.0,0.019080808386206627
18.0,0.017817754298448563
20.0,0.016661256551742554
22.0,0.015593479387462139
24.0,0.014850147068500519
26.0,0.014167172834277153
28.0,0.013259818777441978
30.0,0.012364407069981098
32.0,0.011595722287893295
36.0,0.010654487647116184
40.0,0.009829016402363777
44.0,0.008890995755791664
48.0,0.007928753271698952
52.0,0.007469141390174627
56.0,0.007108244113624096
60.0,0.006799394730478525
64.0,0.00647532194852829
72.0,0.005411895923316479
80.0,0.005181676708161831
88.0,0.004859774839133024
96.0,0.0043448759242892265
104.0,0.0035142439883202314
112.0,0.0023712338879704475
120.0,0.0029964307323098183
128.0,0.0037018791772425175
144.0,0.005190837662667036
160.0,0.005506217945367098
176.0,0.005205146502703428
192.0,0.004374719224870205
208.0,0.0029889140278100967
224.0,0.003213943215087056
240.0,0.0016642144182696939
256.0,0.0009575286530889571
288.0,0.0009682258241809905
320.0,0.001037353533320129
352.0,0.00035726060741581023
384.0,0.0015139654278755188
416.0,0.00048499886179342866
448.0,-0.0007081129006110132
480.0,-0.0018876844551414251
512.0,-0.0015974899288266897
576.0,-0.0009082388714887202
640.0,-0.0018965639173984528
704.0,-0.0017272327095270157
768.0,3.052942338399589e-05
832.0,-0.0004106330743525177
896.0,-0.0006785470759496093
960.0,-0.00037545515806414187
1024.0,-0.0020753503777086735
1152.0,7.614706555614248e-05
1280.0,0.00011890179303009063
1408.0,-0.0005599785945378244
1536.0,-0.0006921192980371416
1664.0,-0.0014318107860162854
1792.0,-0.002141497330740094
1920.0,-0.0009510674863122404
2048.0,0.0010939082130789757
2304.0,0.0010726851178333163
2560.0,0.0007769438670948148
2816.0,0.0010173027403652668
3072.0,0.0005046944716013968
3328.0,-0.0010311044752597809
3584.0,-0.0004991393652744591
3840.0,-0.0006621460197493434
4096.0,-0.0013570123119279742
4608.0,0.0004599121166393161
5120.0,-0.0009787773014977574
5632.0,-0.0009717878419905901
6144.0,0.00021943355386611074
6656.0,-0.0006209493731148541
7168.0,-0.0018873250810429454
7680.0,-0.0011045857099816203
8192.0,0.0016399268060922623
9216.0,0.0003208428679499775
10240.0,0.0004094314354006201
11264.0,0.0017159857088699937
12288.0,0.0013237700331956148
13312.0,-0.0013248363975435495
14336.0,-0.0016672168858349323
end
