version,3.0
numOfCh,1
type,point
parent_name,2-cuts
ch_type,1_1
kcount,1
numberNandB,1
brightnessNandB,1
carpet pos,0
pc,0
Time (ms),CH1 Auto-Correlation
1.0,0.04327783361077309
2.0,0.04006468504667282
3.0,0.03725944459438324
4.0,0.03485322743654251
5.0,0.03273531049489975
6.0,0.030899768695235252
7.0,0.02929585985839367
8.0,0.02770763263106346
9.0,0.02632340043783188
10.0,0.025017958134412766
11.0,0.02390090562403202
12.0,0.02291380800306797
13.0,0.02193058282136917
14.0,0.020991817116737366
15.0,0.020088473334908485
16.0,0.01927827298641205
18.0,0.017752790823578835
20.0,0.016458574682474136
22.0,0.015258499421179295
24.0,0.0142431715503335
26.0,0.013309004716575146
28.0,0.012519418261945248
30.0,0.0119879599660635
32.0,0.011711589060723782
36.0,0.011281410232186317
40.0,0.010657312348484993
44.0,0.009787398390471935
48.0,0.009109592996537685
52.0,0.008342815563082695
56.0,0.008060351014137268
60.0,0.007679872680455446
64.0,0.007353692781180143
72.0,0.006371654570102692
80.0,0.005248102359473705
88.0,0.003335376502946019
96.0,0.002522139810025692
104.0,0.0022383290342986584
112.0,0.001980314962565899
120.0,0.0022762161679565907
128.0,0.002475489629432559
144.0,0.0014076025690883398
160.0,0.0005828603752888739
176.0,0.0009069243678823113
192.0,0.0009595942683517933
208.0,2.0198654965497553e-05
224.0,2.549143937358167e-05
240.0,0.0009579508332535625
256.0,0.0010289560304954648
288.0,0.0024965961929410696
320.0,0.0019885145593434572
352.0,0.0023544204887002707
384.0,0.0013458265457302332
416.0,0.0008819677750580013
448.0,0.002709830878302455
480.0,0.004951750859618187
512.0,0.004629681818187237
576.0,0.003135341452434659
640.0,0.0011838191421702504
704.0,0.0004869367985520512
768.0,-0.0014139172853901982
832.0,-0.0021180000621825457
896.0,-0.0030418368987739086
960.0,-0.0015547772636637092
1024.0,0.0016050086123868823
1152.0,0.00036382392863743007
1280.0,7.11110042175278e-05
1408.0,-0.00029889869620092213
1536.0,-3.199630373273976e-05
1664.0,-0.0007457685424014926
1792.0,-0.0005861047538928688
1920.0,0.0007733356324024498
2048.0,-0.002407418331131339
2304.0,-0.000805756077170372
2560.0,-0.0018784815911203623
2816.0,0.0009450934012420475
3072.0,0.0010077154729515314
3328.0,0.0027561462484300137
3584.0,-0.0005217911675572395
3840.0,0.001959561835974455
4096.0,-0.001554792164824903
4608.0,0.0012104318011552095
5120.0,-0.0006135578150860965
5632.0,-0.0021828250028192997
6144.0,-0.001223913743160665
6656.0,-0.00025028554955497384
7168.0,-0.0011885426938533783
7680.0,0.0007126574055291712
8192.0,0.0007706191972829401
9216.0,-0.0023258766159415245
10240.0,-0.0005665865610353649
11264.0,0.0016182493418455124
12288.0,-0.0017782460199669003
13312.0,-0.002712737303227186
14336.0,0.006094255484640598
end
