version,3.0
numOfCh,1
type,point
parent_name,2-cuts
ch_type,1_1
kcount,1
numberNandB,1
brightnessNandB,1
carpet pos,0
pc,0
Time (ms),CH1 Auto-Correlation
1.0,0.040715333074331284
2.0,0.0376204177737236
3.0,0.03491157665848732
4.0,0.03252694755792618
5.0,0.030271699652075768
6.0,0.02836391143500805
7.0,0.026651520282030106
8.0,0.025190411135554314
9.0,0.02381712757050991
10.0,0.022626033052802086
11.0,0.021554406732320786
12.0,0.02055240049958229
13.0,0.019589992240071297
14.0,0.01873837038874626
15.0,0.017946552485227585
16.0,0.017201676964759827
18.0,0.01574312150478363
20.0,0.014397967606782913
22.0,0.013249109499156475
24.0,0.01232170220464468
26.0,0.01148979365825653
28.0,0.010821362026035786
30.0,0.010235599242150784
32.0,0.0098314443603158
36.0,0.009068869054317474
40.0,0.008158701471984386
44.0,0.007178056985139847
48.0,0.006242333445698023
52.0,0.005570008419454098
56.0,0.004990358371287584
60.0,0.004562830552458763
64.0,0.0036648432724177837
72.0,0.0019275342347100377
80.0,0.001255655661225319
88.0,0.0011866214917972684
96.0,0.0015123222256079316
104.0,0.001158238621428609
112.0,0.0005067395395599306
120.0,-1.6829179685373674e-06
128.0,-3.0184379284037277e-05
144.0,0.00010636841761879623
160.0,0.00017377178301103413
176.0,-0.00023538674577139318
192.0,-0.001334870932623744
208.0,-0.0021243649534881115
224.0,-0.0025094945449382067
240.0,-0.0032378879841417074
256.0,-0.003927040845155716
288.0,-0.0029475251212716103
320.0,-0.0020974273793399334
352.0,-0.001073734019882977
384.0,0.0002160250733140856
416.0,0.0012547075748443604
448.0,0.0012227463303133845
480.0,-0.0004968208959326148
512.0,-7.223289139801636e-05
576.0,0.0009439419955015182
640.0,0.0005372415180318058
704.0,-0.0004535625339485705
768.0,0.0009340514661744237
832.0,0.0015829094918444753
896.0,-0.0010783884208649397
960.0,-0.0009540829341858625
1024.0,-0.0015673686284571886
1152.0,-0.0010852871928364038
1280.0,0.0013761987211182714
1408.0,-0.00039603948243893683
1536.0,0.0006017283885739744
1664.0,0.0008603223832324147
1792.0,0.0004306362825445831
1920.0,0.00018175008881371468
2048.0,0.0008128624176606536
2304.0,-0.0007682369905523956
2560.0,0.001121958950534463
2816.0,-0.00205322727560997
3072.0,0.00014858311624266207
3328.0,-0.0006335986545309424
3584.0,-0.0012823649449273944
3840.0,-0.000573404657188803
4096.0,0.0008046331931836903
4608.0,-0.0006402730359695852
5120.0,-0.00017474607739131898
5632.0,0.00015392476052511483
6144.0,0.000553642981685698
6656.0,-0.00012392111239023507
7168.0,0.0006101718754507601
7680.0,0.0006883768364787102
8192.0,0.00040764667210169137
9216.0,-0.00041401683120056987
10240.0,-0.0006066006608307362
11264.0,-0.0007714165258221328
12288.0,-0.0002458760282024741
13312.0,0.0002453024499118328
14336.0,0.0016328156925737858
end
