version,3.0
numOfCh,1
type,point
parent_name,2-cuts
ch_type,1_1
kcount,1
numberNandB,1
brightnessNandB,1
carpet pos,0
pc,0
Time (ms),CH1 Auto-Correlation
1.0,0.046417124569416046
2.0,0.04314028099179268
3.0,0.04021389037370682
4.0,0.037633299827575684
5.0,0.03547182306647301
6.0,0.03355617821216583
7.0,0.031858719885349274
8.0,0.03032221458852291
9.0,0.02887876145541668
10.0,0.027630753815174103
11.0,0.026571406051516533
12.0,0.025463569909334183
13.0,0.024600354954600334
14.0,0.023697491735219955
15.0,0.022934110835194588
16.0,0.022244704887270927
18.0,0.02089524455368519
20.0,0.01959044672548771
22.0,0.018465528264641762
24.0,0.017489202320575714
26.0,0.01668090932071209
28.0,0.016003068536520004
30.0,0.015450000762939453
32.0,0.014716838486492634
36.0,0.013257209211587906
40.0,0.012186940759420395
44.0,0.011403440497815609
48.0,0.010738248005509377
52.0,0.009865873493254185
56.0,0.009108899161219597
60.0,0.008481026627123356
64.0,0.008067633956670761
72.0,0.008113720454275608
80.0,0.008360408246517181
88.0,0.008239432238042355
96.0,0.007017755415290594
104.0,0.006348364055156708
112.0,0.006389955524355173
120.0,0.006262133363634348
128.0,0.006478545255959034
144.0,0.006881699897348881
160.0,0.006029421463608742
176.0,0.004553704056888819
192.0,0.0044109150767326355
208.0,0.004003295674920082
224.0,0.004866062663495541
240.0,0.005191135685890913
256.0,0.006128707900643349
288.0,0.00610449118539691
320.0,0.004793289117515087
352.0,0.004113747738301754
384.0,0.0032376276794821024
416.0,0.0038760395254939795
448.0,0.003370888065546751
480.0,0.0021949547808617353
512.0,0.002031262032687664
576.0,0.0024529467336833477
640.0,0.004442418925464153
704.0,0.002124534687027335
768.0,0.0024734693579375744
832.0,0.0016689685871824622
896.0,0.001600664108991623
960.0,0.001831169705837965
1024.0,0.002403167774900794
1152.0,-0.0005951158818788826
1280.0,-0.001047243713401258
1408.0,-0.002322304993867874
1536.0,-0.0015220550121739507
1664.0,-0.0011318590259179473
1792.0,-0.0008706795633770525
1920.0,-0.002139301970601082
2048.0,-0.0036730708088725805
2304.0,-0.0025590448640286922
2560.0,0.0005132814985699952
2816.0,-0.0013120868243277073
3072.0,-0.0033987360075116158
3328.0,-0.004325013607740402
3584.0,-0.003563912818208337
3840.0,-0.004738125018775463
4096.0,-0.003801040118560195
4608.0,-0.001545324339531362
5120.0,0.0007224538130685687
5632.0,0.0022562688682228327
6144.0,0.002386717591434717
6656.0,0.0032079722732305527
7168.0,0.0034159813076257706
7680.0,0.0028326089959591627
8192.0,-0.0006147216772660613
9216.0,-0.0036292884033173323
10240.0,8.720488040125929e-06
11264.0,-0.0011927821906283498
12288.0,0.0006814916850998998
13312.0,0.003016436006873846
14336.0,-0.0012281587114557624
end
