version,3.0
numOfCh,1
type,point
parent_name,2-cuts
ch_type,1_1
kcount,1
numberNandB,1
brightnessNandB,1
carpet pos,0
pc,0
Time (ms),CH1 Auto-Correlation
1.0,0.029684262350201607
2.0,0.02739962376654148
3.0,0.025406207889318466
4.0,0.023701058700680733
5.0,0.022249359637498856
6.0,0.020998049527406693
7.0,0.01983022689819336
8.0,0.018741970881819725
9.0,0.01772184483706951
10.0,0.016818620264530182
11.0,0.01598675549030304
12.0,0.01521923579275608
13.0,0.014557737857103348
14.0,0.013931947760283947
15.0,0.013315618969500065
16.0,0.012761127203702927
18.0,0.011884793639183044
20.0,0.011105400510132313
22.0,0.01039509940892458
24.0,0.00981373805552721
26.0,0.009300151839852333
28.0,0.008830845355987549
30.0,0.008307765237987041
32.0,0.00793465320020914
36.0,0.007525736931711435
40.0,0.007174193859100342
44.0,0.006834013387560844
48.0,0.0062830448150634766
52.0,0.005761202424764633
56.0,0.005243311170488596
60.0,0.004753430373966694
64.0,0.004295709077268839
72.0,0.003479643724858761
80.0,0.0027683614753186703
88.0,0.0023030501324683428
96.0,0.0022607126738876104
104.0,0.002333311131224036
112.0,0.0023283418267965317
120.0,0.002178211696445942
128.0,0.002200682647526264
144.0,0.0023881145752966404
160.0,0.0022366936318576336
176.0,0.001973056001588702
192.0,0.001881350064650178
208.0,0.0018083336763083935
224.0,0.0010235010413452983
240.0,0.001380946603603661
256.0,0.001405817922204733
288.0,0.002135516842827201
320.0,0.0010495141614228487
352.0,-0.0004271207726560533
384.0,-0.0004050817806273699
416.0,-0.0014277356676757336
448.0,-0.001394129591062665
480.0,-0.001177214551717043
512.0,-0.0004184833960607648
576.0,0.00046160502824932337
640.0,-0.0009032690431922674
704.0,-0.0002509253681637347
768.0,-0.0014709212118759751
832.0,-0.0013451265404000878
896.0,-0.00036486928001977503
960.0,0.00012213035370223224
1024.0,0.000848004303406924
1152.0,-7.116587221389636e-05
1280.0,-1.9622266336227767e-05
1408.0,2.461963777022902e-05
1536.0,0.0004042278742417693
1664.0,-0.0006073717377148569
1792.0,-0.001512133632786572
1920.0,-0.0015349095920100808
2048.0,-0.0004976440686732531
2304.0,0.0007592340698465705
2560.0,0.0011540388222783804
2816.0,4.387489389046095e-05
3072.0,-0.0008021828252822161
3328.0,-0.0002638373407535255
3584.0,0.00035318449954502285
3840.0,0.0006549099925905466
4096.0,0.000148337145219557
4608.0,0.0006975355208851397
5120.0,-0.00032843381632119417
5632.0,-0.0008129446650855243
6144.0,0.000198197434656322
6656.0,-0.000748295453377068
7168.0,0.00046500455937348306
7680.0,-0.0006709701847285032
8192.0,0.0018426324240863323
9216.0,-0.0007659256807528436
10240.0,-0.0008286242955364287
11264.0,-0.00032146289595402777
12288.0,0.00032892636954784393
13312.0,-0.0006274959887377918
14336.0,-0.001953832106664777
end
