version,3.0
numOfCh,1
type,point
parent_name,2-cuts
ch_type,1_1
kcount,1
numberNandB,1
brightnessNandB,1
carpet pos,0
pc,0
Time (ms),CH1 Auto-Correlation
1.0,0.0405312143266201
2.0,0.03727133199572563
3.0,0.03444445878267288
4.0,0.03203927353024483
5.0,0.02995344251394272
6.0,0.02805211953818798
7.0,0.026487208902835846
8.0,0.02507190965116024
9.0,0.023840507492423058
10.0,0.022729961201548576
11.0,0.021739140152931213
12.0,0.020849477499723434
13.0,0.020050344988703728
14.0,0.01913389563560486
15.0,0.018222304061055183
16.0,0.01750594563782215
18.0,0.01626580022275448
20.0,0.015125704929232597
22.0,0.014197763055562973
24.0,0.013507750816643238
26.0,0.012772034853696823
28.0,0.012100751511752605
30.0,0.011578615754842758
32.0,0.011066364124417305
36.0,0.010214393958449364
40.0,0.009398364461958408
44.0,0.008731739595532417
48.0,0.007876967079937458
52.0,0.006780947092920542
56.0,0.005942718591541052
60.0,0.005647109821438789
64.0,0.00546234892681241
72.0,0.0051992544904351234
80.0,0.004684217739850283
88.0,0.004014237783849239
96.0,0.0038284752517938614
104.0,0.0034896659199148417
112.0,0.0029275882989168167
120.0,0.0028650357853621244
128.0,0.0028005398344248533
144.0,0.002201327122747898
160.0,0.0025641561951488256
176.0,0.002758254064247012
192.0,0.0035792523995041847
208.0,0.003994234837591648
224.0,0.003732514102011919
240.0,0.0034086646046489477
256.0,0.0024026483297348022
288.0,0.0010857584420591593
320.0,0.0011229977244511247
352.0,-0.0001799773599486798
384.0,0.000614274526014924
416.0,0.002828263910487294
448.0,0.001895381836220622
480.0,0.0003136222658213228
512.0,-0.0001022374490275979
576.0,0.001137957675382495
640.0,-0.0008780712960287929
704.0,-0.0021363841369748116
768.0,-0.0005406190175563097
832.0,-0.0007110221777111292
896.0,-0.000771086837630719
960.0,-0.0005260498728603125
1024.0,-0.000844242051243782
1152.0,-0.00020435976330190897
1280.0,-2.1575810023932718e-05
1408.0,-0.00017863539687823504
1536.0,-0.00023194901586975902
1664.0,-0.003930836915969849
1792.0,-0.001153149176388979
1920.0,-0.002764439443126321
2048.0,-0.001965367468073964
2304.0,-0.0010186706203967333
2560.0,0.00020749936811625957
2816.0,0.0008277638698928058
3072.0,0.0006870724027976394
3328.0,0.002266988158226013
3584.0,0.0011487872106954455
3840.0,-0.00038131087785586715
4096.0,-0.0016319412970915437
4608.0,-0.0003857756091747433
5120.0,-0.0020052616018801928
5632.0,-0.0003579765325412154
6144.0,0.0002920014667324722
6656.0,0.0033875880762934685
7168.0,0.0008776749600656331
7680.0,0.00039167364593595266
8192.0,-0.0008093706564977765
9216.0,-0.0019623981788754463
10240.0,0.0006964737549424171
11264.0,6.451223453041166e-05
12288.0,-0.0013132899766787887
13312.0,0.0028668215963989496
14336.0,0.00037830002838745713
end
