version,3.0
numOfCh,1
type,point
parent_name,2-cuts
ch_type,1_1
kcount,1
numberNandB,1
brightnessNandB,1
carpet pos,0
pc,0
Time (ms),CH1 Auto-Correlation
1.0,0.026307906955480576
2.0,0.02412760816514492
3.0,0.02230282686650753
4.0,0.02076367475092411
5.0,0.019344685599207878
6.0,0.018077587708830833
7.0,0.016906363889575005
8.0,0.01584767922759056
9.0,0.014937818981707096
10.0,0.014151514507830143
11.0,0.01342099905014038
12.0,0.012713128700852394
13.0,0.012031183578073978
14.0,0.011483000591397285
15.0,0.010993693955242634
16.0,0.01058913953602314
18.0,0.009851193986833096
20.0,0.00922973919659853
22.0,0.008727758191525936
24.0,0.008298199623823166
26.0,0.007835240103304386
28.0,0.007399003487080336
30.0,0.006981012877076864
32.0,0.006565379444509745
36.0,0.005587297957390547
40.0,0.004939885810017586
44.0,0.004500953480601311
48.0,0.004174908623099327
52.0,0.004037490580230951
56.0,0.003818147350102663
60.0,0.0035286329220980406
64.0,0.0033739774953573942
72.0,0.0030252025462687016
80.0,0.0024803136475384235
88.0,0.0020729713141918182
96.0,0.001946951262652874
104.0,0.002066382672637701
112.0,0.0019421169999986887
120.0,0.001925337128341198
128.0,0.0017943948041647673
144.0,0.0009291278547607362
160.0,0.0014188765781000257
176.0,0.00141577934846282
192.0,0.000936848868150264
208.0,-0.00017348419351037592
224.0,-0.0005945738521404564
240.0,-0.0005964448791928589
256.0,-0.00029134636861272156
288.0,0.0006284264964051545
320.0,0.0004525278345681727
352.0,0.00011156292748637497
384.0,-0.0013629046734422445
416.0,-0.0011588037014007568
448.0,-0.0006570449331775308
480.0,-0.0006333883502520621
512.0,-0.0003312173066660762
576.0,-0.0014840272488072515
640.0,-0.0008075860096141696
704.0,-0.0006976535078138113
768.0,0.0005866624414920807
832.0,-0.0005436245701275766
896.0,0.00023282926122192293
960.0,0.0006644971435889602
1024.0,0.001064989366568625
1152.0,0.001376705477014184
1280.0,-0.00022337045811582357
1408.0,-0.0009454037062823772
1536.0,-0.000903011008631438
1664.0,-0.000530517369043082
1792.0,-0.0007256859680637717
1920.0,0.0012297851499170065
2048.0,0.0003528270754031837
2304.0,0.00032960702083073556
2560.0,-0.0006657918565906584
2816.0,-0.0006360288243740797
3072.0,0.0004909590352326632
3328.0,-0.00047004836960695684
3584.0,-0.0008041432593017817
3840.0,0.0006594934966415167
4096.0,0.0007788540096953511
4608.0,-0.0011707749217748642
5120.0,0.0006575635052286088
5632.0,-0.0011760921915993094
6144.0,0.0008174158283509314
6656.0,-0.0005733607686124742
7168.0,0.0003633646701928228
7680.0,-6.574375584023073e-05
8192.0,0.00015847782196942717
9216.0,-0.0002057779347524047
10240.0,0.00014631630619987845
11264.0,0.0003431939985603094
12288.0,1.266246613340627e-06
13312.0,-0.00020398937340360135
14336.0,-0.0006048175855539739
end
