version,3.0
numOfCh,1
type,point
parent_name,2-cuts
ch_type,1_1
kcount,1
numberNandB,1
brightnessNandB,1
carpet pos,0
pc,0
Time (ms),CH1 Auto-Correlation
1.0,0.03956716135144234
2.0,0.036242179572582245
3.0,0.033373747020959854
4.0,0.030904194340109825
5.0,0.028793448582291603
6.0,0.026992077007889748
7.0,0.025300700217485428
8.0,0.023809092119336128
9.0,0.022490745410323143
10.0,0.021355776116251945
11.0,0.02030392736196518
12.0,0.019360773265361786
13.0,0.018528055399656296
14.0,0.017746560275554657
15.0,0.017045313492417336
16.0,0.01649574562907219
18.0,0.015432409942150116
20.0,0.014266211539506912
22.0,0.013140296563506126
24.0,0.01219902839511633
26.0,0.011346273124217987
28.0,0.01044540386646986
30.0,0.00960751436650753
32.0,0.008906884118914604
36.0,0.00798569992184639
40.0,0.0069218585267663
44.0,0.005816656164824963
48.0,0.005212171468883753
52.0,0.00499775679782033
56.0,0.004706154111772776
60.0,0.0044219354167580605
64.0,0.003968825098127127
72.0,0.0031827702187001705
80.0,0.003278998425230384
88.0,0.0028230655007064342
96.0,0.0019037696765735745
104.0,0.0009147955570369959
112.0,0.00047848207759670913
120.0,4.77592293464113e-05
128.0,1.9214234271203168e-05
144.0,0.0001661252317717299
160.0,0.00021785193530377
176.0,0.0006787542952224612
192.0,0.0013622140977531672
208.0,0.001757073332555592
224.0,0.0018262802623212337
240.0,0.0010112083982676268
256.0,0.0005088472389616072
288.0,0.00040162811637856066
320.0,0.00155793281737715
352.0,0.0011373830493539572
384.0,0.0013749301433563232
416.0,0.0022404054179787636
448.0,0.001742472522892058
480.0,0.0016856982838362455
512.0,0.0012216941686347127
576.0,0.0007837473531253636
640.0,-0.00029285773052833974
704.0,0.00016967291594482958
768.0,0.0001173170458059758
832.0,0.0009413132793270051
896.0,0.00038541233516298234
960.0,-0.0011462100083008409
1024.0,0.00010701519204303622
1152.0,0.00011247199290664867
1280.0,-0.001380082219839096
1408.0,-0.00016093890008050948
1536.0,-0.0023224365431815386
1664.0,-0.0014587860787287354
1792.0,-0.0010691971983760595
1920.0,-0.0008217771537601948
2048.0,-0.0015405835583806038
2304.0,-0.0006006523035466671
2560.0,0.0001145463393186219
2816.0,0.00013507927360478789
3072.0,-0.0005703576607629657
3328.0,-9.58376404014416e-06
3584.0,0.0002440522366669029
3840.0,0.0007954436587169766
4096.0,0.0001610112376511097
4608.0,0.00045188950025476515
5120.0,-8.960093691712245e-05
5632.0,-0.0009114858694374561
6144.0,-0.0014742951607331634
6656.0,9.737852815305814e-05
7168.0,0.0007477563340216875
7680.0,0.0012714507756754756
8192.0,0.00016979200881905854
9216.0,-0.00058224011445418
10240.0,-0.00020951915939804167
11264.0,0.00090269825886935
12288.0,0.002729101339355111
13312.0,-0.0024724926333874464
14336.0,-0.0030520297586917877
end
