version,3.0
numOfCh,1
type,point
parent_name,2-cuts
ch_type,1_1
kcount,1
numberNandB,1
brightnessNandB,1
carpet pos,0
pc,0
Time (ms),CH1 Auto-Correlation
1.0,0.08768802881240845
2.0,0.08067018538713455
3.0,0.07456937432289124
4.0,0.06935561448335648
5.0,0.06486713886260986
6.0,0.06088946387171745
7.0,0.05752437561750412
8.0,0.05445713922381401
9.0,0.05173056572675705
10.0,0.04915783181786537
11.0,0.04685662314295769
12.0,0.0447002537548542
13.0,0.04262516647577286
14.0,0.04072517529129982
15.0,0.03908595070242882
16.0,0.037476588040590286
18.0,0.034336157143116
20.0,0.03182394430041313
22.0,0.029776016250252724
24.0,0.027971971780061722
26.0,0.026412365958094597
28.0,0.025106754153966904
30.0,0.024105370044708252
32.0,0.022893812507390976
36.0,0.020268423482775688
40.0,0.017427019774913788
44.0,0.01605643332004547
48.0,0.015539241023361683
52.0,0.015337958931922913
56.0,0.014735348522663116
60.0,0.013599896803498268
64.0,0.012285184115171432
72.0,0.010943775996565819
80.0,0.009316512383520603
88.0,0.00872214138507843
96.0,0.008011285215616226
104.0,0.00790270697325468
112.0,0.006900426931679249
120.0,0.007451789453625679
128.0,0.00685851788148284
144.0,0.0037546753883361816
160.0,0.0027153377886861563
176.0,0.0033133106771856546
192.0,0.0013105572434142232
208.0,0.0008060680120252073
224.0,0.0009244942921213806
240.0,-0.0018766382709145546
256.0,-0.0011530752526596189
288.0,0.0021073801908642054
320.0,0.00022919481853023171
352.0,-0.0019285675371065736
384.0,-1.8693574020289816e-05
416.0,0.0006766149890609086
448.0,0.00011266221554251388
480.0,0.0008095671073533595
512.0,0.002244191011413932
576.0,0.0025934360455721617
640.0,0.005448148585855961
704.0,-0.0025884832721203566
768.0,-0.0018872402142733335
832.0,-0.0047083585523068905
896.0,-0.003191436640918255
960.0,0.00020764688088092953
1024.0,-0.0024264203384518623
1152.0,-0.0005450864555314183
1280.0,-0.002004739362746477
1408.0,-0.002066713757812977
1536.0,-0.0005683416384272277
1664.0,0.000236797786783427
1792.0,0.002985624596476555
1920.0,0.0005031836917623878
2048.0,3.790852861129679e-05
2304.0,0.0014482690021395683
2560.0,0.0007108800928108394
2816.0,-0.0009450047509744763
3072.0,0.0009334811475127935
3328.0,0.000731141131836921
3584.0,0.003402521600946784
3840.0,-0.0038645227905362844
4096.0,0.001152052660472691
4608.0,0.0007325280457735062
5120.0,0.0014132887590676546
5632.0,-0.0035322564654052258
6144.0,-0.0021902015432715416
6656.0,0.00027396102086640894
7168.0,-0.00040400674333795905
7680.0,-0.002985486527904868
8192.0,-0.001184412045404315
9216.0,0.00015858806727919728
10240.0,-0.0006684874533675611
11264.0,-0.0009794890647754073
12288.0,0.001709977281279862
13312.0,-0.0022188511211425066
14336.0,0.0026097369845956564
end
