version,3.0
numOfCh,1
type,point
parent_name,2-cuts
ch_type,1_1
kcount,1
numberNandB,1
brightnessNandB,1
carpet pos,0
pc,0
Time (ms),CH1 Auto-Correlation
1.0,0.09170741587877274
2.0,0.08498618751764297
3.0,0.07920630276203156
4.0,0.07406876236200333
5.0,0.06976019591093063
6.0,0.06591705977916718
7.0,0.06244613602757454
8.0,0.05943762883543968
9.0,0.05663510039448738
10.0,0.054102372378110886
11.0,0.05179673060774803
12.0,0.049668796360492706
13.0,0.04765993729233742
14.0,0.045852843672037125
15.0,0.044412728399038315
16.0,0.04284434765577316
18.0,0.040012016892433167
20.0,0.03739778697490692
22.0,0.0350990854203701
24.0,0.03327000141143799
26.0,0.03134502097964287
28.0,0.02953723445534706
30.0,0.0278332456946373
32.0,0.02656186930835247
36.0,0.024013057351112366
40.0,0.021674547344446182
44.0,0.01931881345808506
48.0,0.018021060153841972
52.0,0.01723562739789486
56.0,0.016550695523619652
60.0,0.015203945338726044
64.0,0.01415596716105938
72.0,0.01263057254254818
80.0,0.011570895090699196
88.0,0.009929351508617401
96.0,0.008173929527401924
104.0,0.007083997130393982
112.0,0.007773104589432478
120.0,0.007724322844296694
128.0,0.007799601182341576
144.0,0.008072910830378532
160.0,0.006621152628213167
176.0,0.004386176820844412
192.0,0.003395508974790573
208.0,-0.0013838470913469791
224.0,-0.00450163334608078
240.0,-0.0066735586151480675
256.0,-0.006309896241873503
288.0,-0.005451316013932228
320.0,-0.00391358369961381
352.0,-0.002784326672554016
384.0,-0.0033479752019047737
416.0,-0.001326264813542366
448.0,-0.0032171071507036686
480.0,-0.001630059676244855
512.0,-0.0006622783839702606
576.0,0.001802092301659286
640.0,-4.7639539843657985e-05
704.0,0.0010067182593047619
768.0,0.0010921594221144915
832.0,0.006284113973379135
896.0,0.008323773741722107
960.0,0.0029317105654627085
1024.0,0.0019325893372297287
1152.0,-0.003532571019604802
1280.0,-0.004768073558807373
1408.0,-0.0004954827600158751
1536.0,0.005429052747786045
1664.0,0.0044191679917275906
1792.0,0.0012695175828412175
1920.0,-0.002301204251125455
2048.0,-0.004266444593667984
2304.0,-0.005062521435320377
2560.0,0.0005648843944072723
2816.0,-0.0038679628632962704
3072.0,-0.0009839516133069992
3328.0,-0.0026041590608656406
3584.0,-0.0029291764367371798
3840.0,-0.0022226881701499224
4096.0,0.0013805002672597766
4608.0,0.0029576262459158897
5120.0,0.003091679885983467
5632.0,0.0019098297925665975
6144.0,0.0032583975698798895
6656.0,-0.0019358022836968303
7168.0,-0.0009570523397997022
7680.0,0.0003554862050805241
8192.0,-0.005455694627016783
9216.0,-0.0020484060514718294
10240.0,0.0021413040813058615
11264.0,0.000691127497702837
12288.0,-0.0016006695805117488
13312.0,-0.003013653913512826
14336.0,-0.0019572258461266756
end
