version,3.0
numOfCh,1
type,point
parent_name,2-cuts
ch_type,1_1
kcount,1
numberNandB,1
brightnessNandB,1
carpet pos,0
pc,0
Time (ms),CH1 Auto-Correlation
1.0,0.025973821058869362
2.0,0.02390124835073948
3.0,0.02213164046406746
4.0,0.02058013156056404
5.0,0.01918896846473217
6.0,0.01797039806842804
7.0,0.016865264624357224
8.0,0.01585978828370571
9.0,0.01498250663280487
10.0,0.014177121222019196
11.0,0.013435457833111286
12.0,0.01270475797355175
13.0,0.012014184147119522
14.0,0.011388221755623817
15.0,0.010833563283085823
16.0,0.010355332866311073
18.0,0.009594591334462166
20.0,0.008904976770281792
22.0,0.008216657675802708
24.0,0.0075233313255012035
26.0,0.006938636768609285
28.0,0.006389250513166189
30.0,0.0059612407349050045
32.0,0.005581492558121681
36.0,0.004958809819072485
40.0,0.0042244442738592625
44.0,0.003674575826153159
48.0,0.003375707194209099
52.0,0.0033356440253555775
56.0,0.0034764022566378117
60.0,0.0034942347556352615
64.0,0.0033251165878027678
72.0,0.0032803863286972046
80.0,0.002612657845020294
88.0,0.0020046222489327192
96.0,0.0017433932516723871
104.0,0.0012346653966233134
112.0,0.0007464264053851366
120.0,0.0006506686913780868
128.0,0.0008214248809963465
144.0,0.0010661906562745571
160.0,0.0010338909924030304
176.0,0.0007162795518524945
192.0,0.0005112543585710227
208.0,0.0006638457416556776
224.0,6.18621488683857e-05
240.0,-0.0006642165244556963
256.0,-0.0015037491684779525
288.0,-0.0015266702976077795
320.0,-0.0017862318782135844
352.0,-0.00010911348363151774
384.0,-0.00020990357734262943
416.0,-0.00027597276493906975
448.0,-0.0007063267985358834
480.0,-0.00029343232745304704
512.0,-0.0007267947657965124
576.0,-0.0010269366903230548
640.0,-0.0005961761344224215
704.0,-1.0801811185956467e-05
768.0,0.0004767057835124433
832.0,-2.5801575247896835e-05
896.0,0.0006390198250301182
960.0,0.000322723324643448
1024.0,-0.0008584577008150518
1152.0,-0.0007008689572103322
1280.0,-0.0006852475344203413
1408.0,-0.0004722054291050881
1536.0,-0.0002521684509702027
1664.0,-0.0003747748560272157
1792.0,0.00077580485958606
1920.0,0.0020133492071181536
2048.0,0.00027146123466081917
2304.0,8.88993963599205e-05
2560.0,-0.0010798269649967551
2816.0,0.0005189216462895274
3072.0,-0.001052083563990891
3328.0,-0.0007790846284478903
3584.0,0.0011580879800021648
3840.0,-0.0005801523802801967
4096.0,-0.0008256987202912569
4608.0,0.00044393111602403224
5120.0,-0.000299967301543802
5632.0,-0.00020156225946266204
6144.0,0.00020386760297697037
6656.0,0.00013060751371085644
7168.0,-0.00032608333276584744
7680.0,-5.8264467952540144e-05
8192.0,0.00043605882092379034
9216.0,-0.0007238229154609144
10240.0,0.00013952056178823113
11264.0,1.804016028472688e-05
12288.0,0.0006988413515500724
13312.0,-1.2381221495161299e-05
14336.0,-0.00011808711860794574
end
