version,3.0
numOfCh,1
type,point
parent_name,2-cuts
ch_type,1_1
kcount,1
numberNandB,1
brightnessNandB,1
carpet pos,0
pc,0
Time (ms),CH1 Auto-Correlation
1.0,0.02749432809650898
2.0,0.025360072031617165
3.0,0.023483851924538612
4.0,0.021823450922966003
5.0,0.020351484417915344
6.0,0.0190021600574255
7.0,0.017787456512451172
8.0,0.016713779419660568
9.0,0.015752017498016357
10.0,0.014901118353009224
11.0,0.014091801829636097
12.0,0.01337597705423832
13.0,0.012779089622199535
14.0,0.0122422119602561
15.0,0.011689309030771255
16.0,0.011163475923240185
18.0,0.010150794871151447
20.0,0.009341023862361908
22.0,0.008604321628808975
24.0,0.007955069653689861
26.0,0.00737797049805522
28.0,0.006752816028892994
30.0,0.006205887533724308
32.0,0.0056545315310359
36.0,0.005046349484473467
40.0,0.004684509709477425
44.0,0.004302093293517828
48.0,0.0038846563547849655
52.0,0.0034492425620555878
56.0,0.0032259912695735693
60.0,0.0028711387421935797
64.0,0.0026469884905964136
72.0,0.0021696670446544886
80.0,0.001688204356469214
88.0,0.001400541514158249
96.0,0.001226557302288711
104.0,0.0014298921450972557
112.0,0.0014614182291552424
120.0,0.0019506649114191532
128.0,0.002466247184202075
144.0,0.0022666871082037687
160.0,0.0010607731528580189
176.0,0.0005424470291472971
192.0,0.0005344053497537971
208.0,0.000746222329325974
224.0,-1.012341954265139e-06
240.0,-0.0014302480267360806
256.0,-0.001523665152490139
288.0,-0.0013474501902237535
320.0,0.0002022163535002619
352.0,-0.0006549525423906744
384.0,-0.0015009170165285468
416.0,-0.0017292712582275271
448.0,-0.0007076686597429216
480.0,-0.0007500798674300313
512.0,-0.0012850448256358504
576.0,-0.0013207116862758994
640.0,-0.000889912829734385
704.0,8.460519893560559e-05
768.0,0.0005827236454933882
832.0,0.0001460229977965355
896.0,0.0005009006126783788
960.0,0.0007540176156908274
1024.0,0.0003251295711379498
1152.0,-0.001352971070446074
1280.0,-0.0013925766106694937
1408.0,-0.00035638222470879555
1536.0,-0.0011647534556686878
1664.0,0.0001747066853567958
1792.0,0.000841429689899087
1920.0,0.0007255243835970759
2048.0,0.00012436254473868757
2304.0,-0.00030992066604085267
2560.0,0.00028387558995746076
2816.0,0.0005168989882804453
3072.0,1.885421443148516e-05
3328.0,0.00031095976009964943
3584.0,0.0005831599119119346
3840.0,-0.0003666484262794256
4096.0,-0.001119054271839559
4608.0,-0.00010351573291700333
5120.0,0.00016117282211780548
5632.0,-0.00027006948948837817
6144.0,-2.328754135305644e-06
6656.0,0.00023512871121056378
7168.0,7.598454249091446e-05
7680.0,-0.0006224660319276154
8192.0,-0.0008095579105429351
9216.0,0.0001228189212270081
10240.0,-0.0002519971167203039
11264.0,0.00033124920446425676
12288.0,-0.00023431189765688032
13312.0,-0.00021054504031781107
14336.0,0.00017641999875195324
end
