version,3.0
numOfCh,1
type,point
parent_name,2-cuts
ch_type,1_1
kcount,1
numberNandB,1
brightnessNandB,1
carpet pos,0
pc,0
Time (ms),CH1 Auto-Correlation
1.0,0.0277247354388237
2.0,0.02552865259349346
3.0,0.023682141676545143
4.0,0.022027945145964622
5.0,0.02062387205660343
6.0,0.0194002203643322
7.0,0.018299486488103867
8.0,0.017324896529316902
9.0,0.016467712819576263
10.0,0.015710962936282158
11.0,0.015039956197142601
12.0,0.01441967487335205
13.0,0.01381372194737196
14.0,0.01320548914372921
15.0,0.01269291527569294
16.0,0.012195609509944916
18.0,0.011362185701727867
20.0,0.010615449398756027
22.0,0.009988801553845406
24.0,0.009450649842619896
26.0,0.009153063409030437
28.0,0.008920537307858467
30.0,0.008705100044608116
32.0,0.008578198961913586
36.0,0.007929956540465355
40.0,0.007270342670381069
44.0,0.006595449522137642
48.0,0.0058003985323011875
52.0,0.005433745216578245
56.0,0.005162859335541725
60.0,0.005020297132432461
64.0,0.004590780474245548
72.0,0.004318147897720337
80.0,0.004255194682627916
88.0,0.004211158957332373
96.0,0.0035057568456977606
104.0,0.0034183659590780735
112.0,0.003385047661140561
120.0,0.00311991642229259
128.0,0.0024271223228424788
144.0,0.00214627874083817
160.0,0.0023041621316224337
176.0,0.0026868029963225126
192.0,0.002589046023786068
208.0,0.0019267800962552428
224.0,0.0009950355160981417
240.0,0.0009445716859772801
256.0,0.0008749315165914595
288.0,0.0009521878673695028
320.0,0.0006949174567125738
352.0,0.0006155656883493066
384.0,0.000464012409793213
416.0,0.000695320894010365
448.0,0.0006229992723092437
480.0,-0.00010160825331695378
512.0,0.0006317962543107569
576.0,4.654141957871616e-05
640.0,-0.0003195278986822814
704.0,-0.00022042394266463816
768.0,-0.00021740348893217742
832.0,-0.000603498425334692
896.0,0.00010115028271684423
960.0,0.0005479628453031182
1024.0,-0.0010892391437664628
1152.0,0.0005617222632281482
1280.0,-5.921587944612838e-05
1408.0,0.0009824847802519798
1536.0,5.6199678510893136e-05
1664.0,-6.951050454517826e-05
1792.0,-0.000441136013250798
1920.0,5.81758504267782e-05
2048.0,5.854045957676135e-05
2304.0,-0.0012747480068355799
2560.0,-0.0006000107969157398
2816.0,-0.00019739673007279634
3072.0,6.401673454092816e-05
3328.0,-0.0006129198591224849
3584.0,-0.0024527369532734156
3840.0,-0.0008391476585529745
4096.0,0.00017510243924334645
4608.0,0.000608437811024487
5120.0,-0.001158344093710184
5632.0,-0.00025029934477061033
6144.0,6.333613418973982e-05
6656.0,-0.00015661564248148352
7168.0,0.00053267867770046
7680.0,0.001659443136304617
8192.0,0.0006049770745448768
9216.0,-8.162158337654546e-05
10240.0,-0.0005647161160595715
11264.0,-0.0018985499627888203
12288.0,-7.324267062358558e-05
13312.0,0.00022735855600330979
14336.0,0.0008237320580519736
end
