version,3.0
numOfCh,1
type,point
parent_name,2-cuts
ch_type,1_1
kcount,1
numberNandB,1
brightnessNandB,1
carpet pos,0
pc,0
Time (ms),CH1 Auto-Correlation
1.0,0.08865348249673843
2.0,0.08202531933784485
3.0,0.0761040598154068
4.0,0.07088213413953781
5.0,0.06638804823160172
6.0,0.062430884689092636
7.0,0.05892431363463402
8.0,0.05594892054796219
9.0,0.053253501653671265
10.0,0.050561584532260895
11.0,0.04802866280078888
12.0,0.04562440142035484
13.0,0.043657656759023666
14.0,0.04183211177587509
15.0,0.03996927663683891
16.0,0.038426872342824936
18.0,0.03589078038930893
20.0,0.033667393028736115
22.0,0.03183271735906601
24.0,0.03026522696018219
26.0,0.028944164514541626
28.0,0.02706635557115078
30.0,0.025494132190942764
32.0,0.024484703317284584
36.0,0.022555850446224213
40.0,0.020386844873428345
44.0,0.017561255022883415
48.0,0.015061738900840282
52.0,0.013020201586186886
56.0,0.011493946425616741
60.0,0.0104275057092309
64.0,0.009635030291974545
72.0,0.007331698667258024
80.0,0.005161460023373365
88.0,0.005972329992800951
96.0,0.005894402042031288
104.0,0.005744574125856161
112.0,0.005507588852196932
120.0,0.006208362057805061
128.0,0.006756594404578209
144.0,0.0036108375061303377
160.0,0.000922554056160152
176.0,1.0218053830612916e-05
192.0,-0.000294962344923988
208.0,0.001618010806851089
224.0,0.001627000980079174
240.0,0.00018598671886138618
256.0,-0.0006389411864802241
288.0,-0.0016588434809818864
320.0,0.0031830542720854282
352.0,0.0008501538541167974
384.0,0.0004093025636393577
416.0,0.004196735564619303
448.0,0.004385431297123432
480.0,0.00042983537423424423
512.0,-0.0017440479714423418
576.0,0.0007277517579495907
640.0,-0.001223791390657425
704.0,0.0019326064502820373
768.0,-0.002783804666250944
832.0,-0.0007248625624924898
896.0,0.001242445781826973
960.0,0.004510351922363043
1024.0,0.004038809798657894
1152.0,-0.0008510129409842193
1280.0,-0.0025323471054434776
1408.0,0.00151400628965348
1536.0,-0.0024748395662754774
1664.0,-0.0024294841568917036
1792.0,0.0014749583788216114
1920.0,0.00043445389019325376
2048.0,-0.003156109480187297
2304.0,0.0009910762310028076
2560.0,-0.002483657095581293
2816.0,0.0005219987942837179
3072.0,0.0017145428573712707
3328.0,-0.00014206462947186083
3584.0,-0.003143321257084608
3840.0,-8.640219311928377e-05
4096.0,0.001918924506753683
4608.0,-0.0006504803313873708
5120.0,0.0006967619410715997
5632.0,0.00213198852725327
6144.0,-0.0021586224902421236
6656.0,-0.001907956670038402
7168.0,-0.0024650460109114647
7680.0,0.001998115098103881
8192.0,0.0005883676931262016
9216.0,-0.004155842587351799
10240.0,-0.0008579231216572225
11264.0,0.0013593658804893494
12288.0,0.0021569456439465284
13312.0,0.0017529464093968272
14336.0,-0.00250441487878561
end
