version,3.0
numOfCh,1
type,point
parent_name,2-cuts
ch_type,1_1
kcount,1
numberNandB,1
brightnessNandB,1
carpet pos,0
pc,0
Time (ms),CH1 Auto-Correlation
1.0,0.04415057227015495
2.0,0.04089146852493286
3.0,0.03804206848144531
4.0,0.03559677675366402
5.0,0.03349064290523529
6.0,0.03168671205639839
7.0,0.030054297298192978
8.0,0.02863047644495964
9.0,0.02737586386501789
10.0,0.02621464617550373
11.0,0.02506502903997898
12.0,0.023941390216350555
13.0,0.022829608991742134
14.0,0.021842677146196365
15.0,0.02088591828942299
16.0,0.020042039453983307
18.0,0.018634354695677757
20.0,0.017345933243632317
22.0,0.016223862767219543
24.0,0.015268746763467789
26.0,0.014401733875274658
28.0,0.013697369955480099
30.0,0.01322195865213871
32.0,0.01281092781573534
36.0,0.011849082075059414
40.0,0.011312426999211311
44.0,0.011039750650525093
48.0,0.010453419759869576
52.0,0.009488641284406185
56.0,0.008819892071187496
60.0,0.00826526340097189
64.0,0.007744814734905958
72.0,0.00677200173959136
80.0,0.0054350742138922215
88.0,0.003536510281264782
96.0,0.0018285071710124612
104.0,0.000745784433092922
112.0,0.000653035705909133
120.0,0.0013090289430692792
128.0,0.001402426976710558
144.0,0.000794542080257088
160.0,0.0006180552300065756
176.0,-0.00020479277009144425
192.0,-0.00022049194376450032
208.0,0.0010069826385006309
224.0,0.001294095884077251
240.0,0.0016427746741101146
256.0,0.001496228389441967
288.0,0.002572990022599697
320.0,0.0017136753303930163
352.0,0.0014318928588181734
384.0,0.0022354722023010254
416.0,0.0016967215342447162
448.0,0.0016694280784577131
480.0,0.0015309581067413092
512.0,0.0010782094905152917
576.0,0.0013947506668046117
640.0,0.001261097495444119
704.0,0.0011659667361527681
768.0,-0.00043107973760925233
832.0,0.0009317644289694726
896.0,0.0018470645882189274
960.0,0.0015272102318704128
1024.0,0.00210411730222404
1152.0,0.002501767361536622
1280.0,0.0016471728449687362
1408.0,0.0022101819049566984
1536.0,0.00319376727566123
1664.0,0.0008032202022150159
1792.0,0.0007202066481113434
1920.0,4.25482721766457e-06
2048.0,0.0001536489144200459
2304.0,-0.00015706149861216545
2560.0,0.0008655805722810328
2816.0,0.0003130111435893923
3072.0,-0.002457433845847845
3328.0,-0.0017257046420127153
3584.0,0.0004050398711115122
3840.0,-0.0008585028117522597
4096.0,-0.001168564660474658
4608.0,-0.001978004351258278
5120.0,0.0007883451762609184
5632.0,-0.0024305449333041906
6144.0,0.0001477082259953022
6656.0,-0.00020849963766522706
7168.0,-0.000729847582988441
7680.0,-0.0004926769761368632
8192.0,-0.002299770712852478
9216.0,-0.002724727615714073
10240.0,-0.001790777430869639
11264.0,0.00018786362488754094
12288.0,0.0022185207344591618
13312.0,0.0036753015592694283
14336.0,0.0010724124731495976
end
