version,3.0
numOfCh,1
type,point
parent_name,2-cuts
ch_type,1_1
kcount,1
numberNandB,1
brightnessNandB,1
carpet pos,0
pc,0
Time (ms),CH1 Auto-Correlation
1.0,0.08864425867795944
2.0,0.08210969716310501
3.0,0.0766330361366272
4.0,0.0720134899020195
5.0,0.06787869334220886
6.0,0.06415408104658127
7.0,0.06082770228385925
8.0,0.05776742473244667
9.0,0.0552007257938385
10.0,0.052856072783470154
11.0,0.05078556388616562
12.0,0.048734478652477264
13.0,0.04683437943458557
14.0,0.045085273683071136
15.0,0.04331544041633606
16.0,0.04183901473879814
18.0,0.03914206475019455
20.0,0.036898575723171234
22.0,0.035167891532182693
24.0,0.03361770138144493
26.0,0.03208696097135544
28.0,0.03089282475411892
30.0,0.02977306954562664
32.0,0.028790174052119255
36.0,0.026818761602044106
40.0,0.024763816967606544
44.0,0.02317209728062153
48.0,0.021946916356682777
52.0,0.02162659354507923
56.0,0.02162749692797661
60.0,0.02068660780787468
64.0,0.019130108878016472
72.0,0.017560360953211784
80.0,0.015598516911268234
88.0,0.014018170535564423
96.0,0.013018433935940266
104.0,0.011897549964487553
112.0,0.01155153103172779
120.0,0.010782083496451378
128.0,0.009575684554874897
144.0,0.007886826060712337
160.0,0.008411657065153122
176.0,0.007677937857806683
192.0,0.007353637833148241
208.0,0.006522661540657282
224.0,0.007399784866720438
240.0,0.0059096417389810085
256.0,0.005445464979857206
288.0,0.0026828250847756863
320.0,0.002500430913642049
352.0,0.004124470520764589
384.0,0.0048351893201470375
416.0,0.006633169949054718
448.0,0.0075801364146173
480.0,0.005311318673193455
512.0,0.0031662005931138992
576.0,0.0026095767971128225
640.0,0.004952747840434313
704.0,0.0006725614657625556
768.0,0.0007036568131297827
832.0,0.0006715386407449841
896.0,0.0010107444832101464
960.0,0.0007970667793415487
1024.0,0.0031101389322429895
1152.0,-0.002438189461827278
1280.0,-0.005766294896602631
1408.0,-0.0024063983000814915
1536.0,-0.006504169665277004
1664.0,-0.010221435688436031
1792.0,-0.009556839242577553
1920.0,-0.005422758869826794
2048.0,-0.0019056585151702166
2304.0,-0.007192926947027445
2560.0,-0.0001169319948530756
2816.0,-0.0012490401277318597
3072.0,0.003956387750804424
3328.0,0.0006779924151487648
3584.0,0.003208352252840996
3840.0,0.0010124070104211569
4096.0,0.0010696660028770566
4608.0,-0.00025358106358908117
5120.0,-0.000885616522282362
5632.0,0.001250789500772953
6144.0,-0.000251269229920581
6656.0,0.0001967852294910699
7168.0,-0.0004852629208471626
7680.0,0.002876019338145852
8192.0,0.002666583051905036
9216.0,-0.006190803833305836
10240.0,-0.0026274342089891434
11264.0,0.012172460556030273
12288.0,-0.0011897101067006588
13312.0,-0.01261801179498434
14336.0,0.0008364742971025407
end
