version,3.0
numOfCh,1
type,point
parent_name,2-cuts
ch_type,1_1
kcount,1
numberNandB,1
brightnessNandB,1
carpet pos,0
pc,0
Time (ms),CH1 Auto-Correlation
1.0,0.04057730734348297
2.0,0.03740150108933449
3.0,0.03461334481835365
4.0,0.03219213709235191
5.0,0.030090512707829475
6.0,0.028253305703401566
7.0,0.026648422703146935
8.0,0.02518678642809391
9.0,0.023925529792904854
10.0,0.022828537970781326
11.0,0.02179567702114582
12.0,0.020753322169184685
13.0,0.019843237474560738
14.0,0.018996654078364372
15.0,0.01824265532195568
16.0,0.01747581735253334
18.0,0.0163060761988163
20.0,0.015363804996013641
22.0,0.014630239456892014
24.0,0.013852469623088837
26.0,0.013186046853661537
28.0,0.012724358588457108
30.0,0.012255783192813396
32.0,0.011765513569116592
36.0,0.011174331419169903
40.0,0.010680466890335083
44.0,0.010402154177427292
48.0,0.00983711052685976
52.0,0.00911812111735344
56.0,0.008391872979700565
60.0,0.0078941211104393
64.0,0.007627921178936958
72.0,0.0068094064481556416
80.0,0.006174287758767605
88.0,0.005768557544797659
96.0,0.005431832745671272
104.0,0.005891643930226564
112.0,0.0063825552351772785
120.0,0.006079896818846464
128.0,0.005344159435480833
144.0,0.00319799967110157
160.0,0.002706323517486453
176.0,0.0025238925591111183
192.0,0.0025126615073531866
208.0,0.002261353889480233
224.0,0.0010379875311627984
240.0,0.0010741094592958689
256.0,0.0015962364850565791
288.0,-0.0004108731518499553
320.0,-0.0015778635861352086
352.0,-0.0005458242376334965
384.0,-0.0004178050730843097
416.0,0.000494853185955435
448.0,0.000904559507034719
480.0,0.0011549744522199035
512.0,0.0019090678542852402
576.0,0.0025969352573156357
640.0,0.003562116762623191
704.0,0.0014460997190326452
768.0,-0.0003844152670353651
832.0,-0.00036509084748104215
896.0,0.0007556603522971272
960.0,0.0009671473526395857
1024.0,0.0013764648465439677
1152.0,0.0017778272740542889
1280.0,0.001692739431746304
1408.0,0.001870971405878663
1536.0,0.0018461832078173757
1664.0,-0.0014963907888159156
1792.0,-0.0007816459401510656
1920.0,0.00033405612339265645
2048.0,0.0016468130052089691
2304.0,-0.0015541866887360811
2560.0,-0.002354728290811181
2816.0,-0.0032491132151335478
3072.0,-0.0013184085255488753
3328.0,-0.0014151304494589567
3584.0,-0.002525059971958399
3840.0,-0.0048866732977330685
4096.0,-0.0012078022118657827
4608.0,-0.00028307107277214527
5120.0,0.0012498273281380534
5632.0,0.0010426734806969762
6144.0,0.0011437806533649564
6656.0,0.0021694370079785585
7168.0,0.0014877200592309237
7680.0,0.0008244078489951789
8192.0,-0.0006870169308967888
9216.0,-0.00187797995749861
10240.0,-0.0018493535462766886
11264.0,-0.0008048723102547228
12288.0,0.0010758944554254413
13312.0,0.00037353471270762384
14336.0,0.001141255721449852
end
