version,3.0
numOfCh,1
type,point
parent_name,2-cuts
ch_type,1_1
kcount,1
numberNandB,1
brightnessNandB,1
carpet pos,0
pc,0
Time (ms),CH1 Auto-Correlation
1.0,0.040676772594451904
2.0,0.037360262125730515
3.0,0.0345190167427063
4.0,0.03211598098278046
5.0,0.02994883432984352
6.0,0.028043551370501518
7.0,0.026379572227597237
8.0,0.024919815361499786
9.0,0.02362239919602871
10.0,0.022478371858596802
11.0,0.021300047636032104
12.0,0.020274771377444267
13.0,0.01939653605222702
14.0,0.01867547072470188
15.0,0.017869047820568085
16.0,0.016966043040156364
18.0,0.015458432026207447
20.0,0.01419017743319273
22.0,0.01326774712651968
24.0,0.012339040637016296
26.0,0.01154100988060236
28.0,0.010822976939380169
30.0,0.010196095332503319
32.0,0.009547458961606026
36.0,0.008331100456416607
40.0,0.0073804729618132114
44.0,0.006713465321809053
48.0,0.00583031727001071
52.0,0.005204580724239349
56.0,0.004968977998942137
60.0,0.0045377216301858425
64.0,0.004330013412982225
72.0,0.004270069766789675
80.0,0.004373027011752129
88.0,0.004977045580744743
96.0,0.005287950858473778
104.0,0.005245562642812729
112.0,0.005062997341156006
120.0,0.004757164511829615
128.0,0.004271003417670727
144.0,0.0027165047358721495
160.0,0.0012126801302656531
176.0,0.0008265703218057752
192.0,0.0007605413557030261
208.0,-7.140528759919107e-05
224.0,-0.001969829434528947
240.0,-0.0012865079334005713
256.0,-0.001488457783125341
288.0,-0.0013560308143496513
320.0,-0.001860289485193789
352.0,-0.002860406180843711
384.0,-0.0015634215669706464
416.0,-0.0018421682761982083
448.0,-0.0017955300863832235
480.0,-0.0009825992165133357
512.0,2.331938776478637e-05
576.0,0.0005771766300313175
640.0,-0.0009713511099107563
704.0,-2.6570569389150478e-05
768.0,-0.0006498164730146527
832.0,-0.0006870167562738061
896.0,-0.0018276750342920423
960.0,-0.0020929325837641954
1024.0,-0.0008840354857966304
1152.0,-7.518380880355835e-05
1280.0,-0.00021436240058392286
1408.0,-0.002070161048322916
1536.0,-0.0007604364072903991
1664.0,-0.0008177938289009035
1792.0,0.0008186465711332858
1920.0,0.001079943380318582
2048.0,-0.0005925963050685823
2304.0,8.719761535758153e-05
2560.0,-8.245447133958805e-06
2816.0,-0.0017747561214491725
3072.0,0.0009833179647102952
3328.0,6.608022522414103e-05
3584.0,0.0008158504497259855
3840.0,-0.0007081914227455854
4096.0,0.0015172890853136778
4608.0,-0.00017526827286928892
5120.0,-0.00014457516954280436
5632.0,-0.000703604833688587
6144.0,-0.0002521692658774555
6656.0,-0.00044623870053328574
7168.0,0.0008731778361834586
7680.0,2.0537225282168947e-05
8192.0,-0.00031597193446941674
9216.0,-0.0005346120451577008
10240.0,9.404025331605226e-05
11264.0,0.00032960291719064116
12288.0,-0.00044369668466970325
13312.0,0.0006203421507962048
14336.0,-0.0002302479260833934
end
