version,3.0
numOfCh,1
type,point
parent_name,2-cuts
ch_type,1_1
kcount,1
numberNandB,1
brightnessNandB,1
carpet pos,0
pc,0
Time (ms),CH1 Auto-Correlation
1.0,0.04212314262986183
2.0,0.038865383714437485
3.0,0.03598417714238167
4.0,0.033562831580638885
5.0,0.03152216598391533
6.0,0.02966882474720478
7.0,0.028075478971004486
8.0,0.026694083586335182
9.0,0.02549496665596962
10.0,0.024438880383968353
11.0,0.023437509313225746
12.0,0.022477971389889717
13.0,0.021646585315465927
14.0,0.020923053845763206
15.0,0.020252583548426628
16.0,0.01955876499414444
18.0,0.018246851861476898
20.0,0.016991134732961655
22.0,0.016005223616957664
24.0,0.015115957707166672
26.0,0.014229140244424343
28.0,0.013406073674559593
30.0,0.012806064449250698
32.0,0.012188305146992207
36.0,0.01057644747197628
40.0,0.009422721341252327
44.0,0.008433769457042217
48.0,0.007199613843113184
52.0,0.006474263034760952
56.0,0.005779115948826075
60.0,0.0053034150041639805
64.0,0.004966413602232933
72.0,0.004285753238946199
80.0,0.003928337246179581
88.0,0.0028991682920604944
96.0,0.0027863390278071165
104.0,0.0024333668407052755
112.0,0.0015261960215866566
120.0,0.0014005460543558002
128.0,0.0018606714438647032
144.0,0.0028919302858412266
160.0,0.002682687249034643
176.0,0.0019692082423716784
192.0,0.001243953942321241
208.0,0.0008752403082326055
224.0,0.0005555870593525469
240.0,0.0016649942845106125
256.0,0.002034472767263651
288.0,-0.0001927011035149917
320.0,-0.0019446925725787878
352.0,-0.0016993435565382242
384.0,-0.0010170700261369348
416.0,0.0004982440150342882
448.0,0.0008259590249508619
480.0,0.00031298675457946956
512.0,-0.0008742616046220064
576.0,-0.0007241431158035994
640.0,-0.0013146650744602084
704.0,0.000236351479543373
768.0,-0.0024899833370000124
832.0,-0.0014520660042762756
896.0,-0.0006673585739918053
960.0,0.0002853375917766243
1024.0,-0.001237979275174439
1152.0,-0.0008177977870218456
1280.0,-0.0021053042728453875
1408.0,-0.001479585305787623
1536.0,-0.0017699432792142034
1664.0,-0.00023302139015868306
1792.0,0.000292357086436823
1920.0,0.001080076559446752
2048.0,0.000989276566542685
2304.0,-0.000733601045794785
2560.0,-0.0002946500899270177
2816.0,0.002131551271304488
3072.0,0.001914336928166449
3328.0,0.0005708396201953292
3584.0,-0.00018640801135916263
3840.0,0.00019221080583520234
4096.0,-0.00041258547571487725
4608.0,-0.00027326331473886967
5120.0,-0.002206495264545083
5632.0,0.0005334343877620995
6144.0,0.0014147571055218577
6656.0,0.0012223039520904422
7168.0,-0.00211475882679224
7680.0,0.000674129172693938
8192.0,-0.003098396584391594
9216.0,0.0003502585750538856
10240.0,-0.0007816271972842515
11264.0,-0.0004032849392388016
12288.0,0.00014555532834492624
13312.0,0.0001689294003881514
14336.0,0.00024524846230633557
end
