version,3.0
numOfCh,1
type,point
parent_name,2-cuts
ch_type,1_1
kcount,1
numberNandB,1
brightnessNandB,1
carpet pos,0
pc,0
Time (ms),CH1 Auto-Correlation
1.0,0.04046867787837982
2.0,0.03719430789351463
3.0,0.0343947559595108
4.0,0.03196539729833603
5.0,0.02983500435948372
6.0,0.02790633961558342
7.0,0.026075299829244614
8.0,0.02445460669696331
9.0,0.023015236482024193
10.0,0.021731195971369743
11.0,0.020518474280834198
12.0,0.01945335604250431
13.0,0.01844901405274868
14.0,0.017527202144265175
15.0,0.016697676852345467
16.0,0.015967434272170067
18.0,0.014723969623446465
20.0,0.0136348195374012
22.0,0.012842073105275631
24.0,0.012080925516784191
26.0,0.011461702175438404
28.0,0.010958784259855747
30.0,0.010432051494717598
32.0,0.010068613104522228
36.0,0.00879745464771986
40.0,0.007577827665954828
44.0,0.006898635067045689
48.0,0.006511315703392029
52.0,0.006038081366568804
56.0,0.005637289024889469
60.0,0.005152455065399408
64.0,0.0047710975632071495
72.0,0.005141041241586208
80.0,0.005141520872712135
88.0,0.00457770237699151
96.0,0.0035087470896542072
104.0,0.00259306188672781
112.0,0.0023132702335715294
120.0,0.0020771236158907413
128.0,0.0019432773115113378
144.0,0.0017410828731954098
160.0,0.001312809414230287
176.0,0.0003895699046552181
192.0,-0.0006842307629995048
208.0,-0.0009217015467584133
224.0,-0.0014876534696668386
240.0,-0.0014976452803239226
256.0,-0.00013782441965304315
288.0,-0.0003742219996638596
320.0,-0.0007146309362724423
352.0,0.0005942543502897024
384.0,-0.00019330158829689026
416.0,-0.0003698177170008421
448.0,-0.001283869263716042
480.0,-0.00016789542860351503
512.0,-0.0005575706600211561
576.0,-0.0015141827752813697
640.0,-0.002023133682087064
704.0,-0.0011088812025263906
768.0,-0.00044143403647467494
832.0,-0.0003066960780415684
896.0,-0.0007378934533335268
960.0,-0.0014597123954445124
1024.0,-0.0025092759169638157
1152.0,-0.00023752877314109355
1280.0,0.0004257307155057788
1408.0,-0.00014455449127126485
1536.0,0.00160211231559515
1664.0,0.0016963128000497818
1792.0,-0.000554038560949266
1920.0,-0.0020744027569890022
2048.0,-0.0011020934907719493
2304.0,-0.00012440637510735542
2560.0,0.0008556251414120197
2816.0,0.00025944155640900135
3072.0,-0.0015374714275822043
3328.0,0.0001248065527761355
3584.0,0.0007993775070644915
3840.0,-0.00016214764036703855
4096.0,9.557270823279396e-05
4608.0,0.000258430780377239
5120.0,0.000757528527174145
5632.0,-0.000917000521440059
6144.0,-0.0005736422608606517
6656.0,0.000320847932016477
7168.0,0.0005991680081933737
7680.0,-9.424205200048164e-05
8192.0,-0.0010161094833165407
9216.0,0.0006531413528136909
10240.0,-0.0015879403799772263
11264.0,0.00040412190719507635
12288.0,0.0011776002356782556
13312.0,-0.0017874222248792648
14336.0,0.0002743057848419994
end
