version,3.0
numOfCh,1
type,point
parent_name,2-cuts
ch_type,1_1
kcount,1
numberNandB,1
brightnessNandB,1
carpet pos,0
pc,0
Time (ms),CH1 Auto-Correlation
1.0,0.08699654787778854
2.0,0.08008366823196411
3.0,0.07411900162696838
4.0,0.06897657364606857
5.0,0.06445380300283432
6.0,0.060507882386446
7.0,0.0570075660943985
8.0,0.05395688861608505
9.0,0.05113261193037033
10.0,0.048702728003263474
11.0,0.04666232690215111
12.0,0.04515455290675163
13.0,0.04365278407931328
14.0,0.042295873165130615
15.0,0.040746983140707016
16.0,0.03930475935339928
18.0,0.03690541535615921
20.0,0.03482753410935402
22.0,0.033080898225307465
24.0,0.0315951369702816
26.0,0.03014724887907505
28.0,0.02874363586306572
30.0,0.027548005804419518
32.0,0.026475170627236366
36.0,0.023678742349147797
40.0,0.021771308034658432
44.0,0.020091528072953224
48.0,0.019244350492954254
52.0,0.01814114861190319
56.0,0.015714194625616074
60.0,0.013836740516126156
64.0,0.01270432211458683
72.0,0.01085767149925232
80.0,0.008485831320285797
88.0,0.007733888924121857
96.0,0.007659508381038904
104.0,0.006905833259224892
112.0,0.005013836547732353
120.0,0.0036779369693249464
128.0,0.0042376029305160046
144.0,0.0031292825005948544
160.0,0.0026351758278906345
176.0,0.0034912903793156147
192.0,0.003879629075527191
208.0,0.003262988291680813
224.0,0.002295426558703184
240.0,0.0015439004637300968
256.0,2.402657992206514e-05
288.0,0.0002441736578475684
320.0,0.002005130285397172
352.0,0.0013827269431203604
384.0,0.002628295449540019
416.0,0.004362615291029215
448.0,0.0022344014141708612
480.0,0.0008278860477730632
512.0,0.005375425796955824
576.0,0.005087021738290787
640.0,0.0012521327007561922
704.0,0.0011562719009816647
768.0,0.0004283428133931011
832.0,0.0012642663205042481
896.0,-0.0009251261944882572
960.0,-0.0007866273517720401
1024.0,-0.0022426475770771503
1152.0,0.002509644953534007
1280.0,-1.804090425139293e-05
1408.0,0.0031428819056600332
1536.0,0.003755691461265087
1664.0,-0.0012320001842454076
1792.0,0.001796272350475192
1920.0,-0.002312152413651347
2048.0,0.00023157995019573718
2304.0,-0.002224762924015522
2560.0,-0.0013057661708444357
2816.0,-0.0012999353930354118
3072.0,-0.003697959939017892
3328.0,0.00015842630818951875
3584.0,-0.0013615221250802279
3840.0,0.00022775268007535487
4096.0,-6.588653923245147e-05
4608.0,0.0003369453188497573
5120.0,0.00118007673881948
5632.0,-0.002462611300870776
6144.0,-0.0036643717903643847
6656.0,0.0010166168212890625
7168.0,-0.004793672356754541
7680.0,-0.0054579926654696465
8192.0,0.00014753043069504201
9216.0,5.01183167216368e-05
10240.0,0.0026326358783990145
11264.0,0.002264015143737197
12288.0,0.0009429104975424707
13312.0,-0.001080546178855002
14336.0,-0.001964385388419032
end
