version,3.0
numOfCh,1
type,point
parent_name,2-cuts
ch_type,1_1
kcount,1
numberNandB,1
brightnessNandB,1
carpet pos,0
pc,0
Time (ms),CH1 Auto-Correlation
1.0,0.08797173947095871
2.0,0.08114402741193771
3.0,0.07542692124843597
4.0,0.07053450495004654
5.0,0.06626223027706146
6.0,0.06250763684511185
7.0,0.05921817198395729
8.0,0.056308992207050323
9.0,0.05350237712264061
10.0,0.05091698840260506
11.0,0.04859176278114319
12.0,0.04646066576242447
13.0,0.044304028153419495
14.0,0.04252004250884056
15.0,0.04104486107826233
16.0,0.03949099779129028
18.0,0.03691805154085159
20.0,0.03459163010120392
22.0,0.03268516808748245
24.0,0.030908966436982155
26.0,0.029172047972679138
28.0,0.02726650983095169
30.0,0.025433862581849098
32.0,0.023970993235707283
36.0,0.02154429443180561
40.0,0.019946377724409103
44.0,0.0183599554002285
48.0,0.016872122883796692
52.0,0.015944700688123703
56.0,0.014701278880238533
60.0,0.01316211000084877
64.0,0.011452863924205303
72.0,0.010540951043367386
80.0,0.009092980995774269
88.0,0.008365022018551826
96.0,0.006316309329122305
104.0,0.004421187099069357
112.0,0.0034992287401109934
120.0,0.0026685893535614014
128.0,0.003766281995922327
144.0,0.003767154412344098
160.0,0.003495350480079651
176.0,0.0009895050898194313
192.0,-0.00039993503014557064
208.0,-0.0018526407657191157
224.0,-0.0012484086910262704
240.0,-0.0005661644390784204
256.0,-0.00045184441842138767
288.0,-0.003569695632904768
320.0,-0.0018068223726004362
352.0,-0.0022412813268601894
384.0,-0.0038865136448293924
416.0,-0.003945608623325825
448.0,-0.0024981549941003323
480.0,-0.003261174773797393
512.0,-0.00032161996932700276
576.0,0.0009819086408242583
640.0,-0.0008966667810454965
704.0,-0.002328903181478381
768.0,6.522273906739429e-05
832.0,0.0029236916452646255
896.0,0.0035169373732060194
960.0,0.0073759169317781925
1024.0,0.005312519147992134
1152.0,-0.0027749405708163977
1280.0,-0.001709831296466291
1408.0,-0.0004968820721842349
1536.0,0.0016535924514755607
1664.0,-0.001747281290590763
1792.0,0.001366842887364328
1920.0,0.003356689354404807
2048.0,0.0009395108208991587
2304.0,-0.0037324687000364065
2560.0,0.0011532441712915897
2816.0,0.0025039317552000284
3072.0,-0.0027821953408420086
3328.0,-0.002357052406296134
3584.0,0.00012410487397573888
3840.0,0.0005050818435847759
4096.0,-0.0025601086672395468
4608.0,0.001307929982431233
5120.0,0.0016264242585748434
5632.0,0.0017721515614539385
6144.0,0.001191233517602086
6656.0,0.0006711439928039908
7168.0,0.00014320053742267191
7680.0,-0.0005180541193112731
8192.0,-0.0017957765376195312
9216.0,-0.003253719536587596
10240.0,-0.00016937099280767143
11264.0,1.3031132766627707e-05
12288.0,-0.0010221627308055758
13312.0,0.0009619120392017066
14336.0,-0.006361340172588825
end
