version,3.0
numOfCh,1
type,point
parent_name,2-cuts
ch_type,1_1
kcount,1
numberNandB,1
brightnessNandB,1
carpet pos,0
pc,0
Time (ms),CH1 Auto-Correlation
1.0,0.026229843497276306
2.0,0.024086853489279747
3.0,0.02225675620138645
4.0,0.020690500736236572
5.0,0.019279899075627327
6.0,0.01804683916270733
7.0,0.017051393166184425
8.0,0.016161730512976646
9.0,0.015313247218728065
10.0,0.014523904770612717
11.0,0.013856744393706322
12.0,0.013186623342335224
13.0,0.0125505356118083
14.0,0.011975551955401897
15.0,0.01139166671782732
16.0,0.010862278752028942
18.0,0.00990466121584177
20.0,0.0090534882619977
22.0,0.008321011438965797
24.0,0.007826477289199829
26.0,0.007455626502633095
28.0,0.007088312413543463
30.0,0.0066061802208423615
32.0,0.006291766185313463
36.0,0.005866950377821922
40.0,0.005501912906765938
44.0,0.005070536397397518
48.0,0.004557115025818348
52.0,0.004112620372325182
56.0,0.0035320075694471598
60.0,0.0031727610621601343
64.0,0.002941628685221076
72.0,0.0025357077829539776
80.0,0.002035612938925624
88.0,0.0014225338818505406
96.0,0.0008370155701413751
104.0,0.0004909951821900904
112.0,0.00031410829978995025
120.0,0.00030399972456507385
128.0,0.0005485142464749515
144.0,8.316851017298177e-05
160.0,-8.973481453722343e-05
176.0,-0.0007670542108826339
192.0,-0.0009592152200639248
208.0,-0.00011441872629802674
224.0,8.322689609485678e-06
240.0,0.0004471785214263946
256.0,0.00011241625907132402
288.0,-0.00016668348689563572
320.0,-0.0008927171002142131
352.0,-0.00023753763525746763
384.0,0.0010520740179345012
416.0,0.0008401599479839206
448.0,-0.00021937364363111556
480.0,-0.00020402282825671136
512.0,-0.0001881374337244779
576.0,-0.0005361441290006042
640.0,0.0003759005048777908
704.0,-7.15878268238157e-05
768.0,-0.0004911802243441343
832.0,-0.000774423882830888
896.0,-0.00018680399807635695
960.0,0.00044407733366824687
1024.0,0.000504175724927336
1152.0,-0.0003780259285122156
1280.0,-0.0010114195756614208
1408.0,0.0003435449907556176
1536.0,0.0007401356706395745
1664.0,0.0006529610836878419
1792.0,-0.00010464953084010631
1920.0,-4.5351356675382704e-05
2048.0,0.00018089072545990348
2304.0,0.00023058854276314378
2560.0,-0.00019727657490875572
2816.0,-0.001788771478459239
3072.0,-0.0005366095574572682
3328.0,0.00032817170722410083
3584.0,4.8584282922092825e-05
3840.0,-0.00022612354950979352
4096.0,0.00017745931108947843
4608.0,-0.00012011708167847246
5120.0,0.0004009827971458435
5632.0,0.00021543925686273724
6144.0,-0.0005198317812755704
6656.0,0.00030545316985808313
7168.0,0.00023349218827206641
7680.0,-0.0007709999335929751
8192.0,0.00046493616537190974
9216.0,0.00039443880086764693
10240.0,-1.2220757525938097e-05
11264.0,-0.0003704433038365096
12288.0,-0.0007186659495346248
13312.0,-0.0005339668714441359
14336.0,0.00015022350999061018
end
