version,3.0
numOfCh,1
type,point
parent_name,2-cuts
ch_type,1_1
kcount,1
numberNandB,1
brightnessNandB,1
carpet pos,0
pc,0
Time (ms),CH1 Auto-Correlation
1.0,0.027457287535071373
2.0,0.025270918384194374
3.0,0.02337448112666607
4.0,0.02167614735662937
5.0,0.02021014504134655
6.0,0.018862087279558182
7.0,0.017682621255517006
8.0,0.01662028580904007
9.0,0.015671122819185257
10.0,0.01486977282911539
11.0,0.014121848158538342
12.0,0.013458010740578175
13.0,0.012860490009188652
14.0,0.012296651490032673
15.0,0.011727378703653812
16.0,0.01120466087013483
18.0,0.010383852757513523
20.0,0.00975805800408125
22.0,0.009150166995823383
24.0,0.008641554974019527
26.0,0.008145085535943508
28.0,0.00767676904797554
30.0,0.007181869819760323
32.0,0.006714382208883762
36.0,0.00583276990801096
40.0,0.005185137037187815
44.0,0.004826050251722336
48.0,0.004457773640751839
52.0,0.004132180009037256
56.0,0.003603043034672737
60.0,0.0032148752361536026
64.0,0.0030772355385124683
72.0,0.002779977163299918
80.0,0.0021302984096109867
88.0,0.001523103448562324
96.0,0.0011524880537763238
104.0,0.0013072449946776032
112.0,0.0011753072030842304
120.0,0.0012808067258447409
128.0,0.0016958847409114242
144.0,0.0018871971406042576
160.0,0.0015171164413914084
176.0,0.0012930366210639477
192.0,0.001345922937616706
208.0,0.0009694442269392312
224.0,0.0006782238488085568
240.0,0.0007825231878086925
256.0,0.0010748372878879309
288.0,0.0011456236243247986
320.0,0.0018350416794419289
352.0,0.0013880494516342878
384.0,0.0004212746862322092
416.0,-0.00025575439212843776
448.0,-0.00011032308975700289
480.0,-5.049940227763727e-05
512.0,-0.00010453816503286362
576.0,0.0001579899835633114
640.0,-0.00023149908520281315
704.0,-4.576569335767999e-05
768.0,-0.00013380312884692103
832.0,-0.0003618605260271579
896.0,-0.0005736554157920182
960.0,-0.0019272153731435537
1024.0,-0.00187865539919585
1152.0,-0.0005753563600592315
1280.0,-0.0014164283638820052
1408.0,0.00018435461970511824
1536.0,0.00046147278044372797
1664.0,0.0012434051604941487
1792.0,0.0014954215148463845
1920.0,0.0009331565233878791
2048.0,0.000991437234915793
2304.0,0.0003679179644677788
2560.0,-0.00025037521845661104
2816.0,-0.0007930752472020686
3072.0,-0.0009281287202611566
3328.0,7.794415432726964e-05
3584.0,0.0007037214236333966
3840.0,0.0008508946630172431
4096.0,0.00013735894754063338
4608.0,-0.000519527297001332
5120.0,-0.0010924185626208782
5632.0,7.192396878963336e-05
6144.0,0.00016589877486694604
6656.0,-0.001299549825489521
7168.0,-0.0007963883108459413
7680.0,4.6259319788077846e-05
8192.0,0.0002800384536385536
9216.0,3.162862776662223e-05
10240.0,0.0002624194894451648
11264.0,9.665393736213446e-05
12288.0,-0.0004347806971054524
13312.0,-0.00014271208783611655
14336.0,0.0007999617955647409
end
