version,3.0
numOfCh,1
type,point
parent_name,2-cuts
ch_type,1_1
kcount,1
numberNandB,1
brightnessNandB,1
carpet pos,0
pc,0
Time (ms),CH1 Auto-Correlation
1.0,0.0879252478480339
2.0,0.08091723918914795
3.0,0.07499950379133224
4.0,0.06972861289978027
5.0,0.06506829708814621
6.0,0.060979269444942474
7.0,0.05740685388445854
8.0,0.05422622337937355
9.0,0.05141953378915787
10.0,0.04889490455389023
11.0,0.04671239107847214
12.0,0.04462551325559616
13.0,0.04281381890177727
14.0,0.04094969481229782
15.0,0.039304185658693314
16.0,0.03770265728235245
18.0,0.03486282378435135
20.0,0.03232753649353981
22.0,0.02996024861931801
24.0,0.02764894627034664
26.0,0.02565857581794262
28.0,0.02407917194068432
30.0,0.023162776604294777
32.0,0.022109225392341614
36.0,0.01969662308692932
40.0,0.017318345606327057
44.0,0.015000659972429276
48.0,0.01266398560255766
52.0,0.01142268255352974
56.0,0.010784035548567772
60.0,0.010754209011793137
64.0,0.010197033174335957
72.0,0.008151301182806492
80.0,0.007257482036948204
88.0,0.006918378174304962
96.0,0.0075440662913024426
104.0,0.006750612519681454
112.0,0.006433265749365091
120.0,0.00643516518175602
128.0,0.005812822841107845
144.0,0.0032069156877696514
160.0,0.001362291513942182
176.0,0.001585914520546794
192.0,0.0025400950107723475
208.0,0.0025287980679422617
224.0,0.0022702105343341827
240.0,0.0030778408981859684
256.0,0.003949237521737814
288.0,0.0043993378058075905
320.0,0.0017204292817041278
352.0,-0.00028432245017029345
384.0,-0.00041534192860126495
416.0,-0.000617438810877502
448.0,-0.004593993071466684
480.0,-0.004700126592069864
512.0,-0.005177134182304144
576.0,-0.0022149367723613977
640.0,0.0021211106795817614
704.0,-0.0008871204918250442
768.0,-0.00042677586316131055
832.0,0.0032312064431607723
896.0,0.005173027515411377
960.0,0.0047720870934426785
1024.0,0.0039545814506709576
1152.0,0.004990442655980587
1280.0,-0.0004114242328796536
1408.0,-0.0017359182238578796
1536.0,-0.004302700981497765
1664.0,0.00045662233605980873
1792.0,0.0025985976681113243
1920.0,-0.0035571197513490915
2048.0,-0.00030180293833836913
2304.0,-6.145433872006834e-05
2560.0,-0.0020934324711561203
2816.0,-0.004555574618279934
3072.0,-0.00333401164971292
3328.0,0.0006549396784976125
3584.0,0.0010356877464801073
3840.0,-0.001227240776643157
4096.0,0.002049277536571026
4608.0,0.0005293681751936674
5120.0,-0.0013637638185173273
5632.0,0.0015389785403385758
6144.0,-0.00350375147536397
6656.0,-0.0009715713676996529
7168.0,-0.0057146912440657616
7680.0,-8.804292156128213e-05
8192.0,-0.0003661024384200573
9216.0,0.0021590760443359613
10240.0,0.0028703096322715282
11264.0,-0.00024157339066732675
12288.0,0.00024422656861133873
13312.0,-0.00038478552596643567
14336.0,-0.003326084930449724
end
