version,3.0
numOfCh,1
type,point
parent_name,2-cuts
ch_type,1_1
kcount,1
numberNandB,1
brightnessNandB,1
carpet pos,0
pc,0
Time (ms),CH1 Auto-Correlation
1.0,0.040136393159627914
2.0,0.03698480874300003
3.0,0.03421138599514961
4.0,0.03175518289208412
5.0,0.029639698565006256
6.0,0.02774290181696415
7.0,0.026103070005774498
8.0,0.02469148300588131
9.0,0.023444443941116333
10.0,0.022261306643486023
11.0,0.021223407238721848
12.0,0.02031070366501808
13.0,0.019489916041493416
14.0,0.01883903332054615
15.0,0.01814797893166542
16.0,0.017537390813231468
18.0,0.016411935910582542
20.0,0.015345362015068531
22.0,0.014348945580422878
24.0,0.013451816514134407
26.0,0.012563832104206085
28.0,0.011691414751112461
30.0,0.010967383161187172
32.0,0.010521856136620045
36.0,0.009901093319058418
40.0,0.00851346179842949
44.0,0.007544056978076696
48.0,0.007089501246809959
52.0,0.006482671946287155
56.0,0.005695641040802002
60.0,0.005179953295737505
64.0,0.004930068738758564
72.0,0.004042434506118298
80.0,0.003572702407836914
88.0,0.0031181550584733486
96.0,0.00296225817874074
104.0,0.002513505518436432
112.0,0.0021563495974987745
120.0,0.0023015993647277355
128.0,0.002471484709531069
144.0,0.0032506289426237345
160.0,0.002845154609531164
176.0,0.0013730828650295734
192.0,0.0010025087976828218
208.0,0.0005462757544592023
224.0,0.001420870190486312
240.0,0.002140713855624199
256.0,0.0018922522431239486
288.0,0.0021629873663187027
320.0,0.0005129770142957568
352.0,-0.000858327723108232
384.0,-0.0007338504656217992
416.0,-0.0005144475144334137
448.0,-0.001396671519614756
480.0,-0.002139317337423563
512.0,-0.0028226214926689863
576.0,-0.003464995650574565
640.0,-0.00282331183552742
704.0,-0.0016475237207487226
768.0,-0.0024723655078560114
832.0,-0.0024476845283061266
896.0,-0.0009648636914789677
960.0,0.0003939839662052691
1024.0,-0.000828705495223403
1152.0,-0.00022278493270277977
1280.0,0.0007186070433817804
1408.0,0.0004595431964844465
1536.0,-0.00026730127865448594
1664.0,0.0015818943502381444
1792.0,-0.00015397556126117706
1920.0,0.0023945143911987543
2048.0,0.0032430707942694426
2304.0,-0.00018919026479125023
2560.0,-0.002730294596403837
2816.0,-0.002958658616989851
3072.0,4.9764416871767025e-06
3328.0,0.0024674278683960438
3584.0,0.0015189452096819878
3840.0,-0.0005900867399759591
4096.0,-0.0009842949220910668
4608.0,-0.00017241999739781022
5120.0,0.00039338183705694973
5632.0,0.0008547799661755562
6144.0,-0.0019341728184372187
6656.0,0.0014176421100273728
7168.0,-0.0005515917437151074
7680.0,-0.00034259172389283776
8192.0,-0.0014115198282524943
9216.0,-0.0004048673145007342
10240.0,0.0003498707665130496
11264.0,-0.00012313228216953576
12288.0,0.00010010987898567691
13312.0,-0.00039838592056185007
14336.0,8.126593456836417e-05
end
