version,3.0
numOfCh,1
type,point
parent_name,2-cuts
ch_type,1_1
kcount,1
numberNandB,1
brightnessNandB,1
carpet pos,0
pc,0
Time (ms),CH1 Auto-Correlation
1.0,0.028208337724208832
2.0,0.026113273575901985
3.0,0.024324987083673477
4.0,0.02277122624218464
5.0,0.021397670730948448
6.0,0.02022533118724823
7.0,0.019139263778924942
8.0,0.018177732825279236
9.0,0.01728159748017788
10.0,0.016435585916042328
11.0,0.015656253322958946
12.0,0.014888827688992023
13.0,0.01419546827673912
14.0,0.013531679287552834
15.0,0.012933737598359585
16.0,0.01234380342066288
18.0,0.011365734040737152
20.0,0.010505965910851955
22.0,0.009654629044234753
24.0,0.008937080390751362
26.0,0.00833501573652029
28.0,0.007759603206068277
30.0,0.007246394641697407
32.0,0.0068445452488958836
36.0,0.006193379405885935
40.0,0.005571362562477589
44.0,0.005034113302826881
48.0,0.0047052353620529175
52.0,0.004599723964929581
56.0,0.004292139783501625
60.0,0.003842029022052884
64.0,0.0035953097976744175
72.0,0.003181487787514925
80.0,0.0027232684660702944
88.0,0.0020477930083870888
96.0,0.0017924938583746552
104.0,0.0020213157404214144
112.0,0.0019550633151084185
120.0,0.001992857549339533
128.0,0.0024338846560567617
144.0,0.0019369951914995909
160.0,0.0016882794443517923
176.0,0.002142850076779723
192.0,0.002298770472407341
208.0,0.0029204997699707747
224.0,0.0026038975920528173
240.0,0.001954134553670883
256.0,0.0012531974352896214
288.0,1.3002919331484009e-05
320.0,-0.00020972525817342103
352.0,0.00016259982658084482
384.0,0.00044239111593924463
416.0,0.0005362678784877062
448.0,0.0004795586864929646
480.0,-0.0005033055786043406
512.0,-0.00011063613055739552
576.0,-0.0009958581067621708
640.0,-0.0002422990364721045
704.0,0.00019735183741431683
768.0,-0.0009369431645609438
832.0,-0.0008497971575707197
896.0,-0.0007436914602294564
960.0,-0.0009391414350830019
1024.0,0.0005657331785187125
1152.0,0.00010973389726132154
1280.0,-0.00031937609310261905
1408.0,2.7437519747763872e-05
1536.0,-2.002117980737239e-05
1664.0,1.2917629646835849e-05
1792.0,-4.7573215852025896e-05
1920.0,0.0003285174025222659
2048.0,0.00010413145355414599
2304.0,-0.0003009106731042266
2560.0,-0.0015261671505868435
2816.0,-0.0002090303460136056
3072.0,0.00010310929064871743
3328.0,-0.0003408344055060297
3584.0,-0.001118752988986671
3840.0,-0.0015001880237832665
4096.0,-0.000414776528486982
4608.0,0.0011459564557299018
5120.0,8.6385385657195e-05
5632.0,0.0005602117744274437
6144.0,-0.00015081845049280673
6656.0,0.0002536705578677356
7168.0,0.0004783528274856508
7680.0,-0.00011799066851381212
8192.0,-0.0006327327573671937
9216.0,0.00010156411008210853
10240.0,-0.00016594631597399712
11264.0,-0.0009050696971826255
12288.0,0.0009253263706341386
13312.0,-0.0017259237356483936
14336.0,0.0009088238584809005
end
