version,3.0
numOfCh,1
type,point
parent_name,2-cuts
ch_type,1_1
kcount,1
numberNandB,1
brightnessNandB,1
carpet pos,0
pc,0
Time (ms),CH1 Auto-Correlation
1.0,0.026916902512311935
2.0,0.024772776290774345
3.0,0.02294880710542202
4.0,0.02137872390449047
5.0,0.02005692943930626
6.0,0.01885860599577427
7.0,0.017759477719664574
8.0,0.016756605356931686
9.0,0.0158452857285738
10.0,0.015089353546500206
11.0,0.014451191760599613
12.0,0.013898581266403198
13.0,0.013339928351342678
14.0,0.012845485471189022
15.0,0.012377489358186722
16.0,0.01195495668798685
18.0,0.01122229266911745
20.0,0.010582261718809605
22.0,0.010024922899901867
24.0,0.009472021833062172
26.0,0.008939037099480629
28.0,0.008406509645283222
30.0,0.00801088660955429
32.0,0.007594354450702667
36.0,0.006666635628789663
40.0,0.006136202719062567
44.0,0.005995962768793106
48.0,0.006010939832776785
52.0,0.005726973060518503
56.0,0.005237012170255184
60.0,0.004931007511913776
64.0,0.00474596070125699
72.0,0.004101353697478771
80.0,0.0029671608936041594
88.0,0.0020351982675492764
96.0,0.0017532587517052889
104.0,0.0014772574650123715
112.0,0.001351491897366941
120.0,0.0013528353301808238
128.0,0.0015422818250954151
144.0,0.0014059338718652725
160.0,0.0010369053343310952
176.0,0.0008193481480702758
192.0,0.0006400130223482847
208.0,-0.00033994068508036435
224.0,-0.0008167873020283878
240.0,-0.00023565100855194032
256.0,-0.0003146382514387369
288.0,-0.0011509159812703729
320.0,-0.0012807769235223532
352.0,-0.0010994569165632129
384.0,-0.0007067662663757801
416.0,0.00017387486877851188
448.0,0.0007055792957544327
480.0,0.0009214453166350722
512.0,0.0008761314093135297
576.0,0.0012392301578074694
640.0,0.0022315592505037785
704.0,0.0005607454804703593
768.0,0.00111545214895159
832.0,0.0018818362150341272
896.0,0.000977340736426413
960.0,0.0001335407723672688
1024.0,-8.869615703588352e-05
1152.0,-0.0005743886576965451
1280.0,-3.5554810892790556e-05
1408.0,0.0003959878522437066
1536.0,0.0007338288705796003
1664.0,-6.973221752559766e-05
1792.0,0.00016515888273715973
1920.0,-0.0002710636181291193
2048.0,-0.00030978035647422075
2304.0,0.0001725470501696691
2560.0,0.00026732755941338837
2816.0,-3.611319243645994e-06
3072.0,0.00021545533672906458
3328.0,-0.00031547824619337916
3584.0,-0.0003065616765525192
3840.0,0.00024586409563198686
4096.0,-0.00017273380944970995
4608.0,0.0008694595308043063
5120.0,-0.0004888740368187428
5632.0,-0.0007282867445610464
6144.0,0.0006195384776219726
6656.0,-0.0008058772655203938
7168.0,-0.0005165860638953745
7680.0,-0.0003910799277946353
8192.0,-0.001719966414384544
9216.0,-0.0008762456709519029
10240.0,0.00013317735283635557
11264.0,-0.00013275437231641263
12288.0,-0.0002737038885243237
13312.0,3.959948298870586e-05
14336.0,-7.971529703354463e-05
end
