version,3.0
numOfCh,1
type,point
parent_name,2-cuts
ch_type,1_1
kcount,1
numberNandB,1
brightnessNandB,1
carpet pos,0
pc,0
Time (ms),CH1 Auto-Correlation
1.0,0.046994395554065704
2.0,0.04359642043709755
3.0,0.04065696895122528
4.0,0.037949591875076294
5.0,0.035597339272499084
6.0,0.033501431345939636
7.0,0.031636305153369904
8.0,0.03003728576004505
9.0,0.028637118637561798
10.0,0.027440520003437996
11.0,0.026405712589621544
12.0,0.02537689357995987
13.0,0.024406427517533302
14.0,0.023520812392234802
15.0,0.0226135216653347
16.0,0.02180933766067028
18.0,0.020341990515589714
20.0,0.01894582435488701
22.0,0.017442453652620316
24.0,0.016122562810778618
26.0,0.015145925804972649
28.0,0.01424398459494114
30.0,0.013366283848881721
32.0,0.012636719271540642
36.0,0.011892120353877544
40.0,0.011327791959047318
44.0,0.01063853595405817
48.0,0.010184802114963531
52.0,0.009617376141250134
56.0,0.008792604319751263
60.0,0.008381479419767857
64.0,0.00822827871888876
72.0,0.008916880935430527
80.0,0.008840005844831467
88.0,0.008552462793886662
96.0,0.007664032280445099
104.0,0.006669776979833841
112.0,0.006665044464170933
120.0,0.006740431766957045
128.0,0.006666669622063637
144.0,0.00667147058993578
160.0,0.005528292618691921
176.0,0.004343455191701651
192.0,0.004705904982984066
208.0,0.004702602047473192
224.0,0.004478340037167072
240.0,0.004593539517372847
256.0,0.0037265231367200613
288.0,0.004199035931378603
320.0,0.004575476050376892
352.0,0.003881611628457904
384.0,0.0021850853227078915
416.0,0.0030394759960472584
448.0,0.0024848293978720903
480.0,0.003323853947222233
512.0,0.0037411286029964685
576.0,0.0010175453498959541
640.0,0.00019910129776690155
704.0,0.0006502030300907791
768.0,0.0015084994956851006
832.0,6.787316669942811e-05
896.0,-0.002195128472521901
960.0,-0.0024085689801722765
1024.0,0.00032477485365234315
1152.0,0.0016310375649482012
1280.0,-0.0001596485817572102
1408.0,1.4315504813566804e-05
1536.0,-0.00028021421167068183
1664.0,-0.001962387701496482
1792.0,-0.002279731910675764
1920.0,-0.0014520739205181599
2048.0,-0.0023543064016848803
2304.0,-0.003622230142354965
2560.0,-0.002009500516578555
2816.0,-0.0015461391303688288
3072.0,-5.264767605694942e-05
3328.0,-0.0005646591889671981
3584.0,-0.00020925948047079146
3840.0,-0.0014060381799936295
4096.0,-0.0015735668130218983
4608.0,-0.0005794914904981852
5120.0,-0.0004994163755327463
5632.0,-0.0004561214882414788
6144.0,0.0004307977796997875
6656.0,0.001294790068641305
7168.0,0.00021108821965754032
7680.0,0.0006008551572449505
8192.0,0.0005052569904364645
9216.0,0.00030219313339330256
10240.0,0.0005891842301934958
11264.0,-0.000843929301481694
12288.0,-0.00033571309177204967
13312.0,-2.1295316400937736e-05
14336.0,-0.0022974349558353424
end
