version,3.0
numOfCh,1
type,point
parent_name,2-cuts
ch_type,1_1
kcount,1
numberNandB,1
brightnessNandB,1
carpet pos,0
pc,0
Time (ms),CH1 Auto-Correlation
1.0,0.08868348598480225
2.0,0.08195489645004272
3.0,0.07618609815835953
4.0,0.07106494903564453
5.0,0.06672283262014389
6.0,0.06308378279209137
7.0,0.059979505836963654
8.0,0.05721325799822807
9.0,0.05441901460289955
10.0,0.051788296550512314
11.0,0.049696896225214005
12.0,0.047869954258203506
13.0,0.04609065130352974
14.0,0.04423345997929573
15.0,0.04261297360062599
16.0,0.040908332914114
18.0,0.03798815980553627
20.0,0.03534829244017601
22.0,0.033414240926504135
24.0,0.031675294041633606
26.0,0.030042370781302452
28.0,0.028640486299991608
30.0,0.027274630963802338
32.0,0.02600208669900894
36.0,0.023399291560053825
40.0,0.02075820602476597
44.0,0.018506493419408798
48.0,0.016723692417144775
52.0,0.015415319241583347
56.0,0.014666521921753883
60.0,0.013963437639176846
64.0,0.012992581352591515
72.0,0.01247713714838028
80.0,0.01269160583615303
88.0,0.013169888406991959
96.0,0.011495079845190048
104.0,0.01045322511345148
112.0,0.00923570990562439
120.0,0.008255855180323124
128.0,0.008706389926373959
144.0,0.007314068265259266
160.0,0.006555541418492794
176.0,0.0046710241585969925
192.0,0.0038293509278446436
208.0,0.003924882970750332
224.0,0.002776925452053547
240.0,0.0028527912218123674
256.0,7.875803567003459e-05
288.0,-0.0021801621187478304
320.0,-0.00023638813581783324
352.0,-5.273317583487369e-06
384.0,0.0018404015572741628
416.0,0.0013828830560669303
448.0,0.003079859772697091
480.0,0.0053826565854251385
512.0,0.004053115379065275
576.0,0.002724795136600733
640.0,0.0024447417818009853
704.0,-0.000560358923394233
768.0,-0.0036530185025185347
832.0,0.0009635246242396533
896.0,0.0033239605836570263
960.0,0.004963926039636135
1024.0,0.004868780262768269
1152.0,0.0015664841048419476
1280.0,0.0014854933833703399
1408.0,-0.00291452300734818
1536.0,-0.0026534940116107464
1664.0,-0.003091508988291025
1792.0,-0.0005687436205334961
1920.0,0.0021729236468672752
2048.0,0.000490654434543103
2304.0,0.0011645446065813303
2560.0,0.0018799573881551623
2816.0,-0.002136344788596034
3072.0,0.0014394570607692003
3328.0,-0.0014048328157514334
3584.0,0.00018014595843851566
3840.0,-0.004227742552757263
4096.0,-0.0014796470059081912
4608.0,-0.0012605991214513779
5120.0,0.003061555791646242
5632.0,-0.0016904566437005997
6144.0,0.00018409520271234214
6656.0,-0.0022400962188839912
7168.0,-0.0005305669619701803
7680.0,0.0009254089673049748
8192.0,0.0027538982685655355
9216.0,0.0022120221983641386
10240.0,-0.00348334526643157
11264.0,-0.0012120900209993124
12288.0,-0.005779733881354332
13312.0,-0.008269873447716236
14336.0,-0.004188728518784046
end
