version,3.0
numOfCh,1
type,point
parent_name,2-cuts
ch_type,1_1
kcount,1
numberNandB,1
brightnessNandB,1
carpet pos,0
pc,0
Time (ms),CH1 Auto-Correlation
1.0,0.028011806309223175
2.0,0.02577294036746025
3.0,0.02386120706796646
4.0,0.02216966822743416
5.0,0.02069016918540001
6.0,0.019370853900909424
7.0,0.01829995959997177
8.0,0.017298482358455658
9.0,0.016297778114676476
10.0,0.01533725205808878
11.0,0.014490166679024696
12.0,0.01370900496840477
13.0,0.013063210994005203
14.0,0.012460089288651943
15.0,0.011952684260904789
16.0,0.011458717286586761
18.0,0.010728145018219948
20.0,0.010063526220619678
22.0,0.009386301971971989
24.0,0.008739737793803215
26.0,0.0081735048443079
28.0,0.007689070422202349
30.0,0.007193985395133495
32.0,0.006639832630753517
36.0,0.005473713390529156
40.0,0.004732064437121153
44.0,0.004044927190989256
48.0,0.003491209354251623
52.0,0.003165599424391985
56.0,0.002667248947545886
60.0,0.00219997251406312
64.0,0.0015985146164894104
72.0,0.0010723961750045419
80.0,0.0009018440032377839
88.0,0.0008636627462692559
96.0,0.0010866456432268023
104.0,0.0010329906363040209
112.0,0.0009443853050470352
120.0,0.0005112249637022614
128.0,0.0005822326056659222
144.0,0.0017003030516207218
160.0,0.0021510478109121323
176.0,0.0016694130608811975
192.0,0.0011196690611541271
208.0,-0.00017312218551523983
224.0,-0.00048687070375308394
240.0,-7.149131852202117e-05
256.0,0.0004494016757234931
288.0,0.00042792162275873125
320.0,0.0003053828258998692
352.0,0.0006923335022293031
384.0,0.0005319722695276141
416.0,-0.00014363073569256812
448.0,-0.0003386184689588845
480.0,-0.00038662817678414285
512.0,0.00024348760780412704
576.0,0.000924872059840709
640.0,0.001292010652832687
704.0,0.00017181728617288172
768.0,0.00035901725641451776
832.0,0.0003227188135497272
896.0,-0.000851915217936039
960.0,-0.0007791692623868585
1024.0,-2.9730575988651253e-05
1152.0,5.0184335123049095e-05
1280.0,0.00025036244187504053
1408.0,0.0014076904626563191
1536.0,-0.0003439521824475378
1664.0,0.0007569018052890897
1792.0,0.0012581617338582873
1920.0,-0.00039503638981841505
2048.0,0.0011102609569206834
2304.0,-0.001048200880177319
2560.0,-0.0007597290095873177
2816.0,-0.0012623417424038053
3072.0,-0.0007524665561504662
3328.0,-0.0005703052738681436
3584.0,0.000258579442743212
3840.0,-0.00044338632142171264
4096.0,-0.0022940828930586576
4608.0,-0.0011863608378916979
5120.0,0.00038207691977731884
5632.0,0.00011693171109072864
6144.0,-0.0005086910095997155
6656.0,0.0004338474536780268
7168.0,0.0005610057269223034
7680.0,-4.352354153525084e-05
8192.0,0.000349397596437484
9216.0,-5.4390151490224525e-05
10240.0,0.000337088480591774
11264.0,0.00018739307415671647
12288.0,-0.00010336306149838492
13312.0,-0.00035443902015686035
14336.0,-0.0002964081068057567
end
