version,3.0
numOfCh,1
type,point
parent_name,2-cuts
ch_type,1_1
kcount,1
numberNandB,1
brightnessNandB,1
carpet pos,0
pc,0
Time (ms),CH1 Auto-Correlation
1.0,0.04092143103480339
2.0,0.03775641694664955
3.0,0.035109225660562515
4.0,0.03278245031833649
5.0,0.0307701975107193
6.0,0.028993377462029457
7.0,0.027304746210575104
8.0,0.025713687762618065
9.0,0.024300720542669296
10.0,0.0230123158544302
11.0,0.022009877488017082
12.0,0.02101309411227703
13.0,0.020132439211010933
14.0,0.019305221736431122
15.0,0.018519671633839607
16.0,0.017755331471562386
18.0,0.01656337082386017
20.0,0.015417641028761864
22.0,0.014468315988779068
24.0,0.013493001461029053
26.0,0.01260156650096178
28.0,0.01194826327264309
30.0,0.011309582740068436
32.0,0.010629536584019661
36.0,0.009020159021019936
40.0,0.007951414212584496
44.0,0.0072101722471416
48.0,0.0067435563541948795
52.0,0.006735736038535833
56.0,0.0062097045592963696
60.0,0.005554572679102421
64.0,0.004842714406549931
72.0,0.0032345016952604055
80.0,0.002260535256937146
88.0,0.002140527591109276
96.0,0.0017044926062226295
104.0,0.001436403370462358
112.0,0.0013684678124263883
120.0,0.0012027224292978644
128.0,0.0007224106811918318
144.0,0.00016286957543343306
160.0,0.00019433481793385
176.0,0.00014824268873780966
192.0,0.0011466126888990402
208.0,0.0018483047606423497
224.0,0.002552101155743003
240.0,0.0027278743218630552
256.0,0.0023764614015817642
288.0,0.0005901581607758999
320.0,0.00010858273890335113
352.0,-0.0011425020638853312
384.0,-0.0005816317861899734
416.0,-6.736415525665507e-05
448.0,0.0013439074391499162
480.0,0.002598690800368786
512.0,0.0022255294024944305
576.0,5.45482944289688e-05
640.0,0.0002647115325089544
704.0,0.0006168622639961541
768.0,0.002926660468801856
832.0,0.0012892840895801783
896.0,0.0012045176699757576
960.0,0.0009009942295961082
1024.0,0.0005001925164833665
1152.0,0.0006361828418448567
1280.0,-0.0005824851104989648
1408.0,0.001501529011875391
1536.0,0.00038152982597239316
1664.0,0.0006019810098223388
1792.0,0.0009535830467939377
1920.0,-0.00014690100215375423
2048.0,0.00044410760165192187
2304.0,-6.404329906217754e-05
2560.0,-0.0008067977614700794
2816.0,-0.00028265154105611145
3072.0,1.6529398294551356e-07
3328.0,0.0007136541535146534
3584.0,0.00011895904754055664
3840.0,-0.00042385709821246564
4096.0,0.0005950356717221439
4608.0,-0.0001823916391003877
5120.0,0.0007340863230638206
5632.0,-0.0003743998531717807
6144.0,-0.0015705059049651027
6656.0,0.0005152682424522936
7168.0,-0.000153000233694911
7680.0,-0.00013374813715927303
8192.0,0.0015607804525643587
9216.0,-4.480954885366373e-05
10240.0,-0.0009475067490711808
11264.0,-0.003327003214508295
12288.0,-0.0006346013979054987
13312.0,-0.00021204870427027345
14336.0,-0.005018679890781641
end
