version,3.0
numOfCh,1
type,point
parent_name,2-cuts
ch_type,1_1
kcount,1
numberNandB,1
brightnessNandB,1
carpet pos,0
pc,0
Time (ms),CH1 Auto-Correlation
1.0,0.08608002960681915
2.0,0.07937896996736526
3.0,0.07363693416118622
4.0,0.06866905838251114
5.0,0.0644535943865776
6.0,0.060527071356773376
7.0,0.057199448347091675
8.0,0.054254528135061264
9.0,0.051601842045784
10.0,0.04918605834245682
11.0,0.046954698860645294
12.0,0.04484569653868675
13.0,0.04279008507728577
14.0,0.041038885712623596
15.0,0.039395350962877274
16.0,0.03776262700557709
18.0,0.035215262323617935
20.0,0.03294670581817627
22.0,0.030507948249578476
24.0,0.028471453115344048
26.0,0.02648381143808365
28.0,0.024912329390645027
30.0,0.023852072656154633
32.0,0.023022344335913658
36.0,0.02153599262237549
40.0,0.020098458975553513
44.0,0.018798308447003365
48.0,0.017078768461942673
52.0,0.016360806301236153
56.0,0.0157058946788311
60.0,0.01512150838971138
64.0,0.013845117762684822
72.0,0.01030460000038147
80.0,0.008730676956474781
88.0,0.007314350455999374
96.0,0.0060219354927539825
104.0,0.0034686410799622536
112.0,0.0018467416521161795
120.0,0.0010923136724159122
128.0,0.000982771278358996
144.0,0.001232063863426447
160.0,0.0012213631998747587
176.0,0.0021685806568711996
192.0,0.001281436183489859
208.0,-0.0015365154249593616
224.0,-0.002892587101086974
240.0,-0.0008571140351705253
256.0,-0.0011169553035870194
288.0,-0.0023422131780534983
320.0,-0.002242201240733266
352.0,-0.0009290926391258836
384.0,0.0025521658826619387
416.0,0.0025655643548816442
448.0,0.00030511285876855254
480.0,0.0007917229668237269
512.0,0.0004945236723870039
576.0,-0.000740021641831845
640.0,-0.00039730899152345955
704.0,-0.0003036287671420723
768.0,0.0022118405904620886
832.0,0.0035053750034421682
896.0,0.003545553656294942
960.0,0.0003898230497725308
1024.0,0.00024483707966282964
1152.0,-0.0034064440988004208
1280.0,-0.0043284171260893345
1408.0,-2.1431049390230328e-05
1536.0,-0.006102877203375101
1664.0,-0.003675124840810895
1792.0,-0.0011052928166463971
1920.0,-0.0017494327621534467
2048.0,-0.004841364920139313
2304.0,0.001267936546355486
2560.0,0.0014244476333260536
2816.0,-0.0008816435583867133
3072.0,-0.0006010197103023529
3328.0,0.0039081452414393425
3584.0,0.003430879907682538
3840.0,-0.00036101622390560806
4096.0,-0.003024255856871605
4608.0,-0.0008745677769184113
5120.0,-0.002805461175739765
5632.0,-0.0006476483540609479
6144.0,0.0004504453972913325
6656.0,-0.00047542317770421505
7168.0,0.0025476168375462294
7680.0,-0.004090788774192333
8192.0,-0.00092653016326949
9216.0,0.0033452336210757494
10240.0,0.0009849070338532329
11264.0,-0.003349188482388854
12288.0,0.004886451177299023
13312.0,0.001345713622868061
14336.0,-0.007068251259624958
end
