version,3.0
numOfCh,1
type,point
parent_name,2-cuts
ch_type,1_1
kcount,1
numberNandB,1
brightnessNandB,1
carpet pos,0
pc,0
Time (ms),CH1 Auto-Correlation
1.0,0.08323124051094055
2.0,0.07680021226406097
3.0,0.07143764197826385
4.0,0.06695272028446198
5.0,0.06296959519386292
6.0,0.0594465546309948
7.0,0.0562472864985466
8.0,0.0535157285630703
9.0,0.05110366269946098
10.0,0.04908861219882965
11.0,0.04704892635345459
12.0,0.045290034264326096
13.0,0.04360852390527725
14.0,0.04212285578250885
15.0,0.040701285004615784
16.0,0.03928928077220917
18.0,0.03671219199895859
20.0,0.03414766490459442
22.0,0.031550467014312744
24.0,0.029431167989969254
26.0,0.027820976451039314
28.0,0.0263989120721817
30.0,0.024932121858000755
32.0,0.02365078404545784
36.0,0.020826442167162895
40.0,0.01765337586402893
44.0,0.01455842424184084
48.0,0.012611358426511288
52.0,0.010570738464593887
56.0,0.00950878020375967
60.0,0.009097381494939327
64.0,0.008423994295299053
72.0,0.007051113527268171
80.0,0.0054493248462677
88.0,0.003998172003775835
96.0,0.003385357791557908
104.0,0.0019498791079968214
112.0,0.00212989398278296
120.0,0.002613650867715478
128.0,0.002303212881088257
144.0,0.0023190693464130163
160.0,0.0037093386054039
176.0,0.0028487069066613913
192.0,0.0020138458348810673
208.0,0.002213792409747839
224.0,0.0008209130610339344
240.0,0.0011845933040603995
256.0,0.0010625548893585801
288.0,0.0010721964063122869
320.0,0.0007713824743404984
352.0,0.00025141402147710323
384.0,0.0014443842228502035
416.0,0.00041802850319072604
448.0,-0.002415612805634737
480.0,-0.003971708472818136
512.0,-0.002572661032900214
576.0,-0.0004450138658285141
640.0,0.0016384584596380591
704.0,0.0028093699365854263
768.0,0.00042758494964800775
832.0,-0.0009003119776025414
896.0,-0.0018238205229863524
960.0,-0.005157493986189365
1024.0,-0.005028720945119858
1152.0,-0.0018601934425532818
1280.0,-0.003620515577495098
1408.0,0.0010015583829954267
1536.0,0.0003514775016810745
1664.0,-0.003569631604477763
1792.0,0.0030702976509928703
1920.0,0.0011277899611741304
2048.0,0.0014510223409160972
2304.0,0.0002320785279152915
2560.0,0.003329533850774169
2816.0,0.0005634152330458164
3072.0,-0.0026626221369951963
3328.0,-0.0007474498706869781
3584.0,-0.004213798325508833
3840.0,-0.0008062951383180916
4096.0,-0.001344854710623622
4608.0,0.0014994083903729916
5120.0,-0.000625322456471622
5632.0,-0.0016670789336785674
6144.0,-0.002174696186557412
6656.0,-0.0021984674967825413
7168.0,0.002544109709560871
7680.0,0.0008408504072576761
8192.0,-0.0027518144343048334
9216.0,0.001315556699410081
10240.0,0.003603384830057621
11264.0,-0.0017806603573262691
12288.0,0.0023003851529210806
13312.0,0.0005136134568601847
14336.0,-0.007951823994517326
end
