version,3.0
numOfCh,1
type,point
parent_name,2-cuts
ch_type,1_1
kcount,1
numberNandB,1
brightnessNandB,1
carpet pos,0
pc,0
Time (ms),CH1 Auto-Correlation
1.0,0.09497323632240295
2.0,0.08806411176919937
3.0,0.08211556822061539
4.0,0.0768723115324974
5.0,0.07242394238710403
6.0,0.06845423579216003
7.0,0.06509298086166382
8.0,0.06200234591960907
9.0,0.0590943917632103
10.0,0.0565379373729229
11.0,0.05424569919705391
12.0,0.05204801633954048
13.0,0.04983852803707123
14.0,0.047839805483818054
15.0,0.04595743864774704
16.0,0.044207993894815445
18.0,0.04150940477848053
20.0,0.03947339579463005
22.0,0.03763081878423691
24.0,0.035868894308805466
26.0,0.03382759168744087
28.0,0.03209659829735756
30.0,0.030578548088669777
32.0,0.029226109385490417
36.0,0.026469355449080467
40.0,0.024162042886018753
44.0,0.023104369640350342
48.0,0.021898752078413963
52.0,0.020223889499902725
56.0,0.018524475395679474
60.0,0.016302840784192085
64.0,0.014844449236989021
72.0,0.012680614367127419
80.0,0.010674980469048023
88.0,0.009241186082363129
96.0,0.00814163126051426
104.0,0.00735209695994854
112.0,0.004977610427886248
120.0,0.004712307825684547
128.0,0.005704050417989492
144.0,0.0059545827098190784
160.0,0.004424622282385826
176.0,0.003499282756820321
192.0,0.0019570563454180956
208.0,0.0032687995117157698
224.0,0.0032239218708127737
240.0,-0.00017113493231590837
256.0,-0.003053492633625865
288.0,-0.0018162301275879145
320.0,0.0011423159157857299
352.0,0.005692798178642988
384.0,0.005604172591120005
416.0,0.004499217960983515
448.0,0.0013026058441028
480.0,0.0010194273199886084
512.0,0.0005074282526038587
576.0,-0.003199599450454116
640.0,-0.005051617044955492
704.0,-0.0003010162035934627
768.0,-0.0004992051981389523
832.0,-0.0031570647843182087
896.0,-0.0013188808225095272
960.0,-0.00335182948037982
1024.0,-0.003111016470938921
1152.0,-0.004574181977659464
1280.0,-0.005660752300173044
1408.0,-0.0027926568873226643
1536.0,-0.0015008340124040842
1664.0,-0.006070935633033514
1792.0,-0.006471090018749237
1920.0,-0.0022754049859941006
2048.0,0.0009143492206931114
2304.0,0.005070135463029146
2560.0,0.002616621321067214
2816.0,0.0013831519754603505
3072.0,-0.00011613161768764257
3328.0,-0.0013695432571694255
3584.0,-0.0005092450883239508
3840.0,-0.007856993936002254
4096.0,-0.006806931924074888
4608.0,5.929891631240025e-05
5120.0,0.0030584337655454874
5632.0,0.004819476045668125
6144.0,-0.0032220501452684402
6656.0,0.0015168351819738746
7168.0,-0.0018119763117283583
7680.0,0.005001603160053492
8192.0,-0.0016155778430402279
9216.0,-0.00288098375312984
10240.0,0.00011318466567900032
11264.0,0.0007747482159174979
12288.0,0.0020709955133497715
13312.0,0.0006219397182576358
14336.0,-0.0009568067616783082
end
