version,3.0
numOfCh,1
type,point
parent_name,2-cuts
ch_type,1_1
kcount,1
numberNandB,1
brightnessNandB,1
carpet pos,0
pc,0
Time (ms),CH1 Auto-Correlation
1.0,0.040959879755973816
2.0,0.03767305240035057
3.0,0.034832149744033813
4.0,0.03242192789912224
5.0,0.030247246846556664
6.0,0.028399189934134483
7.0,0.02690250426530838
8.0,0.025415698066353798
9.0,0.023977315053343773
10.0,0.02261420339345932
11.0,0.021470457315444946
12.0,0.020392606034874916
13.0,0.019501501694321632
14.0,0.018661722540855408
15.0,0.017811020836234093
16.0,0.017075713723897934
18.0,0.015912670642137527
20.0,0.01488617155700922
22.0,0.013841306790709496
24.0,0.012727802619338036
26.0,0.011647945269942284
28.0,0.010777322575449944
30.0,0.010243033990263939
32.0,0.009794332087039948
36.0,0.009016228839755058
40.0,0.007916285656392574
44.0,0.006833638530224562
48.0,0.006224794313311577
52.0,0.005859842523932457
56.0,0.0054459040984511375
60.0,0.0049768853932619095
64.0,0.004590234719216824
72.0,0.004576533101499081
80.0,0.004484247881919146
88.0,0.00464229378849268
96.0,0.0045028673484921455
104.0,0.004389626905322075
112.0,0.003818144788965583
120.0,0.003761834232136607
128.0,0.0033935620449483395
144.0,0.001190585782751441
160.0,-0.0007377002038992941
176.0,-0.00196522637270391
192.0,-0.001516462303698063
208.0,-0.0010676347883418202
224.0,-0.00016455142758786678
240.0,0.00018336300854571164
256.0,-1.8002923752646893e-05
288.0,-0.00024331663735210896
320.0,0.0005633623222820461
352.0,7.710808131378144e-05
384.0,0.00012006137694697827
416.0,0.00021632018615491688
448.0,-0.00019196138600818813
480.0,-0.0010983869433403015
512.0,-0.001179784070700407
576.0,-0.0013229424366727471
640.0,-0.0014422379899770021
704.0,-0.0012968754163011909
768.0,0.0001431235286872834
832.0,8.560590504202992e-05
896.0,8.334411541000009e-05
960.0,-0.0016329644713550806
1024.0,-0.0027086713816970587
1152.0,0.00047290424117818475
1280.0,0.0005342026706784964
1408.0,-0.0004895710153505206
1536.0,0.0020124013535678387
1664.0,0.0008077612146735191
1792.0,-0.001031416584737599
1920.0,-3.274013806731091e-06
2048.0,0.0007257625693455338
2304.0,-0.0013122664531692863
2560.0,-0.0020300208125263453
2816.0,0.0014774614246562123
3072.0,-7.942513911984861e-05
3328.0,-0.00024554264382459223
3584.0,0.0017820295179262757
3840.0,-0.0009796617086976767
4096.0,-0.001078742672689259
4608.0,0.00047305753105320036
5120.0,-0.0004503077070694417
5632.0,-0.0006509637460112572
6144.0,-0.0011887734290212393
6656.0,-0.00031041743932291865
7168.0,-0.0003220397047698498
7680.0,-0.0004658897814806551
8192.0,0.0013717612018808722
9216.0,9.158106695394963e-05
10240.0,-0.0005189237999729812
11264.0,0.0002904434222728014
12288.0,0.0008761871140450239
13312.0,-0.00018069613724946976
14336.0,-0.00044484430691227317
end
