version,3.0
numOfCh,1
type,point
parent_name,2-cuts
ch_type,1_1
kcount,1
numberNandB,1
brightnessNandB,1
carpet pos,0
pc,0
Time (ms),CH1 Auto-Correlation
1.0,0.09004741907119751
2.0,0.08303909748792648
3.0,0.07676093280315399
4.0,0.07130566239356995
5.0,0.06661433726549149
6.0,0.06247536838054657
7.0,0.05877276882529259
8.0,0.05541674792766571
9.0,0.052267659455537796
10.0,0.049534477293491364
11.0,0.04700154438614845
12.0,0.0445830263197422
13.0,0.0423966683447361
14.0,0.04043450579047203
15.0,0.03847235068678856
16.0,0.03676022216677666
18.0,0.033923763781785965
20.0,0.031874880194664
22.0,0.030322527512907982
24.0,0.028746046125888824
26.0,0.027073437348008156
28.0,0.025597665458917618
30.0,0.024097003042697906
32.0,0.023079290986061096
36.0,0.022445593029260635
40.0,0.0218609981238842
44.0,0.020804177969694138
48.0,0.01981191523373127
52.0,0.01905732974410057
56.0,0.01804962567985058
60.0,0.016812661662697792
64.0,0.01554352231323719
72.0,0.013722909614443779
80.0,0.013141922652721405
88.0,0.011231673881411552
96.0,0.010222489014267921
104.0,0.010441194288432598
112.0,0.010860919952392578
120.0,0.010476845316588879
128.0,0.009021472185850143
144.0,0.00504266656935215
160.0,0.005504657048732042
176.0,0.0067786262370646
192.0,0.0046973079442977905
208.0,0.0032896744087338448
224.0,0.0007492591394111514
240.0,-0.0030012482311576605
256.0,-0.0022851291578263044
288.0,-0.0013972683809697628
320.0,-0.0007441866328008473
352.0,0.0025723606813699007
384.0,0.0005471635959111154
416.0,-0.001621205941773951
448.0,-0.0029831991996616125
480.0,-0.003468674374744296
512.0,-0.00020471139578148723
576.0,-8.702435297891498e-05
640.0,0.0007586351130157709
704.0,-0.0014025085838511586
768.0,-0.002792098792269826
832.0,-0.0064269304275512695
896.0,-0.007554582320153713
960.0,-0.004828120581805706
1024.0,-0.0077124545350670815
1152.0,-0.006391407921910286
1280.0,-0.0023488830775022507
1408.0,-0.00028527757967822254
1536.0,0.0006523415213450789
1664.0,0.004205774981528521
1792.0,0.00458545982837677
1920.0,0.0006749280728399754
2048.0,0.0011020195670425892
2304.0,0.00110349350143224
2560.0,-0.0023270922247320414
2816.0,-0.004956373479217291
3072.0,-0.00013420090544968843
3328.0,0.0018330689053982496
3584.0,0.004858226515352726
3840.0,0.005924102384597063
4096.0,0.0032736181747168303
4608.0,-0.0025295193772763014
5120.0,-0.0001795779971871525
5632.0,0.0006364741711877286
6144.0,-0.003964078612625599
6656.0,-0.0025300905108451843
7168.0,0.004630367737263441
7680.0,0.003897806629538536
8192.0,-0.002729624742642045
9216.0,-0.0013790259836241603
10240.0,-0.0001597140944795683
11264.0,-0.0010865628719329834
12288.0,0.0023280156310647726
13312.0,-0.004579603206366301
14336.0,0.0003251009329687804
end
