version,3.0
numOfCh,1
type,point
parent_name,2-cuts
ch_type,1_1
kcount,1
numberNandB,1
brightnessNandB,1
carpet pos,0
pc,0
Time (ms),CH1 Auto-Correlation
1.0,0.0418798103928566
2.0,0.0386165976524353
3.0,0.035814736038446426
4.0,0.03334212675690651
5.0,0.031191803514957428
6.0,0.0292588509619236
7.0,0.027505038306117058
8.0,0.02587229758501053
9.0,0.02443958818912506
10.0,0.023170888423919678
11.0,0.022049998864531517
12.0,0.02108888141810894
13.0,0.02026033028960228
14.0,0.01946277730166912
15.0,0.018783973529934883
16.0,0.018170053139328957
18.0,0.017247704789042473
20.0,0.016393981873989105
22.0,0.01552125345915556
24.0,0.01448730193078518
26.0,0.013339633122086525
28.0,0.012410247698426247
30.0,0.011565573513507843
32.0,0.010823465883731842
36.0,0.009648099541664124
40.0,0.00851495936512947
44.0,0.007445930503308773
48.0,0.006801041774451733
52.0,0.006649353541433811
56.0,0.006350104231387377
60.0,0.005918999668210745
64.0,0.005678251385688782
72.0,0.005085884593427181
80.0,0.004792385268956423
88.0,0.003949950449168682
96.0,0.003528244560584426
104.0,0.003752215299755335
112.0,0.003268152242526412
120.0,0.0028809595387429
128.0,0.0038366769440472126
144.0,0.003815544070675969
160.0,0.0017131998902186751
176.0,0.0007663720170967281
192.0,0.00061342294793576
208.0,0.0006861123256385326
224.0,0.0009143875795416534
240.0,0.0006137354066595435
256.0,0.00014687453221995384
288.0,0.000708691542968154
320.0,0.0009736050269566476
352.0,0.002055587014183402
384.0,0.0014837684575468302
416.0,0.0009964636992663145
448.0,0.00022712157806381583
480.0,-0.00114148180000484
512.0,-0.002626358298584819
576.0,-0.002460850402712822
640.0,-0.0023617472033947706
704.0,0.0002248841483378783
768.0,0.00017013655451592058
832.0,0.0001703561283648014
896.0,-0.0011844646651297808
960.0,-0.002281994791701436
1024.0,-0.0024696080945432186
1152.0,0.0006007736083120108
1280.0,8.792019070824608e-05
1408.0,0.0010503730736672878
1536.0,0.0012781338300555944
1664.0,0.0006502348696812987
1792.0,0.0006311966571956873
1920.0,-0.0018177556339651346
2048.0,-0.0013672781642526388
2304.0,-0.00021848370670340955
2560.0,0.0015614161966368556
2816.0,-6.508154183393344e-05
3072.0,0.0008813155582174659
3328.0,0.00026591410278342664
3584.0,-0.0020678197033703327
3840.0,-0.0020502132829278708
4096.0,-0.0015342432307079434
4608.0,0.00027102953754365444
5120.0,0.00019682629499584436
5632.0,-0.000990835134871304
6144.0,0.0011756973108276725
6656.0,-0.0008368117269128561
7168.0,-0.002576821716502309
7680.0,0.003495998214930296
8192.0,-0.001422328408807516
9216.0,0.00013350164226721972
10240.0,-0.0009098201990127563
11264.0,0.000961111334618181
12288.0,-5.8369128964841366e-05
13312.0,-0.0004645476001314819
14336.0,0.0006226982222869992
end
