version,3.0
numOfCh,1
type,point
parent_name,2-cuts
ch_type,1_1
kcount,1
numberNandB,1
brightnessNandB,1
carpet pos,0
pc,0
Time (ms),CH1 Auto-Correlation
1.0,0.028501173481345177
2.0,0.026413528248667717
3.0,0.02462521754205227
4.0,0.02308068424463272
5.0,0.021678999066352844
6.0,0.020424043759703636
7.0,0.01929636113345623
8.0,0.018307790160179138
9.0,0.017394278198480606
10.0,0.016626285389065742
11.0,0.015945328399538994
12.0,0.015287184156477451
13.0,0.014633052051067352
14.0,0.014100847765803337
15.0,0.013607381843030453
16.0,0.01308938767760992
18.0,0.012196327559649944
20.0,0.011516571044921875
22.0,0.011058890260756016
24.0,0.010607619769871235
26.0,0.01019340567290783
28.0,0.009761855937540531
30.0,0.009179429151117802
32.0,0.008586108684539795
36.0,0.007494743913412094
40.0,0.006749515421688557
44.0,0.006088801193982363
48.0,0.0054339272901415825
52.0,0.0049491808749735355
56.0,0.004534887615591288
60.0,0.003848147811368108
64.0,0.0034042424522340298
72.0,0.0032719590235501528
80.0,0.0032967692241072655
88.0,0.0033503309823572636
96.0,0.0029239605646580458
104.0,0.0024480533320456743
112.0,0.0021847907919436693
120.0,0.0022379623260349035
128.0,0.002407533349469304
144.0,0.0021499500144273043
160.0,0.0016188061563298106
176.0,0.0009548457455821335
192.0,0.0004502864321693778
208.0,0.0008421533275395632
224.0,0.0008086767047643661
240.0,0.0006506959325633943
256.0,0.0008317967876791954
288.0,0.0016415724530816078
320.0,0.0014581276336684823
352.0,0.0017111621564254165
384.0,0.002240761648863554
416.0,0.002045773435384035
448.0,0.0015989505918696523
480.0,0.0009246275876648724
512.0,0.0014651952078565955
576.0,0.0006363193970173597
640.0,0.00030273263109847903
704.0,0.0010369537631049752
768.0,-0.0002753600711002946
832.0,-0.0009673571912571788
896.0,-0.0012516176793724298
960.0,-0.0009265944245271385
1024.0,-0.0002656857541296631
1152.0,0.0005495597724802792
1280.0,-0.0002985660976264626
1408.0,-0.0002083384315483272
1536.0,-0.0005083823343738914
1664.0,6.511044193757698e-05
1792.0,0.0011099160183221102
1920.0,0.00043241013190709054
2048.0,0.0017052049515768886
2304.0,-0.001291475142352283
2560.0,-0.0004615550860762596
2816.0,-0.0003899509028997272
3072.0,-8.93800679477863e-05
3328.0,0.0004680567653849721
3584.0,-0.00022542035731021315
3840.0,0.001452578348107636
4096.0,-0.0005659754388034344
4608.0,-0.0007132726605050266
5120.0,-0.001312442123889923
5632.0,-0.0012133627897128463
6144.0,-0.0007897878531366587
6656.0,-0.001474115764722228
7168.0,-0.0012309692101553082
7680.0,0.0007175612263381481
8192.0,0.0020493839401751757
9216.0,-0.001558637828566134
10240.0,0.00043720760731957853
11264.0,0.0020877080969512463
12288.0,0.0005484652938321233
13312.0,-0.0012761382386088371
14336.0,0.0007358226575888693
end
