version,3.0
numOfCh,1
type,point
parent_name,2-cuts
ch_type,1_1
kcount,1
numberNandB,1
brightnessNandB,1
carpet pos,0
pc,0
Time (ms),CH1 Auto-Correlation
1.0,0.0466170534491539
2.0,0.043410103768110275
3.0,0.04057884216308594
4.0,0.03820546716451645
5.0,0.03605571761727333
6.0,0.034179527312517166
7.0,0.03257027268409729
8.0,0.031061552464962006
9.0,0.02963857538998127
10.0,0.028340183198451996
11.0,0.0271542239934206
12.0,0.026156513020396233
13.0,0.02526848018169403
14.0,0.024439599364995956
15.0,0.023658353835344315
16.0,0.022897493094205856
18.0,0.02154390700161457
20.0,0.020328035578131676
22.0,0.019171789288520813
24.0,0.018181433901190758
26.0,0.017389750108122826
28.0,0.016643179580569267
30.0,0.01589258760213852
32.0,0.015214110724627972
36.0,0.014136645942926407
40.0,0.013182206079363823
44.0,0.012589234858751297
48.0,0.012006864883005619
52.0,0.011535556055605412
56.0,0.011181105859577656
60.0,0.01097848266363144
64.0,0.010781393386423588
72.0,0.010100731626152992
80.0,0.00935338344424963
88.0,0.00891035608947277
96.0,0.008457873947918415
104.0,0.00869876891374588
112.0,0.008789697661995888
120.0,0.008007545955479145
128.0,0.007525825873017311
144.0,0.006662816274911165
160.0,0.006372636184096336
176.0,0.005731731187552214
192.0,0.0051851216703653336
208.0,0.005294193513691425
224.0,0.00446547893807292
240.0,0.0029777027666568756
256.0,0.002596921054646373
288.0,0.0018370823236182332
320.0,0.0008107576868496835
352.0,1.694447928457521e-05
384.0,-0.0005374985048547387
416.0,-0.0004571856406982988
448.0,0.0013342247111722827
480.0,0.0012090853415429592
512.0,-0.00033828685991466045
576.0,-0.00045773579040542245
640.0,-0.0007766495109535754
704.0,-0.0008351572323590517
768.0,-0.0005842350656166673
832.0,0.002394061768427491
896.0,0.002165410667657852
960.0,0.0023295588325709105
1024.0,0.0012314182240515947
1152.0,0.0016605237033218145
1280.0,0.0031232191249728203
1408.0,0.0009427801123820245
1536.0,-2.4519509679521434e-05
1664.0,0.00022934272419661283
1792.0,0.0013905743835493922
1920.0,-0.0002482130075804889
2048.0,9.44560042626108e-07
2304.0,-0.00036455533700063825
2560.0,-0.0014396562473848462
2816.0,0.001454428769648075
3072.0,0.0016873717540875077
3328.0,-8.651021198602393e-05
3584.0,0.00012883149611297995
3840.0,0.0016891567502170801
4096.0,0.0009248185670003295
4608.0,0.0008858858491294086
5120.0,0.0011379447532817721
5632.0,0.0013103645760565996
6144.0,-9.725758718559518e-05
6656.0,-0.0016292404616251588
7168.0,-0.0016344769392162561
7680.0,-0.001967452932149172
8192.0,-0.002992690773680806
9216.0,-0.0009229788556694984
10240.0,-0.001280693570151925
11264.0,-0.003723790170624852
12288.0,-0.004375191871076822
13312.0,-0.0026272975374013186
14336.0,0.0006330047035589814
end
