version,3.0
numOfCh,1
type,point
parent_name,2-cuts
ch_type,1_1
kcount,1
numberNandB,1
brightnessNandB,1
carpet pos,0
pc,0
Time (ms),CH1 Auto-Correlation
1.0,0.03998391702771187
2.0,0.03687319904565811
3.0,0.03420440852642059
4.0,0.03173718601465225
5.0,0.02961510419845581
6.0,0.027757911011576653
7.0,0.026036975905299187
8.0,0.024533217772841454
9.0,0.0231397096067667
10.0,0.021884797140955925
11.0,0.020715918391942978
12.0,0.019706444814801216
13.0,0.018768781796097755
14.0,0.017927665263414383
15.0,0.01714623160660267
16.0,0.01635783165693283
18.0,0.014976364560425282
20.0,0.013842235319316387
22.0,0.013060073368251324
24.0,0.012421900406479836
26.0,0.01180018950253725
28.0,0.011097520589828491
30.0,0.010488315485417843
32.0,0.009877902455627918
36.0,0.008960673585534096
40.0,0.008889077231287956
44.0,0.008756122551858425
48.0,0.008206178434193134
52.0,0.008273929357528687
56.0,0.007871528156101704
60.0,0.00722717447206378
64.0,0.006346699316054583
72.0,0.00511006498709321
80.0,0.003924623131752014
88.0,0.0028622066602110863
96.0,0.0021784179843962193
104.0,0.001034789253026247
112.0,0.0008415859774686396
120.0,0.001088357879780233
128.0,0.0010568926809355617
144.0,0.0011139627313241363
160.0,0.0002891366311814636
176.0,0.0002778497291728854
192.0,0.001959073357284069
208.0,0.00177770818118006
224.0,0.0009210079442709684
240.0,0.000572503951843828
256.0,-0.00023718694865237921
288.0,-0.00041296586277894676
320.0,0.00039377252687700093
352.0,-0.0012885414762422442
384.0,-0.0026900062803179026
416.0,-0.003171267919242382
448.0,-0.00339663028717041
480.0,-0.0032997920643538237
512.0,-0.0018778810044750571
576.0,-0.003049902617931366
640.0,-0.0014858460053801537
704.0,0.0012760962126776576
768.0,0.0028109955601394176
832.0,0.0030951332300901413
896.0,0.0005506876623257995
960.0,0.0014602832961827517
1024.0,0.002460887422785163
1152.0,-0.0003904253535438329
1280.0,-0.002674680668860674
1408.0,-0.0020895004272460938
1536.0,-0.0017036017961800098
1664.0,0.001029529026709497
1792.0,0.0013675752561539412
1920.0,0.0010829963721334934
2048.0,0.0010105440160259604
2304.0,0.0010146789718419313
2560.0,-0.0022330766078084707
2816.0,0.0011304012732580304
3072.0,0.001193242846056819
3328.0,-0.0008676701108925045
3584.0,-0.0010482342913746834
3840.0,0.0016272504581138492
4096.0,0.00042518999543972313
4608.0,0.0006196297472342849
5120.0,-0.0011142885778099298
5632.0,8.14527302281931e-05
6144.0,1.1871318292833166e-06
6656.0,-8.50315554998815e-05
7168.0,0.00041832984425127506
7680.0,-0.0005459533422254026
8192.0,0.000756867288146168
9216.0,0.00023216658155433834
10240.0,0.00040618234197609127
11264.0,-0.000747178157325834
12288.0,-0.0008576099062338471
13312.0,-0.00029027974233031273
14336.0,-0.0012394324876368046
end
