version,3.0
numOfCh,1
type,point
parent_name,2-cuts
ch_type,1_1
kcount,1
numberNandB,1
brightnessNandB,1
carpet pos,0
pc,0
Time (ms),CH1 Auto-Correlation
1.0,0.029179316014051437
2.0,0.02706506848335266
3.0,0.025265509262681007
4.0,0.02370951697230339
5.0,0.022360578179359436
6.0,0.02118891105055809
7.0,0.020068179816007614
8.0,0.019143132492899895
9.0,0.01823575422167778
10.0,0.017405575141310692
11.0,0.01669074036180973
12.0,0.01603786088526249
13.0,0.015483616851270199
14.0,0.014966659247875214
15.0,0.014451378956437111
16.0,0.014064407907426357
18.0,0.01340271532535553
20.0,0.012908438220620155
22.0,0.01244429126381874
24.0,0.011900017037987709
26.0,0.011383553966879845
28.0,0.010885092429816723
30.0,0.010318250395357609
32.0,0.009775602258741856
36.0,0.008609885349869728
40.0,0.007501757703721523
44.0,0.006863004062324762
48.0,0.006399395875632763
52.0,0.005834715440869331
56.0,0.005401375703513622
60.0,0.005032391753047705
64.0,0.004776718560606241
72.0,0.004336021840572357
80.0,0.0038247478660196066
88.0,0.003120441222563386
96.0,0.003003757679834962
104.0,0.003250078996643424
112.0,0.0030557666905224323
120.0,0.0032072325702756643
128.0,0.003232368268072605
144.0,0.002207364421337843
160.0,0.0014335839077830315
176.0,0.0003527140070218593
192.0,0.0002615919220261276
208.0,0.0011178076965734363
224.0,0.001474142074584961
240.0,0.0019938426557928324
256.0,0.00211656978353858
288.0,0.002556792926043272
320.0,0.0019030218245461583
352.0,0.0015822795685380697
384.0,-3.9891172491479665e-05
416.0,-0.00020783183572348207
448.0,-0.0006649025017395616
480.0,-0.0008346909889951348
512.0,-0.0005164897884242237
576.0,-0.0010701344581320882
640.0,0.000835708633530885
704.0,-0.0005479947431012988
768.0,-0.00026507131406106055
832.0,-0.0009036033297888935
896.0,-0.0006640726933255792
960.0,-0.00013610722089651972
1024.0,0.0003145259397570044
1152.0,-0.0013578531797975302
1280.0,-0.0014682258479297161
1408.0,0.0002894127683248371
1536.0,-0.00016856663569342345
1664.0,0.0009606397361494601
1792.0,0.0006956742145121098
1920.0,-0.0005346469697542489
2048.0,-4.336624260758981e-05
2304.0,-0.0006847375771030784
2560.0,-0.0005469089956022799
2816.0,-0.0011835857294499874
3072.0,-0.00022986665135249496
3328.0,-0.0004183669516351074
3584.0,0.0006065710913389921
3840.0,-0.0006379888509400189
4096.0,-0.0006021271692588925
4608.0,-0.0010830214014276862
5120.0,0.00027394091011956334
5632.0,0.00010028451652033255
6144.0,-0.0003731973993126303
6656.0,0.00020104240684304386
7168.0,0.0002820974332280457
7680.0,0.00041414162842556834
8192.0,0.001858070376329124
9216.0,0.0007223615539260209
10240.0,-0.0017757469322532415
11264.0,-0.0009750642930157483
12288.0,0.0011021285317838192
13312.0,-0.0006047405186109245
14336.0,-0.0012034259270876646
end
