version,3.0
numOfCh,1
type,point
parent_name,2-cuts
ch_type,1_1
kcount,1
numberNandB,1
brightnessNandB,1
carpet pos,0
pc,0
Time (ms),CH1 Auto-Correlation
1.0,0.03926757723093033
2.0,0.03605223819613457
3.0,0.033316560089588165
4.0,0.031013524159789085
5.0,0.029039155691862106
6.0,0.027393121272325516
7.0,0.025869572535157204
8.0,0.024490276351571083
9.0,0.023269331082701683
10.0,0.02218472585082054
11.0,0.021144017577171326
12.0,0.02033454179763794
13.0,0.01957887038588524
14.0,0.018912196159362793
15.0,0.018131371587514877
16.0,0.01744181104004383
18.0,0.01598195545375347
20.0,0.014535441063344479
22.0,0.013264060951769352
24.0,0.012048888951539993
26.0,0.011157742701470852
28.0,0.01050983089953661
30.0,0.009762815199792385
32.0,0.009139170870184898
36.0,0.008372150361537933
40.0,0.00758314086124301
44.0,0.006821905262768269
48.0,0.006301020737737417
52.0,0.0061224098317325115
56.0,0.005869880318641663
60.0,0.005046005826443434
64.0,0.0042876871302723885
72.0,0.004000922664999962
80.0,0.004131510853767395
88.0,0.003952313680201769
96.0,0.004450836684554815
104.0,0.004412250593304634
112.0,0.003906822297722101
120.0,0.0033547140192240477
128.0,0.002662403043359518
144.0,0.0022261471021920443
160.0,0.001044731237925589
176.0,0.0006872026715427637
192.0,0.0012047012569382787
208.0,0.002914110664278269
224.0,0.003544991370290518
240.0,0.004733298905193806
256.0,0.004925273824483156
288.0,0.0017403288511559367
320.0,0.0017059934325516224
352.0,0.0017023765249177814
384.0,0.0018532888498157263
416.0,0.0029107220470905304
448.0,0.0014915596693754196
480.0,0.0023120278492569923
512.0,0.0011586201144382358
576.0,-0.0008251385879702866
640.0,0.0005051699699833989
704.0,0.0005002373363822699
768.0,0.0005041947006247938
832.0,0.0004266216419637203
896.0,-0.0005269019748084247
960.0,-0.0017403530655428767
1024.0,-0.0008367732516489923
1152.0,-0.00010489838314242661
1280.0,-0.0011284088250249624
1408.0,-0.0013731839135289192
1536.0,-0.00012896000407636166
1664.0,-0.0007926991675049067
1792.0,-0.0004953373572789133
1920.0,-4.598025407176465e-05
2048.0,-5.8906665799440816e-05
2304.0,0.0005485238507390022
2560.0,0.0005550634232349694
2816.0,6.244867108762264e-06
3072.0,0.0006461197044700384
3328.0,-0.0006232368759810925
3584.0,0.001397723681293428
3840.0,-0.0001416176528437063
4096.0,-0.0012842117575928569
4608.0,0.0001673026999924332
5120.0,0.0005961963324807584
5632.0,6.605876114917919e-05
6144.0,-0.0001687907351879403
6656.0,-0.0007543371757492423
7168.0,-0.001206143293529749
7680.0,-0.001184386434033513
8192.0,-0.0009519105078652501
9216.0,-0.0007681587594561279
10240.0,-0.001762093510478735
11264.0,0.00016212569607887417
12288.0,-4.2469455365790054e-05
13312.0,7.436832675011829e-05
14336.0,6.646358542639064e-06
end
