version,3.0
numOfCh,1
type,point
parent_name,2-cuts
ch_type,1_1
kcount,1
numberNandB,1
brightnessNandB,1
carpet pos,0
pc,0
Time (ms),CH1 Auto-Correlation
1.0,0.08781790733337402
2.0,0.0808771550655365
3.0,0.07497211545705795
4.0,0.06967368721961975
5.0,0.06509583443403244
6.0,0.061066966503858566
7.0,0.05757266655564308
8.0,0.05444232374429703
9.0,0.05147724598646164
10.0,0.048887111246585846
11.0,0.04663698747754097
12.0,0.04441169649362564
13.0,0.042231135070323944
14.0,0.04021703451871872
15.0,0.03833652660250664
16.0,0.03665834292769432
18.0,0.034134410321712494
20.0,0.031536001712083817
22.0,0.029170865193009377
24.0,0.026870809495449066
26.0,0.025047441944479942
28.0,0.023435408249497414
30.0,0.022151008248329163
32.0,0.021152079105377197
36.0,0.019123632460832596
40.0,0.017683953046798706
44.0,0.01616661064326763
48.0,0.014730732887983322
52.0,0.013433839194476604
56.0,0.012501146644353867
60.0,0.011876823380589485
64.0,0.01061487291008234
72.0,0.00896031316369772
80.0,0.008372132666409016
88.0,0.006547524128109217
96.0,0.003618560265749693
104.0,0.0030288398265838623
112.0,0.002704281359910965
120.0,0.002322944812476635
128.0,0.0022933867294341326
144.0,0.0011427376884967089
160.0,0.00017382990336045623
176.0,0.0002676006406545639
192.0,-0.0002321063366252929
208.0,0.0010927901603281498
224.0,0.0017050944734364748
240.0,0.00068137381458655
256.0,0.001663239672780037
288.0,0.0044997381046414375
320.0,0.001632395200431347
352.0,0.001221274258568883
384.0,-0.0007973933243192732
416.0,-0.0034680787939578295
448.0,-0.00421963119879365
480.0,-0.002189449965953827
512.0,-0.003449981100857258
576.0,-0.0018008124316111207
640.0,-0.000341581559041515
704.0,-0.0029754380229860544
768.0,-0.001284077879972756
832.0,-0.0022664640564471483
896.0,0.0007166615687310696
960.0,-0.00027619776665233076
1024.0,0.0020530831534415483
1152.0,0.0006251214654184878
1280.0,-0.0016032388666644692
1408.0,0.003502580104395747
1536.0,-0.00456484779715538
1664.0,0.0020993570797145367
1792.0,0.00012971677642781287
1920.0,0.002187503734603524
2048.0,0.0060102385468780994
2304.0,0.0009662134689278901
2560.0,0.0001958387583727017
2816.0,-0.001196801196783781
3072.0,-0.0002793004096020013
3328.0,0.00036400911631062627
3584.0,-0.002011142438277602
3840.0,0.0032113795168697834
4096.0,0.0018585554789751768
4608.0,-0.0006976922159083188
5120.0,0.001146099646575749
5632.0,-0.0028372311498969793
6144.0,0.0005501071573235095
6656.0,0.0003451479133218527
7168.0,-0.0006240846705622971
7680.0,-0.005461148452013731
8192.0,-0.0007152082398533821
9216.0,-0.000320655875839293
10240.0,-0.0018184519140049815
11264.0,-5.149580101715401e-05
12288.0,-4.2758376366691664e-05
13312.0,-0.0017739410977810621
14336.0,-0.0020788570400327444
end
