version,3.0
numOfCh,1
type,point
parent_name,2-cuts
ch_type,1_1
kcount,1
numberNandB,1
brightnessNandB,1
carpet pos,0
pc,0
Time (ms),CH1 Auto-Correlation
1.0,0.02655462734401226
2.0,0.02443040907382965
3.0,0.02262737788259983
4.0,0.021119343116879463
5.0,0.01976393163204193
6.0,0.01857364922761917
7.0,0.01753249578177929
8.0,0.016620289534330368
9.0,0.01579519361257553
10.0,0.015077926218509674
11.0,0.014380425214767456
12.0,0.01374621968716383
13.0,0.013144324533641338
14.0,0.01266009733080864
15.0,0.0122181735932827
16.0,0.011761114001274109
18.0,0.010825718753039837
20.0,0.009925758466124535
22.0,0.009142719209194183
24.0,0.008466964587569237
26.0,0.007915597409009933
28.0,0.007413461338728666
30.0,0.007077548652887344
32.0,0.006776457652449608
36.0,0.00601987075060606
40.0,0.005430895835161209
44.0,0.005084761884063482
48.0,0.004771111998707056
52.0,0.004401246085762978
56.0,0.0037481330800801516
60.0,0.0032378367614001036
64.0,0.0032635489478707314
72.0,0.003123632399365306
80.0,0.002578968182206154
88.0,0.0022324067540466785
96.0,0.0019694336224347353
104.0,0.001827070489525795
112.0,0.0014378662453964353
120.0,0.0009972518309950829
128.0,0.0005711055709980428
144.0,7.665402517886832e-05
160.0,-0.0005206514033488929
176.0,-0.00025182703393511474
192.0,0.0004134648770559579
208.0,0.00035271301749162376
224.0,0.0005354704335331917
240.0,0.0011806214461103082
256.0,0.0012731484603136778
288.0,9.8361138952896e-05
320.0,-0.0004011064884252846
352.0,-0.0006777974776923656
384.0,-0.0011253440752625465
416.0,5.575965769821778e-05
448.0,0.000722429424058646
480.0,0.0008842741954140365
512.0,0.0013705277815461159
576.0,0.0019393152324482799
640.0,0.0014857517089694738
704.0,0.0013954573078081012
768.0,0.0011214292608201504
832.0,5.126435280544683e-05
896.0,0.00143118214327842
960.0,0.000768980709835887
1024.0,1.4126653695711866e-05
1152.0,-0.001070674043148756
1280.0,0.0007864229846745729
1408.0,0.001986280083656311
1536.0,-0.0005909937899559736
1664.0,-0.0018082921160385013
1792.0,-0.0008830245351418853
1920.0,0.0003565940132830292
2048.0,-0.000954022747464478
2304.0,-0.0005851607420481741
2560.0,-0.001291816821321845
2816.0,-0.000623363652266562
3072.0,-0.0013756750850006938
3328.0,0.0007401074981316924
3584.0,-0.0008732315036468208
3840.0,-0.001187097281217575
4096.0,-0.00017006830603349954
4608.0,-1.4061057299841195e-05
5120.0,0.0007278534467332065
5632.0,0.0001145077621913515
6144.0,-0.0004948761197738349
6656.0,-0.00011544455628609285
7168.0,-0.0007006951491348445
7680.0,-0.000789993500802666
8192.0,0.00036595031269825995
9216.0,0.00020108053286094218
10240.0,0.0007135110208764672
11264.0,-0.000166967831319198
12288.0,-0.00041009916458278894
13312.0,0.0009459116845391691
14336.0,-0.0005767231341451406
end
