version,3.0
numOfCh,1
type,point
parent_name,2-cuts
ch_type,1_1
kcount,1
numberNandB,1
brightnessNandB,1
carpet pos,0
pc,0
Time (ms),CH1 Auto-Correlation
1.0,0.04514126852154732
2.0,0.04191455617547035
3.0,0.03914058208465576
4.0,0.036787938326597214
5.0,0.034692518413066864
6.0,0.03280111402273178
7.0,0.031040258705615997
8.0,0.029452847316861153
9.0,0.027984248474240303
10.0,0.02668883465230465
11.0,0.025537606328725815
12.0,0.024435123428702354
13.0,0.02336546964943409
14.0,0.022359441965818405
15.0,0.02141636051237583
16.0,0.020520856603980064
18.0,0.018941456452012062
20.0,0.017631791532039642
22.0,0.01634746603667736
24.0,0.01521341037005186
26.0,0.014284794218838215
28.0,0.013532568700611591
30.0,0.012973896227777004
32.0,0.012337746098637581
36.0,0.01137450709939003
40.0,0.010386303067207336
44.0,0.009661403484642506
48.0,0.008832624182105064
52.0,0.008133554831147194
56.0,0.008109821937978268
60.0,0.007803318090736866
64.0,0.007369633764028549
72.0,0.006703551858663559
80.0,0.00600869907066226
88.0,0.005393592640757561
96.0,0.0051403893157839775
104.0,0.00509056868031621
112.0,0.0042884270660579205
120.0,0.005032449960708618
128.0,0.005574497859925032
144.0,0.004520228132605553
160.0,0.002600985113531351
176.0,0.002170933410525322
192.0,0.002290690317749977
208.0,0.002231248188763857
224.0,0.0019900298211723566
240.0,0.0007584741106256843
256.0,-0.0007127651479095221
288.0,8.692080882610753e-05
320.0,0.0012417590478435159
352.0,0.0011972280917689204
384.0,-1.1246003850828856e-05
416.0,9.123053314397112e-05
448.0,0.0006314880447462201
480.0,-0.00010211092012468725
512.0,-0.0022548213601112366
576.0,-0.0022819789592176676
640.0,-0.0012285703560337424
704.0,-1.5808369425940327e-05
768.0,-0.0005382809904403985
832.0,-0.0017999678384512663
896.0,-0.0014436176279559731
960.0,-0.0009447286720387638
1024.0,-0.0010701192077249289
1152.0,-0.001495441421866417
1280.0,-0.0014837050111964345
1408.0,-0.003549124114215374
1536.0,-0.0028518245089799166
1664.0,-0.001274832640774548
1792.0,-0.0008512047352269292
1920.0,0.0013582200044766068
2048.0,-5.745447924709879e-05
2304.0,0.0010461431229487062
2560.0,-0.00015951195382513106
2816.0,-0.0008053808123804629
3072.0,0.00037289559259079397
3328.0,0.0007694793166592717
3584.0,-3.232323797419667e-05
3840.0,5.858997246832587e-05
4096.0,0.0001031286155921407
4608.0,-0.0007181562250480056
5120.0,-7.4588147981558e-05
5632.0,0.0009128571255132556
6144.0,0.001712176250293851
6656.0,-0.0008882000111043453
7168.0,-0.0013748969649896026
7680.0,-0.0001265739556401968
8192.0,0.0004700500867329538
9216.0,-0.0009414126980118454
10240.0,0.00011714856373146176
11264.0,0.0008808606071397662
12288.0,0.00023623880406375974
13312.0,-0.0031268273014575243
14336.0,0.0026190096978098154
end
