version,3.0
numOfCh,1
type,point
parent_name,2-cuts
ch_type,1_1
kcount,1
numberNandB,1
brightnessNandB,1
carpet pos,0
pc,0
Time (ms),CH1 Auto-Correlation
1.0,0.09034862369298935
2.0,0.08318842947483063
3.0,0.07704130560159683
4.0,0.07179976254701614
5.0,0.06712378561496735
6.0,0.06306235492229462
7.0,0.059774819761514664
8.0,0.05660058557987213
9.0,0.05364391580224037
10.0,0.05084257945418358
11.0,0.04836701974272728
12.0,0.046040404587984085
13.0,0.04403159022331238
14.0,0.04229942336678505
15.0,0.04081886634230614
16.0,0.03889533504843712
18.0,0.03554349020123482
20.0,0.0327746756374836
22.0,0.03060629963874817
24.0,0.028766965493559837
26.0,0.026638850569725037
28.0,0.024623222649097443
30.0,0.022384772077202797
32.0,0.020491423085331917
36.0,0.0181706752628088
40.0,0.01563113182783127
44.0,0.01405379083007574
48.0,0.01312323473393917
52.0,0.012827295809984207
56.0,0.012645147740840912
60.0,0.012593754567205906
64.0,0.012508446350693703
72.0,0.01206729095429182
80.0,0.012163441628217697
88.0,0.01138654351234436
96.0,0.010163887403905392
104.0,0.010348782874643803
112.0,0.009044292382895947
120.0,0.006291924975812435
128.0,0.00409472081810236
144.0,0.0012556207366287708
160.0,0.0020666003692895174
176.0,0.004165740218013525
192.0,0.004482586868107319
208.0,0.003916562534868717
224.0,-0.00031791251967661083
240.0,0.004322200082242489
256.0,0.006129082292318344
288.0,0.007859420031309128
320.0,0.0019260295666754246
352.0,-0.002191315172240138
384.0,-0.0003221542574465275
416.0,-0.004408878739923239
448.0,-0.0034442192409187555
480.0,-0.0020184062886983156
512.0,-0.0007150282035581768
576.0,-0.0016273182118311524
640.0,-0.0003954970452468842
704.0,-0.0003710613236762583
768.0,0.0033629515673965216
832.0,0.0036997897550463676
896.0,0.002906688256189227
960.0,0.0016751063521951437
1024.0,0.004102020990103483
1152.0,-0.0030040100682526827
1280.0,0.0012040970614179969
1408.0,0.0009676744812168181
1536.0,0.0018192208372056484
1664.0,0.003331598360091448
1792.0,0.0010928913252428174
1920.0,-0.0027077377308160067
2048.0,-0.004322598688304424
2304.0,0.002816380700096488
2560.0,0.004389610141515732
2816.0,-0.0014959286199882627
3072.0,-0.00038310987292788923
3328.0,0.0044179921969771385
3584.0,-0.0016277332324534655
3840.0,-0.002691136207431555
4096.0,0.0032569249160587788
4608.0,-0.004188144579529762
5120.0,0.0016697897808626294
5632.0,-0.00014678400475531816
6144.0,-0.0015886676264926791
6656.0,0.000938298471737653
7168.0,-0.0031972681172192097
7680.0,-0.005999417044222355
8192.0,0.0021164114587008953
9216.0,-0.002681856509298086
10240.0,-0.0026843142695724964
11264.0,-0.002679072320461273
12288.0,0.0036959475837647915
13312.0,-0.0034453412517905235
14336.0,0.0014115996891632676
end
