version,3.0
numOfCh,1
type,point
parent_name,2-cuts
ch_type,1_1
kcount,1
numberNandB,1
brightnessNandB,1
carpet pos,0
pc,0
Time (ms),CH1 Auto-Correlation
1.0,0.04015442728996277
2.0,0.03697974607348442
3.0,0.03424326330423355
4.0,0.03183969482779503
5.0,0.02973637357354164
6.0,0.02789214998483658
7.0,0.02631138265132904
8.0,0.02489088475704193
9.0,0.023517990484833717
10.0,0.02225121110677719
11.0,0.021124543622136116
12.0,0.0201963372528553
13.0,0.019375646486878395
14.0,0.01865633949637413
15.0,0.018002284690737724
16.0,0.017427317798137665
18.0,0.01657458394765854
20.0,0.01584937609732151
22.0,0.015143577009439468
24.0,0.014247202314436436
26.0,0.013253637589514256
28.0,0.012360011227428913
30.0,0.011551537550985813
32.0,0.010943437926471233
36.0,0.010142532177269459
40.0,0.00958704762160778
44.0,0.008798214606940746
48.0,0.00800030305981636
52.0,0.007390107028186321
56.0,0.006772307679057121
60.0,0.006322634872049093
64.0,0.00566041748970747
72.0,0.004607293754816055
80.0,0.003383386181667447
88.0,0.0027847890742123127
96.0,0.002550598466768861
104.0,0.0019287940813228488
112.0,0.001830735127441585
120.0,0.0015929744113236666
128.0,0.0018504881300032139
144.0,0.0018829890759661794
160.0,0.0015715659828856587
176.0,0.0012106127105653286
192.0,-6.808635225752369e-05
208.0,-0.0006033902172930539
224.0,-0.0010212509660050273
240.0,-0.0002439576928736642
256.0,7.739849934296217e-06
288.0,2.843629044946283e-05
320.0,-0.00024567023501731455
352.0,0.0005551006179302931
384.0,0.0008593904203735292
416.0,0.0010442908387631178
448.0,0.001077464665286243
480.0,0.0007758086430840194
512.0,0.0011220070300623775
576.0,0.0006051892414689064
640.0,0.0009773133788257837
704.0,0.0018493966199457645
768.0,0.0008893585181795061
832.0,0.0008668518858030438
896.0,0.0012393156066536903
960.0,-0.0001666997850406915
1024.0,-0.000317515863571316
1152.0,0.0006397797842510045
1280.0,0.00027322579990141094
1408.0,0.001047514728270471
1536.0,-0.0003499173908494413
1664.0,0.00017286486399825662
1792.0,0.0002587769995443523
1920.0,0.0002697303716558963
2048.0,-0.0009677716298028827
2304.0,-0.0012581022456288338
2560.0,-0.00012897032138425857
2816.0,-0.0011589546920731664
3072.0,-0.0016109386924654245
3328.0,-0.002256517531350255
3584.0,-0.0005162438028492033
3840.0,-0.0011260147439315915
4096.0,-0.0004922858206555247
4608.0,0.0002464951539877802
5120.0,0.00012087642244296148
5632.0,-0.0005381467053666711
6144.0,0.00014686942449770868
6656.0,0.00030456052627414465
7168.0,0.00010002654016716406
7680.0,-0.0014856865163892508
8192.0,-0.0005747838295064867
9216.0,-2.173480243072845e-05
10240.0,0.00041502699605189264
11264.0,0.001490193186327815
12288.0,0.00013396638678386807
13312.0,-0.00039270147681236267
14336.0,-0.001260065590031445
end
