version,3.0
numOfCh,1
type,point
parent_name,2-cuts
ch_type,1_1
kcount,1
numberNandB,1
brightnessNandB,1
carpet pos,0
pc,0
Time (ms),CH1 Auto-Correlation
1.0,0.09127035737037659
2.0,0.08427315950393677
3.0,0.07854179292917252
4.0,0.07350623607635498
5.0,0.06915783882141113
6.0,0.0652313232421875
7.0,0.0615120604634285
8.0,0.05823366716504097
9.0,0.05529007315635681
10.0,0.05266137421131134
11.0,0.050080060958862305
12.0,0.04765089601278305
13.0,0.04525613784790039
14.0,0.043160080909729004
15.0,0.04115791246294975
16.0,0.03949733451008797
18.0,0.03634732589125633
20.0,0.033907197415828705
22.0,0.03194065019488335
24.0,0.02997503988444805
26.0,0.0281671192497015
28.0,0.02691904455423355
30.0,0.02610214799642563
32.0,0.025301987305283546
36.0,0.02314193733036518
40.0,0.02126733958721161
44.0,0.0196518637239933
48.0,0.01840897835791111
52.0,0.017489125952124596
56.0,0.01673172041773796
60.0,0.0164647214114666
64.0,0.015460524708032608
72.0,0.013615734875202179
80.0,0.012968504801392555
88.0,0.012760652229189873
96.0,0.013232164084911346
104.0,0.013332884758710861
112.0,0.013427509926259518
120.0,0.014040184207260609
128.0,0.012142631225287914
144.0,0.008614293299615383
160.0,0.007300147321075201
176.0,0.006655698176473379
192.0,0.009856288321316242
208.0,0.009816516190767288
224.0,0.004170257598161697
240.0,-0.0007314885733649135
256.0,-0.0021404200233519077
288.0,-0.005473937373608351
320.0,-0.0071875788271427155
352.0,-0.010013202205300331
384.0,-0.007545364089310169
416.0,-0.006180195137858391
448.0,-0.00794887077063322
480.0,-0.00732837151736021
512.0,-0.006769558880478144
576.0,-0.0023563022259622812
640.0,-0.0011798429768532515
704.0,-0.0006183231598697603
768.0,0.0004039020277559757
832.0,-0.00025074699078686535
896.0,-0.001119245309382677
960.0,-0.002022064058110118
1024.0,-0.002021864987909794
1152.0,-0.0002512768260203302
1280.0,0.002589030656963587
1408.0,0.004287286661565304
1536.0,0.0059914118610322475
1664.0,0.0012583108618855476
1792.0,-0.00015024724416434765
1920.0,-0.003135352162644267
2048.0,-0.005566691048443317
2304.0,-0.005999249871820211
2560.0,-0.0009774708887562156
2816.0,0.0004858678439632058
3072.0,0.005946123506873846
3328.0,0.0024962022434920073
3584.0,-0.0003545871586538851
3840.0,-0.0028597551863640547
4096.0,0.0015816775849089026
4608.0,0.0019931751303374767
5120.0,-3.964404095313512e-05
5632.0,-0.0026410529389977455
6144.0,-0.0005199189181439579
6656.0,-0.0024130777455866337
7168.0,0.0003917713765986264
7680.0,0.0029210399370640516
8192.0,6.2552758208767045e-06
9216.0,0.0005692102131433785
10240.0,-0.0025865992065519094
11264.0,-0.001451859250664711
12288.0,0.00014522610581479967
13312.0,-0.0024268312845379114
14336.0,-0.00588231673464179
end
