version,3.0
numOfCh,1
type,point
parent_name,2-cuts
ch_type,1_1
kcount,1
numberNandB,1
brightnessNandB,1
carpet pos,0
pc,0
Time (ms),CH1 Auto-Correlation
1.0,0.028582924976944923
2.0,0.02647031471133232
3.0,0.024590929970145226
4.0,0.02298349142074585
5.0,0.021611914038658142
6.0,0.020323598757386208
7.0,0.019225725904107094
8.0,0.018248239532113075
9.0,0.017343632876873016
10.0,0.01656586490571499
11.0,0.01591460593044758
12.0,0.015284263528883457
13.0,0.014680705964565277
14.0,0.014203069731593132
15.0,0.013677270151674747
16.0,0.013156863860785961
18.0,0.012317027896642685
20.0,0.01166258193552494
22.0,0.010973361320793629
24.0,0.01032907236367464
26.0,0.009663324803113937
28.0,0.008982558734714985
30.0,0.008376182056963444
32.0,0.00788586400449276
36.0,0.006871742662042379
40.0,0.006146195810288191
44.0,0.005274549592286348
48.0,0.00444538751617074
52.0,0.003920711576938629
56.0,0.0034828553907573223
60.0,0.0032284322660416365
64.0,0.0029915908817201853
72.0,0.0029213463421911
80.0,0.0029422463849186897
88.0,0.003191536758095026
96.0,0.003307521343231201
104.0,0.0034124143421649933
112.0,0.003482363186776638
120.0,0.0029616483952850103
128.0,0.002508132718503475
144.0,0.0017806310206651688
160.0,0.0014814439928159118
176.0,0.0019793836399912834
192.0,0.0015852713258937001
208.0,0.0013084366219118237
224.0,-5.6300461437786e-05
240.0,-0.00017343317449558526
256.0,-0.00039228523382917047
288.0,-0.0005105151212774217
320.0,0.0004493025771807879
352.0,-0.0004355342243798077
384.0,-0.0001816534495446831
416.0,9.267965651815757e-05
448.0,0.00024629183462820947
480.0,7.060966891003773e-05
512.0,0.0005443584523163736
576.0,0.0011378403287380934
640.0,0.0008902911213226616
704.0,-0.0010182401165366173
768.0,-0.00033062006696127355
832.0,-0.0001131302778958343
896.0,0.00021773509797640145
960.0,0.0014325418742373586
1024.0,-0.00033769875881262124
1152.0,-0.00013504533853847533
1280.0,0.00021309329895302653
1408.0,0.0008945084409788251
1536.0,0.0007439822074957192
1664.0,0.0008978638215921819
1792.0,0.0008994317031465471
1920.0,0.0018483358435332775
2048.0,0.00129502743948251
2304.0,1.795418756955769e-05
2560.0,0.0013579173246398568
2816.0,0.0005243848427198827
3072.0,0.0008132747025229037
3328.0,-0.00038843980291858315
3584.0,-0.00010364113404648378
3840.0,-0.0003514858544804156
4096.0,-7.379852468147874e-05
4608.0,0.0007153994520194829
5120.0,-0.0011058548698201776
5632.0,0.000375496776541695
6144.0,-0.0009497420978732407
6656.0,0.0006452052039094269
7168.0,-0.0005849126027897
7680.0,-0.0009535072022117674
8192.0,-0.0007047016988508403
9216.0,-0.0007009980035945773
10240.0,-0.0014313359279185534
11264.0,-0.00037378448178060353
12288.0,-0.0015452514635398984
13312.0,-0.0006730048917233944
14336.0,-0.00016275569214485586
end
