version,3.0
numOfCh,1
type,point
parent_name,2-cuts
ch_type,1_1
kcount,1
numberNandB,1
brightnessNandB,1
carpet pos,0
pc,0
Time (ms),CH1 Auto-Correlation
1.0,0.09480100870132446
2.0,0.08781477808952332
3.0,0.08187460154294968
4.0,0.07686612010002136
5.0,0.07257585227489471
6.0,0.06877385079860687
7.0,0.06552676111459732
8.0,0.06234292313456535
9.0,0.05947566404938698
10.0,0.05679398030042648
11.0,0.05431612953543663
12.0,0.05178806930780411
13.0,0.04946168139576912
14.0,0.047305162996053696
15.0,0.045224033296108246
16.0,0.04331415891647339
18.0,0.040280018001794815
20.0,0.037594713270664215
22.0,0.03514924272894859
24.0,0.032735880464315414
26.0,0.03087114542722702
28.0,0.029210371896624565
30.0,0.02789875492453575
32.0,0.02674138732254505
36.0,0.025428008288145065
40.0,0.023826319724321365
44.0,0.022720370441675186
48.0,0.02087954431772232
52.0,0.019132941961288452
56.0,0.017727108672261238
60.0,0.017064815387129784
64.0,0.016159407794475555
72.0,0.012734507210552692
80.0,0.011578408069908619
88.0,0.011060403659939766
96.0,0.010555672459304333
104.0,0.009080495685338974
112.0,0.008992544375360012
120.0,0.008021313697099686
128.0,0.006321780849248171
144.0,0.006548838224261999
160.0,0.0070308116264641285
176.0,0.005590410437434912
192.0,0.007145658601075411
208.0,0.007306477054953575
224.0,0.006636480335146189
240.0,0.00861511193215847
256.0,0.009672814048826694
288.0,0.009825889021158218
320.0,0.007917347364127636
352.0,0.003463794942945242
384.0,0.00026723381597548723
416.0,0.0007213981007225811
448.0,0.004169453866779804
480.0,0.0024052541702985764
512.0,0.0023393782321363688
576.0,-0.00039474654477089643
640.0,-0.005204138811677694
704.0,-0.006658419035375118
768.0,-0.005180479027330875
832.0,-0.00568875577300787
896.0,2.6267523935530335e-05
960.0,0.00019296296522952616
1024.0,0.00040589377749711275
1152.0,4.4916792830917984e-05
1280.0,0.00032871711300686
1408.0,-0.0032778666354715824
1536.0,-0.0023709542583674192
1664.0,-0.00010473168367752805
1792.0,-0.0024271667934954166
1920.0,0.0009273344185203314
2048.0,-0.001433177967555821
2304.0,5.786573819932528e-05
2560.0,0.0020792328286916018
2816.0,0.00125621457118541
3072.0,0.0026492492761462927
3328.0,-0.0036418966483324766
3584.0,-0.0057770926505327225
3840.0,-0.0012887011980637908
4096.0,0.001300439820624888
4608.0,0.0063625299371778965
5120.0,-0.00017674939590506256
5632.0,-0.004398658871650696
6144.0,-0.0009412355720996857
6656.0,-0.002584447618573904
7168.0,0.002495099790394306
7680.0,-0.0007828210946172476
8192.0,-0.008213086985051632
9216.0,0.0009678428177721798
10240.0,0.0026954547502100468
11264.0,-0.003398756729438901
12288.0,-0.004482654854655266
13312.0,-0.0013537283521145582
14336.0,-0.0016995974583551288
end
