version,3.0
numOfCh,1
type,point
parent_name,2-cuts
ch_type,1_1
kcount,1
numberNandB,1
brightnessNandB,1
carpet pos,0
pc,0
Time (ms),CH1 Auto-Correlation
1.0,0.026605825871229172
2.0,0.02446325123310089
3.0,0.022592024877667427
4.0,0.0209808312356472
5.0,0.019557416439056396
6.0,0.01828467845916748
7.0,0.017154056578874588
8.0,0.016148921102285385
9.0,0.01525726355612278
10.0,0.014514090493321419
11.0,0.013840042054653168
12.0,0.013148240745067596
13.0,0.01259654015302658
14.0,0.012071704491972923
15.0,0.011539844796061516
16.0,0.011000804603099823
18.0,0.009959034621715546
20.0,0.008963760919868946
22.0,0.00815584696829319
24.0,0.007460584864020348
26.0,0.006824980955570936
28.0,0.006250760052353144
30.0,0.005729521159082651
32.0,0.0053197420202195644
36.0,0.004884500987827778
40.0,0.0044140745885670185
44.0,0.00385674717836082
48.0,0.003537310054525733
52.0,0.0033030190970748663
56.0,0.003178863786160946
60.0,0.0029979560058563948
64.0,0.00271669402718544
72.0,0.002540846122428775
80.0,0.002383871003985405
88.0,0.0017258712323382497
96.0,0.0014482572441920638
104.0,0.0012506934581324458
112.0,0.0011861580424010754
120.0,0.0013331554364413023
128.0,0.0012506464263424277
144.0,0.0007824230124242604
160.0,0.0007579638622701168
176.0,0.00017613156524021178
192.0,0.0005450425669550896
208.0,0.0006142212077975273
224.0,0.0007974325562827289
240.0,0.0008964026928879321
256.0,0.0007211635820567608
288.0,0.0004137661017011851
320.0,0.0007694173255003989
352.0,0.0011905477149412036
384.0,0.0005675553111359477
416.0,0.0012167427921667695
448.0,0.0019714469090104103
480.0,0.0017242759931832552
512.0,0.0010323176393285394
576.0,0.0006085698842070997
640.0,-0.00018605850345920771
704.0,-0.0005949771730229259
768.0,0.0013784661423414946
832.0,0.0012116179568693042
896.0,0.0017206267220899463
960.0,0.0013914956944063306
1024.0,-0.00019140412041451782
1152.0,-0.0011887965956702828
1280.0,0.0002776113396976143
1408.0,-0.00018779144738800824
1536.0,-0.0017963149584829807
1664.0,-0.0008548714104108512
1792.0,-0.00038826322997920215
1920.0,-0.0009055084665305912
2048.0,-0.0014701161999255419
2304.0,-0.0007743613095954061
2560.0,-0.0008070095209404826
2816.0,-0.0005209763185121119
3072.0,4.3538737372728065e-05
3328.0,-0.0002507396857254207
3584.0,0.0006366334273479879
3840.0,0.00028547257534228265
4096.0,0.0007015945739112794
4608.0,0.0008455337956547737
5120.0,-0.00034228674485348165
5632.0,-0.0008470781613141298
6144.0,-0.0005835255142301321
6656.0,-0.0005480174440890551
7168.0,0.00037018521106801927
7680.0,0.00109185092151165
8192.0,0.0011394089087843895
9216.0,-2.076602504530456e-05
10240.0,-0.0004255929379723966
11264.0,-0.000668848108034581
12288.0,1.6246116501861252e-05
13312.0,-0.0004678435216192156
14336.0,-0.0002041028201347217
end
