version,3.0
numOfCh,1
type,point
parent_name,0cd20_0dot2-1dot0
ch_type,1_1
kcount,1
numberNandB,1
brightnessNandB,1
carpet pos,0
pc,0
Time (ms),CH1 Auto-Correlation
1.0,0.02427355945110321
2.0,0.02380496822297573
3.0,0.023360900580883026
4.0,0.02294856496155262
5.0,0.022551650181412697
6.0,0.022154638543725014
7.0,0.021773159503936768
8.0,0.02142070233821869
9.0,0.02107018418610096
10.0,0.020725512877106667
11.0,0.0203920379281044
12.0,0.02007371559739113
13.0,0.019757233560085297
14.0,0.01946296915411949
15.0,0.019175389781594276
16.0,0.01890733279287815
18.0,0.018420765176415443
20.0,0.01796705275774002
22.0,0.01756417565047741
24.0,0.017201406881213188
26.0,0.01685178652405739
28.0,0.01651000790297985
30.0,0.016175150871276855
32.0,0.015849607065320015
36.0,0.015221253037452698
40.0,0.014643323607742786
44.0,0.014109217561781406
48.0,0.013552263379096985
52.0,0.013105759397149086
56.0,0.012774836272001266
60.0,0.012503770180046558
64.0,0.012278921902179718
72.0,0.011910625733435154
80.0,0.011500686407089233
88.0,0.011043853126466274
96.0,0.010611163452267647
104.0,0.010312519036233425
112.0,0.010014745406806469
120.0,0.009636453352868557
128.0,0.00924985483288765
144.0,0.008281882852315903
160.0,0.007536221295595169
176.0,0.0071019199676811695
192.0,0.006811326835304499
208.0,0.006534263025969267
224.0,0.006331728771328926
240.0,0.006114987190812826
256.0,0.005852475296705961
288.0,0.004963246174156666
320.0,0.00450975401327014
352.0,0.0037958151660859585
384.0,0.0034166094847023487
416.0,0.0028568364214152098
448.0,0.00189692503772676
480.0,0.0019468398531898856
512.0,0.0013042809441685677
576.0,-0.00042427662992849946
640.0,-0.0011953815119341016
704.0,-0.00131768558640033
768.0,-0.002066835528239608
832.0,-0.001648906385526061
896.0,-0.0021574595011770725
960.0,-0.0012083894107490778
1024.0,0.00010293971718056127
1152.0,2.5200612071785145e-05
1280.0,0.0009179722401313484
1408.0,0.0017709312960505486
1536.0,0.0012754019116982818
1664.0,0.0007938469643704593
1792.0,4.4560096284840256e-05
1920.0,0.0007435115985572338
2048.0,0.001587251084856689
2304.0,0.000947946566157043
2560.0,0.00041237330879084766
2816.0,-0.0021477979607880116
3072.0,-0.0021926977206021547
3328.0,-0.004136457573622465
3584.0,-0.0019088126718997955
3840.0,0.000590161478612572
4096.0,0.0027382320258766413
4608.0,0.0006374287768267095
5120.0,-0.0010758957359939814
5632.0,-0.00015292871103156358
6144.0,0.001555213239043951
6656.0,0.0016917700413614511
7168.0,-0.0012504986952990294
7680.0,-0.0006749655585736036
8192.0,-0.0005733933066949248
end
