version,3.0
numOfCh,1
type,point
parent_name,0cd20_0dot2-1dot0
ch_type,1_1
kcount,1
numberNandB,1
brightnessNandB,1
carpet pos,0
pc,0
Time (ms),CH1 Auto-Correlation
1.0,0.022457487881183624
2.0,0.022050708532333374
3.0,0.02167217992246151
4.0,0.021304860711097717
5.0,0.020951980724930763
6.0,0.020616572350263596
7.0,0.020287929102778435
8.0,0.019960900768637657
9.0,0.019662298262119293
10.0,0.01936418004333973
11.0,0.01906992867588997
12.0,0.018793044611811638
13.0,0.01852050982415676
14.0,0.018254244700074196
15.0,0.01799377240240574
16.0,0.017734138295054436
18.0,0.017254602164030075
20.0,0.016810305416584015
22.0,0.016397275030612946
24.0,0.016008619219064713
26.0,0.01561705395579338
28.0,0.015240170061588287
30.0,0.014871261082589626
32.0,0.014518720097839832
36.0,0.013904066756367683
40.0,0.013333326205611229
44.0,0.012839974835515022
48.0,0.012358385138213634
52.0,0.011937899515032768
56.0,0.011498675681650639
60.0,0.011082585901021957
64.0,0.010685122571885586
72.0,0.01014255452901125
80.0,0.009596364572644234
88.0,0.009037867188453674
96.0,0.008480118587613106
104.0,0.007979271933436394
112.0,0.007660601753741503
120.0,0.007331492379307747
128.0,0.006957128643989563
144.0,0.006378842983394861
160.0,0.005830834619700909
176.0,0.005281356163322926
192.0,0.004749514162540436
208.0,0.0039718844927847385
224.0,0.003389194142073393
240.0,0.002921774284914136
256.0,0.00237353821285069
288.0,0.0014243880286812782
320.0,0.0008630129159428179
352.0,0.0012043839087709785
384.0,0.0012521548196673393
416.0,0.0013567187124863267
448.0,0.001689406344667077
480.0,0.0015385870356112719
512.0,0.0012070100056007504
576.0,0.000446830119471997
640.0,-0.0014092506607994437
704.0,-0.0019924347288906574
768.0,-0.0016915901796892285
832.0,-0.001216250122524798
896.0,-0.0007156276260502636
960.0,-9.263036190532148e-05
1024.0,0.00012427099863998592
1152.0,-0.0011058095842599869
1280.0,0.0007556378841400146
1408.0,0.0018405488226562738
1536.0,0.001509419409558177
1664.0,0.0005090679624117911
1792.0,-0.00045010901521891356
1920.0,-0.0002846936113201082
2048.0,-0.0005285766674205661
2304.0,0.00024111031962092966
2560.0,-0.0016619401285424829
2816.0,6.713123002555221e-05
3072.0,0.0007310697110369802
3328.0,-0.002722881268709898
3584.0,-0.002132780384272337
3840.0,-0.0022877587471157312
4096.0,-0.002027200534939766
4608.0,-0.0007863328792154789
5120.0,-0.0023242745082825422
5632.0,-0.0005461867549456656
6144.0,0.001516786403954029
6656.0,0.0011704069329425693
7168.0,0.0019696427043527365
7680.0,0.003950059413909912
8192.0,-0.00014305952936410904
end
