version,3.0
numOfCh,1
type,point
parent_name,0cd20_0dot2-1dot0
ch_type,1_1
kcount,1
numberNandB,1
brightnessNandB,1
carpet pos,0
pc,0
Time (ms),CH1 Auto-Correlation
1.0,0.02113392949104309
2.0,0.02072824165225029
3.0,0.020335828885436058
4.0,0.019969621673226357
5.0,0.01961381733417511
6.0,0.01928320713341236
7.0,0.018956884741783142
8.0,0.018647195771336555
9.0,0.018336083739995956
10.0,0.018044937402009964
11.0,0.01775827817618847
12.0,0.017485477030277252
13.0,0.017219053581357002
14.0,0.016969580203294754
15.0,0.01672256737947464
16.0,0.01647394523024559
18.0,0.01600189507007599
20.0,0.015563089400529861
22.0,0.015155613422393799
24.0,0.014775685966014862
26.0,0.014401364140212536
28.0,0.014044505544006824
30.0,0.013700402341783047
32.0,0.013369224034249783
36.0,0.012766874395310879
40.0,0.01221289299428463
44.0,0.01169360987842083
48.0,0.011227861978113651
52.0,0.01074718963354826
56.0,0.010329253040254116
60.0,0.010019117034971714
64.0,0.009755697101354599
72.0,0.009359853342175484
80.0,0.009013548493385315
88.0,0.00868066493421793
96.0,0.008222808130085468
104.0,0.007845152169466019
112.0,0.0075150481425225735
120.0,0.007137462496757507
128.0,0.006709943991154432
144.0,0.006159977521747351
160.0,0.005552384071052074
176.0,0.005232442636042833
192.0,0.005011722445487976
208.0,0.005130279343575239
224.0,0.005284827668219805
240.0,0.005176329519599676
256.0,0.004957884084433317
288.0,0.004212368745356798
320.0,0.003747637150809169
352.0,0.0034716452937573195
384.0,0.0032009046990424395
416.0,0.0027193634305149317
448.0,0.0029935990460217
480.0,0.0032299456652253866
512.0,0.0028502342756837606
576.0,0.0025288169272243977
640.0,0.0017145640449598432
704.0,0.0004681423306465149
768.0,-0.00013903096260037273
832.0,0.00047051551518961787
896.0,0.000881530053447932
960.0,0.0003814571537077427
1024.0,-0.000843467831145972
1152.0,-0.0008039326639845967
1280.0,-0.0017278095474466681
1408.0,-0.001866390579380095
1536.0,-0.002373756840825081
1664.0,-0.0009570945403538644
1792.0,-0.0010900370543822646
1920.0,-0.0027950573712587357
2048.0,-0.0026891313027590513
2304.0,-0.0015195348532870412
2560.0,-0.002080742735415697
2816.0,-0.001357430242933333
3072.0,-0.0018655488966032863
3328.0,0.0010333018144592643
3584.0,0.0026801859494298697
3840.0,0.0034591706935316324
4096.0,0.0008205297635868192
4608.0,-0.0016933653969317675
5120.0,-0.0025697103701531887
5632.0,-0.002192000625655055
6144.0,-0.0017989511834457517
6656.0,-0.0019842858891934156
7168.0,0.00025889609241858125
7680.0,0.003823523875325918
8192.0,0.0027190835680812597
end
