version,3.0
numOfCh,1
type,point
parent_name,0cd20_0dot2-1dot0
ch_type,1_1
kcount,1
numberNandB,1
brightnessNandB,1
carpet pos,0
pc,0
Time (ms),CH1 Auto-Correlation
1.0,0.024804268032312393
2.0,0.024302611127495766
3.0,0.023906009271740913
4.0,0.023459210991859436
5.0,0.023015663027763367
6.0,0.022642992436885834
7.0,0.02228526771068573
8.0,0.021936379373073578
9.0,0.021616313606500626
10.0,0.02133636176586151
11.0,0.021067317575216293
12.0,0.020817503333091736
13.0,0.02056577056646347
14.0,0.020314715802669525
15.0,0.02006462588906288
16.0,0.01984015293419361
18.0,0.019395748153328896
20.0,0.01896379329264164
22.0,0.018545562401413918
24.0,0.01815789006650448
26.0,0.017806589603424072
28.0,0.017476122826337814
30.0,0.017152724787592888
32.0,0.016805188730359077
36.0,0.016070161014795303
40.0,0.015440122224390507
44.0,0.01485828123986721
48.0,0.014319069683551788
52.0,0.013893721625208855
56.0,0.01351059041917324
60.0,0.013153971172869205
64.0,0.012792158871889114
72.0,0.012098087929189205
80.0,0.01161964051425457
88.0,0.011103172786533833
96.0,0.010476467199623585
104.0,0.009692836552858353
112.0,0.008972435258328915
120.0,0.008312411606311798
128.0,0.007774695288389921
144.0,0.007018108386546373
160.0,0.006471171509474516
176.0,0.0059426953084766865
192.0,0.005704866256564856
208.0,0.005335408262908459
224.0,0.00516402255743742
240.0,0.00500605721026659
256.0,0.00460297055542469
288.0,0.0044264523312449455
320.0,0.004674600902944803
352.0,0.004941279534250498
384.0,0.005041086580604315
416.0,0.0060707759112119675
448.0,0.006886774208396673
480.0,0.007329028099775314
512.0,0.008024442009627819
576.0,0.006678591016680002
640.0,0.004558949265629053
704.0,0.003381257876753807
768.0,0.0029957564547657967
832.0,0.0016729009803384542
896.0,0.0013277684338390827
960.0,0.0014132451033219695
1024.0,0.002369896974414587
1152.0,0.0030280903447419405
1280.0,0.0035112123005092144
1408.0,0.0002201996248913929
1536.0,0.0009451691876165569
1664.0,0.001535111223347485
1792.0,0.0011887482833117247
1920.0,-0.001432668068446219
2048.0,-0.0006378884427249432
2304.0,-0.001925986260175705
2560.0,-0.003056950168684125
2816.0,-0.0020078583620488644
3072.0,-0.003462626598775387
3328.0,-0.0024256212636828423
3584.0,-0.003803373547270894
3840.0,-0.0043085357174277306
4096.0,-0.003363256808370352
4608.0,-0.0023154010996222496
5120.0,-0.0006098377052694559
5632.0,0.0009142096969299018
6144.0,0.003871273947879672
6656.0,0.004443019162863493
7168.0,0.0021854275837540627
7680.0,0.00043925424688495696
8192.0,-0.0015013777883723378
end
