version,3.0
numOfCh,1
type,point
parent_name,0cd20_0dot2-1dot0
ch_type,1_1
kcount,1
numberNandB,1
brightnessNandB,1
carpet pos,0
pc,0
Time (ms),CH1 Auto-Correlation
1.0,0.020160425454378128
2.0,0.019750963896512985
3.0,0.0193637665361166
4.0,0.01899804174900055
5.0,0.018647033721208572
6.0,0.018308602273464203
7.0,0.01798786036670208
8.0,0.017688853666186333
9.0,0.017407318577170372
10.0,0.017128562554717064
11.0,0.01687537506222725
12.0,0.01661846414208412
13.0,0.016355358064174652
14.0,0.016100501641631126
15.0,0.01584550179541111
16.0,0.015605856664478779
18.0,0.015127280727028847
20.0,0.014665230177342892
22.0,0.01423017866909504
24.0,0.01380225270986557
26.0,0.013406295329332352
28.0,0.013020982034504414
30.0,0.012682737782597542
32.0,0.01237504929304123
36.0,0.011767485179007053
40.0,0.011150814592838287
44.0,0.01058892160654068
48.0,0.010153649374842644
52.0,0.009770403616130352
56.0,0.0093905134126544
60.0,0.009023782797157764
64.0,0.008621979504823685
72.0,0.007839676924049854
80.0,0.007061246782541275
88.0,0.006285754963755608
96.0,0.005572902038693428
104.0,0.0049795727245509624
112.0,0.004502994008362293
120.0,0.004199078772217035
128.0,0.003977333195507526
144.0,0.0036243023350834846
160.0,0.003003411227837205
176.0,0.0025263188872486353
192.0,0.002181858057156205
208.0,0.0018528325017541647
224.0,0.001476334990002215
240.0,0.001197834499180317
256.0,0.001097100437618792
288.0,0.0003079230373259634
320.0,-0.0005320041673257947
352.0,-0.0009088528458960354
384.0,-0.0011507731396704912
416.0,-0.001067906036041677
448.0,-0.0008630251395516098
480.0,-0.0007659757393412292
512.0,-0.0004178940725978464
576.0,0.0006738216616213322
640.0,0.00018984710914082825
704.0,-0.0004153348272666335
768.0,0.0012656537583097816
832.0,0.001321145216934383
896.0,-4.048074060847284e-06
960.0,-0.0011304391082376242
1024.0,-0.0017494193743914366
1152.0,-0.001431264798156917
1280.0,0.0005449063610285521
1408.0,0.0012781730620190501
1536.0,0.0008933090721257031
1664.0,-0.0004407350206747651
1792.0,-0.0014102348359301686
1920.0,-0.002414396498352289
2048.0,-0.00019963178783655167
2304.0,-5.24184615642298e-05
2560.0,-0.001058397232554853
2816.0,-1.0424543688714039e-05
3072.0,0.001955570885911584
3328.0,-0.0011421492090448737
3584.0,-0.001674243831075728
3840.0,0.00027089350624009967
4096.0,-0.0009304245468229055
4608.0,5.063697972218506e-05
5120.0,0.0006506843492388725
5632.0,-0.000844054389744997
6144.0,-0.0002441085671307519
6656.0,-0.000259297521552071
7168.0,0.001490732072852552
7680.0,-0.0001618754176888615
8192.0,-0.001940423622727394
end
