version,3.0
numOfCh,1
type,point
parent_name,0cd20_0dot2-1dot0
ch_type,1_1
kcount,1
numberNandB,1
brightnessNandB,1
carpet pos,0
pc,0
Time (ms),CH1 Auto-Correlation
1.0,0.0247495099902153
2.0,0.02427530288696289
3.0,0.023863235488533974
4.0,0.02346821315586567
5.0,0.023099170997738838
6.0,0.022691922262310982
7.0,0.022346319630742073
8.0,0.021979771554470062
9.0,0.02160983718931675
10.0,0.02125786803662777
11.0,0.020933225750923157
12.0,0.020613674074411392
13.0,0.020311135798692703
14.0,0.020011257380247116
15.0,0.019721657037734985
16.0,0.019434217363595963
18.0,0.018891235813498497
20.0,0.018410909920930862
22.0,0.017966708168387413
24.0,0.017569005489349365
26.0,0.01721019856631756
28.0,0.016833476722240448
30.0,0.016457976773381233
32.0,0.016086576506495476
36.0,0.01544045377522707
40.0,0.01475806999951601
44.0,0.014101278968155384
48.0,0.013518311083316803
52.0,0.013006741181015968
56.0,0.012631453573703766
60.0,0.012321005575358868
64.0,0.012054376304149628
72.0,0.011442739516496658
80.0,0.010653065517544746
88.0,0.009989309124648571
96.0,0.009346193633973598
104.0,0.008715837262570858
112.0,0.008024530485272408
120.0,0.007340931799262762
128.0,0.006747094914317131
144.0,0.005935059394687414
160.0,0.005619653966277838
176.0,0.005459589883685112
192.0,0.005188039969652891
208.0,0.0047638495452702045
224.0,0.00420032674446702
240.0,0.0038892568554729223
256.0,0.0038123419508337975
288.0,0.00405736081302166
320.0,0.003391693811863661
352.0,0.003906835336238146
384.0,0.004197327885776758
416.0,0.004083664156496525
448.0,0.00401318771764636
480.0,0.0027679309714585543
512.0,0.0019930917769670486
576.0,0.0011381079675629735
640.0,-0.00015612330753356218
704.0,-0.0005056829540990293
768.0,-0.0007468080730177462
832.0,-7.154301329137525e-06
896.0,8.576191612519324e-05
960.0,-0.001621215371415019
1024.0,-0.002694518771022558
1152.0,-0.0037568428087979555
1280.0,-0.002629408147186041
1408.0,-0.0015515227569267154
1536.0,-0.001866858103312552
1664.0,-0.0012730553280562162
1792.0,-0.0011963369324803352
1920.0,-0.0012662614462897182
2048.0,-0.00044570869067683816
2304.0,-0.001777638215571642
2560.0,-0.002077908953651786
2816.0,0.0004290692741051316
3072.0,0.0014485184801742435
3328.0,-2.3108919776859693e-05
3584.0,0.0015145671786740422
3840.0,0.0016851770924404263
4096.0,-0.0019768376369029284
4608.0,-0.002181203803047538
5120.0,0.0004511469742283225
5632.0,0.0003318774688523263
6144.0,-0.002536426531150937
6656.0,-0.0006172233843244612
7168.0,0.0018603983335196972
7680.0,0.0007792630349285901
8192.0,0.0030110045336186886
end
