version,3.0
numOfCh,1
type,point
parent_name,0cd20_0dot2-1dot0
ch_type,1_1
kcount,1
numberNandB,1
brightnessNandB,1
carpet pos,0
pc,0
Time (ms),CH1 Auto-Correlation
1.0,0.03499782457947731
2.0,0.034109361469745636
3.0,0.03322732076048851
4.0,0.0323912613093853
5.0,0.03155648708343506
6.0,0.030870169401168823
7.0,0.030209995806217194
8.0,0.029567046090960503
9.0,0.028977105394005775
10.0,0.02835937589406967
11.0,0.02780270017683506
12.0,0.02725726179778576
13.0,0.026633378118276596
14.0,0.025938373059034348
15.0,0.025402100756764412
16.0,0.024890825152397156
18.0,0.024187101051211357
20.0,0.02348749339580536
22.0,0.022850284352898598
24.0,0.02247777208685875
26.0,0.022213909775018692
28.0,0.02204488031566143
30.0,0.02170625701546669
32.0,0.021096015349030495
36.0,0.019886642694473267
40.0,0.01898162066936493
44.0,0.018036093562841415
48.0,0.017206598073244095
52.0,0.016558945178985596
56.0,0.016147447749972343
60.0,0.015679659321904182
64.0,0.015116279944777489
72.0,0.014014986343681812
80.0,0.013056988827884197
88.0,0.012241575866937637
96.0,0.011674948036670685
104.0,0.011382829397916794
112.0,0.011095794849097729
120.0,0.010813404805958271
128.0,0.010413330048322678
144.0,0.009532086551189423
160.0,0.008839541114866734
176.0,0.008497849106788635
192.0,0.007951260544359684
208.0,0.007564864587038755
224.0,0.007246783468872309
240.0,0.006744262762367725
256.0,0.00613108417019248
288.0,0.0063286167569458485
320.0,0.006345664616674185
352.0,0.005823647603392601
384.0,0.005283596459776163
416.0,0.004730775486677885
448.0,0.004427536856383085
480.0,0.0041132220067083836
512.0,0.0033822846598923206
576.0,0.00248677097260952
640.0,0.001173987053334713
704.0,-6.473167741205543e-05
768.0,-0.00020240270532667637
832.0,-0.00045382464304566383
896.0,-4.938262463838328e-06
960.0,-0.0006937120924703777
1024.0,-0.001575133646838367
1152.0,-0.00046801796997897327
1280.0,0.0006512781837955117
1408.0,0.00180013885255903
1536.0,0.0008367323316633701
1664.0,6.622129876632243e-05
1792.0,0.0014325116062536836
1920.0,0.0015823995927348733
2048.0,0.0006276239291764796
2304.0,0.00149525236338377
2560.0,0.0027597653679549694
2816.0,0.0028220154345035553
3072.0,0.0020563628058880568
3328.0,0.0013412266271188855
3584.0,-0.0014919558307155967
3840.0,-0.00042160466546192765
4096.0,-0.002086739055812359
4608.0,-0.0032895689364522696
5120.0,-0.0008393852622248232
5632.0,-0.001865497208200395
6144.0,-0.004562732297927141
6656.0,-0.005336289759725332
7168.0,-0.0023116199299693108
7680.0,-0.00046499440213665366
8192.0,-0.003801867365837097
end
