version,3.0
numOfCh,1
type,point
parent_name,0cd20_0dot2-1dot0
ch_type,1_1
kcount,1
numberNandB,1
brightnessNandB,1
carpet pos,0
pc,0
Time (ms),CH1 Auto-Correlation
1.0,0.02141805738210678
2.0,0.02099478989839554
3.0,0.020591862499713898
4.0,0.02021988295018673
5.0,0.01984446682035923
6.0,0.019512178376317024
7.0,0.019159695133566856
8.0,0.018829116597771645
9.0,0.018514256924390793
10.0,0.018228070810437202
11.0,0.017952796071767807
12.0,0.017661750316619873
13.0,0.017372647300362587
14.0,0.01709371991455555
15.0,0.016827981919050217
16.0,0.01656557060778141
18.0,0.016042590141296387
20.0,0.01556913647800684
22.0,0.015149971470236778
24.0,0.01478413213044405
26.0,0.014474915340542793
28.0,0.014173009432852268
30.0,0.013878833502531052
32.0,0.013602572493255138
36.0,0.013078993186354637
40.0,0.012606026604771614
44.0,0.01216142624616623
48.0,0.011732679791748524
52.0,0.011269845999777317
56.0,0.01078522577881813
60.0,0.010328097268939018
64.0,0.00991028267890215
72.0,0.009270790964365005
80.0,0.008801121264696121
88.0,0.00848550908267498
96.0,0.008138771168887615
104.0,0.007872038520872593
112.0,0.0076441350392997265
120.0,0.007468554191291332
128.0,0.007095179054886103
144.0,0.006372989155352116
160.0,0.00563957542181015
176.0,0.00489380955696106
192.0,0.004392152186483145
208.0,0.004041816107928753
224.0,0.003620944917201996
240.0,0.0034983279183506966
256.0,0.0033548418432474136
288.0,0.0028440251480787992
320.0,0.0021912353113293648
352.0,0.0019363589817658067
384.0,0.001549605163745582
416.0,0.0004090989241376519
448.0,0.00023672809766139835
480.0,-0.0002705319784581661
512.0,-0.0009366986341774464
576.0,-0.00135932513512671
640.0,-0.001946760225109756
704.0,-0.002169382758438587
768.0,-0.002485987264662981
832.0,-0.00265500764362514
896.0,-0.002439561765640974
960.0,-0.0033615590073168278
1024.0,-0.003782226238399744
1152.0,-0.0038443601224571466
1280.0,-0.0030138189904391766
1408.0,-0.0019172817701473832
1536.0,8.38160704006441e-05
1664.0,0.0009294875781051815
1792.0,0.00120081240311265
1920.0,0.0017001908272504807
2048.0,0.0010788162471726537
2304.0,0.0004554542538244277
2560.0,-0.001729024457745254
2816.0,-0.002121408237144351
3072.0,-0.0019156945636495948
3328.0,-8.947253809310496e-05
3584.0,0.0017721019685268402
3840.0,0.0038266845513135195
4096.0,0.0036589440423995256
4608.0,-0.00020852491434197873
5120.0,-0.0032561609987169504
5632.0,-0.001768370857462287
6144.0,0.001017222530208528
6656.0,0.0012869302881881595
7168.0,-0.001596170593984425
7680.0,0.0009418393601663411
8192.0,0.003824652871116996
end
