version,3.0
numOfCh,1
type,point
parent_name,0cd20_0dot2-1dot0
ch_type,1_1
kcount,1
numberNandB,1
brightnessNandB,1
carpet pos,0
pc,0
Time (ms),CH1 Auto-Correlation
1.0,0.018511444330215454
2.0,0.01805444061756134
3.0,0.017640158534049988
4.0,0.017237721011042595
5.0,0.016848159953951836
6.0,0.016468821093440056
7.0,0.01610564813017845
8.0,0.015759658068418503
9.0,0.015426324680447578
10.0,0.015085337683558464
11.0,0.014776754193007946
12.0,0.01448870450258255
13.0,0.014208660461008549
14.0,0.01393286045640707
15.0,0.013667966239154339
16.0,0.01341446116566658
18.0,0.012946564704179764
20.0,0.01250290684401989
22.0,0.012092099525034428
24.0,0.01171041838824749
26.0,0.011353075504302979
28.0,0.010998334735631943
30.0,0.010677353478968143
32.0,0.01036397647112608
36.0,0.009864620864391327
40.0,0.009386090561747551
44.0,0.008908583782613277
48.0,0.008464563637971878
52.0,0.008087699301540852
56.0,0.007725816685706377
60.0,0.007336295675486326
64.0,0.006917315535247326
72.0,0.006188821047544479
80.0,0.005548554938286543
88.0,0.004813585430383682
96.0,0.004139204975217581
104.0,0.0036336190532892942
112.0,0.0032810578122735023
120.0,0.0030108895152807236
128.0,0.002714434638619423
144.0,0.0020763983484357595
160.0,0.001627314486540854
176.0,0.0016790824010968208
192.0,0.0017688893713057041
208.0,0.0017690283711999655
224.0,0.0014100999105721712
240.0,0.0010226047597825527
256.0,0.0008750245906412601
288.0,0.0005647458019666374
320.0,0.0004925678949803114
352.0,8.75365876709111e-05
384.0,0.00023537848028354347
416.0,0.0006255446351133287
448.0,0.00080988829722628
480.0,0.0007884566439315677
512.0,0.001128881354816258
576.0,0.0007502120570279658
640.0,-5.914529174333438e-05
704.0,-0.0011797149199992418
768.0,-0.0017733013955876231
832.0,-0.0018394755898043513
896.0,-0.0016809861408546567
960.0,-0.0010727272601798177
1024.0,-0.0013600760139524937
1152.0,-0.0005124106537550688
1280.0,-0.000902113679330796
1408.0,-0.0015532306861132383
1536.0,-0.0007635400397703052
1664.0,-0.0009039493161253631
1792.0,-0.0008239605231210589
1920.0,-0.0004478904593270272
2048.0,-0.001266667153686285
2304.0,-0.0012538883602246642
2560.0,-0.0005650916136801243
2816.0,0.0003557890304364264
3072.0,0.002322005107998848
3328.0,0.0009436397813260555
3584.0,0.0015295433113351464
3840.0,-0.000626189517788589
4096.0,-0.0009692873572930694
4608.0,-0.0015717067290097475
5120.0,0.0005044837016612291
5632.0,0.0009378516697324812
6144.0,0.0017283321358263493
6656.0,-6.249360740184784e-05
7168.0,-0.0013429527170956135
7680.0,-0.001922344439662993
8192.0,-0.00037714678910560906
end
