version,3.0
numOfCh,1
type,point
parent_name,0cd20_0dot2-1dot0
ch_type,1_1
kcount,1
numberNandB,1
brightnessNandB,1
carpet pos,0
pc,0
Time (ms),CH1 Auto-Correlation
1.0,0.023857586085796356
2.0,0.0233824010938406
3.0,0.02291962318122387
4.0,0.0224778950214386
5.0,0.022063080221414566
6.0,0.021667953580617905
7.0,0.02129863016307354
8.0,0.02095169574022293
9.0,0.02062663622200489
10.0,0.02029590867459774
11.0,0.019993415102362633
12.0,0.019685689359903336
13.0,0.019377117976546288
14.0,0.01907302811741829
15.0,0.01876852475106716
16.0,0.01846982166171074
18.0,0.01786472275853157
20.0,0.017309248447418213
22.0,0.016802914440631866
24.0,0.01636345125734806
26.0,0.015951288864016533
28.0,0.015556630678474903
30.0,0.015164799056947231
32.0,0.014795484021306038
36.0,0.014129986055195332
40.0,0.013537595048546791
44.0,0.012960517778992653
48.0,0.01243108045309782
52.0,0.011934851296246052
56.0,0.01143572200089693
60.0,0.0108951386064291
64.0,0.010398058220744133
72.0,0.009647670201957226
80.0,0.009002226404845715
88.0,0.008324602618813515
96.0,0.007676167879253626
104.0,0.0070861405692994595
112.0,0.006506358738988638
120.0,0.006035837344825268
128.0,0.005725093185901642
144.0,0.005260799080133438
160.0,0.004801127128303051
176.0,0.0048081842251122
192.0,0.004735095892101526
208.0,0.004845833871513605
224.0,0.004698080476373434
240.0,0.004520569462329149
256.0,0.004573686048388481
288.0,0.0030035763047635555
320.0,0.0021285172551870346
352.0,0.002257679821923375
384.0,0.0032206696923822165
416.0,0.0029733411502093077
448.0,0.0025749062187969685
480.0,0.0021525162737816572
512.0,0.001642950577661395
576.0,-0.00047147239092737436
640.0,-0.0013206499861553311
704.0,-0.0010149817680940032
768.0,0.0006942864856682718
832.0,0.0014950785553082824
896.0,0.0005037066293880343
960.0,-0.0010858617024496198
1024.0,-0.0024458649568259716
1152.0,-0.003144926158711314
1280.0,-0.0024678900372236967
1408.0,-0.0023788479156792164
1536.0,-0.001449338742531836
1664.0,2.8155598556622863e-05
1792.0,-0.0016212667105719447
1920.0,-0.002469227183610201
2048.0,-0.0014536139788106084
2304.0,-0.0015342626720666885
2560.0,-0.0007461534696631134
2816.0,5.246964065008797e-05
3072.0,0.0011934323702007532
3328.0,0.0021293782629072666
3584.0,0.0010654979851096869
3840.0,0.0009217050392180681
4096.0,0.0005316152237355709
4608.0,-0.00011652756074909121
5120.0,-0.0017254941631108522
5632.0,-0.0012451501097530127
6144.0,0.0005702785565517843
6656.0,0.0020046215504407883
7168.0,-0.002064360771328211
7680.0,-0.000683606369420886
8192.0,0.0010999003425240517
end
