version,3.0
numOfCh,1
type,point
parent_name,0cd20_0dot2-1dot0
ch_type,1_1
kcount,1
numberNandB,1
brightnessNandB,1
carpet pos,0
pc,0
Time (ms),CH1 Auto-Correlation
1.0,0.02039743773639202
2.0,0.01995651237666607
3.0,0.019536368548870087
4.0,0.019134916365146637
5.0,0.01875721663236618
6.0,0.018385449424386024
7.0,0.01802828162908554
8.0,0.017680227756500244
9.0,0.01734085939824581
10.0,0.01701384410262108
11.0,0.016702741384506226
12.0,0.01640358753502369
13.0,0.016103029251098633
14.0,0.01581604965031147
15.0,0.015559879131615162
16.0,0.015308981761336327
18.0,0.014802033081650734
20.0,0.014294720254838467
22.0,0.013826925307512283
24.0,0.013369698077440262
26.0,0.012957241386175156
28.0,0.012588133104145527
30.0,0.012260704301297665
32.0,0.011958989314734936
36.0,0.01140753272920847
40.0,0.010911969467997551
44.0,0.010466915555298328
48.0,0.010092373937368393
52.0,0.009836137294769287
56.0,0.009593759663403034
60.0,0.009299476630985737
64.0,0.009015731513500214
72.0,0.00854137260466814
80.0,0.007978854700922966
88.0,0.007418813183903694
96.0,0.006992514710873365
104.0,0.006598226726055145
112.0,0.0061867618933320045
120.0,0.005779576487839222
128.0,0.005506098736077547
144.0,0.005258715711534023
160.0,0.005105586256831884
176.0,0.004906554706394672
192.0,0.00460813008248806
208.0,0.004479339811950922
224.0,0.0045228321105241776
240.0,0.004559810739010572
256.0,0.00468059116974473
288.0,0.004060804378241301
320.0,0.0030689125414937735
352.0,0.002213489729911089
384.0,0.0021671911235898733
416.0,0.0018021565629169345
448.0,0.0016124800313264132
480.0,0.000517980835866183
512.0,5.572162990574725e-05
576.0,-0.0004982362734153867
640.0,-0.0016134807374328375
704.0,-0.0010198638774454594
768.0,-0.0006305572460405529
832.0,-0.0012468115892261267
896.0,-0.0016341692535206676
960.0,-0.0019741093274205923
1024.0,-0.002240902977064252
1152.0,-0.0022190797608345747
1280.0,-0.001975781749933958
1408.0,-0.0011835970217362046
1536.0,-0.0003877026028931141
1664.0,6.789909821236506e-05
1792.0,0.0005373067688196898
1920.0,0.0004104880790691823
2048.0,0.00012790656182914972
2304.0,0.002509850775822997
2560.0,0.0019467120291665196
2816.0,-0.0013329486828297377
3072.0,-0.0032181490678340197
3328.0,-0.0034218861255794764
3584.0,-0.0030316459015011787
3840.0,-0.0015199164627119899
4096.0,-0.0006582043715752661
4608.0,-0.0001801459729904309
5120.0,-0.00045271171256899834
5632.0,0.0005198505241423845
6144.0,-0.00028559728525578976
6656.0,-0.0010086323600262403
7168.0,0.001713510020636022
7680.0,0.003905405756086111
8192.0,0.0009659163770265877
end
