version,3.0
numOfCh,1
type,point
parent_name,0cd20_0dot2-1dot0
ch_type,1_1
kcount,1
numberNandB,1
brightnessNandB,1
carpet pos,0
pc,0
Time (ms),CH1 Auto-Correlation
1.0,0.022246472537517548
2.0,0.02178550697863102
3.0,0.021342698484659195
4.0,0.02092616818845272
5.0,0.020530730485916138
6.0,0.02015703171491623
7.0,0.019782068207859993
8.0,0.019422417506575584
9.0,0.019080637022852898
10.0,0.018739765509963036
11.0,0.018423162400722504
12.0,0.01810777373611927
13.0,0.01779027283191681
14.0,0.017482563853263855
15.0,0.017166446894407272
16.0,0.016850193962454796
18.0,0.016264256089925766
20.0,0.01571279764175415
22.0,0.015199803747236729
24.0,0.014717329293489456
26.0,0.014291031286120415
28.0,0.013917939737439156
30.0,0.013556262478232384
32.0,0.013214828446507454
36.0,0.01255190558731556
40.0,0.012002833187580109
44.0,0.011490329168736935
48.0,0.010936391539871693
52.0,0.010406584478914738
56.0,0.009990396909415722
60.0,0.009693647734820843
64.0,0.009471855126321316
72.0,0.009114295244216919
80.0,0.008812693879008293
88.0,0.008537710644304752
96.0,0.008245973847806454
104.0,0.007967611774802208
112.0,0.007667743135243654
120.0,0.007331754546612501
128.0,0.006975796539336443
144.0,0.006415834184736013
160.0,0.006485276389867067
176.0,0.006393907126039267
192.0,0.005865737330168486
208.0,0.005453519057482481
224.0,0.004715300165116787
240.0,0.004175073932856321
256.0,0.003643364878371358
288.0,0.0032110910397022963
320.0,0.002390512265264988
352.0,0.0019183906260877848
384.0,0.0020109242759644985
416.0,0.0015602088533341885
448.0,0.0007706353790126741
480.0,-2.2575384718948044e-05
512.0,-0.00043828546768054366
576.0,-6.48876593913883e-05
640.0,0.0007067397236824036
704.0,0.0007198817329481244
768.0,0.0013500587083399296
832.0,0.0018674866296350956
896.0,0.001766487956047058
960.0,0.0013531133299693465
1024.0,0.0008132048533298075
1152.0,8.479325333610177e-05
1280.0,0.00015824938600417227
1408.0,8.77823113114573e-05
1536.0,0.00035046771517954767
1664.0,-0.0004260741116013378
1792.0,-2.2131698642624542e-05
1920.0,-0.0009252474992536008
2048.0,-0.0010124963009729981
2304.0,-0.0014093195786699653
2560.0,-0.0008908851887099445
2816.0,0.0004895328893326223
3072.0,-0.0012912641977891326
3328.0,-0.003203008556738496
3584.0,-0.0020331358537077904
3840.0,-0.0006128766690380871
4096.0,-0.001102386973798275
4608.0,-0.0008694487041793764
5120.0,0.000421863078372553
5632.0,-0.0002633460389915854
6144.0,-0.0019752096850425005
6656.0,-0.0025029676035046577
7168.0,-0.0014933024067431688
7680.0,-4.2571729863993824e-05
8192.0,-0.0012188401306048036
end
