version,3.0
numOfCh,1
type,point
parent_name,0cd20_0dot2-1dot0
ch_type,1_1
kcount,1
numberNandB,1
brightnessNandB,1
carpet pos,0
pc,0
Time (ms),CH1 Auto-Correlation
1.0,0.021431025117635727
2.0,0.021008549258112907
3.0,0.020607413724064827
4.0,0.02020272985100746
5.0,0.019818060100078583
6.0,0.019453268498182297
7.0,0.0190945602953434
8.0,0.01875011809170246
9.0,0.018416671082377434
10.0,0.018096286803483963
11.0,0.017798125743865967
12.0,0.017488474026322365
13.0,0.017189443111419678
14.0,0.01690773479640484
15.0,0.016635052859783173
16.0,0.016369784250855446
18.0,0.015870241448283195
20.0,0.015391424298286438
22.0,0.014968662522733212
24.0,0.014608597382903099
26.0,0.01427512988448143
28.0,0.013956661336123943
30.0,0.013676702044904232
32.0,0.013410214334726334
36.0,0.012866620905697346
40.0,0.012309864163398743
44.0,0.011764544993638992
48.0,0.011287075467407703
52.0,0.010854244232177734
56.0,0.010493817739188671
60.0,0.010200041346251965
64.0,0.00994130689650774
72.0,0.009387947618961334
80.0,0.008858094923198223
88.0,0.008327880874276161
96.0,0.00785648450255394
104.0,0.007485062349587679
112.0,0.0070902639999985695
120.0,0.006767009850591421
128.0,0.0066080112010240555
144.0,0.006279181223362684
160.0,0.006051442585885525
176.0,0.005700241774320602
192.0,0.005146025214344263
208.0,0.004659067839384079
224.0,0.004495315719395876
240.0,0.004398261196911335
256.0,0.0040670777671039104
288.0,0.0030625509098172188
320.0,0.002700947690755129
352.0,0.002055262215435505
384.0,0.001742286724038422
416.0,0.0012612530263140798
448.0,0.0005842118989676237
480.0,0.0004531347658485174
512.0,0.0005896392976865172
576.0,0.000714824884198606
640.0,0.001280680182389915
704.0,0.0011643827892839909
768.0,0.0006922782049514353
832.0,5.4351359722204506e-05
896.0,-0.00015788320160936564
960.0,0.00042202809709124267
1024.0,0.0004523659881670028
1152.0,0.00039454817306250334
1280.0,0.0005511352210305631
1408.0,0.00232452224008739
1536.0,0.003159059677273035
1664.0,0.0024735459592193365
1792.0,0.001246860483661294
1920.0,-0.0003718775406014174
2048.0,7.570658635813743e-05
2304.0,0.0005556256510317326
2560.0,-0.0002719601325225085
2816.0,-0.0009396083187311888
3072.0,-0.0027027486357837915
3328.0,-0.0031065447255969048
3584.0,-0.0021613091230392456
3840.0,-0.001272119116038084
4096.0,-0.0011881464160978794
4608.0,-0.0016378983855247498
5120.0,-0.0023477934300899506
5632.0,-0.0038750716485083103
6144.0,-0.000975439150352031
6656.0,0.00038617730024270713
7168.0,-0.0025126957334578037
7680.0,0.0013923635706305504
8192.0,0.0037605140823870897
end
