version,3.0
numOfCh,1
type,point
parent_name,0cd20_0dot2-1dot0
ch_type,1_1
kcount,1
numberNandB,1
brightnessNandB,1
carpet pos,0
pc,0
Time (ms),CH1 Auto-Correlation
1.0,0.02809818834066391
2.0,0.027255669236183167
3.0,0.026452792808413506
4.0,0.025628171861171722
5.0,0.024971479550004005
6.0,0.02427644468843937
7.0,0.02372310683131218
8.0,0.02317015454173088
9.0,0.022638795897364616
10.0,0.02223847433924675
11.0,0.021751713007688522
12.0,0.021297821775078773
13.0,0.02077898010611534
14.0,0.0202627032995224
15.0,0.019774427637457848
16.0,0.019311171025037766
18.0,0.018737562000751495
20.0,0.0182937141507864
22.0,0.01789286360144615
24.0,0.017557555809617043
26.0,0.017208881676197052
28.0,0.01685556396842003
30.0,0.016561739146709442
32.0,0.016321977600455284
36.0,0.015931177884340286
40.0,0.015482245944440365
44.0,0.015012955293059349
48.0,0.014600676484405994
52.0,0.014211062341928482
56.0,0.013777089305222034
60.0,0.013318649493157864
64.0,0.012885681353509426
72.0,0.012188086286187172
80.0,0.011603145860135555
88.0,0.011017771437764168
96.0,0.010256735607981682
104.0,0.009576328098773956
112.0,0.009057252667844296
120.0,0.008600843138992786
128.0,0.00812355987727642
144.0,0.007268333341926336
160.0,0.007868081331253052
176.0,0.007240314967930317
192.0,0.006246296688914299
208.0,0.005828161258250475
224.0,0.005678344052284956
240.0,0.0052275387570261955
256.0,0.005082126706838608
288.0,0.004623081535100937
320.0,0.0037362403236329556
352.0,0.0028441951144486666
384.0,0.0024248389527201653
416.0,0.0022618677467107773
448.0,0.0019876437727361917
480.0,0.001909269136376679
512.0,0.0013663128484040499
576.0,0.0019161967793479562
640.0,0.003447592258453369
704.0,0.004229514393955469
768.0,0.004137486219406128
832.0,0.004405904561281204
896.0,0.00399711262434721
960.0,0.002787776291370392
1024.0,0.0009314959752373397
1152.0,0.0002058335958281532
1280.0,0.0017018711660057306
1408.0,0.001953867031261325
1536.0,0.002039540559053421
1664.0,0.00115157978143543
1792.0,-0.0007791891694068909
1920.0,-0.0019534481689333916
2048.0,-0.0021997522562742233
2304.0,-0.0015607512323185802
2560.0,-0.004116600379347801
2816.0,-0.002005566144362092
3072.0,-0.0010941013460978866
3328.0,-0.0038354459684342146
3584.0,-0.005309520289301872
3840.0,-0.004501601215451956
4096.0,-0.0036221297923475504
4608.0,-0.004050405230373144
5120.0,-0.0017962254351004958
5632.0,-0.0008834016625769436
6144.0,0.00012102894106647
6656.0,0.002070976886898279
7168.0,0.0033025103621184826
7680.0,0.003081981558352709
8192.0,0.006325642578303814
end
