version,3.0
numOfCh,1
type,point
parent_name,0cd20_0dot2-1dot0
ch_type,1_1
kcount,1
numberNandB,1
brightnessNandB,1
carpet pos,0
pc,0
Time (ms),CH1 Auto-Correlation
1.0,0.022572500631213188
2.0,0.022155649960041046
3.0,0.02174975536763668
4.0,0.021362021565437317
5.0,0.02099144645035267
6.0,0.020628999918699265
7.0,0.020275168120861053
8.0,0.01994927041232586
9.0,0.01962905004620552
10.0,0.019315097481012344
11.0,0.019007036462426186
12.0,0.018708720803260803
13.0,0.0184117890894413
14.0,0.018118534237146378
15.0,0.017813757061958313
16.0,0.01752220094203949
18.0,0.01698182336986065
20.0,0.0164597537368536
22.0,0.015952471643686295
24.0,0.01547328568994999
26.0,0.015032218769192696
28.0,0.014594890177249908
30.0,0.014151915907859802
32.0,0.01372311357408762
36.0,0.012922082096338272
40.0,0.01219814084470272
44.0,0.011563113890588284
48.0,0.010940345004200935
52.0,0.010353023186326027
56.0,0.009756854735314846
60.0,0.009207065217196941
64.0,0.008777524344623089
72.0,0.008028017356991768
80.0,0.007296640891581774
88.0,0.0066925352439284325
96.0,0.0061358194798231125
104.0,0.005851001478731632
112.0,0.005553788505494595
120.0,0.005155123304575682
128.0,0.0047928933054208755
144.0,0.0040252357721328735
160.0,0.003493078052997589
176.0,0.0031455133575946093
192.0,0.0028483013156801462
208.0,0.0026253059040755033
224.0,0.0023851655423641205
240.0,0.002100560115650296
256.0,0.0018722875975072384
288.0,0.001328628626652062
320.0,0.0006741776596754789
352.0,0.00039736260077916086
384.0,0.0007605949067510664
416.0,0.0014734819997102022
448.0,0.001767261535860598
480.0,0.0021842222195118666
512.0,0.002090834081172943
576.0,0.001574337831698358
640.0,0.0010613265912979841
704.0,-0.000601379491854459
768.0,0.00019028079987037927
832.0,-0.0003449849027674645
896.0,-0.0013417965965345502
960.0,-0.0021907216869294643
1024.0,-0.0011385387042537332
1152.0,0.00026521735708229244
1280.0,-0.0002342128864256665
1408.0,-0.0018585267243906856
1536.0,-0.0008620633161626756
1664.0,-0.0007125771371647716
1792.0,0.00010125761764356866
1920.0,-0.0004505643737502396
2048.0,-0.0027723070234060287
2304.0,-0.0014862139942124486
2560.0,-0.0010668426984921098
2816.0,0.00026246445486322045
3072.0,0.0017492223996669054
3328.0,0.001592745422385633
3584.0,0.001223297673277557
3840.0,-7.31509571778588e-05
4096.0,0.0012139035388827324
4608.0,-0.00013552936434280127
5120.0,-0.0013193327467888594
5632.0,-0.0030106164049357176
6144.0,-0.002264064736664295
6656.0,0.00023945941939018667
7168.0,0.0029751998372375965
7680.0,0.0013205966679379344
8192.0,-0.0006187561666592956
end
