version,3.0
numOfCh,1
type,point
parent_name,0cd20_0dot2-1dot0
ch_type,1_1
kcount,1
numberNandB,1
brightnessNandB,1
carpet pos,0
pc,0
Time (ms),CH1 Auto-Correlation
1.0,0.02498595044016838
2.0,0.02454214356839657
3.0,0.024117331951856613
4.0,0.02372438833117485
5.0,0.023352645337581635
6.0,0.022987425327301025
7.0,0.022629406303167343
8.0,0.022288398817181587
9.0,0.021961085498332977
10.0,0.021643999963998795
11.0,0.021330256015062332
12.0,0.021048378199338913
13.0,0.0207729022949934
14.0,0.02050996758043766
15.0,0.020262546837329865
16.0,0.020027387887239456
18.0,0.019567273557186127
20.0,0.019112979993224144
22.0,0.018682850524783134
24.0,0.01827310398221016
26.0,0.01784815825521946
28.0,0.01741453818976879
30.0,0.017010943964123726
32.0,0.01665293239057064
36.0,0.01606091670691967
40.0,0.015534996055066586
44.0,0.014996963553130627
48.0,0.014447408728301525
52.0,0.013911878690123558
56.0,0.01351865753531456
60.0,0.013208427466452122
64.0,0.012887516990303993
72.0,0.01214884128421545
80.0,0.011439591646194458
88.0,0.010876359418034554
96.0,0.01049928180873394
104.0,0.01012248545885086
112.0,0.009713338688015938
120.0,0.009154683910310268
128.0,0.008591349236667156
144.0,0.007735321298241615
160.0,0.006964175030589104
176.0,0.00625526113435626
192.0,0.0061705457046628
208.0,0.006259461399167776
224.0,0.006297560408711433
240.0,0.005973421037197113
256.0,0.005690537393093109
288.0,0.004968626890331507
320.0,0.004808989353477955
352.0,0.0047284625470638275
384.0,0.0046021887101233006
416.0,0.00469509931281209
448.0,0.004300705157220364
480.0,0.003907924983650446
512.0,0.002892661839723587
576.0,0.0024377868976444006
640.0,0.0024235714226961136
704.0,0.002161820651963353
768.0,0.001763968844898045
832.0,0.0012324127601459622
896.0,-2.9498934964067303e-05
960.0,-0.000981641816906631
1024.0,-0.000533288752194494
1152.0,-0.0022201710380613804
1280.0,-0.003097586566582322
1408.0,-0.0035583246499300003
1536.0,-0.004054740071296692
1664.0,-0.0023733044508844614
1792.0,-0.0018542733741924167
1920.0,-0.0022457304876297712
2048.0,-0.0022654228378087282
2304.0,-0.0015384263824671507
2560.0,-0.001475237193517387
2816.0,-0.00020314380526542664
3072.0,0.0010758166899904609
3328.0,0.0012113242410123348
3584.0,-0.001814583083614707
3840.0,0.00033093354431912303
4096.0,0.0007259499398060143
4608.0,-0.002001469722017646
5120.0,-0.0029824257362633944
5632.0,-0.00466502271592617
6144.0,-0.001283130724914372
6656.0,0.0017290979158133268
7168.0,0.002749670296907425
7680.0,0.002994038164615631
8192.0,0.0023163384757936
end
