version,3.0
numOfCh,1
type,point
parent_name,0cd20_0dot2-1dot0
ch_type,1_1
kcount,1
numberNandB,1
brightnessNandB,1
carpet pos,0
pc,0
Time (ms),CH1 Auto-Correlation
1.0,0.02062644064426422
2.0,0.02020677551627159
3.0,0.019804246723651886
4.0,0.019419893622398376
5.0,0.01906038448214531
6.0,0.018706103786826134
7.0,0.01836770586669445
8.0,0.018043532967567444
9.0,0.017725197598338127
10.0,0.017405295744538307
11.0,0.017104951664805412
12.0,0.016814034432172775
13.0,0.01652522385120392
14.0,0.016248349100351334
15.0,0.01596374250948429
16.0,0.01568748988211155
18.0,0.01520075649023056
20.0,0.014740871265530586
22.0,0.014288248494267464
24.0,0.013848590664565563
26.0,0.013463363982737064
28.0,0.013100441545248032
30.0,0.012733831070363522
32.0,0.012368876487016678
36.0,0.011682291515171528
40.0,0.011079056188464165
44.0,0.010483232326805592
48.0,0.009979085996747017
52.0,0.009539005346596241
56.0,0.009132017381489277
60.0,0.008759558200836182
64.0,0.008394408039748669
72.0,0.007667855359613895
80.0,0.0069765448570251465
88.0,0.006279635243117809
96.0,0.005735620856285095
104.0,0.005266964435577393
112.0,0.004742999095469713
120.0,0.0042443363927304745
128.0,0.003807699540629983
144.0,0.0028926467057317495
160.0,0.0023428963031619787
176.0,0.0017916561337187886
192.0,0.001794267795048654
208.0,0.0022869708482176065
224.0,0.002848631702363491
240.0,0.003256829222664237
256.0,0.003501705126836896
288.0,0.003432604018598795
320.0,0.004327978938817978
352.0,0.00416362751275301
384.0,0.004452688153833151
416.0,0.003860816592350602
448.0,0.0030603574123233557
480.0,0.0027854666113853455
512.0,0.0026926565915346146
576.0,0.0030798185616731644
640.0,0.003006996586918831
704.0,0.0026377690955996513
768.0,0.002123151905834675
832.0,0.001822010613977909
896.0,0.001485612359829247
960.0,0.0005502416170202196
1024.0,-9.68622334767133e-05
1152.0,0.00011065256694564596
1280.0,0.0005289497203193605
1408.0,0.0007912955479696393
1536.0,0.0009611899731680751
1664.0,0.0007524213870055974
1792.0,-0.00043886605999432504
1920.0,0.0007334778201766312
2048.0,0.0013362271711230278
2304.0,0.0011835580226033926
2560.0,-0.00040737181552685797
2816.0,-0.00040837726555764675
3072.0,-0.0008565409225411713
3328.0,-0.0012711333110928535
3584.0,-0.00035434699384495616
3840.0,-0.0007294748793356121
4096.0,-0.001416310085915029
4608.0,-0.0017096234951168299
5120.0,-0.0018062242306768894
5632.0,-1.9611921743489802e-05
6144.0,0.0006705698324367404
6656.0,0.001217450713738799
7168.0,0.00020958659297320992
7680.0,0.0012848618207499385
8192.0,0.00044041144428774714
end
