version,3.0
numOfCh,1
type,point
parent_name,0cd20_0dot2-1dot0
ch_type,1_1
kcount,1
numberNandB,1
brightnessNandB,1
carpet pos,0
pc,0
Time (ms),CH1 Auto-Correlation
1.0,0.02065701223909855
2.0,0.020243600010871887
3.0,0.019845331087708473
4.0,0.019466478377580643
5.0,0.019106624647974968
6.0,0.018761981278657913
7.0,0.01843390055000782
8.0,0.018104277551174164
9.0,0.017772341147065163
10.0,0.017438683658838272
11.0,0.017118962481617928
12.0,0.016818303614854813
13.0,0.016517406329512596
14.0,0.016247404739260674
15.0,0.015986643731594086
16.0,0.01573996990919113
18.0,0.015277653932571411
20.0,0.014844454824924469
22.0,0.014439241960644722
24.0,0.014032648876309395
26.0,0.013636436313390732
28.0,0.01328464038670063
30.0,0.012964455410838127
32.0,0.012693313881754875
36.0,0.012225206010043621
40.0,0.011759407818317413
44.0,0.011269703507423401
48.0,0.010762988589704037
52.0,0.01032865047454834
56.0,0.009966309182345867
60.0,0.009657250717282295
64.0,0.009349907748401165
72.0,0.00874077808111906
80.0,0.008100341074168682
88.0,0.007424964569509029
96.0,0.0068592713214457035
104.0,0.006516237743198872
112.0,0.006277475040405989
120.0,0.0059559098444879055
128.0,0.005543638486415148
144.0,0.004900467582046986
160.0,0.004635657649487257
176.0,0.004525656811892986
192.0,0.004694433882832527
208.0,0.004515425302088261
224.0,0.004417287651449442
240.0,0.00420045480132103
256.0,0.004222886171191931
288.0,0.004220092669129372
320.0,0.004101380240172148
352.0,0.003627493977546692
384.0,0.0033622945193201303
416.0,0.002950123744085431
448.0,0.003262239508330822
480.0,0.002985194092616439
512.0,0.002325295004993677
576.0,0.0024557686410844326
640.0,0.001430725445970893
704.0,0.00047515076585114
768.0,0.0002947750617749989
832.0,7.21674005035311e-05
896.0,-0.000989276566542685
960.0,-0.002097910502925515
1024.0,-0.001670367899350822
1152.0,-0.0002808764693327248
1280.0,-0.0007272062939591706
1408.0,-0.0010815393179655075
1536.0,-0.0010150501038879156
1664.0,0.0012363907881081104
1792.0,0.0028326709289103746
1920.0,0.0018134420970454812
2048.0,0.0026757260784506798
2304.0,0.0007828249363228679
2560.0,-0.00028026773361489177
2816.0,-0.0022347758058458567
3072.0,-0.0023257278371602297
3328.0,-0.0020499376114457846
3584.0,-0.0013245345326140523
3840.0,-0.0004323403409216553
4096.0,0.00033278364571742713
4608.0,0.0011295301374047995
5120.0,-0.0009845283348113298
5632.0,-0.002468645805492997
6144.0,-0.002116162795573473
6656.0,-0.0014043928822502494
7168.0,-0.0029768403619527817
7680.0,-0.004380612634122372
8192.0,-0.0006469165673479438
end
