version,3.0
numOfCh,1
type,point
parent_name,0cd20_0dot2-1dot0
ch_type,1_1
kcount,1
numberNandB,1
brightnessNandB,1
carpet pos,0
pc,0
Time (ms),CH1 Auto-Correlation
1.0,0.01905747689306736
2.0,0.018561994656920433
3.0,0.018097031861543655
4.0,0.017683614045381546
5.0,0.017278803512454033
6.0,0.01689915545284748
7.0,0.016518598422408104
8.0,0.01615358144044876
9.0,0.01580197364091873
10.0,0.015467667020857334
11.0,0.015124679543077946
12.0,0.014803658239543438
13.0,0.014500770717859268
14.0,0.014204942621290684
15.0,0.013931329362094402
16.0,0.013672605156898499
18.0,0.013180379755795002
20.0,0.012699350714683533
22.0,0.012263289652764797
24.0,0.011857456527650356
26.0,0.011455526575446129
28.0,0.01107005588710308
30.0,0.010696432553231716
32.0,0.010365661233663559
36.0,0.009740703739225864
40.0,0.009172591380774975
44.0,0.008644402958452702
48.0,0.008158686570823193
52.0,0.0077489460818469524
56.0,0.00735236844047904
60.0,0.00701086176559329
64.0,0.006704259663820267
72.0,0.006353125907480717
80.0,0.006193304900079966
88.0,0.006082717329263687
96.0,0.005896265152841806
104.0,0.005601676180958748
112.0,0.005331975873559713
120.0,0.0051169912330806255
128.0,0.004855322185903788
144.0,0.004104446154087782
160.0,0.0033400801476091146
176.0,0.002645231084898114
192.0,0.0022263992577791214
208.0,0.0018979994347319007
224.0,0.0010723908198997378
240.0,0.0003185425011906773
256.0,-0.00023842086375225335
288.0,-0.00029856027686037123
320.0,-0.0003609358100220561
352.0,-0.0013374261325225234
384.0,-0.001471620867960155
416.0,-0.0010199940297752619
448.0,-0.0014048790326341987
480.0,-0.0011774345766752958
512.0,-0.0004242324212100357
576.0,0.0005138532724231482
640.0,0.0009436616091988981
704.0,0.0004837597080040723
768.0,-0.0002570129290688783
832.0,-0.0005868138978257775
896.0,-0.0004137957585044205
960.0,0.00012346988660283387
1024.0,0.0004935122560709715
1152.0,-0.00013770321675110608
1280.0,0.0007489040726795793
1408.0,0.0005894034402444959
1536.0,0.001479713711887598
1664.0,0.0008498210227116942
1792.0,-0.0015342944534495473
1920.0,-0.002046888694167137
2048.0,5.458762825583108e-05
2304.0,0.0013989531435072422
2560.0,0.001219240017235279
2816.0,0.0008964012959040701
3072.0,0.00012717768549919128
3328.0,-0.0004980406374670565
3584.0,-0.0014507054584100842
3840.0,0.00040201566298492253
4096.0,-0.0006209712009876966
4608.0,-0.0010051816934719682
5120.0,-1.786112625268288e-05
5632.0,-0.00028360687429085374
6144.0,-0.0003077616565860808
6656.0,-0.0008590787183493376
7168.0,-9.847045294009149e-05
7680.0,0.000567152863368392
8192.0,0.0006778758252039552
end
