version,3.0
numOfCh,1
type,point
parent_name,0cd20_0dot2-1dot0
ch_type,1_1
kcount,1
numberNandB,1
brightnessNandB,1
carpet pos,0
pc,0
Time (ms),CH1 Auto-Correlation
1.0,0.020311012864112854
2.0,0.01975332945585251
3.0,0.019218498840928078
4.0,0.01861673593521118
5.0,0.018149003386497498
6.0,0.017804767936468124
7.0,0.01748773828148842
8.0,0.017160292714834213
9.0,0.01683994196355343
10.0,0.01651075668632984
11.0,0.016124242916703224
12.0,0.015740621834993362
13.0,0.015423647128045559
14.0,0.015118521638214588
15.0,0.014834592118859291
16.0,0.014573615044355392
18.0,0.014134624041616917
20.0,0.013802502304315567
22.0,0.013509323820471764
24.0,0.013195689767599106
26.0,0.012791882269084454
28.0,0.01241416297852993
30.0,0.012073026038706303
32.0,0.011712349951267242
36.0,0.010956252925097942
40.0,0.010368641465902328
44.0,0.0098374392837286
48.0,0.009336288087069988
52.0,0.008808576501905918
56.0,0.00833392795175314
60.0,0.007941353134810925
64.0,0.007641191594302654
72.0,0.006928923539817333
80.0,0.006041117012500763
88.0,0.005272770766168833
96.0,0.004932565614581108
104.0,0.0047500645741820335
112.0,0.0044866641983389854
120.0,0.0041968366131186485
128.0,0.003923751413822174
144.0,0.0036559775471687317
160.0,0.003520622383803129
176.0,0.003542630234733224
192.0,0.003607911756262183
208.0,0.0038000736385583878
224.0,0.004326780326664448
240.0,0.004573408979922533
256.0,0.004216847941279411
288.0,0.004010352771729231
320.0,0.0037373858503997326
352.0,0.0028676954098045826
384.0,0.0023177447728812695
416.0,0.0028392255771905184
448.0,0.002864450216293335
480.0,0.002850881079211831
512.0,0.002514123683795333
576.0,0.003215984907001257
640.0,0.004097138997167349
704.0,0.004807295743376017
768.0,0.004085357766598463
832.0,0.00361051713116467
896.0,0.003743780544027686
960.0,0.0034997989423573017
1024.0,0.0036614928394556046
1152.0,0.0024565341882407665
1280.0,0.0025131686124950647
1408.0,0.0028217427898198366
1536.0,0.002224006922915578
1664.0,0.0013288739137351513
1792.0,0.0014538359828293324
1920.0,0.0014354175655171275
2048.0,0.001726809423416853
2304.0,0.0013991378946229815
2560.0,0.0008734553121030331
2816.0,0.0006860413704998791
3072.0,0.0004995009512640536
3328.0,-0.000630980939604342
3584.0,0.00047258863924071193
3840.0,-0.0003392227226868272
4096.0,-0.0018201101338490844
4608.0,-0.0022995357867330313
5120.0,-0.0022915108129382133
5632.0,-0.002240860601887107
6144.0,-0.0017246720381081104
6656.0,-0.002384144114330411
7168.0,-0.0010081417858600616
7680.0,-0.0006260566879063845
8192.0,-0.00010019909677794203
end
