version,3.0
numOfCh,1
type,point
parent_name,0cd20_0dot2-1dot0
ch_type,1_1
kcount,1
numberNandB,1
brightnessNandB,1
carpet pos,0
pc,0
Time (ms),CH1 Auto-Correlation
1.0,0.024305153638124466
2.0,0.02378068119287491
3.0,0.023324664682149887
4.0,0.022903576493263245
5.0,0.022489584982395172
6.0,0.02211790159344673
7.0,0.021767301484942436
8.0,0.021435396745800972
9.0,0.02111314795911312
10.0,0.020794358104467392
11.0,0.020489059388637543
12.0,0.02016439288854599
13.0,0.019873831421136856
14.0,0.019566960632801056
15.0,0.019295206293463707
16.0,0.019026851281523705
18.0,0.018481841310858727
20.0,0.017992230132222176
22.0,0.01747785694897175
24.0,0.01696552149951458
26.0,0.01647268235683441
28.0,0.016027383506298065
30.0,0.015586788766086102
32.0,0.015166228637099266
36.0,0.014458482153713703
40.0,0.013821231201291084
44.0,0.013276259414851665
48.0,0.012781262397766113
52.0,0.012240791693329811
56.0,0.011767065152525902
60.0,0.011338479816913605
64.0,0.010962532833218575
72.0,0.010212572291493416
80.0,0.009609119035303593
88.0,0.009112446568906307
96.0,0.008778040297329426
104.0,0.008413183502852917
112.0,0.008161000907421112
120.0,0.00784265622496605
128.0,0.007423408795148134
144.0,0.006765879690647125
160.0,0.0062943208031356335
176.0,0.006024278234690428
192.0,0.0056113870814442635
208.0,0.004709726199507713
224.0,0.003959992900490761
240.0,0.0034994124434888363
256.0,0.0034607478883117437
288.0,0.003576195565983653
320.0,0.003325027646496892
352.0,0.0023947497829794884
384.0,0.0010070173302665353
416.0,0.0005595329566858709
448.0,0.00030411288025788963
480.0,6.775313522666693e-05
512.0,0.0005282817292027175
576.0,0.00034664676059037447
640.0,-0.0011523265857249498
704.0,-0.002283247420564294
768.0,-0.0028710770420730114
832.0,-0.0021430309861898422
896.0,-0.0011491485638543963
960.0,-0.0005339696072041988
1024.0,-0.0008925854926928878
1152.0,-0.002705531194806099
1280.0,-0.0035048751160502434
1408.0,-0.001824798178859055
1536.0,-0.0014242365723475814
1664.0,-2.469935134286061e-05
1792.0,-0.0017322844360023737
1920.0,-0.0007736976258456707
2048.0,-0.001322150812484324
2304.0,0.0011410166043788195
2560.0,0.0033611629623919725
2816.0,0.0018550020176917315
3072.0,-0.000782588729634881
3328.0,-0.002716660965234041
3584.0,-0.0010098640341311693
3840.0,-0.000695657916367054
4096.0,-0.0007894608424976468
4608.0,-0.002661990700289607
5120.0,0.0007699741399846971
5632.0,0.0010471546556800604
6144.0,0.0007984285475686193
6656.0,-0.0019882756751030684
7168.0,-0.0023373670410364866
7680.0,0.00016776673146523535
8192.0,0.0038516027852892876
end
