version,3.0
numOfCh,1
type,point
parent_name,0cd20_0dot2-1dot0
ch_type,1_1
kcount,1
numberNandB,1
brightnessNandB,1
carpet pos,0
pc,0
Time (ms),CH1 Auto-Correlation
1.0,0.035440877079963684
2.0,0.03448496013879776
3.0,0.03341733291745186
4.0,0.03232063353061676
5.0,0.03124765120446682
6.0,0.030167855322360992
7.0,0.02913959138095379
8.0,0.02817445807158947
9.0,0.027336925268173218
10.0,0.026682762429118156
11.0,0.02611135132610798
12.0,0.0256400965154171
13.0,0.025224963203072548
14.0,0.02486187033355236
15.0,0.024499936029314995
16.0,0.02423727884888649
18.0,0.023720454424619675
20.0,0.02308083139359951
22.0,0.02244560793042183
24.0,0.021894434466958046
26.0,0.021385855972766876
28.0,0.020884398370981216
30.0,0.020385246723890305
32.0,0.01985405758023262
36.0,0.018547382205724716
40.0,0.017542801797389984
44.0,0.016855478286743164
48.0,0.01609058678150177
52.0,0.015287764370441437
56.0,0.014624449424445629
60.0,0.014116430655121803
64.0,0.013716516084969044
72.0,0.012867583893239498
80.0,0.012306669726967812
88.0,0.011693330481648445
96.0,0.011246129870414734
104.0,0.011266280896961689
112.0,0.011382095515727997
120.0,0.011271071620285511
128.0,0.011013874784111977
144.0,0.010306968353688717
160.0,0.009143554605543613
176.0,0.007967041805386543
192.0,0.007469801232218742
208.0,0.007564299274235964
224.0,0.007972962222993374
240.0,0.00810024794191122
256.0,0.00767687801271677
288.0,0.006911486387252808
320.0,0.006468428764492273
352.0,0.00655002985149622
384.0,0.006907705683261156
416.0,0.006171174347400665
448.0,0.005178726278245449
480.0,0.004201275296509266
512.0,0.003942929208278656
576.0,0.0036557104904204607
640.0,0.002259108005091548
704.0,0.0015269378200173378
768.0,0.001345562282949686
832.0,0.0014852718450129032
896.0,0.0023017670027911663
960.0,0.0036812976468354464
1024.0,0.0028922862838953733
1152.0,0.000932231720071286
1280.0,0.0017136400565505028
1408.0,0.002172221662476659
1536.0,0.002405651146546006
1664.0,0.004367833025753498
1792.0,0.003970025572925806
1920.0,0.002764996839687228
2048.0,0.0037812520749866962
2304.0,0.003652523271739483
2560.0,0.003907793667167425
2816.0,0.005232711788266897
3072.0,0.0017444007098674774
3328.0,0.0006555944564752281
3584.0,0.0016040693735703826
3840.0,0.0021240385249257088
4096.0,0.0011809077113866806
4608.0,-0.0009594588773325086
5120.0,-0.004235828295350075
5632.0,-0.0017101652920246124
6144.0,-0.0045547219924628735
6656.0,-0.004837799817323685
7168.0,-0.0035785394720733166
7680.0,-0.004283674526959658
8192.0,-0.005086296238005161
end
