version,3.0
numOfCh,1
type,point
parent_name,714af_0dot1-1dot0
ch_type,1_1
kcount,1
numberNandB,1
brightnessNandB,1
carpet pos,0
pc,0
Time (ms),CH1 Auto-Correlation
1.0,0.04989652335643768
2.0,0.04933454468846321
3.0,0.04884617403149605
4.0,0.04841737076640129
5.0,0.04796978086233139
6.0,0.047529708594083786
7.0,0.04709818959236145
8.0,0.046673484146595
9.0,0.04625657945871353
10.0,0.04584963247179985
11.0,0.045449916273355484
12.0,0.045062750577926636
13.0,0.044649045914411545
14.0,0.0442543625831604
15.0,0.04386219382286072
16.0,0.04347574710845947
18.0,0.042729537934064865
20.0,0.04200926795601845
22.0,0.04129912331700325
24.0,0.04064834490418434
26.0,0.04003255441784859
28.0,0.039425138384103775
30.0,0.03881101682782173
32.0,0.03819519281387329
36.0,0.03698857128620148
40.0,0.03599604219198227
44.0,0.035174205899238586
48.0,0.03432273119688034
52.0,0.03357383981347084
56.0,0.0329238586127758
60.0,0.032378531992435455
64.0,0.031932320445775986
72.0,0.031139299273490906
80.0,0.030299164354801178
88.0,0.029373878613114357
96.0,0.02851221151649952
104.0,0.02768675610423088
112.0,0.026934003457427025
120.0,0.02618017978966236
128.0,0.02542494796216488
144.0,0.024436980485916138
160.0,0.023619461804628372
176.0,0.02263721637427807
192.0,0.02155258134007454
208.0,0.02055397629737854
224.0,0.020007073879241943
240.0,0.0192578062415123
256.0,0.018180882558226585
288.0,0.015857072547078133
320.0,0.013396762311458588
352.0,0.012483721598982811
384.0,0.011839600279927254
416.0,0.010443550534546375
448.0,0.010038334876298904
480.0,0.00980343483388424
512.0,0.009878437034785748
576.0,0.008263376541435719
640.0,0.005891009233891964
704.0,0.003430331824347377
768.0,0.0016235854709520936
832.0,0.0011201404267922044
896.0,-7.585276034660637e-05
960.0,0.00024448527256026864
1024.0,0.0009389773476868868
1152.0,-0.0005582268931902945
1280.0,-0.001597633701749146
1408.0,-0.0025910325348377228
1536.0,-0.004709602799266577
1664.0,-0.0087490389123559
1792.0,-0.012151150964200497
1920.0,-0.010247173719108105
2048.0,-0.005404183641076088
2304.0,-0.0016482603969052434
2560.0,-0.0035180479753762484
2816.0,-0.007227713707834482
3072.0,-0.011131156235933304
3328.0,-0.011706552468240261
3584.0,-0.006828549318015575
3840.0,0.0015045569743961096
4096.0,0.0036804594565182924
4608.0,0.010526169091463089
5120.0,0.012287935242056847
5632.0,-0.0017681079916656017
6144.0,-0.0070486352778971195
6656.0,-0.0013189883902668953
7168.0,-0.0003008238272741437
7680.0,-0.001968870172277093
8192.0,-0.011571995913982391
end
