version,3.0
numOfCh,1
type,point
parent_name,714af_0dot1-1dot0
ch_type,1_1
kcount,1
numberNandB,1
brightnessNandB,1
carpet pos,0
pc,0
Time (ms),CH1 Auto-Correlation
1.0,0.04526938125491142
2.0,0.0448172464966774
3.0,0.044381801038980484
4.0,0.04398636147379875
5.0,0.04360121488571167
6.0,0.04323330521583557
7.0,0.042887426912784576
8.0,0.04254814237356186
9.0,0.0422331728041172
10.0,0.0419258251786232
11.0,0.041618116199970245
12.0,0.04133058339357376
13.0,0.041056327521800995
14.0,0.04077398404479027
15.0,0.04049154743552208
16.0,0.040217988193035126
18.0,0.03972124308347702
20.0,0.039222702383995056
22.0,0.03871644660830498
24.0,0.03824660927057266
26.0,0.037788908928632736
28.0,0.03734191879630089
30.0,0.03692781925201416
32.0,0.036536891013383865
36.0,0.03573770821094513
40.0,0.03495535999536514
44.0,0.034226056188344955
48.0,0.033501703292131424
52.0,0.03277193009853363
56.0,0.03210678696632385
60.0,0.03145603835582733
64.0,0.030819382518529892
72.0,0.029538439586758614
80.0,0.02816244401037693
88.0,0.026742620393633842
96.0,0.025432605296373367
104.0,0.024139592424035072
112.0,0.02305065281689167
120.0,0.022031651809811592
128.0,0.021048130467534065
144.0,0.019187988713383675
160.0,0.01750970259308815
176.0,0.016137078404426575
192.0,0.015067384578287601
208.0,0.013855275698006153
224.0,0.012726716697216034
240.0,0.011769108474254608
256.0,0.010863065719604492
288.0,0.009387667290866375
320.0,0.007779371924698353
352.0,0.0058618164621293545
384.0,0.004214197862893343
416.0,0.0029806490056216717
448.0,0.0015222288202494383
480.0,-9.120440518017858e-05
512.0,-0.000865597277879715
576.0,-0.0013381760800257325
640.0,-0.00038006878457963467
704.0,0.0005794939934276044
768.0,0.0011221303138881922
832.0,0.0014082907000556588
896.0,0.002296092687174678
960.0,0.00360680278390646
1024.0,0.003283084835857153
1152.0,-0.0003589964471757412
1280.0,-0.0026020656805485487
1408.0,-0.0034878633450716734
1536.0,-0.0021816419903188944
1664.0,0.000494928564876318
1792.0,-0.0006843101000413299
1920.0,-0.0027226426173001528
2048.0,-0.002806600881740451
2304.0,-0.003541799960657954
2560.0,0.0003529803652781993
2816.0,0.0014577582478523254
3072.0,0.0011397531488910317
3328.0,-0.00086601497605443
3584.0,-0.004462322685867548
3840.0,-0.00013946551189292222
4096.0,0.0037356510292738676
4608.0,0.0004994935588911176
5120.0,0.0027618317399173975
5632.0,-0.0031955356243997812
6144.0,0.0005071701016277075
6656.0,-0.007946883328258991
7168.0,-0.002543103415518999
7680.0,-0.003209975315257907
8192.0,-0.003974277526140213
end
