version,3.0
numOfCh,1
type,point
parent_name,714af_0dot1-1dot0
ch_type,1_1
kcount,1
numberNandB,1
brightnessNandB,1
carpet pos,0
pc,0
Time (ms),CH1 Auto-Correlation
1.0,0.044858843088150024
2.0,0.044418610632419586
3.0,0.04399203509092331
4.0,0.043576788157224655
5.0,0.04316611960530281
6.0,0.042779553681612015
7.0,0.04239848256111145
8.0,0.042014408856630325
9.0,0.041651591658592224
10.0,0.04130392521619797
11.0,0.04093683883547783
12.0,0.04056756943464279
13.0,0.0402061901986599
14.0,0.03985106945037842
15.0,0.0395023450255394
16.0,0.039169881492853165
18.0,0.03851044178009033
20.0,0.03786966949701309
22.0,0.037272244691848755
24.0,0.03670486807823181
26.0,0.036155037581920624
28.0,0.035640254616737366
30.0,0.03513964265584946
32.0,0.034656643867492676
36.0,0.033735595643520355
40.0,0.03283914551138878
44.0,0.0319947674870491
48.0,0.031215345486998558
52.0,0.030409395694732666
56.0,0.029643060639500618
60.0,0.029024885967373848
64.0,0.02845177613198757
72.0,0.027218211442232132
80.0,0.026038317009806633
88.0,0.024924907833337784
96.0,0.023987531661987305
104.0,0.023150239139795303
112.0,0.022294651716947556
120.0,0.021580636501312256
128.0,0.020748022943735123
144.0,0.019458182156085968
160.0,0.01861519366502762
176.0,0.017889613285660744
192.0,0.017078349366784096
208.0,0.016224617138504982
224.0,0.015442204661667347
240.0,0.015293008647859097
256.0,0.014952989295125008
288.0,0.013935375027358532
320.0,0.012220297940075397
352.0,0.010274596512317657
384.0,0.009143192321062088
416.0,0.007777892518788576
448.0,0.0064490060321986675
480.0,0.00530965905636549
512.0,0.005429800134152174
576.0,0.005019707605242729
640.0,0.004535362124443054
704.0,0.0034968380350619555
768.0,0.0014906424330547452
832.0,-0.000324833148624748
896.0,0.00020079351088497788
960.0,0.0005089699407108128
1024.0,0.00043666476267389953
1152.0,7.597295734740328e-06
1280.0,-0.0008210032247006893
1408.0,0.0007575465133413672
1536.0,-0.0008636907441541553
1664.0,-0.003911843057721853
1792.0,-0.003544985083863139
1920.0,-0.003279854776337743
2048.0,-0.0006944537162780762
2304.0,-0.00325994030572474
2560.0,-0.0022366296034306288
2816.0,-0.002564877737313509
3072.0,-0.0009359524701721966
3328.0,-0.0007551679154857993
3584.0,-0.0010586772114038467
3840.0,-0.0016407493967562914
4096.0,0.005311294458806515
4608.0,0.006813668180257082
5120.0,-0.003790170419961214
5632.0,-0.007502883672714233
6144.0,-0.0033734478056430817
6656.0,-0.00616378104314208
7168.0,-0.008904056623578072
7680.0,0.0030263615772128105
8192.0,0.006095751188695431
end
