version,3.0
numOfCh,1
type,point
parent_name,714af_0dot1-1dot0
ch_type,1_1
kcount,1
numberNandB,1
brightnessNandB,1
carpet pos,0
pc,0
Time (ms),CH1 Auto-Correlation
1.0,0.041414014995098114
2.0,0.04098957031965256
3.0,0.04058179631829262
4.0,0.04019526392221451
5.0,0.03981465846300125
6.0,0.03945091366767883
7.0,0.039100341498851776
8.0,0.03876465559005737
9.0,0.03842412680387497
10.0,0.038093894720077515
11.0,0.03776431456208229
12.0,0.037420473992824554
13.0,0.037082739174366
14.0,0.03675633296370506
15.0,0.03643492981791496
16.0,0.03611304610967636
18.0,0.035504963248968124
20.0,0.0349087193608284
22.0,0.0343199297785759
24.0,0.03377613425254822
26.0,0.03325660154223442
28.0,0.03273392841219902
30.0,0.03225214034318924
32.0,0.031819045543670654
36.0,0.03105258382856846
40.0,0.030268793925642967
44.0,0.029442887753248215
48.0,0.02862560749053955
52.0,0.02783770114183426
56.0,0.02708209492266178
60.0,0.026394998654723167
64.0,0.02575560100376606
72.0,0.024520156905055046
80.0,0.023076217621564865
88.0,0.02175285294651985
96.0,0.0205143503844738
104.0,0.019358977675437927
112.0,0.01837126351892948
120.0,0.017470533028244972
128.0,0.01679055765271187
144.0,0.015579583123326302
160.0,0.014725752174854279
176.0,0.013808414340019226
192.0,0.012942850589752197
208.0,0.012224645353853703
224.0,0.011608836241066456
240.0,0.011151022277772427
256.0,0.010877943597733974
288.0,0.010010194964706898
320.0,0.008853361010551453
352.0,0.008212901651859283
384.0,0.008243144489824772
416.0,0.007770424708724022
448.0,0.00815054215490818
480.0,0.007256626151502132
512.0,0.006171020679175854
576.0,0.0039388942532241344
640.0,0.004288421478122473
704.0,0.004373093601316214
768.0,0.0035032005980610847
832.0,0.003187960246577859
896.0,0.0034420276060700417
960.0,0.0030629837419837713
1024.0,0.002137667266651988
1152.0,0.0019417810253798962
1280.0,-0.0003943245392292738
1408.0,-0.004039169754832983
1536.0,-0.0038572456687688828
1664.0,-0.0028768337797373533
1792.0,-0.00261495029553771
1920.0,-0.0017235870473086834
2048.0,-0.002790347905829549
2304.0,-0.0010310291545465589
2560.0,-0.00041224632877856493
2816.0,-0.0016131181037053466
3072.0,-0.00027418386889621615
3328.0,-0.00029873260064050555
3584.0,-0.0043101077899336815
3840.0,-0.007206177804619074
4096.0,-0.005623869132250547
4608.0,-0.006419260520488024
5120.0,-0.00331285921856761
5632.0,0.007768786977976561
6144.0,0.009644129313528538
6656.0,0.004218217451125383
7168.0,0.0011946031590923667
7680.0,-0.002336799865588546
8192.0,2.338045487704221e-05
end
