version,3.0
numOfCh,1
type,point
parent_name,714af_0dot1-1dot0
ch_type,1_1
kcount,1
numberNandB,1
brightnessNandB,1
carpet pos,0
pc,0
Time (ms),CH1 Auto-Correlation
1.0,0.03388361632823944
2.0,0.03342413157224655
3.0,0.0330076590180397
4.0,0.032612867653369904
5.0,0.032223451882600784
6.0,0.031858447939157486
7.0,0.03146988898515701
8.0,0.03111923672258854
9.0,0.030772920697927475
10.0,0.03042655996978283
11.0,0.03008541837334633
12.0,0.029748892411589622
13.0,0.0294132512062788
14.0,0.029097918421030045
15.0,0.028783215209841728
16.0,0.028480567038059235
18.0,0.027892813086509705
20.0,0.027361538261175156
22.0,0.02684459276497364
24.0,0.026323530822992325
26.0,0.025854473933577538
28.0,0.02539711445569992
30.0,0.02492540143430233
32.0,0.024451255798339844
36.0,0.023615596815943718
40.0,0.02285631187260151
44.0,0.022195419296622276
48.0,0.021547537297010422
52.0,0.02091130241751671
56.0,0.02027059718966484
60.0,0.019653240218758583
64.0,0.019076652824878693
72.0,0.01800616644322872
80.0,0.017024030908942223
88.0,0.01602526754140854
96.0,0.014846766367554665
104.0,0.013644454069435596
112.0,0.012519579380750656
120.0,0.011518682353198528
128.0,0.010820144787430763
144.0,0.010052244178950787
160.0,0.009276896715164185
176.0,0.008258660323917866
192.0,0.0067777992226183414
208.0,0.0052218204364180565
224.0,0.004551317542791367
240.0,0.004100675228983164
256.0,0.0035372076090425253
288.0,0.002302496926859021
320.0,0.0017431852174922824
352.0,0.001587125239893794
384.0,0.0014405668480321765
416.0,0.0013455027947202325
448.0,0.000887555128429085
480.0,0.0006002509035170078
512.0,0.0009953833650797606
576.0,0.0013796286657452583
640.0,0.0013764140894636512
704.0,-0.0011819206411018968
768.0,-0.004010599572211504
832.0,-0.004252257756888866
896.0,-0.00287246354855597
960.0,-0.002148854546248913
1024.0,-0.0013342577731236815
1152.0,-0.0029629438649863005
1280.0,-0.002853148151189089
1408.0,-0.0032108318991959095
1536.0,-0.002190057188272476
1664.0,0.0004079488862771541
1792.0,-0.0004222205316182226
1920.0,-0.0010549434227868915
2048.0,-0.000481992814457044
2304.0,0.0014559370465576649
2560.0,-0.0011661825701594353
2816.0,0.002715689828619361
3072.0,0.0012492535170167685
3328.0,0.00018830040062312037
3584.0,0.0017685554921627045
3840.0,-0.003265166422352195
4096.0,-0.003143215086311102
4608.0,0.0012571177212521434
5120.0,0.003252576105296612
5632.0,-0.00047020294005051255
6144.0,-0.0030913581140339375
6656.0,0.002452137181535363
7168.0,0.0024562834296375513
7680.0,-0.000493127794470638
8192.0,-0.005298164207488298
end
