version,3.0
numOfCh,1
type,point
parent_name,714af_0dot1-1dot0
ch_type,1_1
kcount,1
numberNandB,1
brightnessNandB,1
carpet pos,0
pc,0
Time (ms),CH1 Auto-Correlation
1.0,0.04894924536347389
2.0,0.0483957901597023
3.0,0.047880832105875015
4.0,0.04741904139518738
5.0,0.04695848748087883
6.0,0.04654378071427345
7.0,0.04614357650279999
8.0,0.04575416073203087
9.0,0.045358531177043915
10.0,0.04497288167476654
11.0,0.044593341648578644
12.0,0.0442185215651989
13.0,0.04386456683278084
14.0,0.04351812228560448
15.0,0.04318705201148987
16.0,0.04285496473312378
18.0,0.04222448915243149
20.0,0.04163511469960213
22.0,0.041049450635910034
24.0,0.040487296879291534
26.0,0.03991629183292389
28.0,0.039356622844934464
30.0,0.038816288113594055
32.0,0.03833010792732239
36.0,0.037381771951913834
40.0,0.03640759736299515
44.0,0.035494204610586166
48.0,0.034597255289554596
52.0,0.033795878291130066
56.0,0.03302683308720589
60.0,0.03227461129426956
64.0,0.03151388838887215
72.0,0.030144575983285904
80.0,0.02895715832710266
88.0,0.02762030065059662
96.0,0.02635614201426506
104.0,0.025427890941500664
112.0,0.024610823020339012
120.0,0.02383316308259964
128.0,0.02307848073542118
144.0,0.02170700952410698
160.0,0.0202354583889246
176.0,0.019094418734312057
192.0,0.01829557493329048
208.0,0.01739046536386013
224.0,0.016135986894369125
240.0,0.014723796397447586
256.0,0.013741496950387955
288.0,0.012417164631187916
320.0,0.011414246633648872
352.0,0.01019569206982851
384.0,0.008934072218835354
416.0,0.008323565125465393
448.0,0.007053249515593052
480.0,0.0047544012777507305
512.0,0.002143814926967025
576.0,-0.001777905155904591
640.0,-0.0031018732115626335
704.0,-0.004745448473840952
768.0,-0.005849763751029968
832.0,-0.006245494354516268
896.0,-0.005902580451220274
960.0,-0.005813998635858297
1024.0,-0.0052576372399926186
1152.0,-0.004737130831927061
1280.0,-0.005120072979480028
1408.0,-0.005727458745241165
1536.0,-0.0025688298046588898
1664.0,0.00015529294614680111
1792.0,0.0025709280744194984
1920.0,0.006465327460318804
2048.0,0.00745187746360898
2304.0,0.004095842596143484
2560.0,0.0010152712929993868
2816.0,-0.0024608932435512543
3072.0,-0.005611862055957317
3328.0,-0.00741203036159277
3584.0,-0.0021919338032603264
3840.0,0.005212915595620871
4096.0,0.0036605047062039375
4608.0,-0.0015574297867715359
5120.0,0.0012584220385178924
5632.0,-0.005494350101798773
6144.0,-0.003545190207660198
6656.0,0.0025251852348446846
7168.0,0.0053652627393603325
7680.0,0.0012952610850334167
8192.0,-0.010394611395895481
end
