version,3.0
numOfCh,1
type,point
parent_name,714af_0dot1-1dot0
ch_type,1_1
kcount,1
numberNandB,1
brightnessNandB,1
carpet pos,0
pc,0
Time (ms),CH1 Auto-Correlation
1.0,0.03236233815550804
2.0,0.03195951506495476
3.0,0.031588681042194366
4.0,0.031222330406308174
5.0,0.03086860664188862
6.0,0.03052516281604767
7.0,0.03018193505704403
8.0,0.02984100766479969
9.0,0.029513312503695488
10.0,0.029194960370659828
11.0,0.02887006849050522
12.0,0.028550148010253906
13.0,0.028225397691130638
14.0,0.02791556715965271
15.0,0.02761140465736389
16.0,0.027316290885210037
18.0,0.026742110028862953
20.0,0.0261917132884264
22.0,0.02566993050277233
24.0,0.025178540498018265
26.0,0.02469182200729847
28.0,0.02421138435602188
30.0,0.02374917082488537
32.0,0.023288534954190254
36.0,0.022380486130714417
40.0,0.0214798953384161
44.0,0.020576762035489082
48.0,0.01969982497394085
52.0,0.01894143596291542
56.0,0.018265435472130775
60.0,0.017659220844507217
64.0,0.017196496948599815
72.0,0.016465185210108757
80.0,0.015817444771528244
88.0,0.015236451290547848
96.0,0.014663530513644218
104.0,0.014001922681927681
112.0,0.013535373844206333
120.0,0.013104161247611046
128.0,0.012599300593137741
144.0,0.011550539173185825
160.0,0.010525541380047798
176.0,0.009759128093719482
192.0,0.0091703524813056
208.0,0.008415223099291325
224.0,0.007587111089378595
240.0,0.0067919217981398106
256.0,0.006312020123004913
288.0,0.0048815044574439526
320.0,0.0036952521186321974
352.0,0.0021725434344261885
384.0,0.0005089569604024291
416.0,-0.00016040266200434417
448.0,-0.00011785221431637183
480.0,-0.0004473103617783636
512.0,-0.001720780273899436
576.0,-0.0010565860429778695
640.0,-4.7618235839763656e-05
704.0,0.00030192011035978794
768.0,0.0008082566200755537
832.0,0.0025314236991107464
896.0,0.0031607188284397125
960.0,0.003354511456564069
1024.0,0.00210161367431283
1152.0,0.0012608550023287535
1280.0,-0.00021490933431778103
1408.0,-0.0018641843926161528
1536.0,-0.0036693725269287825
1664.0,-0.004765039309859276
1792.0,-0.0035579786635935307
1920.0,0.00016213367052841932
2048.0,0.0014262975892052054
2304.0,0.002764629665762186
2560.0,-0.000339553109370172
2816.0,-0.0017026194836944342
3072.0,-0.003114036051556468
3328.0,-0.002104612998664379
3584.0,0.0005147257470525801
3840.0,-0.0017074939096346498
4096.0,-0.0043043047189712524
4608.0,-0.0005603875033557415
5120.0,-0.00336281955242157
5632.0,-0.00603311276063323
6144.0,-0.0005232275580056012
6656.0,0.0014736292650923133
7168.0,0.001832426292821765
7680.0,0.0019631311297416687
8192.0,0.002733753062784672
end
