version,3.0
numOfCh,1
type,point
parent_name,714af_0dot1-1dot0
ch_type,1_1
kcount,1
numberNandB,1
brightnessNandB,1
carpet pos,0
pc,0
Time (ms),CH1 Auto-Correlation
1.0,0.03769573196768761
2.0,0.03689851239323616
3.0,0.03598034381866455
4.0,0.03541659191250801
5.0,0.03493964299559593
6.0,0.03459553048014641
7.0,0.03438173979520798
8.0,0.033942338079214096
9.0,0.03346240520477295
10.0,0.03278423100709915
11.0,0.03233974054455757
12.0,0.031734999269247055
13.0,0.03138872981071472
14.0,0.031032633036375046
15.0,0.030689772218465805
16.0,0.030336391180753708
18.0,0.02968713268637657
20.0,0.029138650745153427
22.0,0.02858015149831772
24.0,0.028016239404678345
26.0,0.027482762932777405
28.0,0.026978090405464172
30.0,0.02651786059141159
32.0,0.026048285886645317
36.0,0.025137655436992645
40.0,0.024297373369336128
44.0,0.02354874648153782
48.0,0.02284938283264637
52.0,0.022181864827871323
56.0,0.02152298204600811
60.0,0.020789844915270805
64.0,0.02009763941168785
72.0,0.018785787746310234
80.0,0.017629632726311684
88.0,0.016620583832263947
96.0,0.01575576141476631
104.0,0.015106528997421265
112.0,0.01446584053337574
120.0,0.013963195495307446
128.0,0.013574139215052128
144.0,0.01265525259077549
160.0,0.012075667269527912
176.0,0.011612655594944954
192.0,0.011203954927623272
208.0,0.01077281590551138
224.0,0.010322351939976215
240.0,0.00978618673980236
256.0,0.009014515206217766
288.0,0.008097711019217968
320.0,0.007618773728609085
352.0,0.007839540019631386
384.0,0.007229904178529978
416.0,0.006636236794292927
448.0,0.005836997646838427
480.0,0.005613140761852264
512.0,0.005537079181522131
576.0,0.004500999581068754
640.0,0.0036365597043186426
704.0,0.0030949623323976994
768.0,0.0029612863436341286
832.0,0.0025383844040334225
896.0,0.002573481062427163
960.0,0.002641927683725953
1024.0,0.00481366366147995
1152.0,0.0023541615810245275
1280.0,0.0005539202829822898
1408.0,-0.00015624989464413375
1536.0,0.0008544432348571718
1664.0,0.0009656965266913176
1792.0,0.0018595041474327445
1920.0,3.8608035538345575e-05
2048.0,0.0005766595131717622
2304.0,0.002396605210378766
2560.0,0.0005528283072635531
2816.0,0.0006106377695687115
3072.0,-0.0025538175832480192
3328.0,-0.0021875426173210144
3584.0,-0.002853505779057741
3840.0,-0.005735133308917284
4096.0,-0.008616113103926182
4608.0,-0.006121738348156214
5120.0,-0.0020612061489373446
5632.0,-0.0030773321632295847
6144.0,-0.0009764552814885974
6656.0,-0.0013678704854100943
7168.0,0.0005406198324635625
7680.0,0.002927144756540656
8192.0,0.003404321614652872
end
