version,3.0
numOfCh,1
type,point
parent_name,714af_0dot1-1dot0
ch_type,1_1
kcount,1
numberNandB,1
brightnessNandB,1
carpet pos,0
pc,0
Time (ms),CH1 Auto-Correlation
1.0,0.038353390991687775
2.0,0.03789939731359482
3.0,0.03748397156596184
4.0,0.03707864508032799
5.0,0.03668472543358803
6.0,0.03631134331226349
7.0,0.03597202152013779
8.0,0.035624682903289795
9.0,0.03527969494462013
10.0,0.03494473174214363
11.0,0.03460416570305824
12.0,0.03425015136599541
13.0,0.033912140876054764
14.0,0.03358853980898857
15.0,0.03327958658337593
16.0,0.03298291191458702
18.0,0.032350797206163406
20.0,0.031715501099824905
22.0,0.031092453747987747
24.0,0.03050253726541996
26.0,0.02993072383105755
28.0,0.029382409527897835
30.0,0.02885897271335125
32.0,0.028332728892564774
36.0,0.027247343212366104
40.0,0.026243217289447784
44.0,0.025255320593714714
48.0,0.02430453523993492
52.0,0.023465776816010475
56.0,0.022678233683109283
60.0,0.02195042558014393
64.0,0.02128659002482891
72.0,0.019986752420663834
80.0,0.018672872334718704
88.0,0.01744021102786064
96.0,0.016290564090013504
104.0,0.015420458279550076
112.0,0.014787675812840462
120.0,0.014290766790509224
128.0,0.013822460547089577
144.0,0.013188536278903484
160.0,0.01265663467347622
176.0,0.012107106857001781
192.0,0.0117407301440835
208.0,0.01167832687497139
224.0,0.011714193969964981
240.0,0.011496849358081818
256.0,0.01132726389914751
288.0,0.010424959473311901
320.0,0.009762292727828026
352.0,0.009829155169427395
384.0,0.010290710255503654
416.0,0.00992571096867323
448.0,0.009382795542478561
480.0,0.008809841237962246
512.0,0.008597705513238907
576.0,0.007635287940502167
640.0,0.006773678120225668
704.0,0.0072069899179041386
768.0,0.007545914966613054
832.0,0.005633770953863859
896.0,0.005338903982192278
960.0,0.005221147555857897
1024.0,0.005640389863401651
1152.0,0.006852986291050911
1280.0,0.0057941609993577
1408.0,0.003898056922480464
1536.0,0.0025898090098053217
1664.0,0.0009077716385945678
1792.0,-0.0006837125984020531
1920.0,-0.001875219284556806
2048.0,-0.0034111307468265295
2304.0,-0.0027981570456176996
2560.0,-0.0021006478928029537
2816.0,-0.005252590402960777
3072.0,-0.004665311425924301
3328.0,-0.005936657078564167
3584.0,-0.005816232413053513
3840.0,-0.004527105018496513
4096.0,-0.008319270797073841
4608.0,-0.006753289140760899
5120.0,-0.004926369525492191
5632.0,-0.0022992307785898447
6144.0,-0.002712262561544776
6656.0,-0.0016360337613150477
7168.0,0.0012256709160283208
7680.0,-0.0006857598200440407
8192.0,0.0025241784751415253
end
