version,3.0
numOfCh,1
type,point
parent_name,714af_0dot1-1dot0
ch_type,1_1
kcount,1
numberNandB,1
brightnessNandB,1
carpet pos,0
pc,0
Time (ms),CH1 Auto-Correlation
1.0,0.04118642583489418
2.0,0.04065120220184326
3.0,0.040159717202186584
4.0,0.0397225022315979
5.0,0.03931164741516113
6.0,0.03889959678053856
7.0,0.03848683461546898
8.0,0.038090407848358154
9.0,0.03770921006798744
10.0,0.037321727722883224
11.0,0.036961112171411514
12.0,0.0366051159799099
13.0,0.03624381124973297
14.0,0.03588232398033142
15.0,0.035517845302820206
16.0,0.03517235815525055
18.0,0.03453211858868599
20.0,0.0338907390832901
22.0,0.0332752950489521
24.0,0.03267018869519234
26.0,0.032082449644804
28.0,0.03154227137565613
30.0,0.0310040395706892
32.0,0.030454838648438454
36.0,0.0294038038700819
40.0,0.02841385081410408
44.0,0.027518320828676224
48.0,0.02668643184006214
52.0,0.025904113426804543
56.0,0.025314057245850563
60.0,0.024812517687678337
64.0,0.02439694106578827
72.0,0.023645708337426186
80.0,0.023075751960277557
88.0,0.022417575120925903
96.0,0.021726461127400398
104.0,0.021013109013438225
112.0,0.02028006687760353
120.0,0.019595708698034286
128.0,0.018996138125658035
144.0,0.01746722310781479
160.0,0.015931623056530952
176.0,0.01490037888288498
192.0,0.014573926106095314
208.0,0.014207517728209496
224.0,0.013882089406251907
240.0,0.013036505319178104
256.0,0.011807514354586601
288.0,0.010421606712043285
320.0,0.009953874163329601
352.0,0.009834565222263336
384.0,0.00925156194716692
416.0,0.008793905377388
448.0,0.009692528285086155
480.0,0.00965252984315157
512.0,0.009685681201517582
576.0,0.008913695812225342
640.0,0.007610275875777006
704.0,0.007143687456846237
768.0,0.005442872177809477
832.0,0.004931431729346514
896.0,0.004797209054231644
960.0,0.004090716131031513
1024.0,0.002816073829308152
1152.0,0.0016380057204514742
1280.0,0.0036187050864100456
1408.0,0.005147972609847784
1536.0,0.004953461233526468
1664.0,0.004443219397217035
1792.0,0.004492378793656826
1920.0,0.006286944262683392
2048.0,0.006326589267700911
2304.0,0.005407454911619425
2560.0,0.005593369714915752
2816.0,0.00662183528766036
3072.0,0.0033325236290693283
3328.0,0.005956605542451143
3584.0,0.004504588432610035
3840.0,0.00026171014178544283
4096.0,-0.004162989091128111
4608.0,-0.005543902050703764
5120.0,-0.0031083649955689907
5632.0,-0.003832304384559393
6144.0,-0.005864295642822981
6656.0,-0.00413469085469842
7168.0,-0.007993627339601517
7680.0,-0.012259218841791153
8192.0,-0.011577420867979527
end
