version,3.0
numOfCh,1
type,point
parent_name,714af_0dot1-1dot0
ch_type,1_1
kcount,1
numberNandB,1
brightnessNandB,1
carpet pos,0
pc,0
Time (ms),CH1 Auto-Correlation
1.0,0.040712930262088776
2.0,0.04031757637858391
3.0,0.039943452924489975
4.0,0.03957340121269226
5.0,0.03920759633183479
6.0,0.03884454816579819
7.0,0.038495972752571106
8.0,0.038145750761032104
9.0,0.03779700770974159
10.0,0.03745114430785179
11.0,0.03710464388132095
12.0,0.03676797077059746
13.0,0.03643172234296799
14.0,0.03609287738800049
15.0,0.035765476524829865
16.0,0.035442054271698
18.0,0.034793853759765625
20.0,0.03415539860725403
22.0,0.033522848039865494
24.0,0.03290804475545883
26.0,0.032305773347616196
28.0,0.031712111085653305
30.0,0.031129896640777588
32.0,0.03054765984416008
36.0,0.029390934854745865
40.0,0.028299596160650253
44.0,0.02733895741403103
48.0,0.02644113264977932
52.0,0.025602927431464195
56.0,0.024807073175907135
60.0,0.02401764504611492
64.0,0.023280471563339233
72.0,0.021950313821434975
80.0,0.020678097382187843
88.0,0.019447239115834236
96.0,0.018155179917812347
104.0,0.016994571313261986
112.0,0.01610041782259941
120.0,0.015402290970087051
128.0,0.014640320092439651
144.0,0.01336632575839758
160.0,0.012196351774036884
176.0,0.011177132837474346
192.0,0.010213586501777172
208.0,0.009345781058073044
224.0,0.008573069237172604
240.0,0.008117921650409698
256.0,0.007756366860121489
288.0,0.0067170774564146996
320.0,0.004644592292606831
352.0,0.0028719170950353146
384.0,0.0020908652804791927
416.0,0.0020278552547097206
448.0,0.0021843244321644306
480.0,0.002532106824219227
512.0,0.003147205337882042
576.0,0.003483452834188938
640.0,0.0013453244464471936
704.0,-0.0005365176475606859
768.0,-0.001278576673939824
832.0,-0.002341753337532282
896.0,-0.0032760847825556993
960.0,-0.0038913250900804996
1024.0,-0.0035658646374940872
1152.0,-0.0028945766389369965
1280.0,-0.00042871228652074933
1408.0,0.0015579316532239318
1536.0,0.001335770240984857
1664.0,0.0033025739248842
1792.0,0.002036202233284712
1920.0,-0.0008123870939016342
2048.0,-0.006332785822451115
2304.0,-0.005639080889523029
2560.0,-0.007264402229338884
2816.0,-0.0017663578037172556
3072.0,0.0005388617282733321
3328.0,0.0016770391957834363
3584.0,-0.0020012068562209606
3840.0,-0.003840467194095254
4096.0,-0.0008438912918791175
4608.0,0.0038355798460543156
5120.0,0.0018667434342205524
5632.0,0.0011808332055807114
6144.0,-0.00036506063770502806
6656.0,-0.0012787574669346213
7168.0,-0.0014138917904347181
7680.0,-0.0020689398515969515
8192.0,-0.0050774021074175835
end
