version,3.0
numOfCh,1
type,point
parent_name,714af_0dot1-1dot0
ch_type,1_1
kcount,1
numberNandB,1
brightnessNandB,1
carpet pos,0
pc,0
Time (ms),CH1 Auto-Correlation
1.0,0.03822186961770058
2.0,0.0377785824239254
3.0,0.037348538637161255
4.0,0.03693345561623573
5.0,0.03653203696012497
6.0,0.03613952174782753
7.0,0.03574572503566742
8.0,0.03535786271095276
9.0,0.03498086705803871
10.0,0.03461785614490509
11.0,0.03425868973135948
12.0,0.033908307552337646
13.0,0.03357023745775223
14.0,0.0332329086959362
15.0,0.03289568051695824
16.0,0.032568976283073425
18.0,0.031929753720760345
20.0,0.03134825453162193
22.0,0.03077707812190056
24.0,0.030248193070292473
26.0,0.02975717931985855
28.0,0.02930441126227379
30.0,0.02886894717812538
32.0,0.028438933193683624
36.0,0.027561413124203682
40.0,0.026693040505051613
44.0,0.025870846584439278
48.0,0.025123698636889458
52.0,0.024430347606539726
56.0,0.023780526593327522
60.0,0.02319830097258091
64.0,0.02265765331685543
72.0,0.021414941176772118
80.0,0.02008148841559887
88.0,0.019000377506017685
96.0,0.01806339994072914
104.0,0.01704416796565056
112.0,0.01604173332452774
120.0,0.015198329463601112
128.0,0.014300788752734661
144.0,0.012339652515947819
160.0,0.010803205892443657
176.0,0.010154522024095058
192.0,0.009599139913916588
208.0,0.00894191488623619
224.0,0.008181892335414886
240.0,0.007220386061817408
256.0,0.0062768408097326756
288.0,0.005557525437325239
320.0,0.0053491308353841305
352.0,0.004839546978473663
384.0,0.0047466992400586605
416.0,0.005476490594446659
448.0,0.005510185845196247
480.0,0.004274753853678703
512.0,0.0018059196881949902
576.0,-0.0010353898396715522
640.0,-0.0009771882323548198
704.0,-0.00013135441986378282
768.0,0.002360011450946331
832.0,0.0037565105594694614
896.0,0.004048197530210018
960.0,0.002334385644644499
1024.0,0.002293455181643367
1152.0,0.0033898544497787952
1280.0,0.001494897180236876
1408.0,-0.0011430183658376336
1536.0,-0.0027792006731033325
1664.0,-0.00015435554087162018
1792.0,0.0017124611185863614
1920.0,0.0018895111279562116
2048.0,0.0016370671801269054
2304.0,-9.152222628472373e-05
2560.0,-0.0026843531522899866
2816.0,4.492856533033773e-05
3072.0,-0.0008159387507475913
3328.0,-0.0010158069198951125
3584.0,0.00485572312027216
3840.0,0.006947972346097231
4096.0,0.005677496548742056
4608.0,-0.002024459419772029
5120.0,-0.0009954080451279879
5632.0,-0.0022982850205153227
6144.0,-0.008961676619946957
6656.0,-0.00788344256579876
7168.0,-0.00542899826541543
7680.0,0.00041457233601249754
8192.0,5.526377208298072e-05
end
