version,3.0
numOfCh,1
type,point
parent_name,714af_0dot1-1dot0
ch_type,1_1
kcount,1
numberNandB,1
brightnessNandB,1
carpet pos,0
pc,0
Time (ms),CH1 Auto-Correlation
1.0,0.04104499891400337
2.0,0.03975507244467735
3.0,0.03943643718957901
4.0,0.03883547708392143
5.0,0.03795692324638367
6.0,0.037434615194797516
7.0,0.03685746341943741
8.0,0.03638247400522232
9.0,0.036094196140766144
10.0,0.03573944419622421
11.0,0.03532016649842262
12.0,0.034852445125579834
13.0,0.03452890366315842
14.0,0.03420870378613472
15.0,0.03391663730144501
16.0,0.03364023566246033
18.0,0.033122655004262924
20.0,0.03259485214948654
22.0,0.032057616859674454
24.0,0.03152390941977501
26.0,0.031008455902338028
28.0,0.0304707158356905
30.0,0.0299689881503582
32.0,0.029485736042261124
36.0,0.028609536588191986
40.0,0.027701491490006447
44.0,0.026879657059907913
48.0,0.026056760922074318
52.0,0.025320157408714294
56.0,0.024612559005618095
60.0,0.023971430957317352
64.0,0.023430930450558662
72.0,0.022065384313464165
80.0,0.02073376625776291
88.0,0.01935677044093609
96.0,0.01804526150226593
104.0,0.016852371394634247
112.0,0.01592309959232807
120.0,0.015230320394039154
128.0,0.014641099609434605
144.0,0.013406551443040371
160.0,0.012312661856412888
176.0,0.01143871434032917
192.0,0.010464523918926716
208.0,0.009649241343140602
224.0,0.008858750574290752
240.0,0.0078334491699934
256.0,0.006832340732216835
288.0,0.0056956917978823185
320.0,0.005096246022731066
352.0,0.005018069874495268
384.0,0.005056243855506182
416.0,0.005668684374541044
448.0,0.005201761145144701
480.0,0.004400099627673626
512.0,0.00395846925675869
576.0,0.003295931499451399
640.0,0.0012089993106201291
704.0,-0.0013910535490140319
768.0,-0.003582628443837166
832.0,-0.005088595673441887
896.0,-0.004635483957827091
960.0,-0.004282269161194563
1024.0,-0.00366618437692523
1152.0,-0.0007313548121601343
1280.0,-0.0012433710508048534
1408.0,-0.0023930242750793695
1536.0,-0.000738147646188736
1664.0,0.0029184664599597454
1792.0,0.004156123846769333
1920.0,0.0026924265548586845
2048.0,0.0014603177551180124
2304.0,0.0015116864815354347
2560.0,0.00021764964913018048
2816.0,-0.0023084362037479877
3072.0,-0.003728753188624978
3328.0,-0.0030497354455292225
3584.0,-0.0015125649515539408
3840.0,-0.0008102863212116063
4096.0,-0.003866103943437338
4608.0,-0.006346893031150103
5120.0,-0.0037322314456105232
5632.0,-0.0014448834117501974
6144.0,0.001087103970348835
6656.0,-0.0013668601168319583
7168.0,-0.0031145703978836536
7680.0,0.002420143922790885
8192.0,0.0029792068526148796
end
