version,3.0
numOfCh,1
type,point
parent_name,714af_0dot1-1dot0
ch_type,1_1
kcount,1
numberNandB,1
brightnessNandB,1
carpet pos,0
pc,0
Time (ms),CH1 Auto-Correlation
1.0,0.03206723555922508
2.0,0.031635940074920654
3.0,0.031219538301229477
4.0,0.030827701091766357
5.0,0.03044285625219345
6.0,0.030077530071139336
7.0,0.029724502936005592
8.0,0.029364917427301407
9.0,0.029008399695158005
10.0,0.028656210750341415
11.0,0.028313422575592995
12.0,0.02798016183078289
13.0,0.027641357854008675
14.0,0.027309056371450424
15.0,0.026983708143234253
16.0,0.026666715741157532
18.0,0.026044713333249092
20.0,0.025458579882979393
22.0,0.024909084662795067
24.0,0.024366071447730064
26.0,0.02381405048072338
28.0,0.023297499865293503
30.0,0.022808795794844627
32.0,0.022311363369226456
36.0,0.021377360448241234
40.0,0.020485101267695427
44.0,0.01969362422823906
48.0,0.018854256719350815
52.0,0.018012695014476776
56.0,0.01718965172767639
60.0,0.016399187967181206
64.0,0.015563379973173141
72.0,0.01406481210142374
80.0,0.012883411720395088
88.0,0.01195572130382061
96.0,0.011149156838655472
104.0,0.010409117676317692
112.0,0.009574366733431816
120.0,0.008870910853147507
128.0,0.008407178334891796
144.0,0.00746897142380476
160.0,0.006357583217322826
176.0,0.005183137021958828
192.0,0.004105328116565943
208.0,0.0033884940203279257
224.0,0.0030957390554249287
240.0,0.0028946734964847565
256.0,0.0030347045976668596
288.0,0.0034574181772768497
320.0,0.0032447446137666702
352.0,0.0027225452940911055
384.0,0.002977521624416113
416.0,0.002670224057510495
448.0,0.002719462150707841
480.0,0.0025872690603137016
512.0,0.002654389012604952
576.0,0.0028694611974060535
640.0,0.0017357781762257218
704.0,-0.0005892199114896357
768.0,-0.0014590751379728317
832.0,-0.0007183125708252192
896.0,-0.0006676780758425593
960.0,-0.0011674797860905528
1024.0,-0.0008407461573369801
1152.0,-0.0025163418613374233
1280.0,-0.004510379396378994
1408.0,-0.002209610538557172
1536.0,0.0004972050082869828
1664.0,0.0009094474953599274
1792.0,-0.0008576234104111791
1920.0,-0.0021770077291876078
2048.0,-0.0031909726094454527
2304.0,-0.0035177855752408504
2560.0,-0.0032945929560810328
2816.0,-0.003103939350694418
3072.0,-0.0004280348075553775
3328.0,-0.00016710578347556293
3584.0,-0.00182824837975204
3840.0,0.0010545762488618493
4096.0,0.004851322155445814
4608.0,0.0018941235030069947
5120.0,4.515030468610348e-06
5632.0,0.00012475982657633722
6144.0,-0.004241529852151871
6656.0,-0.0036979501601308584
7168.0,0.0020029335282742977
7680.0,0.00022407939832191914
8192.0,0.0001629395701456815
end
