version,3.0
numOfCh,1
type,point
parent_name,714af_0dot1-1dot0
ch_type,1_1
kcount,1
numberNandB,1
brightnessNandB,1
carpet pos,0
pc,0
Time (ms),CH1 Auto-Correlation
1.0,0.05421600863337517
2.0,0.053719405084848404
3.0,0.05327082425355911
4.0,0.05284399539232254
5.0,0.0524318590760231
6.0,0.052034176886081696
7.0,0.051659345626831055
8.0,0.05128483101725578
9.0,0.05090605840086937
10.0,0.05053778365254402
11.0,0.0501728393137455
12.0,0.049822788685560226
13.0,0.049482349306344986
14.0,0.049142833799123764
15.0,0.04879869893193245
16.0,0.04844271391630173
18.0,0.04775198549032211
20.0,0.04711019992828369
22.0,0.04650537297129631
24.0,0.04589955508708954
26.0,0.045316942036151886
28.0,0.044768739491701126
30.0,0.04424752667546272
32.0,0.043763529509305954
36.0,0.04279854893684387
40.0,0.04188377782702446
44.0,0.04104490578174591
48.0,0.04024045914411545
52.0,0.03947800397872925
56.0,0.03881899267435074
60.0,0.03828229010105133
64.0,0.037832632660865784
72.0,0.037055011838674545
80.0,0.036223314702510834
88.0,0.03524534031748772
96.0,0.03434745594859123
104.0,0.03358699008822441
112.0,0.032702621072530746
120.0,0.03168871998786926
128.0,0.03070182353258133
144.0,0.028970709070563316
160.0,0.02772270329296589
176.0,0.026636933907866478
192.0,0.02546277828514576
208.0,0.024429820477962494
224.0,0.022958513349294662
240.0,0.02144399657845497
256.0,0.020395226776599884
288.0,0.01868983544409275
320.0,0.016885707154870033
352.0,0.01514830719679594
384.0,0.013646308332681656
416.0,0.011885127052664757
448.0,0.01006050780415535
480.0,0.008791829459369183
512.0,0.007156390696763992
576.0,0.0039823888801038265
640.0,0.0026462464593350887
704.0,0.0020406239200383425
768.0,0.002288238611072302
832.0,0.003617106704041362
896.0,0.004650771152228117
960.0,0.005697713233530521
1024.0,0.008434637449681759
1152.0,0.010265085846185684
1280.0,0.010888868942856789
1408.0,0.008931183256208897
1536.0,0.005336141213774681
1664.0,0.003623179392889142
1792.0,0.003811732167378068
1920.0,0.004333915654569864
2048.0,0.005016201175749302
2304.0,0.0026135507505387068
2560.0,-0.004100551828742027
2816.0,-0.006494516506791115
3072.0,-0.002963833510875702
3328.0,0.0009379368857480586
3584.0,0.0023693982511758804
3840.0,-0.006056476850062609
4096.0,-0.0061141992919147015
4608.0,-0.0002455401117913425
5120.0,-0.0007106661796569824
5632.0,-0.0003828287881333381
6144.0,0.0009448794298805296
6656.0,-0.0016140203224495053
7168.0,-0.01303196232765913
7680.0,-0.014132387936115265
8192.0,-0.011119402945041656
end
