version,3.0
numOfCh,1
type,point
parent_name,714af_0dot1-1dot0
ch_type,1_1
kcount,1
numberNandB,1
brightnessNandB,1
carpet pos,0
pc,0
Time (ms),CH1 Auto-Correlation
1.0,0.035238757729530334
2.0,0.03471943736076355
3.0,0.03426153212785721
4.0,0.03382599726319313
5.0,0.03343172371387482
6.0,0.033058054745197296
7.0,0.032690443098545074
8.0,0.03232896327972412
9.0,0.03197488561272621
10.0,0.03161870688199997
11.0,0.03125154599547386
12.0,0.0309042576700449
13.0,0.030559280887246132
14.0,0.0302183348685503
15.0,0.0298805870115757
16.0,0.029560143128037453
18.0,0.028938189148902893
20.0,0.02833620458841324
22.0,0.027739902958273888
24.0,0.027198510244488716
26.0,0.02664707787334919
28.0,0.026112131774425507
30.0,0.02560766600072384
32.0,0.02510247752070427
36.0,0.02415170520544052
40.0,0.02323881722986698
44.0,0.022420810535550117
48.0,0.021641643717885017
52.0,0.020861420780420303
56.0,0.02010878175497055
60.0,0.019396772608160973
64.0,0.018752126023173332
72.0,0.01747514121234417
80.0,0.016355618834495544
88.0,0.015578368678689003
96.0,0.015103667043149471
104.0,0.014643266797065735
112.0,0.014060704968869686
120.0,0.013440548442304134
128.0,0.012717648409307003
144.0,0.011139880865812302
160.0,0.009458228945732117
176.0,0.008436700329184532
192.0,0.007888704538345337
208.0,0.0073148938827216625
224.0,0.006853428203612566
240.0,0.006358529441058636
256.0,0.00565644446760416
288.0,0.004138834308832884
320.0,0.0032300795428454876
352.0,0.001839677570387721
384.0,0.0007016102899797261
416.0,-0.00018215073214378208
448.0,-0.0004377543809823692
480.0,-0.00035282751196064055
512.0,-0.00023975950898602605
576.0,-0.0011031960602849722
640.0,-0.0008895216160453856
704.0,0.00014787809050176293
768.0,0.0012431960785761476
832.0,0.001723248278722167
896.0,0.003316164016723633
960.0,0.004101550206542015
1024.0,0.0030928594060242176
1152.0,0.0017404741374775767
1280.0,-0.0004858541360590607
1408.0,-0.000718418275937438
1536.0,0.0036148123908787966
1664.0,0.002489781007170677
1792.0,0.001935639069415629
1920.0,-0.0006659153150394559
2048.0,-0.0020715943537652493
2304.0,-0.0031107834074646235
2560.0,0.001100601046346128
2816.0,-0.0029588057659566402
3072.0,-0.001181026571430266
3328.0,4.28106159233721e-06
3584.0,0.002335502067580819
3840.0,-0.002198099158704281
4096.0,0.00023251512902788818
4608.0,-0.00036164268385618925
5120.0,-0.005708651151508093
5632.0,-0.0018316680798307061
6144.0,-0.001073520048521459
6656.0,-0.0006587657844647765
7168.0,-0.002181381918489933
7680.0,-0.00028960901545360684
8192.0,0.005084495060145855
end
