version,3.0
numOfCh,1
type,point
parent_name,714af_0dot1-1dot0
ch_type,1_1
kcount,1
numberNandB,1
brightnessNandB,1
carpet pos,0
pc,0
Time (ms),CH1 Auto-Correlation
1.0,0.039979398250579834
2.0,0.039511680603027344
3.0,0.03908442705869675
4.0,0.03867337852716446
5.0,0.03826406970620155
6.0,0.03787035122513771
7.0,0.0374777615070343
8.0,0.03709833696484566
9.0,0.036728665232658386
10.0,0.03637545928359032
11.0,0.03604796901345253
12.0,0.03572552278637886
13.0,0.03538817912340164
14.0,0.035061318427324295
15.0,0.03474061191082001
16.0,0.03440631553530693
18.0,0.033782996237277985
20.0,0.03318816423416138
22.0,0.03263893723487854
24.0,0.032129786908626556
26.0,0.03161222115159035
28.0,0.031079063192009926
30.0,0.03053145855665207
32.0,0.030001917853951454
36.0,0.02896169386804104
40.0,0.02803994156420231
44.0,0.027149623259902
48.0,0.02621452882885933
52.0,0.025281909853219986
56.0,0.024370020255446434
60.0,0.023464415222406387
64.0,0.02255709283053875
72.0,0.020828956738114357
80.0,0.019299864768981934
88.0,0.01788279041647911
96.0,0.016580183058977127
104.0,0.015324687585234642
112.0,0.01409982144832611
120.0,0.012913129292428493
128.0,0.011867599561810493
144.0,0.00989254005253315
160.0,0.008274579420685768
176.0,0.006929288152605295
192.0,0.005810031201690435
208.0,0.004758189897984266
224.0,0.0038330594543367624
240.0,0.0030381500255316496
256.0,0.002616096520796418
288.0,0.0026612896472215652
320.0,0.002469769213348627
352.0,0.0016831873217597604
384.0,0.001471559051424265
416.0,0.0014883606927469373
448.0,0.0019152546301484108
480.0,0.002464879071339965
512.0,0.0024796801153570414
576.0,0.0006835815729573369
640.0,0.0012233727611601353
704.0,0.0013712163781747222
768.0,0.002686269348487258
832.0,0.001910947379656136
896.0,0.0008560660062357783
960.0,0.0015601996565237641
1024.0,0.0033762690145522356
1152.0,0.006506381556391716
1280.0,0.007630797568708658
1408.0,0.0008076623198576272
1536.0,-0.0010559794027358294
1664.0,-0.00041717541171237826
1792.0,0.00044452122529037297
1920.0,-0.002572977216914296
2048.0,-0.003712327918037772
2304.0,0.0015517817810177803
2560.0,-0.0007592811598442495
2816.0,-0.0023054785560816526
3072.0,-0.0025541905779391527
3328.0,-0.004283085931092501
3584.0,-0.0004175503272563219
3840.0,0.001546813640743494
4096.0,-0.0019617280922830105
4608.0,-0.0014782124198973179
5120.0,-0.0011563622392714024
5632.0,-0.0026455984916538
6144.0,-0.004379539750516415
6656.0,0.00011524394358275458
7168.0,-0.0030494784004986286
7680.0,-0.00080007134238258
8192.0,0.0012917900457978249
end
