version,3.0
numOfCh,1
type,point
parent_name,714af_0dot1-1dot0
ch_type,1_1
kcount,1
numberNandB,1
brightnessNandB,1
carpet pos,0
pc,0
Time (ms),CH1 Auto-Correlation
1.0,0.07001511752605438
2.0,0.06798912584781647
3.0,0.06658577173948288
4.0,0.06488936394453049
5.0,0.06389196217060089
6.0,0.062249161303043365
7.0,0.06113128364086151
8.0,0.059971101582050323
9.0,0.05793866142630577
10.0,0.05646877735853195
11.0,0.05497445911169052
12.0,0.05361160263419151
13.0,0.05205773934721947
14.0,0.05044419690966606
15.0,0.04989900439977646
16.0,0.049322567880153656
18.0,0.04791314899921417
20.0,0.04664890468120575
22.0,0.0456068329513073
24.0,0.04474244266748428
26.0,0.04387243092060089
28.0,0.043136246502399445
30.0,0.04253561794757843
32.0,0.04180428758263588
36.0,0.04034270718693733
40.0,0.039367590099573135
44.0,0.038531944155693054
48.0,0.038004375994205475
52.0,0.037557754665613174
56.0,0.037083908915519714
60.0,0.03671586886048317
64.0,0.03611105680465698
72.0,0.03491649776697159
80.0,0.03323216363787651
88.0,0.031600046902894974
96.0,0.030057867988944054
104.0,0.028513135388493538
112.0,0.0273772943764925
120.0,0.02683039754629135
128.0,0.026369944214820862
144.0,0.0244259275496006
160.0,0.021915804594755173
176.0,0.01863759756088257
192.0,0.0168352872133255
208.0,0.015367639251053333
224.0,0.014666727744042873
240.0,0.014450058341026306
256.0,0.015156339854001999
288.0,0.016461925581097603
320.0,0.01696937531232834
352.0,0.016879331320524216
384.0,0.016823945567011833
416.0,0.016765840351581573
448.0,0.0160385612398386
480.0,0.01392054371535778
512.0,0.012643098831176758
576.0,0.01049619261175394
640.0,0.010030466131865978
704.0,0.009777113795280457
768.0,0.00915747880935669
832.0,0.006120610050857067
896.0,0.0033914893865585327
960.0,0.0010950715513899922
1024.0,0.0012671822914853692
1152.0,0.003321039490401745
1280.0,0.006375627592206001
1408.0,0.004962389823049307
1536.0,0.0011173305101692677
1664.0,-0.0019830637611448765
1792.0,-0.0034223892726004124
1920.0,-0.0012280704686418176
2048.0,0.0013352185487747192
2304.0,0.0031940252520143986
2560.0,0.003960482310503721
2816.0,0.0018624616786837578
3072.0,-0.002153743291273713
3328.0,0.0003249125147704035
3584.0,0.0011637910502031446
3840.0,0.005116343032568693
4096.0,0.0006829131743870676
4608.0,-0.004048062022775412
5120.0,-0.006349971983581781
5632.0,-0.0010269483318552375
6144.0,0.00114541151560843
6656.0,-0.00824848935008049
7168.0,-0.011343937367200851
7680.0,-0.00876604113727808
8192.0,-0.004957691300660372
end
