version,3.0
numOfCh,1
type,point
parent_name,714af_0dot1-1dot0
ch_type,1_1
kcount,1
numberNandB,1
brightnessNandB,1
carpet pos,0
pc,0
Time (ms),CH1 Auto-Correlation
1.0,0.04470726475119591
2.0,0.04427095875144005
3.0,0.04386451840400696
4.0,0.04346823692321777
5.0,0.04308558255434036
6.0,0.04271448403596878
7.0,0.042345043271780014
8.0,0.041978124529123306
9.0,0.041627299040555954
10.0,0.0412936732172966
11.0,0.04096294939517975
12.0,0.04064454138278961
13.0,0.04031016677618027
14.0,0.03999418765306473
15.0,0.03968198969960213
16.0,0.039374250918626785
18.0,0.03878570720553398
20.0,0.03818950802087784
22.0,0.03762834146618843
24.0,0.03707694634795189
26.0,0.03653692081570625
28.0,0.0360126718878746
30.0,0.03549851477146149
32.0,0.03498104587197304
36.0,0.03397112339735031
40.0,0.03305835276842117
44.0,0.03222733363509178
48.0,0.03145761042833328
52.0,0.03074141964316368
56.0,0.03003060072660446
60.0,0.02933209203183651
64.0,0.028687573969364166
72.0,0.027593031525611877
80.0,0.026516323909163475
88.0,0.025596434250473976
96.0,0.02459820546209812
104.0,0.0234440378844738
112.0,0.02224748581647873
120.0,0.02117186039686203
128.0,0.02017022855579853
144.0,0.018112339079380035
160.0,0.01655762642621994
176.0,0.015522263944149017
192.0,0.014622196555137634
208.0,0.01401605736464262
224.0,0.013294700533151627
240.0,0.0128580741584301
256.0,0.012843833304941654
288.0,0.012364822439849377
320.0,0.011691822670400143
352.0,0.010610057972371578
384.0,0.009954175911843777
416.0,0.009747300297021866
448.0,0.009961104951798916
480.0,0.01008724793791771
512.0,0.010523977689445019
576.0,0.011392970569431782
640.0,0.010573115199804306
704.0,0.009576045908033848
768.0,0.009631773456931114
832.0,0.008965954184532166
896.0,0.0055648949928581715
960.0,0.002463173819705844
1024.0,0.0006832820363342762
1152.0,-0.0004194302891846746
1280.0,0.0027225674130022526
1408.0,0.004405132960528135
1536.0,0.0033755628392100334
1664.0,0.0016877749003469944
1792.0,0.0008457715157419443
1920.0,0.0021237782202661037
2048.0,0.002704060170799494
2304.0,0.0029777646996080875
2560.0,-0.004532067105174065
2816.0,-0.0005236391443759203
3072.0,-0.0020099645480513573
3328.0,-0.0048572286032140255
3584.0,0.002662285231053829
3840.0,0.0008158310083672404
4096.0,-0.0009151372360065579
4608.0,-0.0006172761786729097
5120.0,0.00019609942683018744
5632.0,-0.005743031855672598
6144.0,-0.006184461992233992
6656.0,-0.002772077452391386
7168.0,-0.0016021928749978542
7680.0,-0.008769536390900612
8192.0,-0.005316882394254208
end
