version,3.0
numOfCh,1
type,point
parent_name,714af_0dot1-1dot0
ch_type,1_1
kcount,1
numberNandB,1
brightnessNandB,1
carpet pos,0
pc,0
Time (ms),CH1 Auto-Correlation
1.0,0.044021256268024445
2.0,0.04353533685207367
3.0,0.043091289699077606
4.0,0.04268135130405426
5.0,0.04228938743472099
6.0,0.041929252445697784
7.0,0.04156854376196861
8.0,0.04121789708733559
9.0,0.04087638854980469
10.0,0.040521882474422455
11.0,0.04016644135117531
12.0,0.039815932512283325
13.0,0.039466261863708496
14.0,0.039105404168367386
15.0,0.03875116631388664
16.0,0.038407620042562485
18.0,0.03774518892168999
20.0,0.03710975870490074
22.0,0.036501914262771606
24.0,0.035887736827135086
26.0,0.03529050946235657
28.0,0.03469235822558403
30.0,0.03406693413853645
32.0,0.03346799686551094
36.0,0.032312069088220596
40.0,0.031217988580465317
44.0,0.030211100354790688
48.0,0.029271168634295464
52.0,0.028322989121079445
56.0,0.027419866994023323
60.0,0.026518531143665314
64.0,0.025704972445964813
72.0,0.024338440969586372
80.0,0.022924169898033142
88.0,0.021543443202972412
96.0,0.02033529058098793
104.0,0.019178815186023712
112.0,0.01810636557638645
120.0,0.017013201490044594
128.0,0.016078323125839233
144.0,0.01471696887165308
160.0,0.014245175756514072
176.0,0.013758812099695206
192.0,0.01303346548229456
208.0,0.011921937577426434
224.0,0.010760101489722729
240.0,0.00984263326972723
256.0,0.009214507415890694
288.0,0.008081706240773201
320.0,0.007036108989268541
352.0,0.007162762805819511
384.0,0.008088182657957077
416.0,0.008409014903008938
448.0,0.008235343731939793
480.0,0.008326468989253044
512.0,0.008217670023441315
576.0,0.008879444561898708
640.0,0.009017148055136204
704.0,0.011116714216768742
768.0,0.01155220065265894
832.0,0.010954329743981361
896.0,0.008588711731135845
960.0,0.006051886361092329
1024.0,0.004068759735673666
1152.0,0.002800126327201724
1280.0,0.0049469126388430595
1408.0,0.00560017628595233
1536.0,0.0043547204695641994
1664.0,0.0014788212720304728
1792.0,0.0014674341073259711
1920.0,0.0008954679942689836
2048.0,0.001057070679962635
2304.0,0.0016577227506786585
2560.0,0.001742199994623661
2816.0,-0.003642809111624956
3072.0,-0.0010819536400958896
3328.0,-0.00021931710944045335
3584.0,-0.004578642081469297
3840.0,-0.0003757103404495865
4096.0,-0.001819463330321014
4608.0,-0.001659798203036189
5120.0,-0.004360453225672245
5632.0,-0.00660011125728488
6144.0,-0.010421636514365673
6656.0,-0.009073806926608086
7168.0,-0.004890804179012775
7680.0,-0.0011627369094640017
8192.0,-0.005071635358035564
end
