version,3.0
numOfCh,1
type,point
parent_name,714af_0dot1-0dot1
ch_type,1_1
kcount,1
numberNandB,1
brightnessNandB,1
carpet pos,0
pc,0
Time (ms),CH1 Auto-Correlation
1.0,0.043013814836740494
2.0,0.04235009104013443
3.0,0.04171422868967056
4.0,0.04110320284962654
5.0,0.04049358516931534
6.0,0.03992050886154175
7.0,0.03936938941478729
8.0,0.038830116391181946
9.0,0.038286108523607254
10.0,0.037762995809316635
11.0,0.03720937296748161
12.0,0.036690130829811096
13.0,0.03618156537413597
14.0,0.03567694127559662
15.0,0.035210300236940384
16.0,0.03473798185586929
18.0,0.03369024023413658
20.0,0.03272165730595589
22.0,0.03175628185272217
24.0,0.03088546171784401
26.0,0.030046997591853142
28.0,0.029304731637239456
30.0,0.028589818626642227
32.0,0.027863621711730957
36.0,0.026691613718867302
40.0,0.02568480558693409
44.0,0.0247091855853796
48.0,0.02380046807229519
52.0,0.022993439808487892
56.0,0.02225588820874691
60.0,0.021559344604611397
64.0,0.020896682515740395
72.0,0.01965067721903324
80.0,0.018620526418089867
88.0,0.017629234120249748
96.0,0.016785964369773865
104.0,0.01590980961918831
112.0,0.015013658441603184
120.0,0.013894006609916687
128.0,0.01281571015715599
144.0,0.011104890145361423
160.0,0.009166961535811424
176.0,0.006899474188685417
192.0,0.005086435470730066
208.0,0.004314217250794172
224.0,0.0037762827705591917
240.0,0.00375975645147264
256.0,0.0034947190433740616
288.0,0.002474604407325387
320.0,0.001536587835289538
352.0,0.0026101877447217703
384.0,0.004025911446660757
416.0,0.004477270878851414
448.0,0.004368499852716923
480.0,0.004224355798214674
512.0,0.004639229737222195
576.0,0.004203398246318102
640.0,0.0027256233152002096
704.0,0.00182449072599411
768.0,0.00048509115003980696
832.0,0.0011706080986186862
896.0,-0.0006113604758866131
960.0,-0.000629418296739459
1024.0,-0.002700861543416977
1152.0,-0.002898314967751503
1280.0,0.0007636754889972508
1408.0,0.0033233300782740116
1536.0,0.00035901551018469036
1664.0,-0.0020889360457658768
1792.0,-0.000740033749025315
1920.0,-0.0018012680811807513
2048.0,-0.001085772761143744
2304.0,-0.0013200290268287063
2560.0,-0.001391175203025341
2816.0,0.003153708064928651
3072.0,0.0014590441714972258
3328.0,0.0017838578205555677
3584.0,0.0014075525104999542
3840.0,-0.0016364851035177708
4096.0,-0.002735280664637685
4608.0,-0.0011133962543681264
5120.0,-0.0005499508697539568
5632.0,-0.0025889910757541656
6144.0,-0.0007553493487648666
6656.0,-0.007287740707397461
7168.0,-0.008498930372297764
7680.0,0.0012933178804814816
8192.0,0.0002739350311458111
end
