version,3.0
numOfCh,1
type,point
parent_name,714af_0dot1-0dot1
ch_type,1_1
kcount,1
numberNandB,1
brightnessNandB,1
carpet pos,0
pc,0
Time (ms),CH1 Auto-Correlation
1.0,0.04709383100271225
2.0,0.04647062346339226
3.0,0.04587002098560333
4.0,0.04528135806322098
5.0,0.044786255806684494
6.0,0.04434996098279953
7.0,0.0439380519092083
8.0,0.043515849858522415
9.0,0.043082963675260544
10.0,0.042607344686985016
11.0,0.042140502482652664
12.0,0.041691362857818604
13.0,0.041277796030044556
14.0,0.040900830179452896
15.0,0.04051151126623154
16.0,0.04012260213494301
18.0,0.03924797475337982
20.0,0.03837001696228981
22.0,0.03769146651029587
24.0,0.03706961125135422
26.0,0.0364399179816246
28.0,0.035786911845207214
30.0,0.035146601498126984
32.0,0.0345233753323555
36.0,0.033388860523700714
40.0,0.03233366459608078
44.0,0.031289901584386826
48.0,0.030319461598992348
52.0,0.029439618811011314
56.0,0.02859143726527691
60.0,0.027735881507396698
64.0,0.026901546865701675
72.0,0.02542756125330925
80.0,0.023921020328998566
88.0,0.022440070286393166
96.0,0.021153656765818596
104.0,0.02003125473856926
112.0,0.01903664693236351
120.0,0.01803481951355934
128.0,0.016988491639494896
144.0,0.015529477968811989
160.0,0.014752434566617012
176.0,0.014234315603971481
192.0,0.013555836863815784
208.0,0.013076450675725937
224.0,0.012377850711345673
240.0,0.011596614494919777
256.0,0.011109653860330582
288.0,0.010143295861780643
320.0,0.009167401120066643
352.0,0.007919776253402233
384.0,0.006680297199636698
416.0,0.005630783271044493
448.0,0.004645560402423143
480.0,0.003512768307700753
512.0,0.0025420431047677994
576.0,0.0015252070734277368
640.0,0.0016234505455940962
704.0,0.0025127059780061245
768.0,0.003674557665362954
832.0,0.0036560241132974625
896.0,-0.00033719517523422837
960.0,-0.004457570146769285
1024.0,-0.0051324437372386456
1152.0,-0.0038628356996923685
1280.0,-0.004224790260195732
1408.0,-0.006754262372851372
1536.0,-0.005964010022580624
1664.0,-0.005823967512696981
1792.0,-0.007477383594959974
1920.0,-0.003209610702469945
2048.0,-0.0034960079938173294
2304.0,0.0008443121914751828
2560.0,0.0034172649029642344
2816.0,0.0011093365028500557
3072.0,-0.006782397162169218
3328.0,-0.006210584193468094
3584.0,-0.004369283095002174
3840.0,-0.002805745927616954
4096.0,-0.0009140691254287958
4608.0,0.00209116842597723
5120.0,0.004540018737316132
5632.0,0.0005174406687729061
6144.0,0.003924761898815632
6656.0,0.004963752347975969
7168.0,-0.0017156120156869292
7680.0,-0.00954428967088461
8192.0,-0.014371577650308609
end
