version,3.0
numOfCh,1
type,point
parent_name,714af_0dot1-0dot1
ch_type,1_1
kcount,1
numberNandB,1
brightnessNandB,1
carpet pos,0
pc,0
Time (ms),CH1 Auto-Correlation
1.0,0.04261138290166855
2.0,0.04214966669678688
3.0,0.04172540456056595
4.0,0.04130953550338745
5.0,0.04090239852666855
6.0,0.04050849378108978
7.0,0.040119804441928864
8.0,0.039732612669467926
9.0,0.0393526591360569
10.0,0.03897568956017494
11.0,0.038593798875808716
12.0,0.03821203485131264
13.0,0.03783772140741348
14.0,0.03745734319090843
15.0,0.03708511218428612
16.0,0.03673164173960686
18.0,0.03602290153503418
20.0,0.03531274199485779
22.0,0.03461690992116928
24.0,0.03394684940576553
26.0,0.0333000048995018
28.0,0.032669246196746826
30.0,0.03205644711852074
32.0,0.03148433566093445
36.0,0.030416399240493774
40.0,0.02941066026687622
44.0,0.028512708842754364
48.0,0.027722463011741638
52.0,0.026973899453878403
56.0,0.026198457926511765
60.0,0.025408126413822174
64.0,0.02464982494711876
72.0,0.023197010159492493
80.0,0.02191927656531334
88.0,0.02059760130941868
96.0,0.019225411117076874
104.0,0.018054913729429245
112.0,0.017058927565813065
120.0,0.01618810184299946
128.0,0.015580540522933006
144.0,0.014722414314746857
160.0,0.014035334810614586
176.0,0.01294937264174223
192.0,0.011612145230174065
208.0,0.010674255900084972
224.0,0.01006575021892786
240.0,0.008872879669070244
256.0,0.006969694513827562
288.0,0.004323676694184542
320.0,0.002656868426129222
352.0,0.0013053383445367217
384.0,0.000527145981322974
416.0,-0.0007208504830487072
448.0,-0.0017739289905875921
480.0,-0.0013676343951374292
512.0,-0.000906982459127903
576.0,-0.0004965445259585977
640.0,-0.0010878677712753415
704.0,-0.0021801681723445654
768.0,-0.0003271339519415051
832.0,0.0009817143436521292
896.0,0.001781288767233491
960.0,0.0018197019817307591
1024.0,0.0020721505861729383
1152.0,0.002890592208132148
1280.0,0.0013596256030723453
1408.0,0.0006896433769725263
1536.0,-0.0012031795922666788
1664.0,-0.00028017713339067996
1792.0,0.0007943837554194033
1920.0,0.0027049293275922537
2048.0,0.002971509238705039
2304.0,-0.00216682069003582
2560.0,-0.004093020688742399
2816.0,-0.006192521657794714
3072.0,-0.001365511561743915
3328.0,-0.0012605874799191952
3584.0,-0.004820821341127157
3840.0,-0.0063942354172468185
4096.0,-0.0011186777846887708
4608.0,0.005907872226089239
5120.0,-0.0017530224286019802
5632.0,-0.005328289233148098
6144.0,0.0006945630302652717
6656.0,-0.00019891691044904292
7168.0,-0.0037117437459528446
7680.0,0.0006436326075345278
8192.0,0.0039954339154064655
end
