version,3.0
numOfCh,1
type,point
parent_name,714af_0dot1-0dot1
ch_type,1_1
kcount,1
numberNandB,1
brightnessNandB,1
carpet pos,0
pc,0
Time (ms),CH1 Auto-Correlation
1.0,0.0553121380507946
2.0,0.05479908734560013
3.0,0.05430649593472481
4.0,0.053834252059459686
5.0,0.053360890597105026
6.0,0.05288667976856232
7.0,0.0524042546749115
8.0,0.05194218456745148
9.0,0.051502011716365814
10.0,0.05107303708791733
11.0,0.050677087157964706
12.0,0.05029492825269699
13.0,0.04992757737636566
14.0,0.049579016864299774
15.0,0.049217529594898224
16.0,0.04886692762374878
18.0,0.04817473515868187
20.0,0.04752030596137047
22.0,0.04686294123530388
24.0,0.046216197311878204
26.0,0.04559009522199631
28.0,0.0450078584253788
30.0,0.04446936398744583
32.0,0.043951138854026794
36.0,0.04296104609966278
40.0,0.041941799223423004
44.0,0.040948666632175446
48.0,0.040059637278318405
52.0,0.03924790024757385
56.0,0.03849387913942337
60.0,0.03774212300777435
64.0,0.03704950213432312
72.0,0.035832323133945465
80.0,0.034713663160800934
88.0,0.03354480490088463
96.0,0.03237411379814148
104.0,0.031345196068286896
112.0,0.030279481783509254
120.0,0.02919509820640087
128.0,0.02811300940811634
144.0,0.026276789605617523
160.0,0.024658000096678734
176.0,0.02341730333864689
192.0,0.022135870531201363
208.0,0.020699510350823402
224.0,0.01898660883307457
240.0,0.01681462489068508
256.0,0.014987468719482422
288.0,0.01373590249568224
320.0,0.013004696927964687
352.0,0.011924178339540958
384.0,0.010790416039526463
416.0,0.009310928173363209
448.0,0.00812415312975645
480.0,0.007890962064266205
512.0,0.007445320021361113
576.0,0.004437174182385206
640.0,-7.157129584811628e-05
704.0,-0.0035159792751073837
768.0,-0.004970097914338112
832.0,-0.00604326743632555
896.0,-0.006817081477493048
960.0,-0.008048314601182938
1024.0,-0.0070369550958275795
1152.0,-0.003233105642721057
1280.0,-0.0013601126847788692
1408.0,-0.002139267511665821
1536.0,-0.0009761951514519751
1664.0,0.004812994040548801
1792.0,0.005450387950986624
1920.0,0.002849642187356949
2048.0,0.004041691776365042
2304.0,0.010333814658224583
2560.0,0.003721878631040454
2816.0,0.0018402909627184272
3072.0,-0.001168375601992011
3328.0,-0.00039237653254531324
3584.0,0.00151427136734128
3840.0,-0.008599545806646347
4096.0,-0.0073735471814870834
4608.0,0.0024998935405164957
5120.0,0.008554896339774132
5632.0,0.002319308230653405
6144.0,-0.006918319966644049
6656.0,-0.012350569479167461
7168.0,0.005112697836011648
7680.0,0.005476544611155987
8192.0,-0.005890396889299154
end
