version,3.0
numOfCh,1
type,point
parent_name,714af_0dot1-0dot1
ch_type,1_1
kcount,1
numberNandB,1
brightnessNandB,1
carpet pos,0
pc,0
Time (ms),CH1 Auto-Correlation
1.0,0.047139983624219894
2.0,0.04654534533619881
3.0,0.045995745807886124
4.0,0.045466311275959015
5.0,0.04495841637253761
6.0,0.044451937079429626
7.0,0.043974123895168304
8.0,0.043493203818798065
9.0,0.043040983378887177
10.0,0.042582690715789795
11.0,0.04216974228620529
12.0,0.04177183285355568
13.0,0.041373033076524734
14.0,0.04098321124911308
15.0,0.04061230644583702
16.0,0.0402475968003273
18.0,0.03948604688048363
20.0,0.03874708712100983
22.0,0.03807239979505539
24.0,0.037432193756103516
26.0,0.0368083193898201
28.0,0.03619498014450073
30.0,0.03562057390809059
32.0,0.03504971042275429
36.0,0.03395465761423111
40.0,0.03293875977396965
44.0,0.031994543969631195
48.0,0.031136687844991684
52.0,0.0304245725274086
56.0,0.029831387102603912
60.0,0.02922697551548481
64.0,0.028611518442630768
72.0,0.027530968189239502
80.0,0.026463782414793968
88.0,0.025400571525096893
96.0,0.024224111810326576
104.0,0.02295941300690174
112.0,0.02167927287518978
120.0,0.020540423691272736
128.0,0.01932559348642826
144.0,0.017418749630451202
160.0,0.01593281328678131
176.0,0.014356376603245735
192.0,0.012846207246184349
208.0,0.011392186395823956
224.0,0.010032122023403645
240.0,0.008776862174272537
256.0,0.008011335507035255
288.0,0.007184715010225773
320.0,0.0067289224825799465
352.0,0.006391316186636686
384.0,0.005083355121314526
416.0,0.0038135014474391937
448.0,0.003903962206095457
480.0,0.005032367538660765
512.0,0.006455539260059595
576.0,0.006629630457609892
640.0,0.004910369403660297
704.0,0.001970915589481592
768.0,-0.0010454526636749506
832.0,-0.0027729591820389032
896.0,-0.00434825848788023
960.0,-0.005968793760985136
1024.0,-0.005693868733942509
1152.0,-0.0011863948311656713
1280.0,0.0032205823808908463
1408.0,0.002291613258421421
1536.0,0.0005232326802797616
1664.0,-0.0019273366779088974
1792.0,0.0005898389499634504
1920.0,0.0010169863235205412
2048.0,-0.0017677429132163525
2304.0,-0.0013324181782081723
2560.0,-0.0025027263909578323
2816.0,-0.00500636687502265
3072.0,-0.0036066623870283365
3328.0,-0.006594411563128233
3584.0,-0.0038343281485140324
3840.0,-6.977785960771143e-05
4096.0,-0.005448097363114357
4608.0,-0.00574560696259141
5120.0,-0.006687394808977842
5632.0,0.004409977700561285
6144.0,0.011169209145009518
6656.0,-0.00588206248357892
7168.0,-0.009486056864261627
7680.0,0.002880494575947523
8192.0,-0.001003588316962123
end
