version,3.0
numOfCh,1
type,point
parent_name,714af_0dot1-0dot1
ch_type,1_1
kcount,1
numberNandB,1
brightnessNandB,1
carpet pos,0
pc,0
Time (ms),CH1 Auto-Correlation
1.0,0.04960162937641144
2.0,0.04901222139596939
3.0,0.04844922199845314
4.0,0.04787774011492729
5.0,0.047342266887426376
6.0,0.04681327939033508
7.0,0.04630514606833458
8.0,0.04579729586839676
9.0,0.04531581327319145
10.0,0.04485832154750824
11.0,0.04440850764513016
12.0,0.04397076740860939
13.0,0.04356086999177933
14.0,0.043147653341293335
15.0,0.042746588587760925
16.0,0.04236908257007599
18.0,0.041657183319330215
20.0,0.04096747189760208
22.0,0.040304601192474365
24.0,0.03965100273489952
26.0,0.03901103138923645
28.0,0.03842153772711754
30.0,0.03786090761423111
32.0,0.03733000531792641
36.0,0.03632939234375954
40.0,0.03538792207837105
44.0,0.03444178029894829
48.0,0.03351105377078056
52.0,0.03269382566213608
56.0,0.03199080005288124
60.0,0.0313715934753418
64.0,0.030731089413166046
72.0,0.029522793367505074
80.0,0.02852439321577549
88.0,0.027530532330274582
96.0,0.026444237679243088
104.0,0.025261659175157547
112.0,0.024060219526290894
120.0,0.022884340956807137
128.0,0.021771686151623726
144.0,0.02026071585714817
160.0,0.018974274396896362
176.0,0.01726756989955902
192.0,0.015402923338115215
208.0,0.013675164431333542
224.0,0.011922861449420452
240.0,0.010309391655027866
256.0,0.009322448633611202
288.0,0.007359178736805916
320.0,0.006612193770706654
352.0,0.005973143968731165
384.0,0.006263352930545807
416.0,0.006778060458600521
448.0,0.007121286354959011
480.0,0.007041442673653364
512.0,0.007139445282518864
576.0,0.007604328449815512
640.0,0.007748719770461321
704.0,0.008741053752601147
768.0,0.010319964960217476
832.0,0.010682251304388046
896.0,0.010859169997274876
960.0,0.0129160201177001
1024.0,0.013223112560808659
1152.0,0.01038702204823494
1280.0,0.009983438067138195
1408.0,0.007812988944351673
1536.0,0.005594795569777489
1664.0,0.006446021609008312
1792.0,0.010546870529651642
1920.0,0.011847180314362049
2048.0,0.012869275175035
2304.0,0.004047212190926075
2560.0,0.0028712772764265537
2816.0,0.006792714353650808
3072.0,0.0060503194108605385
3328.0,0.00039391705649904907
3584.0,0.0015571251278743148
3840.0,-0.0013031796552240849
4096.0,0.0007001216290518641
4608.0,-0.0013218815438449383
5120.0,-0.0005064772558398545
5632.0,-0.0010208876337856054
6144.0,-0.002899696584790945
6656.0,-0.001637425972148776
7168.0,-0.007842659018933773
7680.0,-0.003395788138732314
8192.0,-0.013620859943330288
end
