version,3.0
numOfCh,1
type,point
parent_name,714af_0dot1-0dot1
ch_type,1_1
kcount,1
numberNandB,1
brightnessNandB,1
carpet pos,0
pc,0
Time (ms),CH1 Auto-Correlation
1.0,0.050922103226184845
2.0,0.050158318132162094
3.0,0.04946906119585037
4.0,0.0487993024289608
5.0,0.04815520718693733
6.0,0.047562818974256516
7.0,0.04698306322097778
8.0,0.04645007476210594
9.0,0.04592166841030121
10.0,0.04542770981788635
11.0,0.044969476759433746
12.0,0.044532984495162964
13.0,0.044087011367082596
14.0,0.04366667941212654
15.0,0.04327699914574623
16.0,0.042856112122535706
18.0,0.04196052998304367
20.0,0.04112929105758667
22.0,0.040251899510622025
24.0,0.039409440010786057
26.0,0.03863956406712532
28.0,0.03794438764452934
30.0,0.037224650382995605
32.0,0.03652271255850792
36.0,0.03515395522117615
40.0,0.03387495502829552
44.0,0.0326804518699646
48.0,0.031507473438978195
52.0,0.030278168618679047
56.0,0.029224645346403122
60.0,0.028282593935728073
64.0,0.02744401805102825
72.0,0.026325048878788948
80.0,0.0253988616168499
88.0,0.02466357871890068
96.0,0.02374911867082119
104.0,0.022569628432393074
112.0,0.021267274394631386
120.0,0.01992826908826828
128.0,0.01866808906197548
144.0,0.016986006870865822
160.0,0.015472792088985443
176.0,0.013700084760785103
192.0,0.012745687738060951
208.0,0.013021508231759071
224.0,0.012880281545221806
240.0,0.013065853156149387
256.0,0.013708507642149925
288.0,0.014270400628447533
320.0,0.013520550914108753
352.0,0.011891135945916176
384.0,0.010381560772657394
416.0,0.0072290063835680485
448.0,0.004647508729249239
480.0,0.005098232999444008
512.0,0.006145312450826168
576.0,0.005676431115716696
640.0,0.005060243885964155
704.0,0.0014897105284035206
768.0,-0.0021229060366749763
832.0,-0.0024547921493649483
896.0,-0.0017723286291584373
960.0,-0.0015872684307396412
1024.0,-0.0026830092538148165
1152.0,-0.002099488163366914
1280.0,-0.0036533207166939974
1408.0,-0.003691490273922682
1536.0,-0.003216763027012348
1664.0,-0.004575588274747133
1792.0,-0.005640726070851088
1920.0,-0.006597554311156273
2048.0,-0.006980674806982279
2304.0,-0.004141019657254219
2560.0,-0.007446168456226587
2816.0,-0.0061502158641815186
3072.0,-0.002306342823430896
3328.0,0.0029550965409725904
3584.0,0.006382619496434927
3840.0,0.006269745994359255
4096.0,0.007272571325302124
4608.0,0.001141923014074564
5120.0,-0.005388251040130854
5632.0,-0.00614401139318943
6144.0,-0.008548854850232601
6656.0,-0.00757791381329298
7168.0,-0.0002095133240800351
7680.0,0.016342997550964355
8192.0,0.00032339096651412547
end
