version,3.0
numOfCh,1
type,point
parent_name,714af_0dot1-0dot1
ch_type,1_1
kcount,1
numberNandB,1
brightnessNandB,1
carpet pos,0
pc,0
Time (ms),CH1 Auto-Correlation
1.0,0.04355774074792862
2.0,0.04293642193078995
3.0,0.04235299304127693
4.0,0.04177625849843025
5.0,0.04120359942317009
6.0,0.04064006730914116
7.0,0.04009215161204338
8.0,0.0395800955593586
9.0,0.039116859436035156
10.0,0.038667209446430206
11.0,0.03821871429681778
12.0,0.03781435266137123
13.0,0.03742386773228645
14.0,0.037041421979665756
15.0,0.036671232432127
16.0,0.03629970923066139
18.0,0.03558099642395973
20.0,0.03486922010779381
22.0,0.03417668119072914
24.0,0.03349578008055687
26.0,0.03284730762243271
28.0,0.03218761831521988
30.0,0.03154413029551506
32.0,0.030974023044109344
36.0,0.029992809519171715
40.0,0.029000630602240562
44.0,0.028066089376807213
48.0,0.027184676378965378
52.0,0.026363253593444824
56.0,0.025570062920451164
60.0,0.02479572780430317
64.0,0.024042265489697456
72.0,0.022742705419659615
80.0,0.02152884379029274
88.0,0.0203758105635643
96.0,0.019489075988531113
104.0,0.018860656768083572
112.0,0.018454793840646744
120.0,0.017974579706788063
128.0,0.017400091513991356
144.0,0.015982598066329956
160.0,0.01562377531081438
176.0,0.015358738601207733
192.0,0.014915644191205502
208.0,0.013859862461686134
224.0,0.012651731260120869
240.0,0.0119994031265378
256.0,0.01153932511806488
288.0,0.010784775950014591
320.0,0.009575462900102139
352.0,0.009212890639901161
384.0,0.00990246795117855
416.0,0.010279092006385326
448.0,0.009291905909776688
480.0,0.006626428104937077
512.0,0.005132059101015329
576.0,0.005008356645703316
640.0,0.004162799101322889
704.0,0.0031990057323127985
768.0,0.0005712321144528687
832.0,-0.0016603396506980062
896.0,-0.0018730033189058304
960.0,-0.003220394952222705
1024.0,-0.004448753781616688
1152.0,-0.007680073380470276
1280.0,-0.00905386358499527
1408.0,-0.005733286961913109
1536.0,-0.0032360018230974674
1664.0,-0.00368499755859375
1792.0,-0.0009760466637089849
1920.0,0.002102403435856104
2048.0,-0.00022260041441768408
2304.0,0.002473684726282954
2560.0,-0.00011468800221337005
2816.0,-0.005108878947794437
3072.0,-0.007932862266898155
3328.0,-0.00166644889395684
3584.0,0.0026991351041942835
3840.0,0.0018869478954002261
4096.0,0.002762432675808668
4608.0,-0.0001508211571490392
5120.0,0.0016370033845305443
5632.0,0.002201320603489876
6144.0,-0.0041547794826328754
6656.0,-0.008721034042537212
7168.0,-0.004878966603428125
7680.0,0.0012276932829990983
8192.0,-0.004409304354339838
end
