version,3.0
numOfCh,1
type,point
parent_name,714af_0dot1-0dot1
ch_type,1_1
kcount,1
numberNandB,1
brightnessNandB,1
carpet pos,0
pc,0
Time (ms),CH1 Auto-Correlation
1.0,0.053963735699653625
2.0,0.053232647478580475
3.0,0.052504487335681915
4.0,0.05181465670466423
5.0,0.05117446556687355
6.0,0.05057445168495178
7.0,0.04995648190379143
8.0,0.04941401258111
9.0,0.048910606652498245
10.0,0.048405721783638
11.0,0.047905534505844116
12.0,0.04741671308875084
13.0,0.04693996533751488
14.0,0.046506330370903015
15.0,0.04603836312890053
16.0,0.0455569289624691
18.0,0.044618941843509674
20.0,0.04366345331072807
22.0,0.04272384196519852
24.0,0.04188314452767372
26.0,0.04105769842863083
28.0,0.040255576372146606
30.0,0.03948592767119408
32.0,0.038782183080911636
36.0,0.037541504949331284
40.0,0.03628918528556824
44.0,0.03509673848748207
48.0,0.03397054225206375
52.0,0.03280052915215492
56.0,0.03173886239528656
60.0,0.030885817483067513
64.0,0.030101843178272247
72.0,0.0289390217512846
80.0,0.02837304212152958
88.0,0.02782878465950489
96.0,0.02733694203197956
104.0,0.02685157023370266
112.0,0.026332618668675423
120.0,0.02588128112256527
128.0,0.02505560964345932
144.0,0.023696232587099075
160.0,0.022596437484025955
176.0,0.021520648151636124
192.0,0.02067989856004715
208.0,0.020676659420132637
224.0,0.020383894443511963
240.0,0.019887547940015793
256.0,0.01939369924366474
288.0,0.017525270581245422
320.0,0.015534835867583752
352.0,0.013329926878213882
384.0,0.011329205706715584
416.0,0.010131199844181538
448.0,0.009335801936686039
480.0,0.008375979959964752
512.0,0.008455900475382805
576.0,0.008794715628027916
640.0,0.006476054433733225
704.0,0.005050270352512598
768.0,0.004938377998769283
832.0,0.0027865502052009106
896.0,0.00030850566690787673
960.0,-0.0021125469356775284
1024.0,-0.002720426069572568
1152.0,-0.006385768298059702
1280.0,-0.008159276098012924
1408.0,-0.00793200358748436
1536.0,-0.010916943661868572
1664.0,-0.010770019143819809
1792.0,-0.010024536401033401
1920.0,-0.009794703684747219
2048.0,-0.009930667467415333
2304.0,-0.010997145436704159
2560.0,-0.007090648636221886
2816.0,-0.0033775954507291317
3072.0,-8.410092414123937e-05
3328.0,0.0035195504315197468
3584.0,0.008469974622130394
3840.0,0.007482737768441439
4096.0,0.0042401584796607494
4608.0,0.002830845769494772
5120.0,-0.0028937694150954485
5632.0,-0.013897780328989029
6144.0,-0.012537078931927681
6656.0,-0.00015683377569075674
7168.0,0.0016005953075364232
7680.0,0.0034997384063899517
8192.0,0.008843460120260715
end
