version,3.0
numOfCh,1
type,point
parent_name,714af_0dot1-0dot1
ch_type,1_1
kcount,1
numberNandB,1
brightnessNandB,1
carpet pos,0
pc,0
Time (ms),CH1 Auto-Correlation
1.0,0.059114739298820496
2.0,0.05851681903004646
3.0,0.057929087430238724
4.0,0.05738328397274017
5.0,0.056854646652936935
6.0,0.05635746195912361
7.0,0.055894430726766586
8.0,0.05546056479215622
9.0,0.05504211410880089
10.0,0.05461197346448898
11.0,0.05416621267795563
12.0,0.053745120763778687
13.0,0.053306642919778824
14.0,0.052895259112119675
15.0,0.05249839648604393
16.0,0.05211150646209717
18.0,0.05133252963423729
20.0,0.05060770362615585
22.0,0.04984242469072342
24.0,0.04909924790263176
26.0,0.04842790961265564
28.0,0.04781131446361542
30.0,0.04719590023159981
32.0,0.046579860150814056
36.0,0.04528117924928665
40.0,0.04401721805334091
44.0,0.04290146380662918
48.0,0.041871678084135056
52.0,0.04082302749156952
56.0,0.0398770309984684
60.0,0.039049554616212845
64.0,0.03833436220884323
72.0,0.03682038560509682
80.0,0.035210248082876205
88.0,0.0338578000664711
96.0,0.032463353127241135
104.0,0.031271833926439285
112.0,0.03013596124947071
120.0,0.02914760820567608
128.0,0.028321892023086548
144.0,0.02641505002975464
160.0,0.02449713833630085
176.0,0.022546151652932167
192.0,0.02097509615123272
208.0,0.019757431000471115
224.0,0.018953150138258934
240.0,0.018305344507098198
256.0,0.017391515895724297
288.0,0.014581656083464622
320.0,0.011751387268304825
352.0,0.010297554545104504
384.0,0.00954408012330532
416.0,0.009396731853485107
448.0,0.00776978163048625
480.0,0.005062575917690992
512.0,0.004103963263332844
576.0,0.002946097869426012
640.0,0.0005177262937650084
704.0,0.0011551330098882318
768.0,0.0028590059373527765
832.0,0.00543573684990406
896.0,0.00692187761887908
960.0,0.006417369935661554
1024.0,0.004118650685995817
1152.0,-0.0002951629285234958
1280.0,-0.004377578850835562
1408.0,-0.004946453496813774
1536.0,-0.002998082432895899
1664.0,-0.00010949785792035982
1792.0,-0.0006803821888752282
1920.0,-0.0032094093039631844
2048.0,-0.003593317000195384
2304.0,-0.004396867007017136
2560.0,-0.0011450443416833878
2816.0,0.0020846091210842133
3072.0,0.001531584421172738
3328.0,-0.004037952050566673
3584.0,0.00224788929335773
3840.0,0.0011717701563611627
4096.0,-0.002737499540671706
4608.0,-0.0030754473991692066
5120.0,-0.007817522622644901
5632.0,-0.002217093715444207
6144.0,-0.009342068806290627
6656.0,-0.00573371909558773
7168.0,-0.006722618825733662
7680.0,-0.012058010324835777
8192.0,-0.0011196326231583953
end
