version,3.0
numOfCh,1
type,point
parent_name,714af_0dot1-0dot1
ch_type,1_1
kcount,1
numberNandB,1
brightnessNandB,1
carpet pos,0
pc,0
Time (ms),CH1 Auto-Correlation
1.0,0.053032297641038895
2.0,0.05237327888607979
3.0,0.051762502640485764
4.0,0.051178183406591415
5.0,0.050583671778440475
6.0,0.04999783635139465
7.0,0.04941245913505554
8.0,0.04885545372962952
9.0,0.04832080751657486
10.0,0.047770872712135315
11.0,0.047219615429639816
12.0,0.04671689122915268
13.0,0.046223439276218414
14.0,0.04575883969664574
15.0,0.04529908299446106
16.0,0.044861387461423874
18.0,0.04397635906934738
20.0,0.04313572496175766
22.0,0.042345140129327774
24.0,0.041522253304719925
26.0,0.04070917144417763
28.0,0.039956580847501755
30.0,0.03922535851597786
32.0,0.03852979838848114
36.0,0.037291519343853
40.0,0.03620748594403267
44.0,0.03513650968670845
48.0,0.034055206924676895
52.0,0.03298569470643997
56.0,0.03190566599369049
60.0,0.030854593962430954
64.0,0.029874255880713463
72.0,0.028218669816851616
80.0,0.026847470551729202
88.0,0.025635354220867157
96.0,0.024341290816664696
104.0,0.023022830486297607
112.0,0.021889375522732735
120.0,0.021126044914126396
128.0,0.020234936848282814
144.0,0.01851067878305912
160.0,0.01723351888358593
176.0,0.016375957056879997
192.0,0.01537295151501894
208.0,0.014238623902201653
224.0,0.013664930127561092
240.0,0.013285190798342228
256.0,0.012198040261864662
288.0,0.012003920041024685
320.0,0.011582531966269016
352.0,0.011272275820374489
384.0,0.010000422596931458
416.0,0.0082177072763443
448.0,0.006810765713453293
480.0,0.004338041879236698
512.0,0.0023356114979833364
576.0,0.0009397791000083089
640.0,-0.0015682225348427892
704.0,-0.005479368846863508
768.0,-0.006547325756400824
832.0,-0.006566860247403383
896.0,-0.005998725537210703
960.0,-0.006433121860027313
1024.0,-0.0076600899919867516
1152.0,-0.010780241340398788
1280.0,-0.011047717183828354
1408.0,-0.013652732595801353
1536.0,-0.009929688647389412
1664.0,-0.008674685843288898
1792.0,-0.00884393323212862
1920.0,-0.0006613132427446544
2048.0,0.00016386431525461376
2304.0,-0.003858365351334214
2560.0,-0.00259400624781847
2816.0,0.003961276728659868
3072.0,0.009615560993552208
3328.0,0.008396992459893227
3584.0,0.011041552759706974
3840.0,0.01013745367527008
4096.0,0.007396175991743803
4608.0,-0.01299553643912077
5120.0,-0.014008288271725178
5632.0,-0.0005641511525027454
6144.0,0.00818637851625681
6656.0,0.008137314580380917
7168.0,0.004060316830873489
7680.0,-0.003588190535083413
8192.0,-0.0081294821575284
end
