version,3.0
numOfCh,1
type,point
parent_name,714af_0dot1-0dot1
ch_type,1_1
kcount,1
numberNandB,1
brightnessNandB,1
carpet pos,0
pc,0
Time (ms),CH1 Auto-Correlation
1.0,0.04310762882232666
2.0,0.04257744923233986
3.0,0.04207460582256317
4.0,0.04156653210520744
5.0,0.04106931760907173
6.0,0.040589965879917145
7.0,0.04013308882713318
8.0,0.03969969600439072
9.0,0.03926635533571243
10.0,0.03882531821727753
11.0,0.03838479891419411
12.0,0.03792666643857956
13.0,0.03747883066534996
14.0,0.03703830763697624
15.0,0.03659866005182266
16.0,0.036177825182676315
18.0,0.035340119153261185
20.0,0.03456173464655876
22.0,0.03378566727042198
24.0,0.033021871000528336
26.0,0.03232927247881889
28.0,0.03166964277625084
30.0,0.031034234911203384
32.0,0.03041631355881691
36.0,0.02933274582028389
40.0,0.02831537462770939
44.0,0.027300504967570305
48.0,0.02639724314212799
52.0,0.025658458471298218
56.0,0.025050442665815353
60.0,0.024499351158738136
64.0,0.023856986314058304
72.0,0.022695302963256836
80.0,0.02160779759287834
88.0,0.02042260579764843
96.0,0.01934569701552391
104.0,0.018217571079730988
112.0,0.01722210831940174
120.0,0.016489680856466293
128.0,0.015959758311510086
144.0,0.015207799151539803
160.0,0.014708273112773895
176.0,0.014094220474362373
192.0,0.013599218800663948
208.0,0.013239325024187565
224.0,0.012646609917283058
240.0,0.012063177302479744
256.0,0.0111424271017313
288.0,0.00957025121897459
320.0,0.008546565659344196
352.0,0.007713465020060539
384.0,0.005797374527901411
416.0,0.0025678728707134724
448.0,0.0013468102551996708
480.0,0.0014530144399031997
512.0,0.001851469511166215
576.0,0.00253908708691597
640.0,0.0018241385696455836
704.0,0.001397229265421629
768.0,0.0013275026576593518
832.0,0.0005364380776882172
896.0,-0.0029163735453039408
960.0,-0.0044742911122739315
1024.0,-0.006560089066624641
1152.0,-0.009826046414673328
1280.0,-0.007107916753739119
1408.0,-0.004382746294140816
1536.0,-0.001328310463577509
1664.0,-0.0019001096952706575
1792.0,-0.0024766772985458374
1920.0,-0.0010366375790908933
2048.0,0.0015424381708726287
2304.0,0.0031778367701917887
2560.0,-0.0014510935870930552
2816.0,-0.005090606398880482
3072.0,-0.00447843037545681
3328.0,-0.008912351913750172
3584.0,-0.009544648230075836
3840.0,-0.002271184930577874
4096.0,0.0023646890185773373
4608.0,0.0009405594901181757
5120.0,-0.0058368113823235035
5632.0,-0.003858910407871008
6144.0,0.0021515435073524714
6656.0,0.004945454653352499
7168.0,0.005062446463853121
7680.0,0.00538374250754714
8192.0,0.009547055698931217
end
