version,3.0
numOfCh,1
type,point
parent_name,714af_0dot1-0dot1
ch_type,1_1
kcount,1
numberNandB,1
brightnessNandB,1
carpet pos,0
pc,0
Time (ms),CH1 Auto-Correlation
1.0,0.053033214062452316
2.0,0.05228014290332794
3.0,0.05156106874346733
4.0,0.05084440857172012
5.0,0.05014917626976967
6.0,0.049469392746686935
7.0,0.04886065050959587
8.0,0.04824761673808098
9.0,0.047637078911066055
10.0,0.04703352600336075
11.0,0.046447571367025375
12.0,0.045867957174777985
13.0,0.0453132800757885
14.0,0.044791173189878464
15.0,0.044277891516685486
16.0,0.0438007228076458
18.0,0.04290164262056351
20.0,0.04206712543964386
22.0,0.04118720069527626
24.0,0.040361374616622925
26.0,0.03958183526992798
28.0,0.038792625069618225
30.0,0.03794347122311592
32.0,0.037145692855119705
36.0,0.035612404346466064
40.0,0.03426959365606308
44.0,0.03298713639378548
48.0,0.0316680409014225
52.0,0.03040943667292595
56.0,0.02934824302792549
60.0,0.02841058187186718
64.0,0.027535010129213333
72.0,0.02601058967411518
80.0,0.02463725581765175
88.0,0.02363092638552189
96.0,0.022559814155101776
104.0,0.021509476006031036
112.0,0.020562810823321342
120.0,0.019858039915561676
128.0,0.019127584993839264
144.0,0.01736660860478878
160.0,0.016467001289129257
176.0,0.015093222260475159
192.0,0.01361043844372034
208.0,0.011944526806473732
224.0,0.010116267018020153
240.0,0.00878842081874609
256.0,0.007605156395584345
288.0,0.006288378499448299
320.0,0.004925474524497986
352.0,0.00468760821968317
384.0,0.005533098708838224
416.0,0.0057253665290772915
448.0,0.006223245058208704
480.0,0.007583141792565584
512.0,0.007884224876761436
576.0,0.006477915216237307
640.0,0.006305872928351164
704.0,0.00284936698153615
768.0,-0.001541679841466248
832.0,-0.0034186504781246185
896.0,-0.004723509773612022
960.0,-0.005789631512016058
1024.0,-0.003845249069854617
1152.0,-0.001538998680189252
1280.0,-0.0026104345452040434
1408.0,-0.004566332791000605
1536.0,-0.0038521636743098497
1664.0,-0.002187171718105674
1792.0,-0.0020299649331718683
1920.0,-0.004073834512382746
2048.0,-0.00481765391305089
2304.0,-0.00392273860052228
2560.0,-0.006219308357685804
2816.0,-0.0044420864433050156
3072.0,-0.006101387552917004
3328.0,-0.00290824961848557
3584.0,9.258722275262699e-05
3840.0,-0.002408054191619158
4096.0,-0.0009175037848763168
4608.0,-9.84506550594233e-05
5120.0,-0.000989195890724659
5632.0,-0.0012470652582123876
6144.0,-0.0002663918421603739
6656.0,0.0012731455499306321
7168.0,0.006830880418419838
7680.0,0.004481706768274307
8192.0,0.0034214199986308813
end
