version,3.0
numOfCh,1
type,point
parent_name,714af_0dot1-0dot1
ch_type,1_1
kcount,1
numberNandB,1
brightnessNandB,1
carpet pos,0
pc,0
Time (ms),CH1 Auto-Correlation
1.0,0.04536336287856102
2.0,0.044870197772979736
3.0,0.04438731074333191
4.0,0.043909702450037
5.0,0.04343993961811066
6.0,0.04297793284058571
7.0,0.04251955822110176
8.0,0.04206649214029312
9.0,0.041645895689725876
10.0,0.041245292872190475
11.0,0.04085030406713486
12.0,0.04046117514371872
13.0,0.040075283497571945
14.0,0.03971327096223831
15.0,0.03935350477695465
16.0,0.03899623081088066
18.0,0.03826180845499039
20.0,0.037526510655879974
22.0,0.03678964078426361
24.0,0.03605843707919121
26.0,0.035352155566215515
28.0,0.03468937426805496
30.0,0.03405508026480675
32.0,0.03343002870678902
36.0,0.03217238560318947
40.0,0.03101109154522419
44.0,0.029960354790091515
48.0,0.029006127268075943
52.0,0.02811267040669918
56.0,0.027222953736782074
60.0,0.02634519152343273
64.0,0.025462264195084572
72.0,0.02382715418934822
80.0,0.022311100736260414
88.0,0.02097177505493164
96.0,0.01976672187447548
104.0,0.01869376190006733
112.0,0.017710449174046516
120.0,0.016979685053229332
128.0,0.01623174548149109
144.0,0.01449426356703043
160.0,0.012655508704483509
176.0,0.011478390544652939
192.0,0.010598343797028065
208.0,0.00954683218151331
224.0,0.008431064896285534
240.0,0.007801295258104801
256.0,0.007670877035707235
288.0,0.007446618750691414
320.0,0.006473741494119167
352.0,0.004459877032786608
384.0,0.002293675672262907
416.0,0.0017929772147908807
448.0,0.0017760090995579958
480.0,0.001566719962283969
512.0,0.001524485880509019
576.0,0.0024353566113859415
640.0,0.003335195127874613
704.0,0.002012944081798196
768.0,0.002498267451301217
832.0,0.003781786886975169
896.0,0.005017121788114309
960.0,0.004198167938739061
1024.0,0.0035133762285113335
1152.0,0.003188986796885729
1280.0,0.0010185869177803397
1408.0,0.0020608624909073114
1536.0,-0.002243209397420287
1664.0,-0.003417531494051218
1792.0,-0.0034812255762517452
1920.0,-0.0028190333396196365
2048.0,-0.0005182598251849413
2304.0,0.00662408210337162
2560.0,0.0013320520520210266
2816.0,-0.005080912262201309
3072.0,-0.002727255690842867
3328.0,0.006515473127365112
3584.0,0.002710334025323391
3840.0,-0.0006717411451973021
4096.0,-0.002442970173433423
4608.0,-0.001677680411376059
5120.0,-0.0025481425691396
5632.0,0.004692197311669588
6144.0,-0.0034807485062628984
6656.0,-0.0034382615704089403
7168.0,-0.007937424816191196
7680.0,-0.007326643913984299
8192.0,-0.004199870862066746
end
