version,3.0
numOfCh,1
type,point
parent_name,714af_0dot1-0dot1
ch_type,1_1
kcount,1
numberNandB,1
brightnessNandB,1
carpet pos,0
pc,0
Time (ms),CH1 Auto-Correlation
1.0,0.05042533949017525
2.0,0.0499023012816906
3.0,0.04939251393079758
4.0,0.04888777807354927
5.0,0.04839615523815155
6.0,0.047907184809446335
7.0,0.04744844138622284
8.0,0.04699980840086937
9.0,0.046577926725149155
10.0,0.04617217928171158
11.0,0.04577522724866867
12.0,0.045391689985990524
13.0,0.04500763118267059
14.0,0.044612057507038116
15.0,0.04423527419567108
16.0,0.04385671392083168
18.0,0.043118514120578766
20.0,0.04243352264165878
22.0,0.04177779331803322
24.0,0.04113905131816864
26.0,0.04053766652941704
28.0,0.03995859995484352
30.0,0.039386361837387085
32.0,0.03883828595280647
36.0,0.03778048977255821
40.0,0.03683141618967056
44.0,0.03584785386919975
48.0,0.03480880707502365
52.0,0.03376677259802818
56.0,0.032762233167886734
60.0,0.03188801184296608
64.0,0.03118354268372059
72.0,0.02978203445672989
80.0,0.028377214446663857
88.0,0.02709779143333435
96.0,0.025949565693736076
104.0,0.02487798221409321
112.0,0.02380363829433918
120.0,0.022686751559376717
128.0,0.02183675765991211
144.0,0.02041657269001007
160.0,0.01924104616045952
176.0,0.017664114013314247
192.0,0.015643252059817314
208.0,0.01397681050002575
224.0,0.012786990031599998
240.0,0.011950979009270668
256.0,0.010696823708713055
288.0,0.009123318828642368
320.0,0.008440478704869747
352.0,0.006621825974434614
384.0,0.004611142445355654
416.0,0.0024237053003162146
448.0,0.000525143404956907
480.0,-0.001053075073286891
512.0,-0.002286669798195362
576.0,-0.0046441988088190556
640.0,-0.008009679615497589
704.0,-0.009479466825723648
768.0,-0.010089385323226452
832.0,-0.008502769283950329
896.0,-0.00488201854750514
960.0,-0.0027381335385143757
1024.0,-0.002974393544718623
1152.0,-0.00014076940715312958
1280.0,0.005625220015645027
1408.0,0.006240574177354574
1536.0,0.004078540951013565
1664.0,-0.0008961986168287694
1792.0,-0.0012179521145299077
1920.0,-0.002929633716121316
2048.0,-0.008569110184907913
2304.0,-0.004484855569899082
2560.0,0.004279437940567732
2816.0,0.009017457254230976
3072.0,0.004527081269770861
3328.0,-0.0007150772726163268
3584.0,-0.007039629388600588
3840.0,-0.001726688351482153
4096.0,0.0018539048032835126
4608.0,-0.009473557583987713
5120.0,-0.002210402162745595
5632.0,0.006721435114741325
6144.0,-0.004212033003568649
6656.0,0.003661994356662035
7168.0,-0.0012533903354778886
7680.0,-0.009544005617499352
8192.0,-0.0019791251979768276
end
