version,3.0
numOfCh,1
type,point
parent_name,714af_0dot1-0dot1
ch_type,1_1
kcount,1
numberNandB,1
brightnessNandB,1
carpet pos,0
pc,0
Time (ms),CH1 Auto-Correlation
1.0,0.043045755475759506
2.0,0.04246724396944046
3.0,0.04192235320806503
4.0,0.041372016072273254
5.0,0.04083641618490219
6.0,0.0403110608458519
7.0,0.03981095179915428
8.0,0.03929900750517845
9.0,0.03880005702376366
10.0,0.038290489464998245
11.0,0.0377882644534111
12.0,0.03730770945549011
13.0,0.03683669492602348
14.0,0.03637509047985077
15.0,0.03592353314161301
16.0,0.035470690578222275
18.0,0.0345640555024147
20.0,0.03367893770337105
22.0,0.032818831503391266
24.0,0.03198959678411484
26.0,0.03119707480072975
28.0,0.030485128983855247
30.0,0.029832499101758003
32.0,0.029249662533402443
36.0,0.02814754657447338
40.0,0.027155891060829163
44.0,0.026229001581668854
48.0,0.025452246889472008
52.0,0.024747900664806366
56.0,0.024056950584053993
60.0,0.023318186402320862
64.0,0.022593526169657707
72.0,0.021535739302635193
80.0,0.02071218751370907
88.0,0.02004503831267357
96.0,0.01929541863501072
104.0,0.018423518165946007
112.0,0.01737757958471775
120.0,0.01622612215578556
128.0,0.015136008150875568
144.0,0.013070490211248398
160.0,0.011707806028425694
176.0,0.010708433575928211
192.0,0.010207418352365494
208.0,0.009708275087177753
224.0,0.009424270130693913
240.0,0.009403463453054428
256.0,0.010073008015751839
288.0,0.010284417308866978
320.0,0.00994165800511837
352.0,0.007154517341405153
384.0,0.004143374506384134
416.0,0.0014869174920022488
448.0,-0.0007865112856961787
480.0,-0.0016369236400350928
512.0,-7.634906069142744e-05
576.0,0.0006515018176287413
640.0,-0.0005081850104033947
704.0,-0.0003160891938023269
768.0,-0.000957987445872277
832.0,0.002339649247005582
896.0,0.0013333733659237623
960.0,-0.001263751764781773
1024.0,-0.0018066324992105365
1152.0,-0.0015188631368800998
1280.0,-0.0029338845051825047
1408.0,-0.0010636532679200172
1536.0,-0.0022439933381974697
1664.0,-0.0002497493114788085
1792.0,-0.0015492010861635208
1920.0,-0.00567842461168766
2048.0,-0.006395455449819565
2304.0,-0.004084749147295952
2560.0,-0.0012999045429751277
2816.0,0.0020551711786538363
3072.0,0.0032089478336274624
3328.0,0.000769201957155019
3584.0,-0.007681973744183779
3840.0,-0.006051025819033384
4096.0,-0.003882039338350296
4608.0,-0.0002097794640576467
5120.0,0.0039469520561397076
5632.0,0.009761721827089787
6144.0,0.006009233184158802
6656.0,-0.002709987573325634
7168.0,-0.0056266081519424915
7680.0,-0.005728662014007568
8192.0,-0.005502013489603996
end
