version,3.0
numOfCh,1
type,point
parent_name,714af_0dot1-0dot1
ch_type,1_1
kcount,1
numberNandB,1
brightnessNandB,1
carpet pos,0
pc,0
Time (ms),CH1 Auto-Correlation
1.0,0.045290131121873856
2.0,0.0447172075510025
3.0,0.044167909771203995
4.0,0.043630681931972504
5.0,0.043114785104990005
6.0,0.0426005981862545
7.0,0.04208500310778618
8.0,0.04159577935934067
9.0,0.0411163754761219
10.0,0.040638238191604614
11.0,0.040189385414123535
12.0,0.03974490240216255
13.0,0.03932832553982735
14.0,0.03892252594232559
15.0,0.03853254020214081
16.0,0.038164008408784866
18.0,0.037450142204761505
20.0,0.03677266091108322
22.0,0.03612713888287544
24.0,0.0355050265789032
26.0,0.03486768156290054
28.0,0.034214671701192856
30.0,0.033587172627449036
32.0,0.033012159168720245
36.0,0.032007887959480286
40.0,0.031124740839004517
44.0,0.030326344072818756
48.0,0.029512641951441765
52.0,0.028714437037706375
56.0,0.0279698483645916
60.0,0.027345797047019005
64.0,0.02678225189447403
72.0,0.025833219289779663
80.0,0.024630049243569374
88.0,0.023424070328474045
96.0,0.02227943390607834
104.0,0.02130618877708912
112.0,0.020544391125440598
120.0,0.01965993270277977
128.0,0.018839433789253235
144.0,0.016745667904615402
160.0,0.01452105212956667
176.0,0.012672019191086292
192.0,0.011294754222035408
208.0,0.010059707798063755
224.0,0.008945908397436142
240.0,0.007928015664219856
256.0,0.006808736361563206
288.0,0.003941055852919817
320.0,0.001882319338619709
352.0,1.6877593225217424e-05
384.0,-0.0009986564982682467
416.0,-0.002498386427760124
448.0,-0.0036568595096468925
480.0,-0.004067899659276009
512.0,-0.003540228819474578
576.0,-0.001632276107557118
640.0,0.0009595826850272715
704.0,0.003264122176915407
768.0,0.003925273660570383
832.0,0.0030664640944451094
896.0,0.001455435762181878
960.0,0.0014844984980300069
1024.0,0.0012520120944827795
1152.0,-0.0023476833011955023
1280.0,-0.0026553466450423002
1408.0,0.002871519885957241
1536.0,0.0022348910570144653
1664.0,0.0013364849146455526
1792.0,0.0012072211829945445
1920.0,0.0003844707098323852
2048.0,0.0004150726308580488
2304.0,-0.0034231357276439667
2560.0,-0.0031066881492733955
2816.0,0.0011775403982028365
3072.0,0.00738851074129343
3328.0,0.006139238364994526
3584.0,-4.50641309726052e-05
3840.0,-0.004733176436275244
4096.0,-0.006262378767132759
4608.0,-0.0012079383013769984
5120.0,0.0024683119263499975
5632.0,-0.0013396723661571741
6144.0,0.00567141966894269
6656.0,0.0054163639433681965
7168.0,-0.008809827268123627
7680.0,-0.004779930226504803
8192.0,0.009760829620063305
end
