version,3.0
numOfCh,1
type,point
parent_name,714af_0dot1-0dot1
ch_type,1_1
kcount,1
numberNandB,1
brightnessNandB,1
carpet pos,0
pc,0
Time (ms),CH1 Auto-Correlation
1.0,0.05755308270454407
2.0,0.05699186399579048
3.0,0.056455209851264954
4.0,0.055935174226760864
5.0,0.055453408509492874
6.0,0.05501226335763931
7.0,0.05457260459661484
8.0,0.054148927330970764
9.0,0.05373702198266983
10.0,0.0533149354159832
11.0,0.05292215570807457
12.0,0.05253468453884125
13.0,0.052156832069158554
14.0,0.05178885906934738
15.0,0.05143483728170395
16.0,0.05106955021619797
18.0,0.05037130042910576
20.0,0.049687460064888
22.0,0.04905100166797638
24.0,0.04842301458120346
26.0,0.0477948896586895
28.0,0.04717665910720825
30.0,0.04659732058644295
32.0,0.04605761542916298
36.0,0.04490739479660988
40.0,0.04371001571416855
44.0,0.04262027516961098
48.0,0.04156913235783577
52.0,0.04048141837120056
56.0,0.03942509740591049
60.0,0.0384741947054863
64.0,0.03750988468527794
72.0,0.03548184409737587
80.0,0.03360317647457123
88.0,0.031980279833078384
96.0,0.030404236167669296
104.0,0.028906865045428276
112.0,0.02750176005065441
120.0,0.02612137794494629
128.0,0.02474086731672287
144.0,0.02245153672993183
160.0,0.02101079374551773
176.0,0.01924818567931652
192.0,0.01763044111430645
208.0,0.016376765444874763
224.0,0.01575290970504284
240.0,0.015072079375386238
256.0,0.014012252911925316
288.0,0.012416248209774494
320.0,0.010780940763652325
352.0,0.00908916350454092
384.0,0.00669059157371521
416.0,0.004648014437407255
448.0,0.003334126668050885
480.0,0.0026395961176604033
512.0,0.002484273863956332
576.0,0.0027629227843135595
640.0,0.0048336912877857685
704.0,0.005010815337300301
768.0,0.005412318278104067
832.0,0.00895135011523962
896.0,0.012180514633655548
960.0,0.011856871657073498
1024.0,0.009153864346444607
1152.0,0.0025782252196222544
1280.0,-0.0025610330048948526
1408.0,-0.008636762388050556
1536.0,-0.008043468929827213
1664.0,0.0007842289633117616
1792.0,0.003962555434554815
1920.0,0.0035420479252934456
2048.0,-0.0002817384956870228
2304.0,-0.0013721134746447206
2560.0,0.0014535791706293821
2816.0,-0.00046545479563064873
3072.0,-0.0032027708366513252
3328.0,-0.008054051548242569
3584.0,-0.0006833853549323976
3840.0,-0.0075063579715788364
4096.0,-0.007119785528630018
4608.0,-0.006365388166159391
5120.0,-0.007584414444863796
5632.0,2.3427712221746333e-05
6144.0,0.0037483549676835537
6656.0,-0.0013187068980187178
7168.0,-0.00450812466442585
7680.0,-0.013326607644557953
8192.0,0.003385596675798297
end
