version,3.0
numOfCh,1
type,point
parent_name,714af_0dot1-0dot1
ch_type,1_1
kcount,1
numberNandB,1
brightnessNandB,1
carpet pos,0
pc,0
Time (ms),CH1 Auto-Correlation
1.0,0.041700661182403564
2.0,0.0411904938519001
3.0,0.04069095104932785
4.0,0.04021252319216728
5.0,0.03973350301384926
6.0,0.039260417222976685
7.0,0.03879205510020256
8.0,0.03834495693445206
9.0,0.03790513426065445
10.0,0.03746221214532852
11.0,0.037027254700660706
12.0,0.0365922637283802
13.0,0.03617989644408226
14.0,0.0357692614197731
15.0,0.035369712859392166
16.0,0.03496882691979408
18.0,0.03420369327068329
20.0,0.03344668447971344
22.0,0.03272933140397072
24.0,0.032048437744379044
26.0,0.031388625502586365
28.0,0.030773157253861427
30.0,0.030162246897816658
32.0,0.029551830142736435
36.0,0.028452549129724503
40.0,0.02743111550807953
44.0,0.026507413014769554
48.0,0.025674164295196533
52.0,0.024934740737080574
56.0,0.0242586899548769
60.0,0.023568985983729362
64.0,0.02289864979684353
72.0,0.021652549505233765
80.0,0.020541029050946236
88.0,0.01960020884871483
96.0,0.018907712772488594
104.0,0.01831643097102642
112.0,0.01785755157470703
120.0,0.017369629815220833
128.0,0.01666790060698986
144.0,0.015103349462151527
160.0,0.013889249414205551
176.0,0.01303044706583023
192.0,0.01192779466509819
208.0,0.010900222696363926
224.0,0.0097079798579216
240.0,0.008997933007776737
256.0,0.008708426728844643
288.0,0.007523006293922663
320.0,0.0050370171666145325
352.0,0.0031409135553985834
384.0,0.0033259426709264517
416.0,0.0037477535661309958
448.0,0.003951743710786104
480.0,0.004511114209890366
512.0,0.005414878949522972
576.0,0.0062992023304104805
640.0,0.0057943942956626415
704.0,0.004554574377834797
768.0,0.002822439419105649
832.0,0.0012152540730312467
896.0,0.0014754048315808177
960.0,-0.00036317805643193424
1024.0,-0.0006755710346624255
1152.0,0.002227893564850092
1280.0,0.004364473279565573
1408.0,0.0022040270268917084
1536.0,-0.002164230216294527
1664.0,-0.006473042536526918
1792.0,-0.003846594598144293
1920.0,-0.0023964326828718185
2048.0,-0.001637495937757194
2304.0,-0.0012646192917600274
2560.0,-0.0032834552694112062
2816.0,-0.008974122814834118
3072.0,-0.011377373710274696
3328.0,-0.006145513150840998
3584.0,-0.002256417879834771
3840.0,-0.002480527386069298
4096.0,-0.0010231760097667575
4608.0,0.003403524635359645
5120.0,0.0015399324474856257
5632.0,0.0034879581071436405
6144.0,0.006820657756179571
6656.0,-0.002072315663099289
7168.0,-0.0018887469777837396
7680.0,-0.001647197175770998
8192.0,-0.0003704202827066183
end
