version,3.0
numOfCh,1
type,point
parent_name,34766_1dot0-0dot01
ch_type,1_1
kcount,1
numberNandB,1
brightnessNandB,1
carpet pos,0
pc,0
Time (ms),CH1 Auto-Correlation
1.0,0.043860290199518204
2.0,0.04089408367872238
3.0,0.03832574188709259
4.0,0.03602876514196396
5.0,0.03393382951617241
6.0,0.032091692090034485
7.0,0.03040512278676033
8.0,0.02894587814807892
9.0,0.02766975574195385
10.0,0.02663729153573513
11.0,0.025626983493566513
12.0,0.024760432541370392
13.0,0.024044787511229515
14.0,0.02336535044014454
15.0,0.022668352350592613
16.0,0.02205839194357395
18.0,0.02094707451760769
20.0,0.019988777115941048
22.0,0.019157882779836655
24.0,0.01837962120771408
26.0,0.0175307709723711
28.0,0.016552716493606567
30.0,0.01572897657752037
32.0,0.014928767457604408
36.0,0.013727495446801186
40.0,0.013079489581286907
44.0,0.012392994947731495
48.0,0.011681865900754929
52.0,0.010854865424335003
56.0,0.010283928364515305
60.0,0.010161264799535275
64.0,0.009799757041037083
72.0,0.009051850996911526
80.0,0.008636311627924442
88.0,0.00826324988156557
96.0,0.0077853137627244
104.0,0.007375347428023815
112.0,0.006416742689907551
120.0,0.005739533808082342
128.0,0.005249434616416693
144.0,0.004245433025062084
160.0,0.004608080256730318
176.0,0.005307096987962723
192.0,0.004248160868883133
208.0,0.003253256669268012
224.0,0.003367756027728319
240.0,0.004096558317542076
256.0,0.004222558345645666
288.0,0.003286669496446848
320.0,0.0029954758938401937
352.0,0.004214380867779255
384.0,0.0034186604898422956
416.0,0.002221384085714817
448.0,0.002893350087106228
480.0,0.003357009030878544
512.0,0.0021572886034846306
576.0,2.8909165848745033e-05
640.0,-0.003638690570369363
704.0,-0.0014054172206670046
768.0,0.002221673494204879
832.0,0.0026699418667703867
896.0,0.0014854308683425188
960.0,-0.0008255875436589122
1024.0,-0.0021683955565094948
1152.0,-0.0013207010924816132
1280.0,0.0008867174037732184
1408.0,-0.0019685812294483185
1536.0,-0.002864236943423748
1664.0,-0.0013366638449952006
1792.0,-0.0020161555148661137
1920.0,-0.003596110502257943
2048.0,-0.0017529570031911135
2304.0,0.0005061845877207816
2560.0,-0.0007003979990258813
2816.0,-0.002447384875267744
3072.0,-0.0014792837901040912
3328.0,-0.0025113620795309544
3584.0,-0.000519238761626184
3840.0,-0.0006706076674163342
4096.0,-0.0017346475506201386
4608.0,0.0005218086298555136
5120.0,0.0004265596508048475
5632.0,-0.00023073084594216198
6144.0,0.0005793627933599055
6656.0,0.003076340537518263
7168.0,0.0008129840716719627
7680.0,0.0016175208147615194
8192.0,-0.00027804874116554856
end
