version,3.0
numOfCh,1
type,point
parent_name,34766_1dot0-0dot01
ch_type,1_1
kcount,1
numberNandB,1
brightnessNandB,1
carpet pos,0
pc,0
Time (ms),CH1 Auto-Correlation
1.0,0.03792267292737961
2.0,0.0347525030374527
3.0,0.03202091529965401
4.0,0.02972000278532505
5.0,0.027786407619714737
6.0,0.026109417900443077
7.0,0.024694954976439476
8.0,0.023485440760850906
9.0,0.02234760671854019
10.0,0.021391842514276505
11.0,0.020391421392560005
12.0,0.01948735862970352
13.0,0.018725130707025528
14.0,0.017924441024661064
15.0,0.017113441601395607
16.0,0.016265762969851494
18.0,0.015075567178428173
20.0,0.0142259132117033
22.0,0.0137760816141963
24.0,0.013585341162979603
26.0,0.013197029940783978
28.0,0.01255976315587759
30.0,0.01192297600209713
32.0,0.011515221558511257
36.0,0.010718593373894691
40.0,0.009640506468713284
44.0,0.00873304158449173
48.0,0.008624792098999023
52.0,0.008383210748434067
56.0,0.00833671074360609
60.0,0.008418948389589787
64.0,0.008170045912265778
72.0,0.00724479416385293
80.0,0.006782471667975187
88.0,0.006075731012970209
96.0,0.00527037912979722
104.0,0.005210546776652336
112.0,0.0054708728566765785
120.0,0.0057280720211565495
128.0,0.005538237746804953
144.0,0.005605178885161877
160.0,0.004027587361633778
176.0,0.0030770592857152224
192.0,0.0017528058961033821
208.0,0.0019202929688617587
224.0,0.0021450314670801163
240.0,0.001847065519541502
256.0,0.0017319746548309922
288.0,0.0003422032459639013
320.0,0.0013554146280512214
352.0,0.0011533835204318166
384.0,0.0012065271148458123
416.0,0.0004453915753401816
448.0,0.001699313404969871
480.0,0.003143249312415719
512.0,0.002484387718141079
576.0,0.0033147158101201057
640.0,0.003532201750203967
704.0,0.003278832184150815
768.0,0.0033904947340488434
832.0,0.0030372324399650097
896.0,0.002484662923961878
960.0,0.0015610484406352043
1024.0,0.0017180661670863628
1152.0,0.0019016936421394348
1280.0,0.0006602100329473615
1408.0,-0.0001959332003025338
1536.0,-6.760259566362947e-05
1664.0,0.0025387576315551996
1792.0,0.0030350801534950733
1920.0,0.0001995718339458108
2048.0,-0.0016222466947510839
2304.0,-0.0014425718691200018
2560.0,0.0028805616311728954
2816.0,-0.0005547848413698375
3072.0,-0.0002775023167487234
3328.0,-0.0018618283793330193
3584.0,-0.0011789666023105383
3840.0,-0.0032256559934467077
4096.0,-0.004058722872287035
4608.0,-0.004368338733911514
5120.0,-0.0030680394265800714
5632.0,-0.0020320455078035593
6144.0,-0.0016967721749097109
6656.0,-0.0014085200382396579
7168.0,-0.0009775265352800488
7680.0,-0.0018309419974684715
8192.0,-7.865517545724288e-05
end
