version,3.0
numOfCh,1
type,point
parent_name,34766_1dot0-0dot01
ch_type,1_1
kcount,1
numberNandB,1
brightnessNandB,1
carpet pos,0
pc,0
Time (ms),CH1 Auto-Correlation
1.0,0.04806509613990784
2.0,0.045040443539619446
3.0,0.0424923412501812
4.0,0.040318459272384644
5.0,0.03847270831465721
6.0,0.03671671077609062
7.0,0.035052139312028885
8.0,0.03363528847694397
9.0,0.03226499259471893
10.0,0.031104445457458496
11.0,0.030021367594599724
12.0,0.02901861071586609
13.0,0.02809044159948826
14.0,0.02718200907111168
15.0,0.02634017914533615
16.0,0.025576265528798103
18.0,0.024384303018450737
20.0,0.02327502705156803
22.0,0.022205857560038567
24.0,0.021365482360124588
26.0,0.02069680765271187
28.0,0.019991137087345123
30.0,0.01935463398694992
32.0,0.01882992684841156
36.0,0.017840515822172165
40.0,0.017031734809279442
44.0,0.016056377440690994
48.0,0.015250791795551777
52.0,0.014736327342689037
56.0,0.014337505213916302
60.0,0.014218959026038647
64.0,0.013751392252743244
72.0,0.01357603631913662
80.0,0.013045825995504856
88.0,0.01255113910883665
96.0,0.01113596186041832
104.0,0.010716690681874752
112.0,0.010756225325167179
120.0,0.010712122544646263
128.0,0.010347316972911358
144.0,0.009077399969100952
160.0,0.007632656954228878
176.0,0.0072092521004378796
192.0,0.006404464598745108
208.0,0.0063058678060770035
224.0,0.0056687816977500916
240.0,0.004874676465988159
256.0,0.0055743311531841755
288.0,0.006539489142596722
320.0,0.005349052604287863
352.0,0.004529206082224846
384.0,0.0054785385727882385
416.0,0.003914293833076954
448.0,0.003090494079515338
480.0,0.002708075800910592
512.0,0.0030222120694816113
576.0,0.0001042540097841993
640.0,-0.0005354261375032365
704.0,0.0006289722514338791
768.0,-0.00024904304882511497
832.0,0.001225495943799615
896.0,-0.0006222327356226742
960.0,0.0007568542496301234
1024.0,0.0008895450737327337
1152.0,8.722578058950603e-05
1280.0,0.0005994562525302172
1408.0,0.0003139368782285601
1536.0,0.0007479728083126247
1664.0,-0.0014072767226025462
1792.0,-0.002737697446718812
1920.0,-0.0032749164383858442
2048.0,-0.0028495448641479015
2304.0,-0.003717993851751089
2560.0,-0.0016331517836079001
2816.0,-0.00042643619235605
3072.0,0.0014667881187051535
3328.0,-0.0012459646677598357
3584.0,-0.0010826678480952978
3840.0,0.0017656844574958086
4096.0,0.001162450760602951
4608.0,0.002575224731117487
5120.0,0.00032018893398344517
5632.0,-0.0004953976022079587
6144.0,-7.889110565884039e-05
6656.0,-0.0039657894521951675
7168.0,-0.00372458528727293
7680.0,0.00048471277114003897
8192.0,-0.003422454232349992
end
