version,3.0
numOfCh,1
type,point
parent_name,34766_1dot0-0dot01
ch_type,1_1
kcount,1
numberNandB,1
brightnessNandB,1
carpet pos,0
pc,0
Time (ms),CH1 Auto-Correlation
1.0,0.03915056586265564
2.0,0.03608937934041023
3.0,0.033466875553131104
4.0,0.03128117322921753
5.0,0.02932010591030121
6.0,0.027578582987189293
7.0,0.025949908420443535
8.0,0.02448205091059208
9.0,0.02317330613732338
10.0,0.02200612612068653
11.0,0.02093428373336792
12.0,0.019991936162114143
13.0,0.019200878217816353
14.0,0.018364250659942627
15.0,0.017574837431311607
16.0,0.016887111589312553
18.0,0.015681147575378418
20.0,0.014733651652932167
22.0,0.013839418068528175
24.0,0.013019007630646229
26.0,0.01229387242347002
28.0,0.011428304016590118
30.0,0.010927644558250904
32.0,0.010584007948637009
36.0,0.009522220119833946
40.0,0.00869245920330286
44.0,0.008101634681224823
48.0,0.00740255881100893
52.0,0.0067028868943452835
56.0,0.006056742276996374
60.0,0.005527316126972437
64.0,0.005275368690490723
72.0,0.004497302696108818
80.0,0.004065205343067646
88.0,0.004456468392163515
96.0,0.004749863408505917
104.0,0.004758994560688734
112.0,0.0038961165118962526
120.0,0.00268274312838912
128.0,0.002089701360091567
144.0,0.0009977591689676046
160.0,0.00058078917209059
176.0,2.418471922283061e-05
192.0,0.0011723279021680355
208.0,0.0006732965121045709
224.0,-0.0005726285162381828
240.0,-0.0016513726441189647
256.0,-0.0025176475755870342
288.0,-0.0013906534295529127
320.0,0.0005142688751220703
352.0,0.002884959802031517
384.0,0.0046852100640535355
416.0,0.004016762599349022
448.0,0.0033132454846054316
480.0,0.0028332159854471684
512.0,0.0009705419070087373
576.0,0.0006572837592102587
640.0,-0.0014726328663527966
704.0,-0.0009932640241459012
768.0,-0.0004397669981699437
832.0,0.0009863716550171375
896.0,0.002480876399204135
960.0,0.0022362221498042345
1024.0,0.0007526287226937711
1152.0,-0.0003236371267121285
1280.0,0.0004170549800619483
1408.0,0.0007962026866152883
1536.0,-0.0025598180945962667
1664.0,-0.002099173841997981
1792.0,0.00020641415903810412
1920.0,-0.000883290427736938
2048.0,-0.0010500148637220263
2304.0,-4.323158009356121e-06
2560.0,0.0004377604927867651
2816.0,-0.0009879297576844692
3072.0,0.0008036421495489776
3328.0,-0.0005383690004236996
3584.0,-0.0009448392083868384
3840.0,-0.0002081181446556002
4096.0,-0.0010733733652159572
4608.0,0.0005752621218562126
5120.0,0.0009541994659230113
5632.0,0.0005974203231744468
6144.0,6.808820035075769e-05
6656.0,-0.0012289315927773714
7168.0,-0.0017369136912748218
7680.0,-0.001319892704486847
8192.0,0.0001591974141774699
end
