version,3.0
numOfCh,1
type,point
parent_name,34766_1dot0-0dot01
ch_type,1_1
kcount,1
numberNandB,1
brightnessNandB,1
carpet pos,0
pc,0
Time (ms),CH1 Auto-Correlation
1.0,0.038592927157878876
2.0,0.035389576107263565
3.0,0.032666292041540146
4.0,0.030301682651042938
5.0,0.0282627921551466
6.0,0.026403991505503654
7.0,0.024775417521595955
8.0,0.023282572627067566
9.0,0.021911948919296265
10.0,0.020623384043574333
11.0,0.01947866380214691
12.0,0.018452446907758713
13.0,0.017428485676646233
14.0,0.016581768169999123
15.0,0.015771567821502686
16.0,0.014988898299634457
18.0,0.013645600527524948
20.0,0.012464270927011967
22.0,0.01151968538761139
24.0,0.010635251179337502
26.0,0.00971436221152544
28.0,0.008929802104830742
30.0,0.008290003053843975
32.0,0.007810837589204311
36.0,0.007061888463795185
40.0,0.006423542741686106
44.0,0.0061178067699074745
48.0,0.006062182132154703
52.0,0.005864448379725218
56.0,0.005224211607128382
60.0,0.004674997180700302
64.0,0.004326278809458017
72.0,0.0033428429160267115
80.0,0.003091475460678339
88.0,0.0026523321866989136
96.0,0.002172701293602586
104.0,0.001643083174712956
112.0,0.0017166491597890854
120.0,0.0017276736907660961
128.0,0.0017443145625293255
144.0,0.0009314659400843084
160.0,0.0015934748807922006
176.0,0.0018692153971642256
192.0,0.00015244186215568334
208.0,-0.0004818751767743379
224.0,-0.0005097565008327365
240.0,-0.001397226587869227
256.0,-0.0009006722248159349
288.0,-0.0027802810072898865
320.0,-0.0015769519377499819
352.0,-0.0008830131264403462
384.0,0.00026822221116162837
416.0,0.0009469805518165231
448.0,-7.559900404885411e-05
480.0,-0.0006442219018936157
512.0,-0.0008581388974562287
576.0,-0.00014675717102363706
640.0,-0.0017011319287121296
704.0,-0.001457219012081623
768.0,-0.0013066851533949375
832.0,-0.0011081757256761193
896.0,-0.0006524961208924651
960.0,-1.4111413292994257e-05
1024.0,-0.00013746246986556798
1152.0,0.0010558638023212552
1280.0,0.000968329724855721
1408.0,4.424176586326212e-05
1536.0,-0.0007342543685808778
1664.0,-9.984929420170374e-06
1792.0,-0.0011602287413552403
1920.0,-0.001337993424385786
2048.0,0.0016359738074243069
2304.0,3.726695285877213e-05
2560.0,0.0006157687748782337
2816.0,-0.001041614799760282
3072.0,0.0013938371557742357
3328.0,-0.00042367796413600445
3584.0,0.0003827267501037568
3840.0,-0.00019092437287326902
4096.0,0.00010498394840396941
4608.0,-0.00048441236140206456
5120.0,0.0006844106246717274
5632.0,-0.0009505884372629225
6144.0,0.00018711795564740896
6656.0,0.0004299051652196795
7168.0,-0.0008974545053206384
7680.0,-0.0003002111043315381
8192.0,-1.3549917639466003e-05
end
