version,3.0
numOfCh,1
type,point
parent_name,34766_1dot0-0dot01
ch_type,1_1
kcount,1
numberNandB,1
brightnessNandB,1
carpet pos,0
pc,0
Time (ms),CH1 Auto-Correlation
1.0,0.0423881970345974
2.0,0.03928916156291962
3.0,0.03661085665225983
4.0,0.034292399883270264
5.0,0.03231639042496681
6.0,0.030646277591586113
7.0,0.029058167710900307
8.0,0.027634041383862495
9.0,0.026380974799394608
10.0,0.025318250060081482
11.0,0.024339331313967705
12.0,0.023427674546837807
13.0,0.022667082026600838
14.0,0.021991919726133347
15.0,0.021387413144111633
16.0,0.0209181047976017
18.0,0.019988710060715675
20.0,0.018966879695653915
22.0,0.017864584922790527
24.0,0.016904320567846298
26.0,0.016013257205486298
28.0,0.015080666169524193
30.0,0.014300936833024025
32.0,0.01356243435293436
36.0,0.012592889368534088
40.0,0.011565485037863255
44.0,0.010615547187626362
48.0,0.010092534124851227
52.0,0.00984485074877739
56.0,0.009654256515204906
60.0,0.00913139246404171
64.0,0.00864730030298233
72.0,0.0077270157635211945
80.0,0.007553972769528627
88.0,0.0068430183455348015
96.0,0.005901526194065809
104.0,0.005282221827656031
112.0,0.005124154035001993
120.0,0.004972231108695269
128.0,0.005361132323741913
144.0,0.0058324323035776615
160.0,0.00614619255065918
176.0,0.006136832293123007
192.0,0.007022288162261248
208.0,0.007441251073032618
224.0,0.00658000772818923
240.0,0.006589821074157953
256.0,0.005424473900347948
288.0,0.00464974157512188
320.0,0.0046833655796945095
352.0,0.004680290352553129
384.0,0.004736764822155237
416.0,0.006146193947643042
448.0,0.006173852365463972
480.0,0.005123176611959934
512.0,0.003818484954535961
576.0,0.003979779779911041
640.0,0.003330579958856106
704.0,0.00284174713306129
768.0,0.004757923539727926
832.0,0.0049709719605743885
896.0,0.0029455628246068954
960.0,0.003339417278766632
1024.0,0.0016020413022488356
1152.0,0.0014305590884760022
1280.0,0.00012746534775942564
1408.0,-0.0006814530934207141
1536.0,-4.1070092265727e-05
1664.0,0.0007578377844765782
1792.0,0.0005913670756854117
1920.0,-0.0012663168599829078
2048.0,-0.0014367970870807767
2304.0,-0.0038620284758508205
2560.0,-0.002210234059020877
2816.0,-0.004775329027324915
3072.0,-0.004934143740683794
3328.0,-0.0022769521456211805
3584.0,-0.0015286740381270647
3840.0,-0.0010826507350429893
4096.0,-0.00039453463978134096
4608.0,0.0007527752313762903
5120.0,0.001551334629766643
5632.0,0.001309976214542985
6144.0,0.0017836608458310366
6656.0,-0.0007998776854947209
7168.0,-0.00239873630926013
7680.0,-0.004703841637820005
8192.0,-0.004424151033163071
end
