version,3.0
numOfCh,1
type,point
parent_name,34766_1dot0-0dot01
ch_type,1_1
kcount,1
numberNandB,1
brightnessNandB,1
carpet pos,0
pc,0
Time (ms),CH1 Auto-Correlation
1.0,0.03973054513335228
2.0,0.03663277626037598
3.0,0.03396593779325485
4.0,0.031696464866399765
5.0,0.02965550310909748
6.0,0.027865208685398102
7.0,0.026303282007575035
8.0,0.024899329990148544
9.0,0.023698218166828156
10.0,0.022574247792363167
11.0,0.021608475595712662
12.0,0.020709117874503136
13.0,0.019902801141142845
14.0,0.01914149336516857
15.0,0.018385596573352814
16.0,0.017675044015049934
18.0,0.016451463103294373
20.0,0.015379619784653187
22.0,0.014241890981793404
24.0,0.01321791484951973
26.0,0.012178884819149971
28.0,0.011231069453060627
30.0,0.010319119319319725
32.0,0.009572566486895084
36.0,0.008862774819135666
40.0,0.008782787248492241
44.0,0.008578769862651825
48.0,0.007997201755642891
52.0,0.007624309044331312
56.0,0.007164988666772842
60.0,0.00676248874515295
64.0,0.006374482996761799
72.0,0.005707473028451204
80.0,0.004841252230107784
88.0,0.00410287082195282
96.0,0.003634991589933634
104.0,0.00265379692427814
112.0,0.00191849609836936
120.0,0.001883434015326202
128.0,0.001010580570437014
144.0,0.0012073747348040342
160.0,0.001051979954354465
176.0,0.001131147495470941
192.0,0.0013160168891772628
208.0,0.001120687578804791
224.0,0.0005251938127912581
240.0,-0.0007439829641953111
256.0,-0.0007455681334249675
288.0,0.000770005164667964
320.0,0.0009097923175431788
352.0,0.0005553847877308726
384.0,0.00031603610841557384
416.0,-0.0008350603748112917
448.0,-0.0011314834700897336
480.0,-0.0008635471458546817
512.0,0.0002301960194017738
576.0,-0.0007799095474183559
640.0,-0.0002857909712474793
704.0,0.00011836070916615427
768.0,-0.0006036408012732863
832.0,0.00037349609192460775
896.0,0.001310023246333003
960.0,0.002412240719422698
1024.0,0.0020568405743688345
1152.0,-0.0008388745482079685
1280.0,-0.002058472717180848
1408.0,-0.0001577886869199574
1536.0,-0.0015514087863266468
1664.0,-0.002520498586818576
1792.0,0.0008093192591331899
1920.0,-0.0004705694445874542
2048.0,0.0032329168170690536
2304.0,0.0012216796167194843
2560.0,-0.0011417479254305363
2816.0,-0.0016877197194844484
3072.0,0.0009797470411285758
3328.0,0.0015897107077762485
3584.0,-0.0004376544093247503
3840.0,-0.0010560209630057216
4096.0,0.0019005689537152648
4608.0,-3.5940513043897226e-05
5120.0,-0.0013542998349294066
5632.0,-0.001375389052554965
6144.0,-0.001471768133342266
6656.0,0.0002939089899882674
7168.0,-0.0008615500992164016
7680.0,0.0003949882520828396
8192.0,-0.001104781054891646
end
