version,3.0
numOfCh,1
type,point
parent_name,34766_1dot0-0dot01
ch_type,1_1
kcount,1
numberNandB,1
brightnessNandB,1
carpet pos,0
pc,0
Time (ms),CH1 Auto-Correlation
1.0,0.04376361146569252
2.0,0.04061200097203255
3.0,0.03790614381432533
4.0,0.0354955829679966
5.0,0.033390600234270096
6.0,0.03154376894235611
7.0,0.029951337724924088
8.0,0.028435613960027695
9.0,0.027023110538721085
10.0,0.025675982236862183
11.0,0.024463169276714325
12.0,0.02332593873143196
13.0,0.022189291194081306
14.0,0.021299263462424278
15.0,0.02036728337407112
16.0,0.01961403526365757
18.0,0.018458403646945953
20.0,0.01738431118428707
22.0,0.016299810260534286
24.0,0.015365864150226116
26.0,0.014738618396222591
28.0,0.014021066948771477
30.0,0.013308695517480373
32.0,0.01254324335604906
36.0,0.011417079716920853
40.0,0.010370375588536263
44.0,0.009285228326916695
48.0,0.008806505240499973
52.0,0.008112904615700245
56.0,0.00778532586991787
60.0,0.007767728064209223
64.0,0.007617957424372435
72.0,0.00661405548453331
80.0,0.005636502057313919
88.0,0.00536871375516057
96.0,0.00632448261603713
104.0,0.007278183940798044
112.0,0.007530638016760349
120.0,0.007176104001700878
128.0,0.006998482625931501
144.0,0.0073572262190282345
160.0,0.006505779922008514
176.0,0.0059791929088532925
192.0,0.004512978717684746
208.0,0.0035197504330426455
224.0,0.00239579938352108
240.0,0.0019877685699611902
256.0,0.0007313640671782196
288.0,2.9123997592250817e-05
320.0,0.000799446483142674
352.0,0.0012948799412697554
384.0,0.00042041364940814674
416.0,-0.002211805898696184
448.0,-0.001994706690311432
480.0,-0.002264958806335926
512.0,-0.0010288865305483341
576.0,-0.001570527208968997
640.0,-0.0002115127572324127
704.0,0.0013301856815814972
768.0,0.0008122982108034194
832.0,0.0011289204703643918
896.0,0.0001655116502661258
960.0,-0.0003782018320634961
1024.0,-0.0007331891683861613
1152.0,-0.003836021525785327
1280.0,-0.004503071308135986
1408.0,-0.003864679951220751
1536.0,-0.001939531066454947
1664.0,0.00011829412687802687
1792.0,0.0018232306465506554
1920.0,0.0010046289535239339
2048.0,0.0007306811749003828
2304.0,0.0011561462888494134
2560.0,0.0019095414318144321
2816.0,0.0008371786680072546
3072.0,-0.0013465764932334423
3328.0,-0.002494905376806855
3584.0,-0.0021999552845954895
3840.0,-0.0009664393728598952
4096.0,-9.795376536203548e-05
4608.0,0.0010785401100292802
5120.0,-0.0017676439601927996
5632.0,-0.00046525022480636835
6144.0,0.0013360268203541636
6656.0,0.0020952147897332907
7168.0,0.001225190469995141
7680.0,-0.004389679990708828
8192.0,-0.002640130929648876
end
