version,3.0
numOfCh,1
type,point
parent_name,34766_1dot0-0dot01
ch_type,1_1
kcount,1
numberNandB,1
brightnessNandB,1
carpet pos,0
pc,0
Time (ms),CH1 Auto-Correlation
1.0,0.3519428074359894
2.0,0.349345326423645
3.0,0.3470202684402466
4.0,0.34472161531448364
5.0,0.3425777852535248
6.0,0.3404078781604767
7.0,0.3381761312484741
8.0,0.33606210350990295
9.0,0.33404380083084106
10.0,0.3319833278656006
11.0,0.3300189971923828
12.0,0.32802802324295044
13.0,0.32611966133117676
14.0,0.32434114813804626
15.0,0.3227020502090454
16.0,0.32138487696647644
18.0,0.31898555159568787
20.0,0.31667646765708923
22.0,0.31465283036231995
24.0,0.3130473494529724
26.0,0.31187233328819275
28.0,0.3110544979572296
30.0,0.3106350600719452
32.0,0.3098657727241516
36.0,0.308439701795578
40.0,0.30720657110214233
44.0,0.30612581968307495
48.0,0.30470550060272217
52.0,0.30258727073669434
56.0,0.2992843985557556
60.0,0.29605433344841003
64.0,0.29315945506095886
72.0,0.29024189710617065
80.0,0.28920978307724
88.0,0.2865198850631714
96.0,0.2837991714477539
104.0,0.2804747521877289
112.0,0.2761698365211487
120.0,0.2732381224632263
128.0,0.2716591954231262
144.0,0.26696303486824036
160.0,0.2614944577217102
176.0,0.25229060649871826
192.0,0.24626284837722778
208.0,0.23949548602104187
224.0,0.22779911756515503
240.0,0.22021327912807465
256.0,0.2093704789876938
288.0,0.18243998289108276
320.0,0.16127152740955353
352.0,0.14000204205513
384.0,0.11846529692411423
416.0,0.10179344564676285
448.0,0.08764957636594772
480.0,0.06903741508722305
512.0,0.05433380603790283
576.0,0.023188309744000435
640.0,0.005869516171514988
704.0,-0.022965406998991966
768.0,-0.04293445125222206
832.0,-0.054566871374845505
896.0,-0.06275411695241928
960.0,-0.0694517269730568
1024.0,-0.07271624356508255
1152.0,-0.06933947652578354
1280.0,-0.0633072778582573
1408.0,-0.053765058517456055
1536.0,-0.04463163763284683
1664.0,-0.037989791482686996
1792.0,-0.03637639060616493
1920.0,-0.03785647079348564
2048.0,-0.0376022569835186
2304.0,-0.04732150956988335
2560.0,-0.0514092892408371
2816.0,-0.04253123328089714
3072.0,-0.034987542778253555
3328.0,-0.02580859325826168
3584.0,-0.028496121987700462
3840.0,-0.02519381046295166
4096.0,-0.010902357287704945
end
