version,3.0
numOfCh,1
type,point
parent_name,34766_1dot0-0dot01
ch_type,1_1
kcount,1
numberNandB,1
brightnessNandB,1
carpet pos,0
pc,0
Time (ms),CH1 Auto-Correlation
1.0,0.5235203504562378
2.0,0.5210038423538208
3.0,0.5186337828636169
4.0,0.5163775086402893
5.0,0.5142070055007935
6.0,0.5120450854301453
7.0,0.5099830627441406
8.0,0.5078672766685486
9.0,0.505854070186615
10.0,0.5039762854576111
11.0,0.502129316329956
12.0,0.5002862811088562
13.0,0.49846190214157104
14.0,0.49673041701316833
15.0,0.4950971305370331
16.0,0.4934487044811249
18.0,0.4900328814983368
20.0,0.48657599091529846
22.0,0.4833030104637146
24.0,0.48042136430740356
26.0,0.47773823142051697
28.0,0.4752117693424225
30.0,0.4725916385650635
32.0,0.46996620297431946
36.0,0.4640330374240875
40.0,0.4586282968521118
44.0,0.45255187153816223
48.0,0.44618406891822815
52.0,0.4398545026779175
56.0,0.4344572126865387
60.0,0.4302618205547333
64.0,0.42627203464508057
72.0,0.4158461391925812
80.0,0.40417203307151794
88.0,0.39142856001853943
96.0,0.3795442581176758
104.0,0.36701956391334534
112.0,0.353727251291275
120.0,0.33950087428092957
128.0,0.3274603486061096
144.0,0.30617210268974304
160.0,0.28626081347465515
176.0,0.2672658860683441
192.0,0.24935652315616608
208.0,0.23503342270851135
224.0,0.2234935611486435
240.0,0.21411556005477905
256.0,0.2047206312417984
288.0,0.18505899608135223
320.0,0.17673511803150177
352.0,0.17682845890522003
384.0,0.1717519313097
416.0,0.16641142964363098
448.0,0.15729913115501404
480.0,0.1442587971687317
512.0,0.13186460733413696
576.0,0.12101764231920242
640.0,0.11748824268579483
704.0,0.1324092000722885
768.0,0.148603156208992
832.0,0.15061165392398834
896.0,0.13182267546653748
960.0,0.10889502614736557
1024.0,0.080278679728508
1152.0,0.058944668620824814
1280.0,0.05322514846920967
1408.0,0.012386996299028397
1536.0,-0.046853821724653244
1664.0,-0.059138037264347076
1792.0,-0.045114386826753616
1920.0,-0.0160823967307806
2048.0,0.03449581190943718
2304.0,-0.00926451850682497
2560.0,-0.09487159550189972
2816.0,-0.12301167100667953
3072.0,-0.1488684117794037
3328.0,-0.18344755470752716
3584.0,-0.209653839468956
3840.0,-0.23791620135307312
4096.0,-0.210121750831604
end
