version,3.0
numOfCh,1
type,point
parent_name,34766_1dot0-0dot01
ch_type,1_1
kcount,1
numberNandB,1
brightnessNandB,1
carpet pos,0
pc,0
Time (ms),CH1 Auto-Correlation
1.0,0.6350516080856323
2.0,0.6334260702133179
3.0,0.6319527626037598
4.0,0.630609393119812
5.0,0.6293014287948608
6.0,0.6280844807624817
7.0,0.6270540356636047
8.0,0.6261119246482849
9.0,0.6251779794692993
10.0,0.6243496537208557
11.0,0.6235502362251282
12.0,0.6228269338607788
13.0,0.6220686435699463
14.0,0.621333658695221
15.0,0.6206587553024292
16.0,0.6199397444725037
18.0,0.6184934377670288
20.0,0.6171996593475342
22.0,0.6158424019813538
24.0,0.6145594716072083
26.0,0.6133221387863159
28.0,0.6120867729187012
30.0,0.6108094453811646
32.0,0.6095820069313049
36.0,0.6071568727493286
40.0,0.6048511266708374
44.0,0.6025983691215515
48.0,0.600050687789917
52.0,0.597618579864502
56.0,0.5951212644577026
60.0,0.5927953124046326
64.0,0.5900589227676392
72.0,0.5837958455085754
80.0,0.5783288478851318
88.0,0.5727187395095825
96.0,0.5664090514183044
104.0,0.5603587031364441
112.0,0.5546948909759521
120.0,0.5499505996704102
128.0,0.5459225177764893
144.0,0.5397399067878723
160.0,0.5337459444999695
176.0,0.5275179743766785
192.0,0.5226447582244873
208.0,0.5189464092254639
224.0,0.5161782503128052
240.0,0.5141420364379883
256.0,0.5118096470832825
288.0,0.5040834546089172
320.0,0.4865506589412689
352.0,0.4633471965789795
384.0,0.4376997649669647
416.0,0.41699936985969543
448.0,0.40214890241622925
480.0,0.3867088556289673
512.0,0.3720107972621918
576.0,0.3410668671131134
640.0,0.29803574085235596
704.0,0.24261592328548431
768.0,0.19443808495998383
832.0,0.15251369774341583
896.0,0.11491673439741135
960.0,0.08603504300117493
1024.0,0.05747433006763458
1152.0,0.022202011197805405
1280.0,-0.01754031330347061
1408.0,-0.04922143742442131
1536.0,-0.047093648463487625
1664.0,-0.0659739226102829
1792.0,-0.05653455853462219
1920.0,-0.06655950099229813
2048.0,-0.07607147842645645
2304.0,-0.11062196642160416
2560.0,-0.12809911370277405
2816.0,-0.14915895462036133
3072.0,-0.17249201238155365
3328.0,-0.2099965214729309
3584.0,-0.2573099136352539
3840.0,-0.30100780725479126
4096.0,-0.341819167137146
end
