version,3.0
numOfCh,1
type,point
parent_name,34766_1dot0-0dot01
ch_type,1_1
kcount,1
numberNandB,1
brightnessNandB,1
carpet pos,0
pc,0
Time (ms),CH1 Auto-Correlation
1.0,0.041995372623205185
2.0,0.038879986852407455
3.0,0.03617893531918526
4.0,0.03383577615022659
5.0,0.03181633725762367
6.0,0.030081694945693016
7.0,0.028504766523838043
8.0,0.027089014649391174
9.0,0.025821076706051826
10.0,0.02462313324213028
11.0,0.023503001779317856
12.0,0.022403575479984283
13.0,0.021515924483537674
14.0,0.020706171169877052
15.0,0.019851598888635635
16.0,0.01907455362379551
18.0,0.017670854926109314
20.0,0.016593417152762413
22.0,0.015427623875439167
24.0,0.014259609393775463
26.0,0.013202441856265068
28.0,0.012297765351831913
30.0,0.01157419290393591
32.0,0.011019444093108177
36.0,0.00993111077696085
40.0,0.00870346650481224
44.0,0.007820717990398407
48.0,0.007174578960984945
52.0,0.006846653297543526
56.0,0.006799801252782345
60.0,0.00649768952280283
64.0,0.006395785603672266
72.0,0.005601529031991959
80.0,0.004952874965965748
88.0,0.004286321811378002
96.0,0.0032396698370575905
104.0,0.002314122160896659
112.0,0.0020931900944560766
120.0,0.0026540588587522507
128.0,0.0026167433243244886
144.0,0.002288714051246643
160.0,0.0015642220387235284
176.0,0.0016711483476683497
192.0,0.001330023747868836
208.0,0.0005699559696950018
224.0,-3.521875987644307e-05
240.0,-0.001127387979067862
256.0,-0.001714242622256279
288.0,-0.0017642874736338854
320.0,-0.0017847382696345448
352.0,-0.001250750501640141
384.0,-0.0023474148474633694
416.0,-0.002285533817484975
448.0,-0.0015933769755065441
480.0,-0.0010423314524814487
512.0,-0.00037553173024207354
576.0,-0.0002888966992031783
640.0,0.0012249049032106996
704.0,0.0010622955160215497
768.0,-0.001021827571094036
832.0,0.001153784804046154
896.0,0.0016957679763436317
960.0,0.0005860158707946539
1024.0,-0.0008842385723255575
1152.0,0.00022235170763451606
1280.0,-0.0012327624717727304
1408.0,0.0014374940656125546
1536.0,0.0019054444273933768
1664.0,-0.00032916595228016376
1792.0,-0.002544170944020152
1920.0,-0.0026829191483557224
2048.0,-0.0003659706562757492
2304.0,0.001275393646210432
2560.0,-1.8213353541796096e-05
2816.0,-0.0009359337273053825
3072.0,0.00043591205030679703
3328.0,-0.0018474606331437826
3584.0,-0.0007593196351081133
3840.0,0.0010772235691547394
4096.0,-0.0010002030758187175
4608.0,-0.0009316907380707562
5120.0,0.00024166455841623247
5632.0,-0.000427170074544847
6144.0,0.0009102795738726854
6656.0,0.00013406647485680878
7168.0,0.0011787437833845615
7680.0,0.000898159050848335
8192.0,-0.0005009037558920681
end
