version,3.0
numOfCh,1
type,point
parent_name,34766_1dot0-0dot01
ch_type,1_1
kcount,1
numberNandB,1
brightnessNandB,1
carpet pos,0
pc,0
Time (ms),CH1 Auto-Correlation
1.0,0.08453916758298874
2.0,0.08134473115205765
3.0,0.07854758948087692
4.0,0.07608921825885773
5.0,0.07398872822523117
6.0,0.07218604534864426
7.0,0.07039541006088257
8.0,0.06875984370708466
9.0,0.06722375750541687
10.0,0.06577099114656448
11.0,0.06446462124586105
12.0,0.06327284872531891
13.0,0.062273383140563965
14.0,0.06138282269239426
15.0,0.06058521941304207
16.0,0.05984540283679962
18.0,0.05799992009997368
20.0,0.05622703209519386
22.0,0.05465873330831528
24.0,0.05336153507232666
26.0,0.05200865492224693
28.0,0.05072471871972084
30.0,0.0497952401638031
32.0,0.04903212562203407
36.0,0.047266196459531784
40.0,0.04528139904141426
44.0,0.04312619939446449
48.0,0.04148495942354202
52.0,0.04008148983120918
56.0,0.039005257189273834
60.0,0.03853786364197731
64.0,0.03798994794487953
72.0,0.03690752387046814
80.0,0.03531750664114952
88.0,0.033786434680223465
96.0,0.032509490847587585
104.0,0.03224749118089676
112.0,0.03256619721651077
120.0,0.031919926404953
128.0,0.031400494277477264
144.0,0.02805962972342968
160.0,0.02446368895471096
176.0,0.021388478577136993
192.0,0.019877897575497627
208.0,0.019090747460722923
224.0,0.018330885097384453
240.0,0.01779821701347828
256.0,0.01808018423616886
288.0,0.016297703608870506
320.0,0.01504183653742075
352.0,0.013724654912948608
384.0,0.011409562081098557
416.0,0.010901330970227718
448.0,0.010818998329341412
480.0,0.010790032334625721
512.0,0.01296141091734171
576.0,0.015809355303645134
640.0,0.014767913147807121
704.0,0.015439419075846672
768.0,0.013125027529895306
832.0,0.00973709486424923
896.0,0.007036714814603329
960.0,0.004075859673321247
1024.0,0.003364908741787076
1152.0,0.0008782446966506541
1280.0,0.00010009184916270897
1408.0,0.0015230713179334998
1536.0,0.0024185474030673504
1664.0,0.0010950890136882663
1792.0,0.0010424560168758035
1920.0,6.0550777561729774e-05
2048.0,-0.00043251606984995306
2304.0,-2.32910861086566e-05
2560.0,0.0016546130646020174
2816.0,-0.00048534388770349324
3072.0,0.0011014698538929224
3328.0,-0.0016204883577302098
3584.0,-0.0005623968318104744
3840.0,-0.0031325833406299353
4096.0,-0.0004791432584170252
4608.0,-0.0017173138912767172
5120.0,0.002403739606961608
5632.0,0.002397543052211404
6144.0,-0.0008714788127690554
6656.0,-0.001392540754750371
7168.0,0.0031293430365622044
7680.0,0.0030323087703436613
8192.0,0.001353874453343451
end
