version,3.0
numOfCh,1
type,point
parent_name,34766_1dot0-0dot01
ch_type,1_1
kcount,1
numberNandB,1
brightnessNandB,1
carpet pos,0
pc,0
Time (ms),CH1 Auto-Correlation
1.0,0.05163818970322609
2.0,0.048877112567424774
3.0,0.04652800038456917
4.0,0.04448360949754715
5.0,0.042773887515068054
6.0,0.04118632525205612
7.0,0.039795007556676865
8.0,0.0384853295981884
9.0,0.03718876093626022
10.0,0.03609749302268028
11.0,0.03506358712911606
12.0,0.03409428521990776
13.0,0.03318987041711807
14.0,0.032345000654459
15.0,0.031519774347543716
16.0,0.030755432322621346
18.0,0.0295849796384573
20.0,0.02844969369471073
22.0,0.02749660611152649
24.0,0.02670828439295292
26.0,0.026028741151094437
28.0,0.025211209431290627
30.0,0.024448076263070107
32.0,0.023765478283166885
36.0,0.022583043202757835
40.0,0.021569322794675827
44.0,0.020689912140369415
48.0,0.02019554190337658
52.0,0.01948867179453373
56.0,0.018920497968792915
60.0,0.018401937559247017
64.0,0.018029870465397835
72.0,0.016377510502934456
80.0,0.014835499227046967
88.0,0.013761352747678757
96.0,0.012904931791126728
104.0,0.012581868097186089
112.0,0.012318579480051994
120.0,0.011936038732528687
128.0,0.011852354742586613
144.0,0.012021662667393684
160.0,0.01134440116584301
176.0,0.011018658056855202
192.0,0.011305565014481544
208.0,0.011122645810246468
224.0,0.009090389125049114
240.0,0.008042367175221443
256.0,0.007968490943312645
288.0,0.007113523315638304
320.0,0.007641986478120089
352.0,0.008332808502018452
384.0,0.007644144352525473
416.0,0.005960935726761818
448.0,0.004154158290475607
480.0,0.0033690764103084803
512.0,0.003591029904782772
576.0,0.002435891656205058
640.0,0.0009098115260712802
704.0,-0.0005953139625489712
768.0,-0.0026702957693487406
832.0,-0.0015042698942124844
896.0,-0.003067202866077423
960.0,-0.004198411013931036
1024.0,-0.00204575527459383
1152.0,-0.0003404030576348305
1280.0,-0.002288455842062831
1408.0,-0.000640318903606385
1536.0,0.0015427183825522661
1664.0,0.0012307179858908057
1792.0,-0.0005646712961606681
1920.0,-0.0030653453432023525
2048.0,-0.0037865841295570135
2304.0,-0.0073617552407085896
2560.0,-0.003617112757638097
2816.0,0.0004197594535071403
3072.0,-0.0047579617239534855
3328.0,-0.0038522216491401196
3584.0,-0.0058137280866503716
3840.0,-0.003359452588483691
4096.0,-0.003213504794985056
4608.0,0.0011241071624681354
5120.0,-0.0020671167876571417
5632.0,0.00042691355338320136
6144.0,0.004523495212197304
6656.0,0.004929232876747847
7168.0,0.006354628596454859
7680.0,0.0036249649710953236
8192.0,-0.005862973164767027
end
