version,3.0
numOfCh,1
type,point
parent_name,34766_1dot0-0dot01
ch_type,1_1
kcount,1
numberNandB,1
brightnessNandB,1
carpet pos,0
pc,0
Time (ms),CH1 Auto-Correlation
1.0,0.04250694066286087
2.0,0.03924575820565224
3.0,0.03640255704522133
4.0,0.03393673151731491
5.0,0.03172381594777107
6.0,0.029838137328624725
7.0,0.02827252447605133
8.0,0.026888985186815262
9.0,0.025538336485624313
10.0,0.024294862523674965
11.0,0.023064488545060158
12.0,0.02204325795173645
13.0,0.021101005375385284
14.0,0.02015787735581398
15.0,0.01932533271610737
16.0,0.01854255236685276
18.0,0.017254279926419258
20.0,0.01615089923143387
22.0,0.01512673869729042
24.0,0.0142082953825593
26.0,0.013492321595549583
28.0,0.012885291129350662
30.0,0.01231229119002819
32.0,0.011801322922110558
36.0,0.010770794004201889
40.0,0.009950692765414715
44.0,0.00908595696091652
48.0,0.008319762535393238
52.0,0.007536941673606634
56.0,0.00701402872800827
60.0,0.006464999169111252
64.0,0.0059475162997841835
72.0,0.004649646580219269
80.0,0.003822503611445427
88.0,0.0032842846121639013
96.0,0.0023714012932032347
104.0,0.0027061502914875746
112.0,0.0033648463431745768
120.0,0.003233937779441476
128.0,0.0033055131789296865
144.0,0.0035211844369769096
160.0,0.004242685157805681
176.0,0.003025451907888055
192.0,0.002535095904022455
208.0,0.0009371743653900921
224.0,0.0015652409056201577
240.0,0.0009535583085380495
256.0,0.0007104962132871151
288.0,0.0012711153831332922
320.0,-7.245384040288627e-05
352.0,0.00022425259521696717
384.0,0.0011751989368349314
416.0,0.001438984996639192
448.0,0.0009745658026076853
480.0,-0.0011773984879255295
512.0,-0.0023177526891231537
576.0,0.00012279284419491887
640.0,-0.003116762265563011
704.0,-0.0010706126922741532
768.0,0.0011619076831266284
832.0,-0.0009059845469892025
896.0,0.00027949330979026854
960.0,0.0011504377471283078
1024.0,0.00019723284640349448
1152.0,0.00044805085053667426
1280.0,-0.0016947437543421984
1408.0,-0.001119235996156931
1536.0,-0.0007359111914411187
1664.0,-0.0023497368674725294
1792.0,-0.0007268614717759192
1920.0,0.0015460160793736577
2048.0,-0.001649638288654387
2304.0,-0.001134031917899847
2560.0,0.0003244751424062997
2816.0,-0.00046599871711805463
3072.0,-0.003535569878295064
3328.0,-0.00019794701074715704
3584.0,0.000766483077313751
3840.0,0.0009599976474419236
4096.0,-0.0014275632565841079
4608.0,0.0009368706960231066
5120.0,1.6414756828453392e-05
5632.0,7.94227235019207e-05
6144.0,-0.0005207108915783465
6656.0,-0.002045515226200223
7168.0,-0.0006992436246946454
7680.0,0.0013191483449190855
8192.0,0.001812754780985415
end
