version,3.0
numOfCh,1
type,point
parent_name,34766_1dot0-0dot01
ch_type,1_1
kcount,1
numberNandB,1
brightnessNandB,1
carpet pos,0
pc,0
Time (ms),CH1 Auto-Correlation
1.0,0.04259748011827469
2.0,0.03950851783156395
3.0,0.03678037226200104
4.0,0.03449195995926857
5.0,0.03241606056690216
6.0,0.030576137825846672
7.0,0.02897300012409687
8.0,0.02745991386473179
9.0,0.026096384972333908
10.0,0.024816397577524185
11.0,0.023721255362033844
12.0,0.02270328439772129
13.0,0.021827012300491333
14.0,0.021061498671770096
15.0,0.02037741243839264
16.0,0.019758272916078568
18.0,0.01863543502986431
20.0,0.017467455938458443
22.0,0.016332566738128662
24.0,0.01536492444574833
26.0,0.014566502533853054
28.0,0.013945459388196468
30.0,0.01334302220493555
32.0,0.012709401547908783
36.0,0.011990235187113285
40.0,0.011315218172967434
44.0,0.010614380240440369
48.0,0.009690758772194386
52.0,0.008791022002696991
56.0,0.007946792058646679
60.0,0.007478862535208464
64.0,0.00711712846532464
72.0,0.006246436387300491
80.0,0.005475242156535387
88.0,0.00501834275200963
96.0,0.004488229285925627
104.0,0.004377064295113087
112.0,0.0043545495718717575
120.0,0.004748078994452953
128.0,0.004686485975980759
144.0,0.003939192276448011
160.0,0.003463949542492628
176.0,0.0033148922957479954
192.0,0.00336790201254189
208.0,0.002553883008658886
224.0,0.002761178184300661
240.0,0.0030871101189404726
256.0,0.002931727794930339
288.0,0.0025218972004950047
320.0,0.0017618623096495867
352.0,0.001385811367072165
384.0,0.0012304758420214057
416.0,0.000820269575342536
448.0,-0.000432218803325668
480.0,-0.0019235227955505252
512.0,-0.0018487494671717286
576.0,-0.0013169007143005729
640.0,-0.0018763566622510552
704.0,-0.0030503144953399897
768.0,-0.004034954123198986
832.0,-0.0018783642444759607
896.0,-0.0010484859813004732
960.0,0.00011196726700291038
1024.0,-0.0013061106437817216
1152.0,-0.0006147487438283861
1280.0,0.0011320393532514572
1408.0,0.0013208712916821241
1536.0,0.0012092833640053868
1664.0,9.581237100064754e-05
1792.0,-0.0023089193273335695
1920.0,-0.0028354062233120203
2048.0,-0.00058415113016963
2304.0,-0.0005182992317713797
2560.0,-0.00018257582269143313
2816.0,-0.0015631236601620913
3072.0,-0.0019482735078781843
3328.0,-0.0039677550084888935
3584.0,-0.0004460599448066205
3840.0,0.00018192108836956322
4096.0,-0.00019803510804194957
4608.0,6.235518958419561e-05
5120.0,-0.0006689392612315714
5632.0,0.002372163347899914
6144.0,0.0026444282848387957
6656.0,-0.0007957103080116212
7168.0,0.0005414430052042007
7680.0,-8.11889985925518e-05
8192.0,-0.0009978566085919738
end
