version,3.0
numOfCh,1
type,point
parent_name,34766_1dot0-0dot01
ch_type,1_1
kcount,1
numberNandB,1
brightnessNandB,1
carpet pos,0
pc,0
Time (ms),CH1 Auto-Correlation
1.0,0.0410100594162941
2.0,0.03805582970380783
3.0,0.03555665165185928
4.0,0.03338091820478439
5.0,0.0313725508749485
6.0,0.02962488867342472
7.0,0.028043603524565697
8.0,0.0266583152115345
9.0,0.025403495877981186
10.0,0.024269171059131622
11.0,0.02327987179160118
12.0,0.02240999974310398
13.0,0.02163109928369522
14.0,0.020928751677274704
15.0,0.020201759412884712
16.0,0.019533472135663033
18.0,0.01830849051475525
20.0,0.017111761495471
22.0,0.01592189259827137
24.0,0.014797191135585308
26.0,0.013600816950201988
28.0,0.012553514912724495
30.0,0.011568920686841011
32.0,0.010587385855615139
36.0,0.009267509914934635
40.0,0.008136255666613579
44.0,0.007178733125329018
48.0,0.006511360872536898
52.0,0.00624629994854331
56.0,0.006181478034704924
60.0,0.005745052359998226
64.0,0.00531114311888814
72.0,0.005047098733484745
80.0,0.005183338187634945
88.0,0.005297290161252022
96.0,0.005131650250405073
104.0,0.005091248545795679
112.0,0.004513233434408903
120.0,0.003677031025290489
128.0,0.003260228084400296
144.0,0.002503499388694763
160.0,0.0013015003642067313
176.0,-0.00042792726890183985
192.0,-0.00040296214865520597
208.0,0.0012189762201160192
224.0,0.0019164354307577014
240.0,0.0012059640139341354
256.0,0.001255431561730802
288.0,0.0019722171127796173
320.0,0.002154731657356024
352.0,0.0007556647178716958
384.0,0.000492484774440527
416.0,7.731065852567554e-05
448.0,-0.0012769288150593638
480.0,-0.0018735667690634727
512.0,-0.0010273338994011283
576.0,-0.0019206275464966893
640.0,0.00021561927860602736
704.0,-0.0026604265440255404
768.0,-0.003136380109935999
832.0,-0.0035728744696825743
896.0,-0.0022363304160535336
960.0,-0.000669678789563477
1024.0,-0.0014610968064516783
1152.0,-0.001742393127642572
1280.0,-0.0037089060060679913
1408.0,-0.0034739987459033728
1536.0,-0.0017505190335214138
1664.0,-1.2725912711175624e-05
1792.0,0.002139815827831626
1920.0,0.0014276662841439247
2048.0,0.001983457477763295
2304.0,0.0018375283107161522
2560.0,0.0008711930131539702
2816.0,0.0009654086316004395
3072.0,-0.0016178663354367018
3328.0,-0.002103970153257251
3584.0,-0.0010850784601643682
3840.0,0.0007424142095260322
4096.0,0.0012964655179530382
4608.0,-0.0001889519626274705
5120.0,-0.000709202722646296
5632.0,-0.0008569213678129017
6144.0,0.002594099147245288
6656.0,0.0002777939953375608
7168.0,-0.0022500180639326572
7680.0,-0.000546014925930649
8192.0,0.0008618173305876553
end
