version,3.0
numOfCh,1
type,point
parent_name,34766_1dot0-0dot01
ch_type,1_1
kcount,1
numberNandB,1
brightnessNandB,1
carpet pos,0
pc,0
Time (ms),CH1 Auto-Correlation
1.0,0.03843321278691292
2.0,0.035156603902578354
3.0,0.03252893686294556
4.0,0.030233090743422508
5.0,0.028170809149742126
6.0,0.026320086792111397
7.0,0.024676168337464333
8.0,0.023232389241456985
9.0,0.02199622057378292
10.0,0.020941996946930885
11.0,0.02003828063607216
12.0,0.01919572800397873
13.0,0.01844721846282482
14.0,0.017694996669888496
15.0,0.017069853842258453
16.0,0.01649753749370575
18.0,0.015475830994546413
20.0,0.0146389901638031
22.0,0.013655999675393105
24.0,0.012741848826408386
26.0,0.01210018340498209
28.0,0.0116208391264081
30.0,0.011297177523374557
32.0,0.01088804006576538
36.0,0.009753173217177391
40.0,0.008883128874003887
44.0,0.007983693853020668
48.0,0.00696975365281105
52.0,0.006306569091975689
56.0,0.005955469328910112
60.0,0.005312348250299692
64.0,0.004576242994517088
72.0,0.0038861166685819626
80.0,0.0035485299304127693
88.0,0.00367302936501801
96.0,0.0036683217622339725
104.0,0.0024539644364267588
112.0,0.0018221185309812427
120.0,0.0013092411682009697
128.0,0.0012961728498339653
144.0,0.0009289805893786252
160.0,0.000675574061460793
176.0,0.0006466561462730169
192.0,0.0008862742106430233
208.0,0.001142912427894771
224.0,0.0011031599715352058
240.0,0.001225359388627112
256.0,0.0018046643817797303
288.0,0.0012170526897534728
320.0,0.001354001578874886
352.0,0.0006502514006569982
384.0,0.0006102714687585831
416.0,0.0013406446669250727
448.0,0.0017459775554016232
480.0,0.0011206837370991707
512.0,0.0007874647271819413
576.0,-0.0005336871836334467
640.0,-0.0018056138651445508
704.0,-0.003037842456251383
768.0,-0.002676537726074457
832.0,-0.0012063391041010618
896.0,-0.0006361294654197991
960.0,-0.00047423990326933563
1024.0,-0.0027565057389438152
1152.0,-0.0013706398895010352
1280.0,0.0010171298636123538
1408.0,-6.015857798047364e-05
1536.0,0.0007385979988612235
1664.0,-0.0009300843812525272
1792.0,-9.64189603109844e-05
1920.0,0.001390442717820406
2048.0,-0.002167239086702466
2304.0,0.0014285384677350521
2560.0,0.0008847384015098214
2816.0,0.0009227695991285145
3072.0,-0.0001127564100897871
3328.0,-0.0012337170774117112
3584.0,-0.00018687128613237292
3840.0,0.00054503622232005
4096.0,0.0009659186471253633
4608.0,-0.0005951250204816461
5120.0,-0.0008164106402546167
5632.0,0.0004862858622800559
6144.0,-0.00022907255333848298
6656.0,-0.0005041612312197685
7168.0,-0.001047057448886335
7680.0,-0.0017575963865965605
8192.0,0.0015827076276764274
end
