version,3.0
numOfCh,1
type,point
parent_name,34766_1dot0-0dot01
ch_type,1_1
kcount,1
numberNandB,1
brightnessNandB,1
carpet pos,0
pc,0
Time (ms),CH1 Auto-Correlation
1.0,1.0526834726333618
2.0,1.05141019821167
3.0,1.0502058267593384
4.0,1.0491167306900024
5.0,1.0480868816375732
6.0,1.0470614433288574
7.0,1.046035647392273
8.0,1.045005202293396
9.0,1.044031023979187
10.0,1.0431456565856934
11.0,1.0422660112380981
12.0,1.0414597988128662
13.0,1.0406180620193481
14.0,1.0398659706115723
15.0,1.0391485691070557
16.0,1.0383613109588623
18.0,1.0366532802581787
20.0,1.0347644090652466
22.0,1.0326789617538452
24.0,1.0305598974227905
26.0,1.028584361076355
28.0,1.0268510580062866
30.0,1.025168776512146
32.0,1.023473858833313
36.0,1.0198297500610352
40.0,1.016038179397583
44.0,1.0124658346176147
48.0,1.0093944072723389
52.0,1.0062166452407837
56.0,1.003009557723999
60.0,0.99947589635849
64.0,0.9963065981864929
72.0,0.9903989434242249
80.0,0.9850974678993225
88.0,0.9805635809898376
96.0,0.9766271710395813
104.0,0.9725513458251953
112.0,0.9688737392425537
120.0,0.9659749269485474
128.0,0.9632448554039001
144.0,0.9569057822227478
160.0,0.9499514102935791
176.0,0.9413185119628906
192.0,0.9306629300117493
208.0,0.9197492003440857
224.0,0.9098222851753235
240.0,0.9007747769355774
256.0,0.8907470703125
288.0,0.8776121139526367
320.0,0.8690922856330872
352.0,0.8577473759651184
384.0,0.8372054696083069
416.0,0.8117943406105042
448.0,0.7941882014274597
480.0,0.7854077816009521
512.0,0.7687666416168213
576.0,0.7176346778869629
640.0,0.6734179258346558
704.0,0.6192063689231873
768.0,0.5526722073554993
832.0,0.5059577226638794
896.0,0.455231636762619
960.0,0.39622166752815247
1024.0,0.3499387502670288
1152.0,0.24726815521717072
1280.0,0.16552099585533142
1408.0,0.09249214082956314
1536.0,0.031092410907149315
1664.0,-0.003920094575732946
1792.0,-0.03363880142569542
1920.0,-0.042976196855306625
2048.0,-0.05399096757173538
2304.0,-0.07975126057863235
2560.0,-0.10049345344305038
2816.0,-0.1290775090456009
3072.0,-0.15303590893745422
3328.0,-0.16479627788066864
3584.0,-0.17989590764045715
3840.0,-0.1966252624988556
4096.0,-0.22431086003780365
4608.0,-0.30543550848960876
5120.0,-0.419889360666275
5632.0,-0.557661771774292
6144.0,-0.7852261662483215
6656.0,-1.052361011505127
7168.0,-1.1550848484039307
end
