version,3.0
numOfCh,1
type,point
parent_name,34766_1dot0-0dot01
ch_type,1_1
kcount,1
numberNandB,1
brightnessNandB,1
carpet pos,0
pc,0
Time (ms),CH1 Auto-Correlation
1.0,0.45488980412483215
2.0,0.45197102427482605
3.0,0.44935891032218933
4.0,0.44684794545173645
5.0,0.444458544254303
6.0,0.4421602785587311
7.0,0.43997058272361755
8.0,0.43796098232269287
9.0,0.4359319806098938
10.0,0.4339412748813629
11.0,0.4320236146450043
12.0,0.43028685450553894
13.0,0.4285052418708801
14.0,0.4267634153366089
15.0,0.4250882863998413
16.0,0.4235478639602661
18.0,0.42033085227012634
20.0,0.41714969277381897
22.0,0.413779079914093
24.0,0.4105447828769684
26.0,0.4071986973285675
28.0,0.4036962389945984
30.0,0.40049898624420166
32.0,0.3975565433502197
36.0,0.39176881313323975
40.0,0.3865233361721039
44.0,0.38139772415161133
48.0,0.3760213553905487
52.0,0.37045028805732727
56.0,0.3652620017528534
60.0,0.36003437638282776
64.0,0.35458871722221375
72.0,0.34211015701293945
80.0,0.3294012248516083
88.0,0.31671589612960815
96.0,0.3051745891571045
104.0,0.29558297991752625
112.0,0.28771159052848816
120.0,0.2813989520072937
128.0,0.2782755494117737
144.0,0.27015045285224915
160.0,0.26053762435913086
176.0,0.2505335509777069
192.0,0.23980282247066498
208.0,0.22908945381641388
224.0,0.21707089245319366
240.0,0.2033481001853943
256.0,0.19034481048583984
288.0,0.16800622642040253
320.0,0.14409835636615753
352.0,0.11004721373319626
384.0,0.08331617712974548
416.0,0.06012093648314476
448.0,0.04924769327044487
480.0,0.04640243947505951
512.0,0.045179471373558044
576.0,0.048167884349823
640.0,0.055694419890642166
704.0,0.046797387301921844
768.0,0.03563367575407028
832.0,0.03210846334695816
896.0,0.0234052836894989
960.0,0.010609964840114117
1024.0,-0.0063005355186760426
1152.0,-0.00901418924331665
1280.0,-0.006578048691153526
1408.0,-0.007275273557752371
1536.0,-0.01488885935395956
1664.0,-0.01588272862136364
1792.0,-0.007708895020186901
1920.0,-0.005824096966534853
2048.0,-0.00568266911432147
2304.0,-0.01662321388721466
2560.0,-0.009326154366135597
2816.0,-0.0001957046624738723
3072.0,0.013695833273231983
3328.0,0.01727576181292534
3584.0,0.019263727590441704
3840.0,0.01754908636212349
4096.0,-0.00895599089562893
4608.0,0.014645968563854694
5120.0,0.0187810268253088
5632.0,0.01710025779902935
6144.0,0.018748831003904343
6656.0,0.02163221687078476
7168.0,0.021455569192767143
7680.0,0.008995960466563702
8192.0,0.004924377426505089
end
