version,3.0
numOfCh,1
type,point
parent_name,34766_10dot0-1dot0
ch_type,1_1
kcount,1
numberNandB,1
brightnessNandB,1
carpet pos,0
pc,0
Time (ms),CH1 Auto-Correlation
1.0,0.013328410685062408
2.0,0.008848961442708969
3.0,0.006478100549429655
4.0,0.0051002707332372665
5.0,0.004378706216812134
6.0,0.0038666543550789356
7.0,0.003558379365131259
8.0,0.0031123345252126455
9.0,0.00269702123478055
10.0,0.0023762087803333998
11.0,0.0021338097285479307
12.0,0.0018946519121527672
13.0,0.0016573212342336774
14.0,0.0014476539799943566
15.0,0.0011456450447440147
16.0,0.0012627234682440758
18.0,0.0012454930692911148
20.0,0.0009877228876575828
22.0,0.0006934180273674428
24.0,0.00037986630923114717
26.0,0.00041145237628370523
28.0,0.0003174504090566188
30.0,0.0002659469028003514
32.0,0.00024719207431189716
36.0,0.0003556815208867192
40.0,0.00020889623556286097
44.0,0.0002223980991402641
48.0,0.0002669978712219745
52.0,0.00026583357248455286
56.0,9.906026389217004e-05
60.0,0.0003009554056916386
64.0,0.0002964135492220521
72.0,0.000180238566827029
80.0,5.4248986998572946e-05
88.0,0.00015807212912477553
96.0,0.00015671364963054657
104.0,-4.6655604819534346e-05
112.0,-0.0001835167786339298
120.0,-0.00028765478054992855
128.0,3.820831989287399e-05
144.0,-0.0002926673914771527
160.0,-0.00032446926343254745
176.0,-0.0002194320986745879
192.0,-4.382945189718157e-05
208.0,-0.000470155879156664
224.0,-0.0001702005829429254
240.0,2.596236481622327e-05
256.0,-2.655396826867218e-07
288.0,0.00023098585370462388
320.0,0.00018763325351756066
352.0,0.00014777554315514863
384.0,-0.00010652768105501309
416.0,0.00010617620137054473
448.0,0.00015776146028656512
480.0,0.0002141806180588901
512.0,0.00012815905211027712
576.0,-7.938079215819016e-05
640.0,-3.763863423955627e-05
704.0,-0.00030554248951375484
768.0,-1.964742477866821e-05
832.0,0.00011725543299689889
896.0,-7.512779848184437e-05
960.0,-0.0001139377782237716
1024.0,-0.0003631010768003762
1152.0,0.00010878835018957034
1280.0,-5.401487214840017e-05
1408.0,-0.00022651170729659498
1536.0,-1.4504523278446868e-05
1664.0,2.752398359007202e-05
1792.0,-6.519944872707129e-05
1920.0,-0.0001005280064418912
2048.0,8.175251423381269e-05
2304.0,-0.00011722625640686601
2560.0,0.00013023574138060212
2816.0,2.950378075183835e-05
3072.0,-3.308800296508707e-05
3328.0,0.00011001528764609247
3584.0,-3.168388138874434e-05
3840.0,-0.00010709503840189427
4096.0,3.812531940639019e-05
4608.0,0.00014871523308102041
5120.0,1.2900601120691135e-07
5632.0,-0.0001654477819101885
6144.0,4.3673961044987664e-05
6656.0,-1.3646937077282928e-05
7168.0,5.59858963242732e-05
7680.0,-0.0001635453081689775
8192.0,-2.212193612649571e-05
end
