version,3.0
numOfCh,1
type,point
parent_name,2-cuts
ch_type,1_1
kcount,1
numberNandB,1
brightnessNandB,1
carpet pos,0
pc,0
Time (ms),CH1 Auto-Correlation
1.0,0.015142416581511497
2.0,0.012262643314898014
3.0,0.01020839437842369
4.0,0.008669649250805378
5.0,0.007613954599946737
6.0,0.006686134729534388
7.0,0.006028847303241491
8.0,0.00538767920807004
9.0,0.004898564424365759
10.0,0.004425595980137587
11.0,0.004049899987876415
12.0,0.003686662530526519
13.0,0.0033936058171093464
14.0,0.003059003734961152
15.0,0.0029235738329589367
16.0,0.0026978724636137486
18.0,0.002328338799998164
20.0,0.002225190633907914
22.0,0.0021237132605165243
24.0,0.0018945756601169705
26.0,0.0014987561153247952
28.0,0.0012991582043468952
30.0,0.001157862599939108
32.0,0.0012399869738146663
36.0,0.0010955830803140998
40.0,0.0011473811464384198
44.0,0.0009035233524627984
48.0,0.0009511914104223251
52.0,0.0008691803086549044
56.0,0.0009882753947749734
60.0,0.000699078431352973
64.0,0.0008616577833890915
72.0,0.0009300188394263387
80.0,0.001028411090373993
88.0,0.0006011213408783078
96.0,0.00029675860423594713
104.0,0.0002207747893407941
112.0,4.0961749618873e-05
120.0,0.00015593721764162183
128.0,7.168084994191304e-05
144.0,0.0003174350713379681
160.0,9.768279414856806e-05
176.0,-5.152356970938854e-05
192.0,-0.00015955233538988978
208.0,0.00023514864733442664
224.0,0.00017564195150043815
240.0,-0.00017824287351686507
256.0,0.00021094940893817693
288.0,0.0003381773713044822
320.0,-2.1258278138702735e-05
352.0,-7.779370935168117e-05
384.0,-0.0001870279957074672
416.0,-0.00021305099653545767
448.0,0.0003876137488987297
480.0,0.0004997916985303164
512.0,0.0005423647817224264
576.0,5.535408126888797e-05
640.0,-6.828075129305944e-05
704.0,0.0001578090013936162
768.0,-0.00010260444832965732
832.0,-0.0004794791166204959
896.0,-0.0004282034351490438
960.0,-0.00015887783956713974
1024.0,2.1030997231719084e-05
1152.0,-2.4212778953369707e-05
1280.0,7.326169725274667e-05
1408.0,0.00023766112281009555
1536.0,7.034622831270099e-05
1664.0,-0.00033628163510002196
1792.0,-0.000131098015117459
1920.0,-1.755019729898777e-05
2048.0,7.490442658308893e-05
2304.0,-0.0003408979391679168
2560.0,-5.11567632202059e-05
2816.0,2.48580145125743e-05
3072.0,0.0003140401386190206
3328.0,0.0002038666425505653
3584.0,-8.518267122781253e-07
3840.0,-9.001405123854056e-05
4096.0,-0.00014283170457929373
4608.0,-0.00037573499139398336
5120.0,-0.00022090684797149152
5632.0,-0.00013263271830510348
6144.0,2.355448123125825e-05
6656.0,0.00017565123562235385
7168.0,6.757763185305521e-05
7680.0,0.0001621241681277752
8192.0,-0.0001608942839084193
9216.0,0.00010422532068332657
10240.0,0.00013845600187778473
11264.0,-0.00018847754108719528
12288.0,-0.00011857165372930467
13312.0,0.0004300716973375529
14336.0,-0.0002269548858748749
end
