version,3.0
numOfCh,1
type,point
parent_name,2-cuts
ch_type,1_1
kcount,1
numberNandB,1
brightnessNandB,1
carpet pos,0
pc,0
Time (ms),CH1 Auto-Correlation
1.0,0.015517834573984146
2.0,0.012592230923473835
3.0,0.010649397037923336
4.0,0.009251433424651623
5.0,0.008189495652914047
6.0,0.007296890020370483
7.0,0.006539132446050644
8.0,0.005986570380628109
9.0,0.005395992659032345
10.0,0.004796808585524559
11.0,0.004250960890203714
12.0,0.0037670957390218973
13.0,0.003458585822954774
14.0,0.0032583882566541433
15.0,0.0030676645692437887
16.0,0.002967372303828597
18.0,0.00265487446449697
20.0,0.0022486464586108923
22.0,0.001957604894414544
24.0,0.0018415068043395877
26.0,0.0016194412019103765
28.0,0.0013159161899238825
30.0,0.0010650677140802145
32.0,0.000981554971076548
36.0,0.0010604257695376873
40.0,0.0009840650018304586
44.0,0.0008261473849415779
48.0,0.0007190313190221786
52.0,0.0005949128535576165
56.0,0.0004378129669930786
60.0,5.91834141232539e-05
64.0,-2.859446613001637e-05
72.0,-8.260424510808662e-05
80.0,-0.0002576274564489722
88.0,1.690131398390804e-06
96.0,0.00027833637432195246
104.0,0.0004837692831642926
112.0,0.000379340723156929
120.0,0.00019325604080222547
128.0,-2.5759372874745168e-05
144.0,-0.0003381838323548436
160.0,-0.0007880967459641397
176.0,-0.0008289709221571684
192.0,-0.0006609243573620915
208.0,-0.0008810120634734631
224.0,-0.00047445844393223524
240.0,-0.00025860918685793877
256.0,-0.0003429208882153034
288.0,0.00017721291806083173
320.0,0.0003824945888482034
352.0,0.00033233099384233356
384.0,0.0002641988394316286
416.0,0.00027508812490850687
448.0,-0.00025808889768086374
480.0,-8.715532749192789e-05
512.0,0.0002582242013886571
576.0,-8.808365237200633e-05
640.0,-0.00048762516235001385
704.0,-4.067460395162925e-05
768.0,3.297333751106635e-05
832.0,0.00012170312402304262
896.0,0.00016320912982337177
960.0,-0.0001347735960735008
1024.0,-6.879835564177483e-05
1152.0,5.258938472252339e-05
1280.0,-0.00028360102442093194
1408.0,-1.7021642406689352e-06
1536.0,-0.00026673308457247913
1664.0,0.00010476930037839338
1792.0,-5.3988587751518935e-05
1920.0,8.443416299996898e-05
2048.0,0.00023436915944330394
2304.0,-1.9973267626482993e-05
2560.0,0.00014137619291432202
2816.0,-0.0001575559435877949
3072.0,-5.7008837757166475e-05
3328.0,-3.895896588801406e-05
3584.0,2.6158913897234015e-05
3840.0,-0.00026755983708426356
4096.0,-0.00014464720152318478
4608.0,-0.00010226079757558182
5120.0,5.021669130655937e-05
5632.0,0.0001633009233046323
6144.0,2.027348273259122e-05
6656.0,-0.000214395098737441
7168.0,-6.58310018479824e-05
7680.0,0.00018613091378938407
8192.0,3.529763125698082e-05
9216.0,-7.567714783363044e-05
10240.0,0.000203710442292504
11264.0,-7.307881605811417e-05
12288.0,8.233033440774307e-05
13312.0,-0.00011708998499670997
14336.0,-6.57975033391267e-05
end
