version,3.0
numOfCh,1
type,point
parent_name,2-cuts
ch_type,1_1
kcount,1
numberNandB,1
brightnessNandB,1
carpet pos,0
pc,0
Time (ms),CH1 Auto-Correlation
1.0,0.017019087448716164
2.0,0.014096826314926147
3.0,0.01204982865601778
4.0,0.01048028189688921
5.0,0.009314816445112228
6.0,0.008487171493470669
7.0,0.0077829123474657536
8.0,0.007221626583486795
9.0,0.006787353660911322
10.0,0.006309436168521643
11.0,0.006015290040522814
12.0,0.005619529169052839
13.0,0.0053384313359856606
14.0,0.005151359364390373
15.0,0.004864764865487814
16.0,0.004656435921788216
18.0,0.004241459537297487
20.0,0.003927391488105059
22.0,0.003755420446395874
24.0,0.003593686269596219
26.0,0.0034421293530613184
28.0,0.003294871188700199
30.0,0.0029862693045288324
32.0,0.0029209929052740335
36.0,0.002269875258207321
40.0,0.0014803176745772362
44.0,0.0012285676784813404
48.0,0.0010288545163348317
52.0,0.00106683443300426
56.0,0.0011088104220107198
60.0,0.0009059913572855294
64.0,0.0009257630445063114
72.0,0.0008152987575158477
80.0,0.0009394476655870676
88.0,0.0006265042466111481
96.0,0.0004958048812113702
104.0,0.0006909884396009147
112.0,0.0005852329777553678
120.0,0.0007978566573001444
128.0,0.001128767034970224
144.0,0.0012695551849901676
160.0,0.0013287831097841263
176.0,0.0008768250118009746
192.0,0.0008292939746752381
208.0,0.0004190427134744823
224.0,0.0008003658731468022
240.0,5.417515421868302e-05
256.0,-0.00038352084811776876
288.0,-0.0007492621662095189
320.0,-0.0002639584708958864
352.0,-0.0002848286821972579
384.0,0.00025114251184277236
416.0,0.00016468513058498502
448.0,-0.0002929922775365412
480.0,-0.000224354284000583
512.0,-2.5026174625963904e-05
576.0,0.00038296671118587255
640.0,8.291420090245083e-05
704.0,0.00017637101700529456
768.0,-6.500122253783047e-06
832.0,0.00020255493291188031
896.0,-0.0001321104064118117
960.0,0.00017180427676066756
1024.0,3.6467619793256745e-05
1152.0,-0.00022077954781707376
1280.0,0.00028314339579083025
1408.0,4.962406092090532e-05
1536.0,0.00021005923917982727
1664.0,0.0001809601963032037
1792.0,-0.00028735195519402623
1920.0,-0.0007599586388096213
2048.0,-0.00019361975137144327
2304.0,0.0005867786821909249
2560.0,0.0005348824779503047
2816.0,-0.00017758490866981447
3072.0,-5.764955858467147e-05
3328.0,6.48710411041975e-05
3584.0,6.861940346425399e-05
3840.0,-4.22099583374802e-06
4096.0,-0.0004299840366002172
4608.0,0.00020331675477791578
5120.0,-0.0002889397437684238
5632.0,-0.00031665441929362714
6144.0,0.0001912752486532554
6656.0,-0.0008519337861798704
7168.0,0.00041309057269245386
7680.0,0.00046447498607449234
8192.0,-0.0003366888558957726
9216.0,-4.39898285549134e-05
10240.0,0.0002241337060695514
11264.0,-0.0001200190672534518
12288.0,-0.00011105895828222856
13312.0,-0.0004023556539323181
14336.0,-0.0001572242472320795
end
