version,3.0
numOfCh,1
type,point
parent_name,2-cuts
ch_type,1_1
kcount,1
numberNandB,1
brightnessNandB,1
carpet pos,0
pc,0
Time (ms),CH1 Auto-Correlation
1.0,0.015835311263799667
2.0,0.012952370569109917
3.0,0.010995144955813885
4.0,0.009465343318879604
5.0,0.008402424864470959
6.0,0.007467550225555897
7.0,0.006651426665484905
8.0,0.00608099764212966
9.0,0.0055421157740056515
10.0,0.005064374767243862
11.0,0.004657279700040817
12.0,0.004415847361087799
13.0,0.004166961647570133
14.0,0.003945342265069485
15.0,0.003743992419913411
16.0,0.0035483490210026503
18.0,0.0031112516298890114
20.0,0.0027117810677736998
22.0,0.0025713820941746235
24.0,0.0023139147087931633
26.0,0.0020316862501204014
28.0,0.0017751193372532725
30.0,0.0015447548357769847
32.0,0.0011840264778584242
36.0,0.0007923033554106951
40.0,0.0007532141171395779
44.0,0.0007747302297502756
48.0,0.0007064869278110564
52.0,0.000835064856801182
56.0,0.0007555358461104333
60.0,0.0004181273397989571
64.0,0.00015006837202236056
72.0,-0.00013008805399294943
80.0,-2.961038080684375e-05
88.0,0.00015593897842336446
96.0,-8.215540583478287e-05
104.0,-0.0002922994317486882
112.0,-0.00032518256921321154
120.0,5.486179816216463e-06
128.0,-1.9829416487482376e-05
144.0,0.0004395691503304988
160.0,0.0007467472460120916
176.0,0.0008494913345202804
192.0,0.00035465072141960263
208.0,-1.5106804312381428e-05
224.0,-0.00022848292428534478
240.0,-0.00015994298155419528
256.0,-0.0005065304576419294
288.0,0.00028049922548234463
320.0,0.0004984051338396966
352.0,0.0006203347584232688
384.0,0.0002681518963072449
416.0,-0.00034995877649635077
448.0,-1.615889777895063e-05
480.0,-9.46299551287666e-05
512.0,-0.0004071033326908946
576.0,-0.0005083652213215828
640.0,0.0002502908173482865
704.0,-9.148540266323835e-05
768.0,-0.00041071802843362093
832.0,0.00040553478174842894
896.0,6.220188515726477e-05
960.0,0.0005097354878671467
1024.0,0.000910870439838618
1152.0,0.0001578775845700875
1280.0,3.415397077333182e-05
1408.0,-0.00019445916404947639
1536.0,-6.509405011456693e-06
1664.0,-1.1423663636378478e-05
1792.0,-5.544907253351994e-05
1920.0,0.00020702320034615695
2048.0,0.0004456434980966151
2304.0,0.0001267159532289952
2560.0,-9.407277684658766e-05
2816.0,-0.00025238137459382415
3072.0,-0.00012860701826866716
3328.0,-0.00019914834410883486
3584.0,-4.091429218533449e-05
3840.0,-0.00035090799792669713
4096.0,-0.00011965538578806445
4608.0,-0.00013213165220804513
5120.0,-0.00024822927662171423
5632.0,-3.4822445741156116e-05
6144.0,-0.00021354913769755512
6656.0,-0.00011808236013166606
7168.0,7.798660226399079e-05
7680.0,0.00029594081570394337
8192.0,0.00028799634310416877
9216.0,0.0002574355457909405
10240.0,0.0001534645416541025
11264.0,3.5455700526654255e-06
12288.0,4.5314129238249734e-05
13312.0,-0.0003960352041758597
14336.0,-0.0006291792960837483
end
