version,3.0
numOfCh,1
type,point
parent_name,2-cuts
ch_type,1_1
kcount,1
numberNandB,1
brightnessNandB,1
carpet pos,0
pc,0
Time (ms),CH1 Auto-Correlation
1.0,0.01792188547551632
2.0,0.014898008666932583
3.0,0.012686040252447128
4.0,0.01096966490149498
5.0,0.009605287574231625
6.0,0.008562387898564339
7.0,0.007643879856914282
8.0,0.00688327057287097
9.0,0.006214956287294626
10.0,0.005614647176116705
11.0,0.005136305000633001
12.0,0.004713953472673893
13.0,0.004328820388764143
14.0,0.004069746937602758
15.0,0.003835307899862528
16.0,0.0036023834254592657
18.0,0.003139074193313718
20.0,0.0029221861623227596
22.0,0.0027337970677763224
24.0,0.0026529082097113132
26.0,0.002642560051754117
28.0,0.0027034603990614414
30.0,0.0025854953564703465
32.0,0.002309480682015419
36.0,0.0017914046766236424
40.0,0.0015968179795891047
44.0,0.0015116918366402388
48.0,0.001332384068518877
52.0,0.0010660398984327912
56.0,0.0006956455181352794
60.0,0.0008333821315318346
64.0,0.0008427895954810083
72.0,0.0009560981416143477
80.0,0.0005372520536184311
88.0,0.0006333416095003486
96.0,0.0006654163589701056
104.0,0.0005875455681234598
112.0,0.000346830696798861
120.0,0.00011952571367146447
128.0,0.00010489087435416877
144.0,8.608270582044497e-05
160.0,-0.00013876792218070477
176.0,-0.00019746394536923617
192.0,-0.00043558585457503796
208.0,-0.0009272374445572495
224.0,-0.0008405821863561869
240.0,-0.0006248554564081132
256.0,-0.000560728891286999
288.0,-0.000634086667560041
320.0,-0.0003396215324755758
352.0,0.00016125722322613
384.0,0.0004111312737222761
416.0,4.767983773490414e-05
448.0,-0.0002095396484946832
480.0,-0.0002556510444264859
512.0,0.0004626419977284968
576.0,-7.107087731128559e-05
640.0,-0.000423211429733783
704.0,-0.00039513196679763496
768.0,-0.00045902104466222227
832.0,-6.81097008055076e-05
896.0,-0.00025930526317097247
960.0,0.0002225180942332372
1024.0,0.0003714426711667329
1152.0,0.00017916077922564
1280.0,0.00010334159742342308
1408.0,0.00039076514076441526
1536.0,0.00011287122470093891
1664.0,0.00034935594885610044
1792.0,-0.00048236671136692166
1920.0,0.0001803808263503015
2048.0,-8.277039887616411e-05
2304.0,-0.00031706906156614423
2560.0,-0.00010385421046521515
2816.0,0.0002902683336287737
3072.0,-3.283012847532518e-05
3328.0,6.22203660896048e-05
3584.0,-0.0002233079430880025
3840.0,-0.0001787728106137365
4096.0,-0.00015338751836679876
4608.0,-7.647350139450282e-05
5120.0,0.0001769135269569233
5632.0,-2.6974092179443687e-05
6144.0,0.0001899400376714766
6656.0,-0.00018460603314451873
7168.0,-6.7099635998602025e-06
7680.0,3.753281634999439e-05
8192.0,-9.067760402103886e-05
9216.0,-9.94063084363006e-05
10240.0,6.945175118744373e-05
11264.0,0.0001468741538701579
12288.0,-1.4717504200234544e-05
13312.0,-0.00018394346989225596
14336.0,-0.0004655315133277327
end
