version,3.0
numOfCh,1
type,point
parent_name,2-cuts
ch_type,1_1
kcount,1
numberNandB,1
brightnessNandB,1
carpet pos,0
pc,0
Time (ms),CH1 Auto-Correlation
1.0,0.016838964074850082
2.0,0.01391526311635971
3.0,0.011903900653123856
4.0,0.010472804307937622
5.0,0.009269645437598228
6.0,0.00828414224088192
7.0,0.00740462401881814
8.0,0.00677198451012373
9.0,0.006204062607139349
10.0,0.005732805468142033
11.0,0.005198756232857704
12.0,0.0047682193107903
13.0,0.004394303075969219
14.0,0.00406653294339776
15.0,0.003801752347499132
16.0,0.0035750444512814283
18.0,0.0031951172277331352
20.0,0.003002398880198598
22.0,0.0029519370291382074
24.0,0.0028411448001861572
26.0,0.002523454139009118
28.0,0.0022930996492505074
30.0,0.0021324518602341413
32.0,0.0018456765683367848
36.0,0.001376252039335668
40.0,0.0012974728597328067
44.0,0.0012522799661383033
48.0,0.0009615434682928026
52.0,0.0006123846396803856
56.0,0.0004635897057596594
60.0,0.0004029978590551764
64.0,0.0005910642212256789
72.0,0.0002806557749863714
80.0,0.0003440460714045912
88.0,0.0004270476056262851
96.0,0.00029311011894606054
104.0,0.0006451092194765806
112.0,0.0007873235736042261
120.0,0.0006995504372753203
128.0,0.0005446004797704518
144.0,0.000656279269605875
160.0,0.00040334169170819223
176.0,0.0005478678504005075
192.0,0.0006972276023589075
208.0,0.0007413903949782252
224.0,0.0009962070034816861
240.0,0.0002803977986332029
256.0,0.00012525363126769662
288.0,-9.025004146678839e-06
320.0,-0.0004726969636976719
352.0,-0.0001893549197120592
384.0,-0.00012254730972927064
416.0,0.0003725866263266653
448.0,0.0007876403979025781
480.0,0.00042416166979819536
512.0,0.0003339439572300762
576.0,0.00035620882408693433
640.0,0.0003269983280915767
704.0,0.0002870087919291109
768.0,0.00020279637828934938
832.0,0.00029449493740685284
896.0,0.00019844637427013367
960.0,-0.00017211679369211197
1024.0,0.00021330206072889268
1152.0,0.00012061937741236761
1280.0,0.00042751216096803546
1408.0,0.00013287282490637153
1536.0,-0.00021464991732500494
1664.0,-0.00020785932429134846
1792.0,2.6808763777808053e-06
1920.0,-0.0001972468598978594
2048.0,-0.0002368846326135099
2304.0,-6.199505878612399e-05
2560.0,-0.0004122594546061009
2816.0,-1.0575005035207141e-05
3072.0,0.00018429341434966773
3328.0,0.00016167626017704606
3584.0,0.0001618373644305393
3840.0,-0.00020456945640034974
4096.0,1.095210336643504e-05
4608.0,2.958981531264726e-05
5120.0,-0.0001863385405158624
5632.0,-0.0002318843617103994
6144.0,0.0001964121765922755
6656.0,5.652177060255781e-05
7168.0,5.944650183664635e-05
7680.0,-0.00017619454592932016
8192.0,-0.00034777531982399523
9216.0,-0.0003746040747500956
10240.0,-0.00018610921688377857
11264.0,-0.0001769831433193758
12288.0,-0.0003798765246756375
13312.0,0.00019849212549161166
14336.0,0.0007696347311139107
end
