version,3.0
numOfCh,1
type,point
parent_name,2-cuts
ch_type,1_1
kcount,1
numberNandB,1
brightnessNandB,1
carpet pos,0
pc,0
Time (ms),CH1 Auto-Correlation
1.0,0.015880975872278214
2.0,0.013045859523117542
3.0,0.011107212863862514
4.0,0.009732592850923538
5.0,0.008645371533930302
6.0,0.007818168960511684
7.0,0.007172694429755211
8.0,0.006605185568332672
9.0,0.006102181971073151
10.0,0.005631597246974707
11.0,0.00523992907255888
12.0,0.0049520255997776985
13.0,0.004732529167085886
14.0,0.004487095400691032
15.0,0.004315728787332773
16.0,0.004302893299609423
18.0,0.004010106436908245
20.0,0.003677292028442025
22.0,0.0034619690850377083
24.0,0.0032195798121392727
26.0,0.0029646113980561495
28.0,0.0027556344866752625
30.0,0.0025754221715033054
32.0,0.0024836838711053133
36.0,0.0021362171974033117
40.0,0.0018237646436318755
44.0,0.0017344227526336908
48.0,0.0015164513606578112
52.0,0.0014320872724056244
56.0,0.0015377211384475231
60.0,0.0014158320846036077
64.0,0.0013253400102257729
72.0,0.0009910166263580322
80.0,0.0008732362766750157
88.0,0.0007707626791670918
96.0,0.0006614942685700953
104.0,0.0004358675214461982
112.0,0.0006688635912723839
120.0,0.0007679074187763035
128.0,0.000557931256480515
144.0,0.0007867492386139929
160.0,0.0005128696793690324
176.0,0.0008461502147838473
192.0,0.0007958855130709708
208.0,0.0005674510612152517
224.0,0.0002913453208748251
240.0,0.00029710406670346856
256.0,0.0005323681980371475
288.0,-3.186476169503294e-05
320.0,-0.0001984381233341992
352.0,9.25588101381436e-05
384.0,-0.00026602594880387187
416.0,-0.00019741572032216936
448.0,3.393810766283423e-05
480.0,-5.607016646536067e-06
512.0,-4.5295826566871256e-05
576.0,-0.00022031918342690915
640.0,-0.00025482571800239384
704.0,0.0002667673979885876
768.0,0.000336765602696687
832.0,0.0002471376792527735
896.0,0.00028179571381770074
960.0,-0.0006179413176141679
1024.0,-0.0009786414448171854
1152.0,-0.0004000470507889986
1280.0,7.917681796243414e-05
1408.0,0.00016622935072518885
1536.0,0.00023375959426630288
1664.0,0.00032516845385544
1792.0,-0.00027814702480100095
1920.0,6.241636583581567e-05
2048.0,0.0004958579665981233
2304.0,0.0003124054637737572
2560.0,-0.0004767625068780035
2816.0,-0.0002610602823551744
3072.0,0.00028484032372944057
3328.0,7.562406972283497e-05
3584.0,0.00025837888824753463
3840.0,2.153638706658967e-05
4096.0,-0.0002019550302065909
4608.0,-8.719089237274602e-05
5120.0,-0.00010317834676243365
5632.0,-0.00020427962590474635
6144.0,0.00027458768454380333
6656.0,-0.0001661317073740065
7168.0,-0.00022095658641774207
7680.0,-0.00026275633717887104
8192.0,-0.0005169021897017956
9216.0,0.0001556478819111362
10240.0,-0.00032631991780363023
11264.0,3.710882810992189e-05
12288.0,0.0005788137787021697
13312.0,-0.0003308540035504848
14336.0,0.0004164599522482604
end
