version,3.0
numOfCh,1
type,point
parent_name,2-cuts
ch_type,1_1
kcount,1
numberNandB,1
brightnessNandB,1
carpet pos,0
pc,0
Time (ms),CH1 Auto-Correlation
1.0,0.015993617475032806
2.0,0.01302667148411274
3.0,0.01095530390739441
4.0,0.009416261687874794
5.0,0.008192185312509537
6.0,0.007286785636097193
7.0,0.006672854535281658
8.0,0.006176314782351255
9.0,0.005694773513823748
10.0,0.005218770820647478
11.0,0.0047346013598144054
12.0,0.004279208369553089
13.0,0.00389910233207047
14.0,0.003710297169163823
15.0,0.0034705286379903555
16.0,0.0032139597460627556
18.0,0.002638055244460702
20.0,0.0023032103199511766
22.0,0.0020927616860717535
24.0,0.0021078474819660187
26.0,0.002148932544514537
28.0,0.002058969810605049
30.0,0.0020042310934513807
32.0,0.0018801233964040875
36.0,0.0016031721606850624
40.0,0.0014329740079119802
44.0,0.0012223224621266127
48.0,0.000869915762450546
52.0,0.0007504433742724359
56.0,0.0008927805465646088
60.0,0.0007238714024424553
64.0,0.0006655312608927488
72.0,0.0005409230943769217
80.0,0.0004709257045760751
88.0,0.0003039425937458873
96.0,0.000297349295578897
104.0,0.0004313564859330654
112.0,0.0004192054911982268
120.0,0.000591679650824517
128.0,0.0005268700770102441
144.0,0.0002064514992525801
160.0,-0.00017447388381697237
176.0,0.0005134860402904451
192.0,0.00018600272596813738
208.0,-0.00023072463227435946
224.0,-0.0003034613037016243
240.0,5.393380706664175e-05
256.0,0.0002690533292479813
288.0,1.814931965782307e-05
320.0,-8.302790229208767e-05
352.0,0.00014619698049500585
384.0,0.00029007266857661307
416.0,0.00037341949064284563
448.0,-0.00011385451216483489
480.0,0.00017656345153227448
512.0,7.73103820392862e-05
576.0,0.0002738744078669697
640.0,7.233881478896365e-05
704.0,0.00011605194595176727
768.0,0.00011349849955877289
832.0,-0.00019914262520615011
896.0,-0.0002042038249783218
960.0,0.0003225167456548661
1024.0,0.00038354116259142756
1152.0,0.00032747676596045494
1280.0,-0.00011319114855723456
1408.0,0.00010052332072518766
1536.0,0.0001764676853781566
1664.0,1.0892216550928424e-06
1792.0,-0.0003126264491584152
1920.0,-0.00045200277236290276
2048.0,-0.00015758068184368312
2304.0,2.4554758056183346e-05
2560.0,0.00012393629003781825
2816.0,0.0003083089832216501
3072.0,-1.9667926608235575e-05
3328.0,0.00030634639551863074
3584.0,8.898777741705999e-05
3840.0,0.00010685864981496707
4096.0,-5.639388837153092e-05
4608.0,0.00011003163672285154
5120.0,-0.00010588079021545127
5632.0,0.00015272719610948116
6144.0,-2.8781611035810784e-05
6656.0,-7.912301225587726e-05
7168.0,-3.919420487363823e-05
7680.0,-6.2630260799778625e-06
8192.0,-7.988332072272897e-05
9216.0,-0.00042091956129297614
10240.0,-0.00021034151723142713
11264.0,5.588259227806702e-05
12288.0,-0.0002443123667035252
13312.0,-0.00043009084765799344
14336.0,-0.0002991832443512976
end
