version,3.0
numOfCh,1
type,point
parent_name,2-cuts
ch_type,1_1
kcount,1
numberNandB,1
brightnessNandB,1
carpet pos,0
pc,0
Time (ms),CH1 Auto-Correlation
1.0,0.016490645706653595
2.0,0.013448990881443024
3.0,0.011281161569058895
4.0,0.009676321409642696
5.0,0.008431483060121536
6.0,0.007512402720749378
7.0,0.00686441408470273
8.0,0.006319383624941111
9.0,0.005797683261334896
10.0,0.005309367086738348
11.0,0.0049241152592003345
12.0,0.004624650813639164
13.0,0.004357839934527874
14.0,0.004213001579046249
15.0,0.0040680039674043655
16.0,0.003832936054095626
18.0,0.0035490836016833782
20.0,0.003353832522407174
22.0,0.0032443422824144363
24.0,0.003092473838478327
26.0,0.002939359052106738
28.0,0.002745296573266387
30.0,0.002497633919119835
32.0,0.002268408425152302
36.0,0.001888488419353962
40.0,0.0015604197978973389
44.0,0.0015216461615636945
48.0,0.0014332933351397514
52.0,0.001023372751660645
56.0,0.0009695793269202113
60.0,0.0009774407371878624
64.0,0.0005360058858059347
72.0,0.00037071225233376026
80.0,0.0002494693035259843
88.0,0.000565923226531595
96.0,0.0006715292693115771
104.0,0.000610005110502243
112.0,0.0007563598919659853
120.0,0.0004750379594042897
128.0,-8.758193871472031e-05
144.0,4.22501252614893e-05
160.0,0.00015558997984044254
176.0,0.00011957500100834295
192.0,0.00010212338384008035
208.0,-7.06928622093983e-05
224.0,-0.00021492123778443784
240.0,-0.00014051765901967883
256.0,-0.00022412750695366412
288.0,-0.00010582985123619437
320.0,0.0004159757518209517
352.0,0.000144945879583247
384.0,-7.714081584708765e-05
416.0,0.00014626850315835327
448.0,0.0002885927096940577
480.0,0.0001691456709522754
512.0,-6.830692313997133e-07
576.0,3.4148374652431812e-06
640.0,0.00027925168978981674
704.0,-0.00010712700168369338
768.0,-0.0001233951625181362
832.0,-0.00015927221102174371
896.0,5.036836228100583e-05
960.0,0.00016093185695353895
1024.0,-2.6225598048768006e-05
1152.0,-0.0006934194825589657
1280.0,-0.0004936654586344957
1408.0,-0.0002987482293974608
1536.0,2.5771838409127668e-05
1664.0,-0.0001159862513304688
1792.0,-0.00019806844647973776
1920.0,0.0002747274120338261
2048.0,-0.00011514604557305574
2304.0,0.0001500141224823892
2560.0,0.00019223964773118496
2816.0,3.616546018747613e-05
3072.0,9.272874740418047e-05
3328.0,-5.861725367140025e-05
3584.0,8.642402826808393e-05
3840.0,-0.00016790596419014037
4096.0,-0.000170110200997442
4608.0,0.00013954404857940972
5120.0,-0.00022571085719391704
5632.0,5.785326720797457e-06
6144.0,2.4462002329528332e-05
6656.0,0.0002204225747846067
7168.0,-0.000171015111845918
7680.0,-0.0008089040056802332
8192.0,-3.328833554405719e-05
9216.0,0.0002964679151773453
10240.0,-1.8540074961492792e-05
11264.0,0.0001328241778537631
12288.0,-3.92657530028373e-05
13312.0,-0.00010039600601885468
14336.0,0.00010899693006649613
end
