version,3.0
numOfCh,1
type,point
parent_name,2-cuts
ch_type,1_1
kcount,1
numberNandB,1
brightnessNandB,1
carpet pos,0
pc,0
Time (ms),CH1 Auto-Correlation
1.0,0.028082743287086487
2.0,0.02329779788851738
3.0,0.01995743252336979
4.0,0.017405536025762558
5.0,0.015368368476629257
6.0,0.013706093654036522
7.0,0.012274464592337608
8.0,0.011146406643092632
9.0,0.010233014822006226
10.0,0.009355793707072735
11.0,0.008667580783367157
12.0,0.008122367784380913
13.0,0.0076845744624733925
14.0,0.0072606876492500305
15.0,0.007032663561403751
16.0,0.0068850829266011715
18.0,0.006002790294587612
20.0,0.005476517602801323
22.0,0.005258133169263601
24.0,0.005035072099417448
26.0,0.00481188902631402
28.0,0.004210452549159527
30.0,0.0038875786121934652
32.0,0.003768839640542865
36.0,0.0032325389329344034
40.0,0.0029878378845751286
44.0,0.002471097745001316
48.0,0.00212392071262002
52.0,0.001838846132159233
56.0,0.0015231973957270384
60.0,0.0013675203081220388
64.0,0.0015479670837521553
72.0,0.0006188438273966312
80.0,0.0013128879945725203
88.0,0.0013825040077790618
96.0,0.001083595328964293
104.0,0.0006151064881123602
112.0,0.0005318603361956775
120.0,1.3411940017249435e-05
128.0,-0.00013599336671177298
144.0,-0.00044608075404539704
160.0,-0.0005513667711056769
176.0,1.3766758456768002e-05
192.0,0.00017514992214273661
208.0,0.0003784908330999315
224.0,0.0009505794732831419
240.0,0.000791187456343323
256.0,0.0005071400082670152
288.0,0.0006799089023843408
320.0,0.00027862066053785384
352.0,0.0007705775205977261
384.0,0.0008163999300450087
416.0,0.0007898109615780413
448.0,0.0010963331442326307
480.0,0.0010486231185495853
512.0,0.0007961910450831056
576.0,-0.0003571095585357398
640.0,-9.055456757778302e-06
704.0,0.0007846869993954897
768.0,-3.0408769816858694e-05
832.0,-7.850872498238459e-05
896.0,-0.00011822558735730127
960.0,0.00011100117990281433
1024.0,-0.001067685429006815
1152.0,-0.00023324899666476995
1280.0,0.0007273797527886927
1408.0,0.00034851793316192925
1536.0,-0.00015831415657885373
1664.0,0.00039764909888617694
1792.0,0.00015013915253803134
1920.0,0.0012644530506804585
2048.0,0.0005145948962308466
2304.0,-0.00018970613018609583
2560.0,-0.0003754567005671561
2816.0,-0.0002460427349433303
3072.0,-0.0002400057710474357
3328.0,-0.00024384578864555806
3584.0,-0.0002482656273059547
3840.0,-0.000149340252391994
4096.0,3.727872172021307e-05
4608.0,-0.0003837964322883636
5120.0,-0.00027922881417907774
5632.0,-0.00011483811249490827
6144.0,-5.4166739573702216e-05
6656.0,-0.00013543777458835393
7168.0,0.00032541813561692834
7680.0,6.039969593985006e-05
8192.0,-0.0003824701125267893
9216.0,-0.0005732962745241821
10240.0,-0.0004925926914438605
11264.0,-0.0001805276406230405
12288.0,0.0003603571967687458
13312.0,0.0003172062279190868
14336.0,0.000805087445769459
end
