version,3.0
numOfCh,1
type,point
parent_name,2-cuts
ch_type,1_1
kcount,1
numberNandB,1
brightnessNandB,1
carpet pos,0
pc,0
Time (ms),CH1 Auto-Correlation
1.0,0.015963351354002953
2.0,0.013003007508814335
3.0,0.010923409834504128
4.0,0.009309624321758747
5.0,0.007994496263563633
6.0,0.007095097564160824
7.0,0.00642432039603591
8.0,0.0057897139340639114
9.0,0.005210781004279852
10.0,0.00476283160969615
11.0,0.004333125427365303
12.0,0.003979162313044071
13.0,0.0037501815240830183
14.0,0.0035167059395462275
15.0,0.0033717637415975332
16.0,0.0032317203003913164
18.0,0.0029376766178756952
20.0,0.002680714474990964
22.0,0.0024409100878983736
24.0,0.002388900378718972
26.0,0.002217056229710579
28.0,0.0019860276952385902
30.0,0.0019355855183675885
32.0,0.0019991707522422075
36.0,0.0017850307049229741
40.0,0.001344122807495296
44.0,0.0011165664764121175
48.0,0.0008564332383684814
52.0,0.0006063652690500021
56.0,0.0004493961750995368
60.0,0.0004311444645281881
64.0,0.0003733028715942055
72.0,0.0007081538788042963
80.0,0.0005752089782617986
88.0,0.0004730352957267314
96.0,0.0004169338208157569
104.0,0.00042007159208878875
112.0,0.0005113196675665677
120.0,0.0005996183608658612
128.0,0.0007400733302347362
144.0,0.0004072259471286088
160.0,0.0004514872853178531
176.0,0.00041076313937082887
192.0,0.0003565528604667634
208.0,0.0003031624073628336
224.0,-0.00013752035738434643
240.0,0.00016441685147583485
256.0,0.000620457693003118
288.0,0.0003331016341689974
320.0,0.0002272965357406065
352.0,5.8118825108977035e-05
384.0,-8.49825592013076e-05
416.0,3.547077358234674e-05
448.0,0.000384694169042632
480.0,0.00032015502802096307
512.0,1.8001410353463143e-05
576.0,-7.724310125922784e-05
640.0,-0.00014183821622282267
704.0,-0.0003450063231866807
768.0,-0.0002878085651900619
832.0,-0.0005405194242484868
896.0,-0.0003840724821202457
960.0,-0.0007526073604822159
1024.0,-0.0005491168703883886
1152.0,-0.00011746941163437441
1280.0,-4.634496235667029e-06
1408.0,-0.00013155963097233325
1536.0,0.00017667502106633037
1664.0,0.00036427946179173887
1792.0,0.0004207312595099211
1920.0,-0.00010810475941980258
2048.0,-6.942857726244256e-05
2304.0,-5.737155879614875e-05
2560.0,-0.0002778845955617726
2816.0,-0.00016284450248349458
3072.0,-3.4498789318604395e-05
3328.0,0.00036796784843318164
3584.0,0.0005097179091535509
3840.0,0.00034116432652808726
4096.0,0.00012951409735251218
4608.0,-0.0003280953096691519
5120.0,-0.00029444810934364796
5632.0,0.00020387471886351705
6144.0,5.740656706620939e-05
6656.0,-0.00019069846894126385
7168.0,0.0002987534971907735
7680.0,0.00019392433750908822
8192.0,-0.00037737464299425483
9216.0,0.00015304666885640472
10240.0,9.22332674235804e-06
11264.0,-0.00014455069322139025
12288.0,-0.0002666986547410488
13312.0,-3.192017175024375e-05
14336.0,-0.00040228324360214174
end
