version,3.0
numOfCh,1
type,point
parent_name,2-cuts
ch_type,1_1
kcount,1
numberNandB,1
brightnessNandB,1
carpet pos,0
pc,0
Time (ms),CH1 Auto-Correlation
1.0,0.029583757743239403
2.0,0.024879902601242065
3.0,0.021355466917157173
4.0,0.018669607117772102
5.0,0.01657351665198803
6.0,0.015026608482003212
7.0,0.013641711324453354
8.0,0.012385740876197815
9.0,0.011333373375236988
10.0,0.010524819605052471
11.0,0.009920446202158928
12.0,0.009219440631568432
13.0,0.008646409958600998
14.0,0.008173100650310516
15.0,0.007632470224052668
16.0,0.007176424842327833
18.0,0.006188811268657446
20.0,0.0055252197198569775
22.0,0.004956759978085756
24.0,0.004400728736072779
26.0,0.003936153836548328
28.0,0.0037716294173151255
30.0,0.0033783763647079468
32.0,0.003185595152899623
36.0,0.0024407459422945976
40.0,0.0020505539141595364
44.0,0.0019683444406837225
48.0,0.0017005236586555839
52.0,0.0022260346449911594
56.0,0.0026398494374006987
60.0,0.0021922700107097626
64.0,0.0017143823206424713
72.0,0.0011729816906154156
80.0,0.0010605363640934229
88.0,0.001204227446578443
96.0,0.001694713719189167
104.0,0.0006316101062111557
112.0,-0.00021203882351983339
120.0,-0.000530443387106061
128.0,-0.00035688193747773767
144.0,0.0002192916872445494
160.0,0.0006738209049217403
176.0,-0.0007470015552826226
192.0,0.0007919905474409461
208.0,0.0010971432784572244
224.0,0.0007720371941104531
240.0,0.0003133390564471483
256.0,0.0004625002620741725
288.0,0.0005026618600822985
320.0,-0.000862497603520751
352.0,-0.0002798518689814955
384.0,-0.0003716267819982022
416.0,0.00011992028885288164
448.0,-0.0007397093577310443
480.0,-4.646714387490647e-06
512.0,0.0011322956997901201
576.0,0.00032269750954583287
640.0,0.0002655090356711298
704.0,0.00014618574641644955
768.0,-0.000736903864890337
832.0,-0.0005010315799154341
896.0,-0.000678379787132144
960.0,-0.0020695794373750687
1024.0,-0.001380796660669148
1152.0,6.456697883550078e-05
1280.0,6.693999603157863e-05
1408.0,0.00021565986389759928
1536.0,-0.00017009397561196238
1664.0,-0.0001808520610211417
1792.0,0.0006686563137918711
1920.0,0.0004089673748239875
2048.0,0.00040743628051131964
2304.0,-9.954042070603464e-07
2560.0,-8.338350744452327e-05
2816.0,0.00015614714357070625
3072.0,0.00019347610941622406
3328.0,-0.00017181877046823502
3584.0,-0.0002994129026774317
3840.0,-0.00031054296414367855
4096.0,-0.00033553544199094176
4608.0,0.0004966590786352754
5120.0,0.00015130999963730574
5632.0,-0.0006144007202237844
6144.0,-0.00025330594507977366
6656.0,-0.00024860960547812283
7168.0,0.00012119552411604673
7680.0,0.0009720934904180467
8192.0,-0.00036510612699203193
9216.0,0.00040888122748583555
10240.0,1.694363891147077e-05
11264.0,-0.000278548919595778
12288.0,0.0007762881577946246
13312.0,-0.0008707255474291742
14336.0,-0.0008401093655265868
end
