version,3.0
numOfCh,1
type,point
parent_name,2-cuts
ch_type,1_1
kcount,1
numberNandB,1
brightnessNandB,1
carpet pos,0
pc,0
Time (ms),CH1 Auto-Correlation
1.0,0.016055699437856674
2.0,0.01302981749176979
3.0,0.01104750670492649
4.0,0.009506612084805965
5.0,0.008435867726802826
6.0,0.007627812679857016
7.0,0.006851552985608578
8.0,0.006159840617328882
9.0,0.005580897908657789
10.0,0.00506953289732337
11.0,0.0045242453925311565
12.0,0.004202335141599178
13.0,0.0038558661472052336
14.0,0.0035725333727896214
15.0,0.0033650901168584824
16.0,0.0031433789990842342
18.0,0.0028209597803652287
20.0,0.0025504424702376127
22.0,0.002364205662161112
24.0,0.00228256918489933
26.0,0.002240401227027178
28.0,0.002056651283055544
30.0,0.0020082718692719936
32.0,0.0018097719876095653
36.0,0.0015071943635120988
40.0,0.001470112707465887
44.0,0.0010694669326767325
48.0,0.0006843165610916913
52.0,0.0003922494361177087
56.0,0.000535911472979933
60.0,0.0006988094537518919
64.0,0.0007207826129160821
72.0,0.0004564360133372247
80.0,-3.360034679644741e-05
88.0,-0.00013046094682067633
96.0,-0.0001713930832920596
104.0,-5.223943389864871e-06
112.0,-0.00027955445693805814
120.0,-0.0002721749187912792
128.0,-0.0003638627240434289
144.0,-0.0002779012720566243
160.0,-0.000394292117562145
176.0,-0.00038248341297730803
192.0,-0.00048135282122530043
208.0,-0.0005496903322637081
224.0,-0.0005652197869494557
240.0,-0.0006538829766213894
256.0,-0.0005421782261691988
288.0,0.00010573783947620541
320.0,0.00012288412835914642
352.0,0.00030136495479382575
384.0,0.0001302957971347496
416.0,0.00014928427117411047
448.0,-0.0002966929168906063
480.0,0.00015728254220448434
512.0,3.9395392377628013e-05
576.0,-0.00025057204766198993
640.0,0.0004977548960596323
704.0,0.00015062453167047352
768.0,0.0005090129561722279
832.0,4.169848034507595e-05
896.0,-0.0001335821143584326
960.0,0.00010064854723168537
1024.0,-0.000121003802632913
1152.0,0.00037466073990799487
1280.0,-0.00019609036098700017
1408.0,-0.0002026455767918378
1536.0,0.0005189733346924186
1664.0,-6.284588744165376e-05
1792.0,0.00011720015754690394
1920.0,0.00014574949454981834
2048.0,-0.0003722310939338058
2304.0,0.00012702726235147566
2560.0,1.9904557120753452e-05
2816.0,-0.00018552005349192768
3072.0,-6.811843195464462e-05
3328.0,6.637530168518424e-05
3584.0,-0.00026030043954961
3840.0,0.00014571641804650426
4096.0,-7.27418955648318e-05
4608.0,-3.29186295857653e-05
5120.0,-8.557824185118079e-05
5632.0,1.614920620340854e-05
6144.0,-1.3106938240525778e-05
6656.0,-3.492639007163234e-05
7168.0,-0.00014443881809711456
7680.0,-0.00010673063661670312
8192.0,-0.00011896756768692285
9216.0,-5.304399746819399e-05
10240.0,-1.576285831106361e-05
11264.0,8.411076123593375e-05
12288.0,2.6041845558211207e-05
13312.0,1.7112033674493432e-05
14336.0,-3.203917913197074e-06
end
