version,3.0
numOfCh,1
type,point
parent_name,2-cuts
ch_type,1_1
kcount,1
numberNandB,1
brightnessNandB,1
carpet pos,0
pc,0
Time (ms),CH1 Auto-Correlation
1.0,0.027630647644400597
2.0,0.02283642627298832
3.0,0.019430024549365044
4.0,0.016879189759492874
5.0,0.014718551188707352
6.0,0.013044562190771103
7.0,0.011756431311368942
8.0,0.010787527076900005
9.0,0.009789221920073032
10.0,0.008890585973858833
11.0,0.007985127158463001
12.0,0.007268885616213083
13.0,0.006873408332467079
14.0,0.0064303139224648476
15.0,0.006128133740276098
16.0,0.006001518573611975
18.0,0.005581831093877554
20.0,0.005045586731284857
22.0,0.004776993300765753
24.0,0.004362629260867834
26.0,0.003936192486435175
28.0,0.003440510481595993
30.0,0.0031201555393636227
32.0,0.00289109512232244
36.0,0.0028639156371355057
40.0,0.0024709217250347137
44.0,0.002450058702379465
48.0,0.0028222447726875544
52.0,0.0029635147657245398
56.0,0.002944695996120572
60.0,0.0026810585986822844
64.0,0.0022192748729139566
72.0,0.002216870430856943
80.0,0.0018809488974511623
88.0,0.0013215449871495366
96.0,0.0017439551884308457
104.0,0.0020028911530971527
112.0,0.0022107232362031937
120.0,0.001939562731422484
128.0,0.00159499142318964
144.0,0.0015599826583638787
160.0,0.0015880666906014085
176.0,0.0008839961374178529
192.0,5.230355782259721e-06
208.0,0.00033428071765229106
224.0,0.0010182762052863836
240.0,0.0011347708059474826
256.0,0.0009002351434901357
288.0,0.00027823340496979654
320.0,0.0005817866185680032
352.0,0.0007747411727905273
384.0,-0.0004632127529475838
416.0,0.00029221756267361343
448.0,0.0005814573378302157
480.0,0.0010123566025868058
512.0,0.00026585368323139846
576.0,0.0007284393068403006
640.0,0.00010297371773049235
704.0,7.929307321319357e-05
768.0,-0.000395854061935097
832.0,0.0001481367216911167
896.0,-0.0001934586907736957
960.0,-0.0003343404969200492
1024.0,-0.000673303788062185
1152.0,-3.2000163628254086e-05
1280.0,-2.436760041746311e-05
1408.0,0.00015488581266254187
1536.0,0.00022051198175176978
1664.0,0.00018497764540370554
1792.0,-0.00012634703307412565
1920.0,0.00010730331996455789
2048.0,0.0007076921756379306
2304.0,-0.0001626818993827328
2560.0,0.00029265490593388677
2816.0,-0.001373510342091322
3072.0,-0.0007438309257850051
3328.0,-0.000476628978503868
3584.0,9.926601342158392e-05
3840.0,8.191259985323995e-05
4096.0,0.000334803742589429
4608.0,-0.00023407574917655438
5120.0,0.0001652836799621582
5632.0,-3.722900873981416e-05
6144.0,0.0007554521434940398
6656.0,0.00021210817794781178
7168.0,7.77430905145593e-05
7680.0,-0.0002080134436255321
8192.0,-0.000249009724939242
9216.0,-0.00072603760054335
10240.0,-0.0002069104230031371
11264.0,-0.00039215534343384206
12288.0,0.00019080605125054717
13312.0,0.00021985848434269428
14336.0,2.502640381862875e-05
end
