version,3.0
numOfCh,1
type,point
parent_name,2-cuts
ch_type,1_1
kcount,1
numberNandB,1
brightnessNandB,1
carpet pos,0
pc,0
Time (ms),CH1 Auto-Correlation
1.0,0.017195627093315125
2.0,0.014126223511993885
3.0,0.01188522856682539
4.0,0.010291623882949352
5.0,0.009035083465278149
6.0,0.008019817993044853
7.0,0.00717232096940279
8.0,0.006550313904881477
9.0,0.006011655554175377
10.0,0.00552748329937458
11.0,0.005097962915897369
12.0,0.004741597920656204
13.0,0.0044093201868236065
14.0,0.004192665684968233
15.0,0.0038403975777328014
16.0,0.0035826419480144978
18.0,0.003286870662122965
20.0,0.003037546994164586
22.0,0.002594129415228963
24.0,0.0023197182454168797
26.0,0.0019457219168543816
28.0,0.0018142691114917397
30.0,0.001762665226124227
32.0,0.0016367846401408315
36.0,0.0015357589581981301
40.0,0.0014461444225162268
44.0,0.0012001956347376108
48.0,0.000943097285926342
52.0,0.0008233231492340565
56.0,0.0006103384657762945
60.0,0.0004476269241422415
64.0,0.00047422689385712147
72.0,0.000960881297942251
80.0,0.001005136058665812
88.0,0.0009562367340549827
96.0,0.0005889241583645344
104.0,0.0007558215293101966
112.0,0.0008173066307790577
120.0,0.0004868557152803987
128.0,0.0003471520321909338
144.0,0.0005107391043566167
160.0,0.00035822554491460323
176.0,0.00048796136979945004
192.0,0.0005398992798291147
208.0,0.0001220736448885873
224.0,5.759322448284365e-05
240.0,0.0002707747626118362
256.0,2.5721283236634918e-05
288.0,0.00010864489013329148
320.0,-0.00010778068826766685
352.0,0.00023585930466651917
384.0,0.0003707670548465103
416.0,-0.00018042686861008406
448.0,0.00039948345511220396
480.0,0.00026555973454378545
512.0,-0.00017226196359843016
576.0,-0.00011842634557979181
640.0,0.00020126656454522163
704.0,0.0001970612065633759
768.0,5.001795102543838e-07
832.0,0.0004186128790024668
896.0,0.0001401842018822208
960.0,-0.0002719465410336852
1024.0,-0.00024402419512625784
1152.0,0.0002656692231539637
1280.0,0.00032985868165269494
1408.0,0.0002470557519700378
1536.0,-0.0002484631258994341
1664.0,-0.00020451725868042558
1792.0,-0.0002972337242681533
1920.0,-0.00039362660027109087
2048.0,-8.37692914501531e-06
2304.0,-0.0004339528677519411
2560.0,-6.619817577302456e-05
2816.0,0.00012261533993296325
3072.0,-0.00014232892135623842
3328.0,5.507069727173075e-05
3584.0,5.448803858598694e-05
3840.0,2.9358960091485642e-05
4096.0,-3.0735001928405836e-05
4608.0,-0.00014578914851881564
5120.0,-0.00022339342103805393
5632.0,-0.00020997687533963472
6144.0,-6.67492495267652e-05
6656.0,0.0003228702407795936
7168.0,0.00014498873497359455
7680.0,0.00043724203715100884
8192.0,3.817950710072182e-05
9216.0,-0.0002549345081206411
10240.0,-0.0001452928117942065
11264.0,-0.000322794949170202
12288.0,-0.00028849305817857385
13312.0,4.626482041203417e-05
14336.0,1.1704472854034975e-05
end
