version,3.0
numOfCh,1
type,point
parent_name,2-cuts
ch_type,1_1
kcount,1
numberNandB,1
brightnessNandB,1
carpet pos,0
pc,0
Time (ms),CH1 Auto-Correlation
1.0,0.015786927193403244
2.0,0.012827021069824696
3.0,0.010797805152833462
4.0,0.009432060644030571
5.0,0.008345149457454681
6.0,0.007571678142994642
7.0,0.006883485708385706
8.0,0.0061867730692029
9.0,0.005770628806203604
10.0,0.005362293217331171
11.0,0.004967966116964817
12.0,0.004614244215190411
13.0,0.0042733801528811455
14.0,0.004013849887996912
15.0,0.0037785633467137814
16.0,0.00359241827391088
18.0,0.0032263225875794888
20.0,0.0029465598054230213
22.0,0.002814363921061158
24.0,0.0027066627517342567
26.0,0.0026729584205895662
28.0,0.002537159714847803
30.0,0.0022810541559010744
32.0,0.002046484500169754
36.0,0.0017299801111221313
40.0,0.001434560865163803
44.0,0.0010811755200847983
48.0,0.000936201075091958
52.0,0.0008370729046873748
56.0,0.0006473595858551562
60.0,0.0004684104642365128
64.0,0.00019458163296803832
72.0,-0.0001504327665315941
80.0,-3.623231896199286e-05
88.0,1.9408820662647486e-05
96.0,-0.0005105138407088816
104.0,-0.0004254559753462672
112.0,-0.00016045018855948
120.0,-4.151763641857542e-05
128.0,-0.000174247456016019
144.0,0.000116249721031636
160.0,0.0006189276464283466
176.0,0.00033797966898418963
192.0,-0.00011925751459784806
208.0,-6.699412188027054e-05
224.0,-0.0003394563391339034
240.0,-0.0005893201450817287
256.0,-2.4236940589617006e-05
288.0,-0.0001505381806055084
320.0,-6.924760236870497e-05
352.0,0.000273035722784698
384.0,-0.00025737154646776617
416.0,3.3810454624472186e-05
448.0,0.000966927851550281
480.0,0.0011827262351289392
512.0,0.0008928297320380807
576.0,0.00040882083703763783
640.0,0.00016735510143917054
704.0,-0.000311186391627416
768.0,0.00032469589496031404
832.0,-8.038333180593327e-05
896.0,0.00019925048400182277
960.0,-0.00025433447444811463
1024.0,0.0005437355139292777
1152.0,-0.0005021129036322236
1280.0,-5.405126648838632e-05
1408.0,-0.0003265376726631075
1536.0,-0.00012443984451238066
1664.0,-0.00014511914923787117
1792.0,-0.0001697562402114272
1920.0,-0.0004004281363449991
2048.0,-0.0002603168832138181
2304.0,-0.0001484427193645388
2560.0,-8.852300379658118e-05
2816.0,-0.00039687028038315475
3072.0,9.792557830223814e-05
3328.0,-0.0002515088999643922
3584.0,-4.6560486225644127e-05
3840.0,0.00018378029926680028
4096.0,-0.0001271992950933054
4608.0,0.00021128440857864916
5120.0,0.00015210935089271516
5632.0,9.548021625960246e-05
6144.0,-6.846649193903431e-05
6656.0,-0.00018419558182358742
7168.0,-8.331578283105046e-05
7680.0,-4.364728738437407e-05
8192.0,0.0001054755921359174
9216.0,-0.00016480743943247944
10240.0,0.00010015611042035744
11264.0,0.00017035106429830194
12288.0,-0.00015166067169047892
13312.0,-4.9575282901059836e-05
14336.0,0.00010787594510475174
end
