version,3.0
numOfCh,1
type,point
parent_name,2-cuts
ch_type,1_1
kcount,1
numberNandB,1
brightnessNandB,1
carpet pos,0
pc,0
Time (ms),CH1 Auto-Correlation
1.0,0.028258029371500015
2.0,0.023331236094236374
3.0,0.019946560263633728
4.0,0.017554208636283875
5.0,0.015660280361771584
6.0,0.014310477301478386
7.0,0.012938584201037884
8.0,0.011663807556033134
9.0,0.010501910001039505
10.0,0.009617436677217484
11.0,0.009013787843286991
12.0,0.008399742655456066
13.0,0.007961980998516083
14.0,0.0074944403022527695
15.0,0.007082634139806032
16.0,0.0068315668031573296
18.0,0.006171580869704485
20.0,0.005400008987635374
22.0,0.005002253223210573
24.0,0.004786367062479258
26.0,0.004129280336201191
28.0,0.0038869702257215977
30.0,0.003982922062277794
32.0,0.0037831002846360207
36.0,0.003120098728686571
40.0,0.0025370644871145487
44.0,0.0019425357459113002
48.0,0.0015170007245615125
52.0,0.0011813363526016474
56.0,0.0011618019780144095
60.0,0.0007638648967258632
64.0,0.0007094696629792452
72.0,0.000556671991944313
80.0,0.0006253788014873862
88.0,0.0005267637316137552
96.0,0.0005129342316649854
104.0,0.0002692915441002697
112.0,0.000704290228895843
120.0,0.001300821895711124
128.0,0.0009539959137327969
144.0,0.0005655831773765385
160.0,0.00014074600767344236
176.0,0.00016347633209079504
192.0,-3.7213092127785785e-06
208.0,-0.0008154445677064359
224.0,-0.0011799137573689222
240.0,-0.0005527106113731861
256.0,0.0005111244972795248
288.0,-0.0002701168996281922
320.0,-0.0006923576002009213
352.0,-0.0007752209785394371
384.0,-4.351886218501022e-06
416.0,0.0001073624225682579
448.0,-0.0007195345824584365
480.0,-0.0009028337080962956
512.0,-0.0006862739683128893
576.0,-0.00040616546175442636
640.0,-0.00032406425452791154
704.0,-0.0007825723732821643
768.0,-1.4958606698201038e-05
832.0,0.00057648541405797
896.0,0.00016937829786911607
960.0,-0.0006294910563156009
1024.0,-0.0004799210582859814
1152.0,0.000491463637445122
1280.0,0.00040700702811591327
1408.0,-0.0005683525814674795
1536.0,-0.0006726908613927662
1664.0,-0.0001579778763698414
1792.0,-0.00013919435150455683
1920.0,-0.0001300136500503868
2048.0,-0.0005741131026297808
2304.0,-0.00016177525685634464
2560.0,0.00025484245270490646
2816.0,-0.0002456296351738274
3072.0,0.00018350465688854456
3328.0,-9.805480658542365e-05
3584.0,0.0007591079920530319
3840.0,0.00018760020611807704
4096.0,-0.00028447131626307964
4608.0,1.0029682925960515e-05
5120.0,-8.292496204376221e-05
5632.0,-4.091254231752828e-05
6144.0,0.00027473655063658953
6656.0,-0.0007976805791258812
7168.0,0.0010344618931412697
7680.0,-0.0007986394339241087
8192.0,0.0007306408369913697
9216.0,-0.00010379376180935651
10240.0,-5.569274799199775e-05
11264.0,-6.49183357381844e-06
12288.0,0.00022419833112508059
13312.0,-0.00041552656330168247
14336.0,0.0004514681932050735
end
