version,3.0
numOfCh,1
type,point
parent_name,2-cuts
ch_type,1_1
kcount,1
numberNandB,1
brightnessNandB,1
carpet pos,0
pc,0
Time (ms),CH1 Auto-Correlation
1.0,0.01638682186603546
2.0,0.01342465914785862
3.0,0.01126785296946764
4.0,0.00963965617120266
5.0,0.00844093319028616
6.0,0.0074160899966955185
7.0,0.006706002168357372
8.0,0.006106202490627766
9.0,0.005549659952521324
10.0,0.005076087079942226
11.0,0.004532263148576021
12.0,0.00421211589127779
13.0,0.003955014981329441
14.0,0.0036181460600346327
15.0,0.003439249936491251
16.0,0.0032454149331897497
18.0,0.002787942998111248
20.0,0.002581461798399687
22.0,0.0023279713932424784
24.0,0.0020833294838666916
26.0,0.0018529349472373724
28.0,0.0018744472181424499
30.0,0.0018696773331612349
32.0,0.0017556032398715615
36.0,0.0017606511246412992
40.0,0.0013667901512235403
44.0,0.0015146317891776562
48.0,0.0013898358447477221
52.0,0.0009691391605883837
56.0,0.0005443455302156508
60.0,0.00048307329416275024
64.0,0.00018006915342994034
72.0,0.00041448313277214766
80.0,0.0003814627416431904
88.0,0.00035162537824362516
96.0,-0.0001686922478256747
104.0,-0.0003742273256648332
112.0,1.2418532605806831e-05
120.0,-4.465412348508835e-05
128.0,-0.00016900211630854756
144.0,0.00030222779605537653
160.0,0.0005882151308469474
176.0,0.00036990043008700013
192.0,0.000638202007394284
208.0,0.0005080933915451169
224.0,0.0004759060393553227
240.0,0.00026559573598206043
256.0,3.5296401620144024e-05
288.0,-0.00027686243993230164
320.0,1.1010731213900726e-05
352.0,8.595733379479498e-05
384.0,6.936771387699991e-05
416.0,0.00016675505321472883
448.0,-0.0004428108804859221
480.0,7.988567085703835e-05
512.0,-0.000124102269182913
576.0,-8.760888886172324e-05
640.0,-0.0003940057067666203
704.0,0.00010820297757163644
768.0,-0.00014084612485021353
832.0,-0.00047743573668412864
896.0,-1.5959874872351065e-05
960.0,0.00020538782700896263
1024.0,1.343363692285493e-05
1152.0,0.00014420687512028962
1280.0,-0.0001829467946663499
1408.0,-0.00014642099267803133
1536.0,-0.00013574640615843236
1664.0,-0.0001937496999744326
1792.0,-1.7610394934308715e-05
1920.0,0.00013131035666447133
2048.0,0.00013042855425737798
2304.0,-0.0002773395099211484
2560.0,-0.0001479356869822368
2816.0,-0.00035455520264804363
3072.0,-0.0005415727500803769
3328.0,-2.497728019079659e-06
3584.0,0.00025483977515250444
3840.0,0.0005031402106396854
4096.0,0.00020618096459656954
4608.0,-2.6872212401940487e-05
5120.0,0.00013051224232185632
5632.0,1.5993964552762918e-05
6144.0,7.69202524679713e-05
6656.0,-0.00031953753205016255
7168.0,-9.316345676779747e-05
7680.0,-8.194310066755861e-05
8192.0,2.4641605705255643e-05
9216.0,0.00011890756286447868
10240.0,-8.32386504043825e-05
11264.0,2.186350684496574e-05
12288.0,-9.388291800860316e-05
13312.0,-0.00026685174088925123
14336.0,0.0002608965151011944
end
