version,3.0
numOfCh,1
type,point
parent_name,2-cuts
ch_type,1_1
kcount,1
numberNandB,1
brightnessNandB,1
carpet pos,0
pc,0
Time (ms),CH1 Auto-Correlation
1.0,0.016330711543560028
2.0,0.013338045217096806
3.0,0.011151064187288284
4.0,0.009546492248773575
5.0,0.008364352397620678
6.0,0.007506947964429855
7.0,0.006902654655277729
8.0,0.006345474161207676
9.0,0.005850533023476601
10.0,0.005390642210841179
11.0,0.004991922993212938
12.0,0.0046213711611926556
13.0,0.004225690383464098
14.0,0.003932345192879438
15.0,0.0036541300360113382
16.0,0.0033700799103826284
18.0,0.0028892739210277796
20.0,0.0025947140529751778
22.0,0.002361732069402933
24.0,0.002183853415772319
26.0,0.0022470178082585335
28.0,0.0022939860355108976
30.0,0.002041282132267952
32.0,0.0017660536104813218
36.0,0.0014091844204813242
40.0,0.0011573240626603365
44.0,0.001090630074031651
48.0,0.0010911471908912063
52.0,0.000996706890873611
56.0,0.0006710965535603464
60.0,0.0003422122972551733
64.0,9.003123705042526e-05
72.0,-0.00039406464202329516
80.0,-0.00036916008684784174
88.0,-2.9522801924031228e-05
96.0,2.0953762941644527e-05
104.0,-0.00019792348030023277
112.0,-0.00032462136005051434
120.0,-0.0004723865713458508
128.0,-0.00033144300687126815
144.0,0.00021028390619903803
160.0,0.0004694995586760342
176.0,0.0007294035167433321
192.0,0.0005231121322140098
208.0,0.0005572165246121585
224.0,0.00023222916934173554
240.0,4.390480171423405e-06
256.0,-0.00024060983560048044
288.0,-0.00012917720596306026
320.0,0.00018571445252746344
352.0,0.00035134347854182124
384.0,0.000655276991892606
416.0,0.0008198466966859996
448.0,0.0008370231371372938
480.0,5.889081148779951e-05
512.0,-0.00013703068543691188
576.0,-0.00013408935046754777
640.0,8.275152504211292e-05
704.0,-0.0003835081879515201
768.0,-0.00042829985613934696
832.0,0.0003999980690423399
896.0,0.0005104601732455194
960.0,-0.0003171087009832263
1024.0,-0.0001364353665849194
1152.0,-0.00011982923751929775
1280.0,-0.00010483834921615198
1408.0,-0.00022496872406918555
1536.0,-0.00013522997323889285
1664.0,1.2478072676458396e-05
1792.0,-0.00014525973529089242
1920.0,-0.00010529688734095544
2048.0,-0.00024123615003190935
2304.0,-0.0003443318128120154
2560.0,4.0252496546600014e-05
2816.0,-4.4022825022693723e-05
3072.0,-0.0002748353290371597
3328.0,-3.3595839340705425e-05
3584.0,9.810666233533993e-05
3840.0,-0.00024959497386589646
4096.0,-0.0001366895594401285
4608.0,0.00017156499961856753
5120.0,0.00013627955922856927
5632.0,-7.572789036203176e-05
6144.0,-3.001286313519813e-05
6656.0,-7.080659997882321e-05
7168.0,0.00010376736463513225
7680.0,0.00025112146977335215
8192.0,-1.6054373190854676e-05
9216.0,-0.00012355801300145686
10240.0,-7.584751438116655e-05
11264.0,-0.0001387727097608149
12288.0,0.00017363045481033623
13312.0,1.0345260307076387e-05
14336.0,0.0001385587966069579
end
