version,3.0
numOfCh,1
type,point
parent_name,2-cuts
ch_type,1_1
kcount,1
numberNandB,1
brightnessNandB,1
carpet pos,0
pc,0
Time (ms),CH1 Auto-Correlation
1.0,0.016499074175953865
2.0,0.013621755875647068
3.0,0.011597140692174435
4.0,0.01016801968216896
5.0,0.008988014422357082
6.0,0.0081331180408597
7.0,0.007506093010306358
8.0,0.006920175161212683
9.0,0.006361864972859621
10.0,0.005890078842639923
11.0,0.00549016147851944
12.0,0.005211289040744305
13.0,0.0049575078301131725
14.0,0.004603545647114515
15.0,0.004249921999871731
16.0,0.004103366751223803
18.0,0.003718176856637001
20.0,0.0034197992645204067
22.0,0.003255209419876337
24.0,0.003083351533859968
26.0,0.0027295660693198442
28.0,0.002440529875457287
30.0,0.0022982661612331867
32.0,0.002225721487775445
36.0,0.0018841302953660488
40.0,0.0017808559350669384
44.0,0.0016471791313961148
48.0,0.0014676356222480536
52.0,0.001493262592703104
56.0,0.0014236520510166883
60.0,0.0013523002853617072
64.0,0.0012375706573948264
72.0,0.001393001526594162
80.0,0.0012358699459582567
88.0,0.0010348258074373007
96.0,0.0011321291094645858
104.0,0.000678117445204407
112.0,0.00012667319970205426
120.0,0.00044279653229750693
128.0,0.00045033456990495324
144.0,0.00038510176818817854
160.0,0.0004214621731080115
176.0,0.0004825764335691929
192.0,0.0005773934535682201
208.0,0.0005353918531909585
224.0,0.0002739068295340985
240.0,7.699200068600476e-05
256.0,3.0377712391782552e-05
288.0,5.3341471357271075e-05
320.0,6.299340748228133e-05
352.0,-0.0002423737896606326
384.0,-0.000625136774033308
416.0,-0.000499527610372752
448.0,-0.00026749950484372675
480.0,0.00036034276126883924
512.0,1.7495947759016417e-05
576.0,-5.14374187332578e-06
640.0,-6.513766129501164e-05
704.0,-0.00017264511552639306
768.0,-1.6494948795298114e-05
832.0,0.0003427468764130026
896.0,8.284465729957446e-05
960.0,0.00019921327475458384
1024.0,5.395771222538315e-05
1152.0,0.0005866605206392705
1280.0,0.0001617223024368286
1408.0,2.3870301447459497e-05
1536.0,-1.7704000129015185e-05
1664.0,-3.069575905101374e-05
1792.0,0.0001830022520152852
1920.0,0.00011368343257345259
2048.0,0.000194754044059664
2304.0,2.9123735657776706e-05
2560.0,-0.00047891217400319874
2816.0,-0.0005170502117834985
3072.0,5.407447679317556e-05
3328.0,-7.313770765904337e-05
3584.0,-0.0003548182430677116
3840.0,-0.0008682478219270706
4096.0,-0.00026164029259234667
4608.0,-0.00038400612538680434
5120.0,5.9549292927840725e-05
5632.0,0.00011367639672243968
6144.0,-9.625245002098382e-05
6656.0,0.0006759592215530574
7168.0,-6.169161497382447e-05
7680.0,0.00032752036349847913
8192.0,0.00022410137171391398
9216.0,-0.0002822369569912553
10240.0,-2.6674766559153795e-05
11264.0,-0.0005441048997454345
12288.0,0.00011528531467774883
13312.0,8.379091013921425e-05
14336.0,2.425646198389586e-05
end
