version,3.0
numOfCh,1
type,point
parent_name,2-cuts
ch_type,1_1
kcount,1
numberNandB,1
brightnessNandB,1
carpet pos,0
pc,0
Time (ms),CH1 Auto-Correlation
1.0,0.01637168973684311
2.0,0.013487356714904308
3.0,0.011383088305592537
4.0,0.00979985948652029
5.0,0.008631650358438492
6.0,0.007649331819266081
7.0,0.006824294105172157
8.0,0.006259341258555651
9.0,0.005781828425824642
10.0,0.00532559584826231
11.0,0.005013505462557077
12.0,0.004514331463724375
13.0,0.004191767890006304
14.0,0.003822336671873927
15.0,0.0034795079845935106
16.0,0.0030515643302351236
18.0,0.002592511475086212
20.0,0.002142620738595724
22.0,0.001887196791358292
24.0,0.0019080615602433681
26.0,0.0019340197322890162
28.0,0.0018417570972815156
30.0,0.0019060338381677866
32.0,0.0020080471877008677
36.0,0.0019013918936252594
40.0,0.0017576826503500342
44.0,0.0015356589574366808
48.0,0.0013325238833203912
52.0,0.0011289383983239532
56.0,0.0010457774624228477
60.0,0.0009627953986637294
64.0,0.0009548534289933741
72.0,0.0014001718955114484
80.0,0.0012958425795659423
88.0,0.0007803772459737957
96.0,0.0002660054888110608
104.0,0.00039656448643654585
112.0,0.0007976095075719059
120.0,0.0007150525925680995
128.0,0.0006625533569604158
144.0,0.0003481506137177348
160.0,0.00031255921931006014
176.0,-8.485009311698377e-05
192.0,-0.00025521364295855165
208.0,-0.0002780520007945597
224.0,-0.00022428274678532034
240.0,-0.0007835758151486516
256.0,-0.0005674510030075908
288.0,-0.00019762023293878883
320.0,-9.82928104349412e-05
352.0,0.0003048546495847404
384.0,5.270397741696797e-05
416.0,0.0005621049203909934
448.0,3.204232416464947e-05
480.0,0.00015859698760323226
512.0,-2.0462361760564818e-07
576.0,0.0005152044468559325
640.0,0.00011174245446454734
704.0,-6.51741138426587e-05
768.0,-0.0004734496760647744
832.0,-0.0004302225133869797
896.0,0.00011186215851921588
960.0,-8.965763117885217e-05
1024.0,0.00015629612607881427
1152.0,-0.00038673216477036476
1280.0,-0.00016669022443238646
1408.0,-0.00037222783430479467
1536.0,0.00014411588199436665
1664.0,6.501558527816087e-05
1792.0,-0.0003049343067687005
1920.0,-0.00029756390722468495
2048.0,-0.00046274103806354105
2304.0,0.00015665433602407575
2560.0,-4.3989624828100204e-05
2816.0,0.0005312720313668251
3072.0,-0.0001223190047312528
3328.0,0.0003941668546758592
3584.0,-0.00020351952116470784
3840.0,0.0001448620605515316
4096.0,0.00022664900461677462
4608.0,-0.0002875512291211635
5120.0,-0.00036533825914375484
5632.0,1.7256928913411684e-05
6144.0,3.6629709939006716e-05
6656.0,0.00027000033878721297
7168.0,0.00012935158156324178
7680.0,2.4225399101851508e-05
8192.0,-0.00025396616547368467
9216.0,8.356680154975038e-06
10240.0,-1.1878260011144448e-05
11264.0,-0.00016497273463755846
12288.0,-0.00015581025218125433
13312.0,0.00014566922618541867
14336.0,-1.65205401572166e-05
end
