version,3.0
numOfCh,1
type,point
parent_name,2-cuts
ch_type,1_1
kcount,1
numberNandB,1
brightnessNandB,1
carpet pos,0
pc,0
Time (ms),CH1 Auto-Correlation
1.0,0.028451768681406975
2.0,0.023532826453447342
3.0,0.02028334140777588
4.0,0.01771237514913082
5.0,0.015751542523503304
6.0,0.014257612638175488
7.0,0.01285170391201973
8.0,0.011693891137838364
9.0,0.010899744927883148
10.0,0.010070479474961758
11.0,0.00907148513942957
12.0,0.00852745771408081
13.0,0.007990733720362186
14.0,0.0075540440157055855
15.0,0.007148907985538244
16.0,0.006508509162813425
18.0,0.005520074628293514
20.0,0.00490586506202817
22.0,0.004396990407258272
24.0,0.003864193568006158
26.0,0.0035647570621222258
28.0,0.003214570228010416
30.0,0.0032055180054157972
32.0,0.0031677226070314646
36.0,0.0030517764389514923
40.0,0.003181684296578169
44.0,0.0031802791636437178
48.0,0.0032716395799070597
52.0,0.0032997452653944492
56.0,0.0031379759311676025
60.0,0.0027838139794766903
64.0,0.0022635881323367357
72.0,0.0020991270430386066
80.0,0.0024018301628530025
88.0,0.001749871065840125
96.0,0.0016455058939754963
104.0,0.001117865089327097
112.0,0.001693226397037506
120.0,0.0015478960704058409
128.0,0.0013858445454388857
144.0,0.0013743157032877207
160.0,0.0014012646861374378
176.0,0.0014654574915766716
192.0,0.001424546237103641
208.0,0.000787038472481072
224.0,9.14516785996966e-05
240.0,0.0006528929225169122
256.0,0.0004104791732970625
288.0,0.000563455861993134
320.0,0.0005623821634799242
352.0,0.0005040342221036553
384.0,-0.0004029195406474173
416.0,5.3326824854593724e-05
448.0,-0.00037712370976805687
480.0,-0.0008703724015504122
512.0,-0.0002144873869838193
576.0,0.000339400110533461
640.0,-0.000747277750633657
704.0,-0.0019364433828741312
768.0,-0.0013831505784764886
832.0,-0.0023469252046197653
896.0,-0.0014000850496813655
960.0,0.0002461173280607909
1024.0,-0.0005996616091579199
1152.0,-0.0005779587081633508
1280.0,-0.00018471467774361372
1408.0,5.7596273109083995e-05
1536.0,0.0001933126914082095
1664.0,9.491002856520936e-05
1792.0,4.6929566451581195e-05
1920.0,0.000411494227591902
2048.0,0.000286113383481279
2304.0,0.000632450683042407
2560.0,3.346423909533769e-05
2816.0,-0.0003173051227349788
3072.0,-0.000238239808822982
3328.0,0.0006437622359953821
3584.0,-0.00014923998969607055
3840.0,-1.0832923180714715e-05
4096.0,-0.0009561884799040854
4608.0,-0.0005705875810235739
5120.0,-0.0001039874623529613
5632.0,0.00048067860188893974
6144.0,-0.000146175007103011
6656.0,-0.0008880561799742281
7168.0,-0.0006854073144495487
7680.0,0.0009805127047002316
8192.0,0.0002523281436879188
9216.0,-9.318116644863039e-05
10240.0,7.230705523397774e-05
11264.0,0.0007890365668572485
12288.0,-0.000767566089052707
13312.0,0.0008580940193496644
14336.0,-0.0009607921820133924
end
