version,3.0
numOfCh,1
type,point
parent_name,2-cuts
ch_type,1_1
kcount,1
numberNandB,1
brightnessNandB,1
carpet pos,0
pc,0
Time (ms),CH1 Auto-Correlation
1.0,0.02672482840716839
2.0,0.021913189440965652
3.0,0.018561702221632004
4.0,0.016096945852041245
5.0,0.013935691677033901
6.0,0.012331304140388966
7.0,0.010987851768732071
8.0,0.009958832524716854
9.0,0.009351197630167007
10.0,0.00868957582861185
11.0,0.008244657889008522
12.0,0.007685169577598572
13.0,0.007353797554969788
14.0,0.00713694840669632
15.0,0.006883739493787289
16.0,0.006650890689343214
18.0,0.006017387378960848
20.0,0.005443025846034288
22.0,0.00524406973272562
24.0,0.004965959582477808
26.0,0.004534073639661074
28.0,0.004206683952361345
30.0,0.003698099171742797
32.0,0.0032989701721817255
36.0,0.002886922564357519
40.0,0.0025900504551827908
44.0,0.00209790444932878
48.0,0.0023770106490701437
52.0,0.00219546165317297
56.0,0.0020566729363054037
60.0,0.001646036165766418
64.0,0.001116582890972495
72.0,0.0010159227531403303
80.0,0.0009089709492400289
88.0,0.0008883988484740257
96.0,0.0004811267426703125
104.0,-9.332560148322955e-05
112.0,-0.0001188090318464674
120.0,-0.00013951308210380375
128.0,-0.00027152581606060266
144.0,-2.2475038349512033e-05
160.0,-1.243256247107638e-05
176.0,-0.00037741046980954707
192.0,0.0008876290521584451
208.0,0.0009527830989100039
224.0,0.0013024030486121774
240.0,0.0001595292123965919
256.0,0.0005382311646826565
288.0,-2.3548645913251676e-05
320.0,0.00024847901659086347
352.0,0.0002028848830377683
384.0,0.001315987086854875
416.0,0.0014933508355170488
448.0,0.0004445986996870488
480.0,0.0004187145095784217
512.0,-0.0001524200924905017
576.0,0.00031595173641107976
640.0,0.0013786846539005637
704.0,2.229705023637507e-05
768.0,-0.0002916460216511041
832.0,0.0010915083112195134
896.0,-7.5497587204154115e-06
960.0,-0.000322076550219208
1024.0,0.0006135896546766162
1152.0,0.0007804707856848836
1280.0,0.00020912128093186766
1408.0,-2.468789716658648e-05
1536.0,-0.00023191944637801498
1664.0,-0.00019110273569822311
1792.0,-0.00035764716449193656
1920.0,0.00033345987321808934
2048.0,-0.00011147425539093092
2304.0,9.250150469597429e-05
2560.0,-0.0003890709194820374
2816.0,-0.00124471599701792
3072.0,-0.0003082573530264199
3328.0,-0.0007102452218532562
3584.0,-0.0001959868532139808
3840.0,-0.0004877733008470386
4096.0,-0.0002381853701081127
4608.0,0.00045918000978417695
5120.0,0.00022938524489291012
5632.0,0.0002077808603644371
6144.0,0.00039789461879990995
6656.0,-2.0412906451383606e-05
7168.0,0.0002544609014876187
7680.0,-0.0005985369207337499
8192.0,-0.0005315440939739347
9216.0,-0.0005617726128548384
10240.0,-0.0003685549309011549
11264.0,3.9083741285139695e-05
12288.0,0.00016384462651330978
13312.0,0.0005704628420062363
14336.0,0.00013144165859557688
end
