version,3.0
numOfCh,1
type,point
parent_name,2-cuts
ch_type,1_1
kcount,1
numberNandB,1
brightnessNandB,1
carpet pos,0
pc,0
Time (ms),CH1 Auto-Correlation
1.0,0.01680081896483898
2.0,0.013756001368165016
3.0,0.011604934930801392
4.0,0.010070858523249626
5.0,0.008952924981713295
6.0,0.007981307804584503
7.0,0.007140349596738815
8.0,0.006450057495385408
9.0,0.005927807651460171
10.0,0.005454194266349077
11.0,0.005115758161991835
12.0,0.004782917909324169
13.0,0.004438241943717003
14.0,0.004152214620262384
15.0,0.00398435490205884
16.0,0.003794543445110321
18.0,0.0034281357657164335
20.0,0.003094511339440942
22.0,0.003060139948502183
24.0,0.0029626248870044947
26.0,0.0027849110774695873
28.0,0.002526032505556941
30.0,0.0023909397423267365
32.0,0.0021648623514920473
36.0,0.001589027582667768
40.0,0.0014104190049692988
44.0,0.0012924150796607137
48.0,0.001095656887628138
52.0,0.0006998341996222734
56.0,0.0005938925314694643
60.0,0.0006630182033404708
64.0,0.0007569734589196742
72.0,0.0007074266904965043
80.0,0.0004672337672673166
88.0,0.0005664312047883868
96.0,0.00042616011342033744
104.0,0.00010770820517791435
112.0,0.0002269906981382519
120.0,0.0005094660446047783
128.0,0.0006130710244178772
144.0,0.0006424449966289103
160.0,3.490616654744372e-05
176.0,-0.0001331269450020045
192.0,-0.0002020840474870056
208.0,9.501561726210639e-05
224.0,-0.00012080668966518715
240.0,0.0006470907246693969
256.0,0.0003301164833828807
288.0,1.121770401368849e-05
320.0,-0.0007803006446920335
352.0,-0.0002268656244268641
384.0,0.0003158234467264265
416.0,0.0005305996746756136
448.0,0.00018490928050596267
480.0,-8.81171872606501e-05
512.0,-0.0003825394669547677
576.0,0.00025265823933295906
640.0,-3.915482011507265e-05
704.0,-0.00022435215942095965
768.0,-0.0003935190907213837
832.0,-0.00018600162002258003
896.0,7.982290117070079e-05
960.0,0.00038410857087001204
1024.0,0.0008254072745330632
1152.0,8.001553942449391e-05
1280.0,-0.0005254260031506419
1408.0,-0.0005144576425664127
1536.0,-0.00043345821904949844
1664.0,-0.0003346191078890115
1792.0,-0.00017899260274134576
1920.0,1.5239913864206756e-06
2048.0,-0.0002048377355094999
2304.0,-0.00046239973744377494
2560.0,-0.00024515384575352073
2816.0,0.00010332441161153838
3072.0,0.0003886620397679508
3328.0,3.577198731363751e-05
3584.0,-4.395082942210138e-05
3840.0,9.69631364569068e-05
4096.0,0.0002345975663047284
4608.0,5.5998283642111346e-05
5120.0,-0.00021585146896541119
5632.0,-6.003984162816778e-05
6144.0,-7.195085345301777e-05
6656.0,0.0002439957606839016
7168.0,-5.184279507375322e-05
7680.0,0.00012002627045148984
8192.0,3.818444747594185e-05
9216.0,-7.16929862392135e-05
10240.0,-9.668665734352544e-05
11264.0,-5.113008955959231e-05
12288.0,-6.224066964932717e-06
13312.0,0.0002991721557918936
14336.0,8.209352381527424e-05
end
