version,3.0
numOfCh,1
type,point
parent_name,2-cuts
ch_type,1_1
kcount,1
numberNandB,1
brightnessNandB,1
carpet pos,0
pc,0
Time (ms),CH1 Auto-Correlation
1.0,0.028912605717778206
2.0,0.023994747549295425
3.0,0.020646171644330025
4.0,0.01819067820906639
5.0,0.016187798231840134
6.0,0.014818602241575718
7.0,0.013641689904034138
8.0,0.01248040609061718
9.0,0.011431091465055943
10.0,0.010546484962105751
11.0,0.009622388519346714
12.0,0.00899210013449192
13.0,0.008426119573414326
14.0,0.007921364158391953
15.0,0.007385409437119961
16.0,0.007107418030500412
18.0,0.006733288988471031
20.0,0.0063013979233801365
22.0,0.005725573282688856
24.0,0.005064250435680151
26.0,0.004681409802287817
28.0,0.004421310033649206
30.0,0.0043092211708426476
32.0,0.0038846759125590324
36.0,0.0033452895004302263
40.0,0.0031149659771472216
44.0,0.003056626534089446
48.0,0.002823717426508665
52.0,0.0027953777462244034
56.0,0.002451371168717742
60.0,0.0023288698866963387
64.0,0.0018671938451007009
72.0,0.0014331123093143106
80.0,0.0010044095106422901
88.0,0.0010724605526775122
96.0,0.002089650137349963
104.0,0.0024619644973427057
112.0,0.0018407459137961268
120.0,0.0010098465718328953
128.0,0.001265838509425521
144.0,0.0009246679837815464
160.0,5.653116022585891e-05
176.0,-0.000626322696916759
192.0,9.13341500563547e-05
208.0,0.0007125004776753485
224.0,0.00034081784542649984
240.0,0.000757326721213758
256.0,0.0012422925792634487
288.0,0.00041984926792792976
320.0,-0.0002720222983043641
352.0,-0.0006929287337698042
384.0,0.0003425550530664623
416.0,0.000722852535545826
448.0,-0.0005869690212421119
480.0,-0.0006498749135062099
512.0,1.7050675523933023e-05
576.0,-0.0005848163855262101
640.0,0.0004323387984186411
704.0,-0.00017413200112059712
768.0,1.507460547145456e-05
832.0,0.0007917888578958809
896.0,0.000415628805058077
960.0,0.0004039712657686323
1024.0,0.0005470213945955038
1152.0,-0.00034281041007488966
1280.0,-6.084730557631701e-05
1408.0,-0.0008732718415558338
1536.0,8.279751637019217e-05
1664.0,0.001117716426961124
1792.0,0.00040955451549962163
1920.0,-0.00023215843248181045
2048.0,-0.000809745688457042
2304.0,-0.00014050929166842252
2560.0,0.0005782510852441192
2816.0,0.0005883925477974117
3072.0,-0.0007545888656750321
3328.0,-0.0005439031519927084
3584.0,2.2460179025074467e-05
3840.0,-0.0009278947836719453
4096.0,-0.0001757804857334122
4608.0,-0.00019014900317415595
5120.0,0.0001536453200969845
5632.0,0.0001307287602685392
6144.0,0.0005833160830661654
6656.0,-0.0003919932642020285
7168.0,0.0004534524050541222
7680.0,-0.00033905476448126137
8192.0,-0.0007013644790276885
9216.0,-0.00029494447517208755
10240.0,-0.0006425860337913036
11264.0,-3.404157541808672e-05
12288.0,0.00025560689391568303
13312.0,7.65967124607414e-05
14336.0,0.0007775290869176388
end
