version,3.0
numOfCh,1
type,point
parent_name,2-cuts
ch_type,1_1
kcount,1
numberNandB,1
brightnessNandB,1
carpet pos,0
pc,0
Time (ms),CH1 Auto-Correlation
1.0,0.027702243998646736
2.0,0.022861747071146965
3.0,0.019433140754699707
4.0,0.016922833397984505
5.0,0.015029649250209332
6.0,0.013505577109754086
7.0,0.012474891729652882
8.0,0.011408468708395958
9.0,0.010552022606134415
10.0,0.009769115597009659
11.0,0.009035497903823853
12.0,0.008545352146029472
13.0,0.007927208207547665
14.0,0.007285541854798794
15.0,0.006800488568842411
16.0,0.00643956707790494
18.0,0.005878913216292858
20.0,0.005460950080305338
22.0,0.005198582541197538
24.0,0.005074656568467617
26.0,0.004978323355317116
28.0,0.004652474541217089
30.0,0.0045143305324018
32.0,0.004504119977355003
36.0,0.003968432545661926
40.0,0.003424369264394045
44.0,0.0031522575300186872
48.0,0.003121201880276203
52.0,0.0031688970047980547
56.0,0.0029920886736363173
60.0,0.0024601034820079803
64.0,0.002017854480072856
72.0,0.0015561184845864773
80.0,0.0015455067623406649
88.0,0.0013239277759566903
96.0,0.0013270435156300664
104.0,0.0005710035911761224
112.0,0.00020256063726264983
120.0,-0.0002472293272148818
128.0,-0.00029187052859924734
144.0,0.00041890685679391026
160.0,0.0002898298262152821
176.0,0.0007302515441551805
192.0,0.0002503321156837046
208.0,0.000633267336525023
224.0,0.0005264854989945889
240.0,0.0003003987658303231
256.0,0.0008277378510683775
288.0,0.00014608488709200174
320.0,1.885105848487001e-05
352.0,-0.0007471488206647336
384.0,-0.00020036761998198926
416.0,-8.464809798169881e-05
448.0,-0.0011076820082962513
480.0,-0.0010504474630579352
512.0,-0.001684930408373475
576.0,-0.00045374251203611493
640.0,0.00010051389836007729
704.0,0.00010267550533171743
768.0,-0.0011264156782999635
832.0,-0.00032871600706130266
896.0,-0.00013068060798104852
960.0,6.272291648201644e-05
1024.0,0.0002046448498731479
1152.0,0.00015139456081669778
1280.0,0.00022378182620741427
1408.0,-0.0007866407395340502
1536.0,-0.0008026923751458526
1664.0,-0.00036525994073599577
1792.0,-0.00042279859189875424
1920.0,0.00010717177792685106
2048.0,-1.3048114624325535e-06
2304.0,-0.00044629827607423067
2560.0,0.00022896322479937226
2816.0,0.00044477565097622573
3072.0,-0.00027642122586257756
3328.0,-0.0004103427636437118
3584.0,0.0006905572954565287
3840.0,0.0009764877031557262
4096.0,1.7628195564611815e-05
4608.0,-0.0004720080178231001
5120.0,0.0003743278211914003
5632.0,-0.0004858501779381186
6144.0,0.00017106079030781984
6656.0,3.087847289862111e-05
7168.0,-6.74798502586782e-05
7680.0,0.0005325191305018961
8192.0,-0.0009875799296423793
9216.0,-0.0002266189840156585
10240.0,-3.974203355028294e-05
11264.0,0.0005576529074460268
12288.0,0.00035291057429276407
13312.0,-0.0002040108956862241
14336.0,-0.0005840523517690599
end
