version,3.0
numOfCh,1
type,point
parent_name,2-cuts
ch_type,1_1
kcount,1
numberNandB,1
brightnessNandB,1
carpet pos,0
pc,0
Time (ms),CH1 Auto-Correlation
1.0,0.0180304367095232
2.0,0.015031601302325726
3.0,0.012919583357870579
4.0,0.01136351004242897
5.0,0.010254436172544956
6.0,0.00932377576828003
7.0,0.008485250174999237
8.0,0.0076748826541006565
9.0,0.006923605687916279
10.0,0.0062780315056443214
11.0,0.005701153073459864
12.0,0.005312696564942598
13.0,0.005019636824727058
14.0,0.004670910537242889
15.0,0.004293155390769243
16.0,0.004002372734248638
18.0,0.0036690200213342905
20.0,0.0033810243476182222
22.0,0.0030745246913284063
24.0,0.0027023600414395332
26.0,0.002531631151214242
28.0,0.002367790788412094
30.0,0.0021190885454416275
32.0,0.002021328778937459
36.0,0.0016629131278023124
40.0,0.0018925736658275127
44.0,0.0017742277123034
48.0,0.0015214479062706232
52.0,0.0013297300320118666
56.0,0.0012522932374849916
60.0,0.0011484986171126366
64.0,0.0012509322259575129
72.0,0.001141778309829533
80.0,0.001140570268034935
88.0,0.001191534916870296
96.0,0.0009280554368160665
104.0,0.0005203325999900699
112.0,0.0008114888914860785
120.0,0.0010077324695885181
128.0,0.0010075932368636131
144.0,0.000918447389267385
160.0,0.0004975846968591213
176.0,8.200162119464949e-05
192.0,-0.000179507871507667
208.0,-0.0002466403821017593
224.0,0.0003277025243733078
240.0,0.0007983723771758378
256.0,0.0006620176136493683
288.0,0.00012092226825188845
320.0,0.00037680790410377085
352.0,0.0011535340454429388
384.0,0.0004657038953155279
416.0,-0.00021167878003325313
448.0,-0.0008942915010266006
480.0,-0.00016830686945468187
512.0,3.968128658016212e-05
576.0,-0.0003813499351963401
640.0,0.000499295478221029
704.0,0.00026100437389686704
768.0,4.158535011811182e-05
832.0,-0.0003918597649317235
896.0,0.00010937954357359558
960.0,-0.0001988293370231986
1024.0,0.00039499971899203956
1152.0,0.00023095789947547019
1280.0,0.0001823350612539798
1408.0,-3.538043165463023e-05
1536.0,6.181260687299073e-06
1664.0,-0.0002124243474099785
1792.0,0.00032025674590840936
1920.0,0.0003525805368553847
2048.0,0.0002527503529563546
2304.0,0.00014213667600415647
2560.0,4.0556977182859555e-05
2816.0,-0.00035278574796393514
3072.0,-0.0002500487316865474
3328.0,0.00014194902905728668
3584.0,-3.0413568310905248e-05
3840.0,-0.00018107880896423012
4096.0,-0.0006088627269491553
4608.0,-0.000131706110551022
5120.0,-0.0005533700459636748
5632.0,-0.0003920858143828809
6144.0,-0.00013973788009025156
6656.0,5.0247141189174727e-05
7168.0,8.739893382880837e-05
7680.0,-0.0003564699727576226
8192.0,3.582271165214479e-05
9216.0,0.0002767718688119203
10240.0,0.0002863618719857186
11264.0,-0.0001480984064983204
12288.0,-0.00013334359391592443
13312.0,-0.0002253730344818905
14336.0,-0.0001580615498824045
end
