version,3.0
numOfCh,1
type,point
parent_name,2-cuts
ch_type,1_1
kcount,1
numberNandB,1
brightnessNandB,1
carpet pos,0
pc,0
Time (ms),CH1 Auto-Correlation
1.0,0.026151226833462715
2.0,0.021026190370321274
3.0,0.01740083657205105
4.0,0.014749851077795029
5.0,0.012740867212414742
6.0,0.011091954074800014
7.0,0.009825917892158031
8.0,0.008817787282168865
9.0,0.008168122731149197
10.0,0.007514052093029022
11.0,0.007145886775106192
12.0,0.006732617970556021
13.0,0.006440191529691219
14.0,0.006150341127067804
15.0,0.005842024926096201
16.0,0.005445974413305521
18.0,0.004966183565557003
20.0,0.004330467898398638
22.0,0.0036198957823216915
24.0,0.0030089307110756636
26.0,0.0027244742959737778
28.0,0.002437823684886098
30.0,0.0023057381622493267
32.0,0.002259672386571765
36.0,0.0022816688288003206
40.0,0.0018109226366505027
44.0,0.0018628548132255673
48.0,0.0022258830722421408
52.0,0.0024404535070061684
56.0,0.0020910180173814297
60.0,0.0018119614105671644
64.0,0.0017337178578600287
72.0,0.0012695279438048601
80.0,0.0014991110656410456
88.0,0.001266064471565187
96.0,0.0015896579716354609
104.0,0.0013147947611287236
112.0,0.000809775956440717
120.0,0.0005554995150305331
128.0,0.0008853697218000889
144.0,8.442570447186881e-07
160.0,0.0003360516857355833
176.0,0.0005256280419416726
192.0,3.5601558920461684e-05
208.0,-0.00029534651548601687
224.0,0.0009638135670684278
240.0,0.001104168244637549
256.0,0.0015991986729204655
288.0,0.00021803463459946215
320.0,0.0006624622619710863
352.0,2.5555611500749364e-05
384.0,0.0003220979997422546
416.0,-2.7514070097822696e-06
448.0,6.231704901438206e-05
480.0,-0.00013907164975535125
512.0,-0.0005418329383246601
576.0,-0.000270768505288288
640.0,0.00043451940291561186
704.0,-0.00014796433970332146
768.0,-8.894316852092743e-05
832.0,0.00048330670688301325
896.0,0.0009336750372312963
960.0,0.00045092214713804424
1024.0,0.00048447283916175365
1152.0,0.0005608294741250575
1280.0,0.0003862419107463211
1408.0,-0.00026055405032821
1536.0,-5.332068758434616e-05
1664.0,-0.0012300042435526848
1792.0,-0.00010114588803844526
1920.0,-0.00048130826326087117
2048.0,0.000681547389831394
2304.0,0.0002917767269536853
2560.0,-1.1628726497292519e-05
2816.0,-0.0004432073328644037
3072.0,-0.0002324096130905673
3328.0,0.0001881030184449628
3584.0,0.00012378557585179806
3840.0,-0.00019912213610950857
4096.0,-2.578532075858675e-06
4608.0,5.8267069107387215e-05
5120.0,-0.0003595196467358619
5632.0,-8.00011694082059e-05
6144.0,-0.0005004616687074304
6656.0,2.8121643481426872e-05
7168.0,0.00023050695017445832
7680.0,-5.531706847250462e-06
8192.0,0.0006222579395398498
9216.0,6.531812687171623e-05
10240.0,2.636180397530552e-06
11264.0,-0.0005175169790163636
12288.0,-0.000312058866256848
13312.0,-0.0004435135633684695
14336.0,-0.000917416182346642
end
