version,3.0
numOfCh,1
type,point
parent_name,2-cuts
ch_type,1_1
kcount,1
numberNandB,1
brightnessNandB,1
carpet pos,0
pc,0
Time (ms),CH1 Auto-Correlation
1.0,0.015314062125980854
2.0,0.012494761496782303
3.0,0.01048678532242775
4.0,0.009003710001707077
5.0,0.007794369012117386
6.0,0.006935339421033859
7.0,0.006193524692207575
8.0,0.005583172198385
9.0,0.005057549104094505
10.0,0.004600692540407181
11.0,0.004231738392263651
12.0,0.0039031575433909893
13.0,0.003590705804526806
14.0,0.003207505214959383
15.0,0.0028091981075704098
16.0,0.002518631983548403
18.0,0.0020949989557266235
20.0,0.001720194355584681
22.0,0.0016824969789013267
24.0,0.0016882849158719182
26.0,0.0015380149707198143
28.0,0.0015732370084151626
30.0,0.0014705088688060641
32.0,0.001394597697071731
36.0,0.00133856653701514
40.0,0.0013118463102728128
44.0,0.0012041060253977776
48.0,0.0010336677078157663
52.0,0.0008323986548930407
56.0,0.0009420076385140419
60.0,0.0009644997189752758
64.0,0.0008602598682045937
72.0,0.00034321832936257124
80.0,-0.00031459570163860917
88.0,-0.0006667001289315522
96.0,-0.0008017485379241407
104.0,-0.000477775203762576
112.0,6.042604582034983e-05
120.0,-7.250034104799852e-05
128.0,-0.000475678505608812
144.0,-0.0007320992881432176
160.0,-0.00026409313431940973
176.0,0.0005299616605043411
192.0,0.0004999675438739359
208.0,0.0007789830560795963
224.0,0.0008563363808207214
240.0,0.0005166329792700708
256.0,0.000624605396296829
288.0,0.0003912726533599198
320.0,-0.0004421104968059808
352.0,-0.0002825594274327159
384.0,-2.937306089734193e-05
416.0,-0.0001968316937563941
448.0,-0.00021173582354094833
480.0,7.253979856614023e-05
512.0,-4.6007307901163585e-06
576.0,-0.0002163300378015265
640.0,0.00014158453268464655
704.0,2.7128649890073575e-05
768.0,0.00012166049418738112
832.0,-0.00027587160002440214
896.0,0.00011789135896833614
960.0,-0.0003435681574046612
1024.0,6.388572364812717e-05
1152.0,-7.176592043833807e-05
1280.0,0.0002618175931274891
1408.0,0.0003166933311149478
1536.0,0.00020163613953627646
1664.0,0.00018801828264258802
1792.0,4.4812317355535924e-05
1920.0,-0.00019361419253982604
2048.0,-0.00025980157079175115
2304.0,0.00015403391444124281
2560.0,-0.00010879353067139164
2816.0,-0.00015100996824912727
3072.0,-0.00014416498015634716
3328.0,-0.0003541464975569397
3584.0,-0.00014586358156520873
3840.0,-6.918421422597021e-05
4096.0,-0.00016808621876407415
4608.0,-0.00015571642143186182
5120.0,-2.629102164064534e-05
5632.0,-1.7293688188146916e-06
6144.0,7.09730084054172e-05
6656.0,-1.4071720215724781e-05
7168.0,0.0001611316838534549
7680.0,0.0001857666065916419
8192.0,-0.00015507616626564413
9216.0,-9.209603376802988e-06
10240.0,-0.00013698177644982934
11264.0,-2.4625313017168082e-05
12288.0,-1.7422245946363546e-05
13312.0,-8.685996726853773e-05
14336.0,0.00039900350384414196
end
