version,3.0
numOfCh,1
type,point
parent_name,2-cuts
ch_type,1_1
kcount,1
numberNandB,1
brightnessNandB,1
carpet pos,0
pc,0
Time (ms),CH1 Auto-Correlation
1.0,0.015615368261933327
2.0,0.01262744888663292
3.0,0.010532395914196968
4.0,0.008950338698923588
5.0,0.007702841889113188
6.0,0.0067500947043299675
7.0,0.005973001942038536
8.0,0.0053877378813922405
9.0,0.00504085561260581
10.0,0.004678645171225071
11.0,0.004326830618083477
12.0,0.003993294667452574
13.0,0.0037292607594281435
14.0,0.0034700781106948853
15.0,0.0032891440205276012
16.0,0.00301161827519536
18.0,0.002712830202654004
20.0,0.0025008940137922764
22.0,0.002296069171279669
24.0,0.0022800806909799576
26.0,0.0023221999872475863
28.0,0.0021216291934251785
30.0,0.0019963402301073074
32.0,0.0019131340086460114
36.0,0.0016223319107666612
40.0,0.0014553345972672105
44.0,0.0014429631410166621
48.0,0.0014014198677614331
52.0,0.0013751127989962697
56.0,0.001208617934025824
60.0,0.0009618052863515913
64.0,0.0007689174963161349
72.0,0.0007055388996377587
80.0,0.0006157491588965058
88.0,0.0002962118305731565
96.0,-0.0004474417364690453
104.0,-0.00048489239998161793
112.0,4.457119302969659e-06
120.0,8.503816206939518e-05
128.0,3.046206256840378e-05
144.0,-6.647779810009524e-05
160.0,-0.00013451915583573282
176.0,-0.00020715009304694831
192.0,0.00013331677473615855
208.0,-0.00039820405072532594
224.0,-0.00041156419320032
240.0,1.508330024080351e-05
256.0,-8.559301204513758e-05
288.0,-0.0002776544715743512
320.0,-0.000320144317811355
352.0,-0.0005261101759970188
384.0,-0.000762386538553983
416.0,-0.0006905495538376272
448.0,-0.00021366382134146988
480.0,-3.8002121982572135e-06
512.0,-9.821083949645981e-06
576.0,0.00012934325786773115
640.0,0.00028258434031158686
704.0,0.00041554219205863774
768.0,0.0002859761589206755
832.0,-4.292236553737894e-05
896.0,-0.0002255261642858386
960.0,-2.5935787562048063e-05
1024.0,-1.1571891263884027e-05
1152.0,-2.185448283853475e-05
1280.0,-8.502230048179626e-05
1408.0,-0.00011711190018104389
1536.0,-0.00016720671555958688
1664.0,-0.00013166839198675007
1792.0,0.00026839037309400737
1920.0,-6.116845906944945e-05
2048.0,-0.00017395915347151458
2304.0,-0.00011166481272084638
2560.0,0.0001314258697675541
2816.0,-0.00028613931499421597
3072.0,-0.00014190550427883863
3328.0,0.00037186764529906213
3584.0,-0.00011948686733376235
3840.0,0.00010076174658024684
4096.0,0.00016599784430582076
4608.0,-2.2450019969255663e-05
5120.0,-9.99301191768609e-05
5632.0,6.816154927946627e-05
6144.0,-0.00030281287035904825
6656.0,0.00022234595962800086
7168.0,-0.0001613296481082216
7680.0,5.9548139688558877e-05
8192.0,-1.586666257935576e-05
9216.0,6.787262827856466e-05
10240.0,-6.804686563555151e-05
11264.0,2.044730535999406e-05
12288.0,2.448467057547532e-05
13312.0,-7.458292384399101e-05
14336.0,-1.5366338629974052e-05
end
