version,3.0
numOfCh,1
type,point
parent_name,2-cuts
ch_type,1_1
kcount,1
numberNandB,1
brightnessNandB,1
carpet pos,0
pc,0
Time (ms),CH1 Auto-Correlation
1.0,0.01772729493677616
2.0,0.014784503728151321
3.0,0.012599995359778404
4.0,0.01100226491689682
5.0,0.009649326093494892
6.0,0.0086269685998559
7.0,0.00775024713948369
8.0,0.0071454462595283985
9.0,0.006642782595008612
10.0,0.006111050024628639
11.0,0.005748629570007324
12.0,0.005520392209291458
13.0,0.005258425138890743
14.0,0.005023995414376259
15.0,0.004718184936791658
16.0,0.004476682748645544
18.0,0.004092450253665447
20.0,0.003642042400315404
22.0,0.0032000294886529446
24.0,0.003102194517850876
26.0,0.0030967353377491236
28.0,0.002856986364349723
30.0,0.002648415509611368
32.0,0.0024389284662902355
36.0,0.0023362021893262863
40.0,0.0022145065013319254
44.0,0.0018389461329206824
48.0,0.0017941487021744251
52.0,0.00176231749355793
56.0,0.0016378929140046239
60.0,0.0013355030678212643
64.0,0.0010316180996596813
72.0,0.0005500465631484985
80.0,0.0008924254216253757
88.0,0.001481926068663597
96.0,0.0015301943058148026
104.0,0.0013869269751012325
112.0,0.0008750378619879484
120.0,0.000613082607742399
128.0,0.00046575660235248506
144.0,-0.0002547914336901158
160.0,-0.00016137000056914985
176.0,0.0003192966687493026
192.0,0.0004875226295553148
208.0,-0.00028111733263358474
224.0,-2.16116077353945e-05
240.0,0.0001463941007386893
256.0,-0.0004823445633519441
288.0,-0.0002047363668680191
320.0,-0.0003284038102719933
352.0,-0.0002153657260350883
384.0,-0.00015159464965108782
416.0,-0.00043878654832951725
448.0,-0.0005309900734573603
480.0,-0.000380971614504233
512.0,0.0002305904490640387
576.0,0.0005737127503380179
640.0,0.00026760995388031006
704.0,-0.00021930239745415747
768.0,-0.0005285756196826696
832.0,-0.000244115071836859
896.0,-2.5862804250209592e-05
960.0,-0.00023707591753918678
1024.0,-0.0002735776361078024
1152.0,0.00019310977950226516
1280.0,-0.0004644637810997665
1408.0,-0.0005997600965201855
1536.0,-0.00029610240017063916
1664.0,0.0007232596981339157
1792.0,0.0002302794746356085
1920.0,-0.0005940383416600525
2048.0,-0.0002749446139205247
2304.0,-0.00016542960656806827
2560.0,-0.00045311733265407383
2816.0,-0.00019539662753231823
3072.0,0.00021026961621828377
3328.0,3.5469067825033562e-06
3584.0,-0.00014224006736185402
3840.0,0.0002782528172247112
4096.0,0.0001888395636342466
4608.0,5.7136090617859736e-05
5120.0,0.0005541343125514686
5632.0,-0.00019639004312921315
6144.0,-0.0003631051804404706
6656.0,0.00011045463179470971
7168.0,-0.00033768400317057967
7680.0,-9.729793237056583e-05
8192.0,-2.5159521101159044e-05
9216.0,-0.00019624079868663102
10240.0,0.0002090588677674532
11264.0,-0.00016577592759858817
12288.0,3.127686431980692e-05
13312.0,0.00023424775281455368
14336.0,-0.00031739065889269114
end
