version,3.0
numOfCh,1
type,point
parent_name,2-cuts
ch_type,1_1
kcount,1
numberNandB,1
brightnessNandB,1
carpet pos,0
pc,0
Time (ms),CH1 Auto-Correlation
1.0,0.016697579994797707
2.0,0.013691743835806847
3.0,0.011624231934547424
4.0,0.010074635036289692
5.0,0.008919358253479004
6.0,0.008081052452325821
7.0,0.007488192990422249
8.0,0.0069666760973632336
9.0,0.0065216971561312675
10.0,0.006020914763212204
11.0,0.005581140052527189
12.0,0.0051528168842196465
13.0,0.0047650085762143135
14.0,0.004448722582310438
15.0,0.004135538823902607
16.0,0.0036821849644184113
18.0,0.003318343311548233
20.0,0.002994185546413064
22.0,0.0027694066520780325
24.0,0.0024772505275905132
26.0,0.0021389969624578953
28.0,0.0019721698481589556
30.0,0.0019011178519576788
32.0,0.0017445491394028068
36.0,0.0016510420246049762
40.0,0.0014336550375446677
44.0,0.0013629484456032515
48.0,0.001524406485259533
52.0,0.001636647735722363
56.0,0.0017101896228268743
60.0,0.001535132061690092
64.0,0.0014644681941717863
72.0,0.0009456284460611641
80.0,0.0005235268617980182
88.0,0.0006473474204540253
96.0,0.0008279951871372759
104.0,0.0005648541846312582
112.0,0.000408614898333326
120.0,-0.00028082454809919
128.0,-0.0006724956328980625
144.0,-0.0002064474392682314
160.0,0.0004239737754687667
176.0,0.0006317960214801133
192.0,0.000399083539377898
208.0,0.00012162546045146883
224.0,-0.00030553515534847975
240.0,-0.000509635778144002
256.0,-0.000298675789963454
288.0,0.0002973780792672187
320.0,0.00028106989338994026
352.0,0.0003051227249670774
384.0,-6.150722765596583e-05
416.0,-0.0005992983351461589
448.0,-0.00028781144646927714
480.0,-0.00016094469174277037
512.0,5.874245835002512e-05
576.0,0.00024593836860731244
640.0,-0.0001243075093952939
704.0,0.00012981767940800637
768.0,0.0005042060511186719
832.0,0.00023755656729917973
896.0,-0.00020912339095957577
960.0,-0.000756460998672992
1024.0,-0.0001431562122888863
1152.0,0.0001395183353452012
1280.0,-9.23904954106547e-05
1408.0,0.00042079563718289137
1536.0,0.0008454545168206096
1664.0,0.0004516929911915213
1792.0,1.5225085007841699e-05
1920.0,4.1156068618875e-05
2048.0,-3.237439159420319e-05
2304.0,-0.0001410002150805667
2560.0,-0.0005174126126803458
2816.0,0.0001846842933446169
3072.0,0.0003020326257683337
3328.0,-0.00011854148033307865
3584.0,0.00012636976316571236
3840.0,-0.000537336862180382
4096.0,-0.000788173929322511
4608.0,0.0001488273701397702
5120.0,-1.0616154213494156e-06
5632.0,-0.0005118486587889493
6144.0,6.356465019052848e-05
6656.0,-0.0002495237276889384
7168.0,-0.0005090629565529525
7680.0,0.00031337657128460705
8192.0,-2.586506980151171e-06
9216.0,0.00019576188060455024
10240.0,0.00018947628268506378
11264.0,-1.5829496987862512e-05
12288.0,-0.00013450089318212122
13312.0,-0.00042841353570111096
14336.0,7.689210178796202e-05
end
