version,3.0
numOfCh,1
type,point
parent_name,2-cuts
ch_type,1_1
kcount,1
numberNandB,1
brightnessNandB,1
carpet pos,0
pc,0
Time (ms),CH1 Auto-Correlation
1.0,0.015565825626254082
2.0,0.012533598579466343
3.0,0.01052064448595047
4.0,0.008991926908493042
5.0,0.007863166742026806
6.0,0.006980698090046644
7.0,0.00631183385848999
8.0,0.005679233931005001
9.0,0.005301347002387047
10.0,0.004927110392600298
11.0,0.004610773641616106
12.0,0.004287576302886009
13.0,0.004012489225715399
14.0,0.0038143012207001448
15.0,0.003537967102602124
16.0,0.003345077158883214
18.0,0.0028996234759688377
20.0,0.002662253798916936
22.0,0.002482568146660924
24.0,0.0021718849893659353
26.0,0.0020003493409603834
28.0,0.0018221737118437886
30.0,0.0016945835668593645
32.0,0.0016383660258725286
36.0,0.0017520952969789505
40.0,0.0017421833472326398
44.0,0.0016889955149963498
48.0,0.001764135668054223
52.0,0.0014999340055510402
56.0,0.0015821816632524133
60.0,0.0017496104119345546
64.0,0.001752319629304111
72.0,0.0011874757474288344
80.0,0.001108309137634933
88.0,0.0007507483824156225
96.0,0.0003963581984862685
104.0,0.0003033014654647559
112.0,1.6813022739370354e-05
120.0,0.0001590616739122197
128.0,0.00044637423707172275
144.0,0.0009700296795926988
160.0,0.0006436232361011207
176.0,0.00041184548172168434
192.0,0.0002132556983269751
208.0,0.00030305900145322084
224.0,0.0007176281069405377
240.0,0.0002079002879327163
256.0,-0.000197939298232086
288.0,-5.423833863460459e-05
320.0,0.00020955187210347503
352.0,4.116785203223117e-05
384.0,0.0005403801915235817
416.0,9.131021215580404e-05
448.0,0.0001826843072194606
480.0,0.00015694137255195528
512.0,8.229596278397366e-05
576.0,2.334060991415754e-05
640.0,0.00046562153147533536
704.0,0.00031297275563701987
768.0,9.140528709394857e-05
832.0,0.00030572692048735917
896.0,0.00032526388531550765
960.0,-0.00038398057222366333
1024.0,-0.000293843011604622
1152.0,-0.00022204851848073304
1280.0,-0.00021737965289503336
1408.0,-0.00033600954338908195
1536.0,-0.00016096915351226926
1664.0,-0.00013475416926667094
1792.0,0.00031813341774977744
1920.0,0.0002822444948833436
2048.0,-0.00011392861779313534
2304.0,-5.4563213780056685e-05
2560.0,-0.00020450302690733224
2816.0,0.00012894507381133735
3072.0,0.00010049792035715654
3328.0,-0.0002466715523041785
3584.0,7.089541759341955e-05
3840.0,0.0003131056728307158
4096.0,-8.801493095234036e-05
4608.0,-0.00012519813026301563
5120.0,-0.000357802928192541
5632.0,-0.0002680523321032524
6144.0,-0.00038072673487477005
6656.0,-0.00020601533469744027
7168.0,1.556760435050819e-05
7680.0,0.0001917227782541886
8192.0,0.00022913898283150047
9216.0,-0.0002744656812865287
10240.0,-4.932233878207626e-06
11264.0,0.00032606988679617643
12288.0,-0.00010234475485049188
13312.0,-8.929273462854326e-05
14336.0,0.0003764127322938293
end
