version,3.0
numOfCh,1
type,point
parent_name,2-cuts
ch_type,1_1
kcount,1
numberNandB,1
brightnessNandB,1
carpet pos,0
pc,0
Time (ms),CH1 Auto-Correlation
1.0,0.015704642981290817
2.0,0.012759492732584476
3.0,0.010760650970041752
4.0,0.009202918969094753
5.0,0.00809454545378685
6.0,0.0071454425342381
7.0,0.006332301069051027
8.0,0.005666536279022694
9.0,0.0050878096371889114
10.0,0.004757988266646862
11.0,0.0042898827232420444
12.0,0.0038941572420299053
13.0,0.0034363192971795797
14.0,0.0031021786853671074
15.0,0.0027592801488935947
16.0,0.002429775893688202
18.0,0.0020953661296516657
20.0,0.0015793564962223172
22.0,0.0012803379213437438
24.0,0.0011005006963387132
26.0,0.0010164655977860093
28.0,0.0009891254594549537
30.0,0.0008349777199327946
32.0,0.0007216159719973803
36.0,0.0007306424668058753
40.0,0.0007098398054949939
44.0,0.0005012133624404669
48.0,0.000576361024286598
52.0,0.0006771580083295703
56.0,0.0005504344590008259
60.0,0.0007023734506219625
64.0,0.0006918955477885902
72.0,0.00038265305920504034
80.0,-6.759104871889576e-05
88.0,-3.0186425647116266e-05
96.0,0.0001784315099939704
104.0,0.00036370300222188234
112.0,0.00040678042569197714
120.0,6.118419696576893e-05
128.0,-0.00013875518925487995
144.0,-0.0002569076023064554
160.0,-0.00015567211084999144
176.0,0.0002042577980319038
192.0,0.0002579872088972479
208.0,0.0003348156751599163
224.0,0.0002623537729959935
240.0,0.00011074103531427681
256.0,0.00011152557999594137
288.0,-0.00026380104827694595
320.0,3.1230802051140927e-06
352.0,-0.00030425930162891746
384.0,-0.000293343240628019
416.0,-0.0001485891261836514
448.0,-0.00020658134599216282
480.0,-0.0003081467002630234
512.0,0.00015116452414076775
576.0,-0.00020680854504462332
640.0,-0.0003240373916924
704.0,7.135626947274432e-05
768.0,0.0001144046982517466
832.0,3.8612601201748475e-05
896.0,0.0003422750742174685
960.0,0.000138806106406264
1024.0,2.902613596234005e-05
1152.0,-4.1564879211364314e-05
1280.0,0.0001624361757421866
1408.0,-0.00029914084007032216
1536.0,-0.0002557967964094132
1664.0,-6.592983845621347e-05
1792.0,0.00015336438082158566
1920.0,-0.0002536308311391622
2048.0,8.245927892858163e-05
2304.0,-7.717376865912229e-05
2560.0,-6.756564107490703e-05
2816.0,-0.0001518173230579123
3072.0,3.6172594263916835e-05
3328.0,0.0001420992484781891
3584.0,-0.0001322367024840787
3840.0,0.00014973031647969037
4096.0,0.00021064994507469237
4608.0,-8.060282561928034e-05
5120.0,1.0552548701525666e-06
5632.0,-0.00011176475527463481
6144.0,-3.764476059586741e-05
6656.0,0.00014443963300436735
7168.0,0.00010515996837057173
7680.0,-0.00013860463513992727
8192.0,1.6756008335505612e-05
9216.0,-8.265236101578921e-05
10240.0,9.442495502298698e-05
11264.0,-3.512734474497847e-05
12288.0,-0.00016634070198051631
13312.0,-0.0001054359890986234
14336.0,0.00019905871886294335
end
