version,3.0
numOfCh,1
type,point
parent_name,2-cuts
ch_type,1_1
kcount,1
numberNandB,1
brightnessNandB,1
carpet pos,0
pc,0
Time (ms),CH1 Auto-Correlation
1.0,0.016998164355754852
2.0,0.0141324857249856
3.0,0.012063052505254745
4.0,0.010574123822152615
5.0,0.009419960901141167
6.0,0.008508972823619843
7.0,0.007741914596408606
8.0,0.0070606861263513565
9.0,0.006572278216481209
10.0,0.006081255152821541
11.0,0.005585321690887213
12.0,0.0052820052951574326
13.0,0.00495515251532197
14.0,0.004734127316623926
15.0,0.0046122511848807335
16.0,0.004438356962054968
18.0,0.00410317350178957
20.0,0.0038209601771086454
22.0,0.003617712529376149
24.0,0.0034059234894812107
26.0,0.0032840073108673096
28.0,0.003037976333871484
30.0,0.0028325377497822046
32.0,0.0026706294156610966
36.0,0.0023443414829671383
40.0,0.0022832294926047325
44.0,0.0022564802784472704
48.0,0.002329600276425481
52.0,0.0020916492212563753
56.0,0.0019118572818115354
60.0,0.0016301741125062108
64.0,0.0011740127811208367
72.0,0.0007767011993564665
80.0,0.0004566422139760107
88.0,0.0005394218605943024
96.0,0.00033332171733491123
104.0,0.00026713046827353537
112.0,0.00022227157023735344
120.0,0.00020162352302577347
128.0,0.0003914213157258928
144.0,0.00013903281069360673
160.0,0.00030207730014808476
176.0,4.254070154274814e-05
192.0,-6.73838221700862e-05
208.0,7.911183638498187e-05
224.0,0.0003021741867996752
240.0,0.0007158304797485471
256.0,0.0006980280741117895
288.0,0.0004928884445689619
320.0,0.0006095122662372887
352.0,3.960747562814504e-05
384.0,-0.00024455832317471504
416.0,-4.86667595396284e-05
448.0,-0.00029434956377372146
480.0,-0.00015756046923343092
512.0,-0.0008035795181058347
576.0,-0.0006162159261293709
640.0,0.0005060923867858946
704.0,0.00019536042236723006
768.0,-0.0005331785650923848
832.0,-0.000520379631780088
896.0,0.00023508933372795582
960.0,0.00013299872807692736
1024.0,-9.943153418134898e-05
1152.0,0.0002179732546210289
1280.0,0.00012749721645377576
1408.0,-0.00016738603881094605
1536.0,0.00025328382616862655
1664.0,-0.00029387694667093456
1792.0,0.0002446014550514519
1920.0,-0.0001224901934619993
2048.0,0.0004064260283485055
2304.0,-0.00043257151264697313
2560.0,6.163596117403358e-05
2816.0,0.00013389010564424098
3072.0,-2.1221459974185564e-05
3328.0,-3.385915078979451e-06
3584.0,3.694389670272358e-05
3840.0,-5.3860534535488114e-05
4096.0,-0.00016825438069645315
4608.0,-0.00019721436547115445
5120.0,-0.0004485551326069981
5632.0,0.00012242619413882494
6144.0,0.00016318043344654143
6656.0,4.307213021093048e-05
7168.0,-1.3898620636609849e-05
7680.0,-0.00034259347012266517
8192.0,0.00018517806893214583
9216.0,-0.00024697266053408384
10240.0,3.630872015492059e-05
11264.0,-0.0004178456438239664
12288.0,0.0005501178093254566
13312.0,-0.000744535936973989
14336.0,0.0009070425876416266
end
