version,3.0
numOfCh,1
type,point
parent_name,2-cuts
ch_type,1_1
kcount,1
numberNandB,1
brightnessNandB,1
carpet pos,0
pc,0
Time (ms),CH1 Auto-Correlation
1.0,0.016065331175923347
2.0,0.013139225542545319
3.0,0.011117089539766312
4.0,0.009539764374494553
5.0,0.008261403068900108
6.0,0.007369494531303644
7.0,0.006674213334918022
8.0,0.006056881509721279
9.0,0.00550016388297081
10.0,0.004910661373287439
11.0,0.004388394765555859
12.0,0.004080323968082666
13.0,0.0038215203676372766
14.0,0.0035678374115377665
15.0,0.00327816279605031
16.0,0.0030049558263272047
18.0,0.0025217202492058277
20.0,0.0022723369766026735
22.0,0.001965208211913705
24.0,0.0015188453253358603
26.0,0.0010950504802167416
28.0,0.0008297596941702068
30.0,0.0008332229335792363
32.0,0.0008705434156581759
36.0,0.0012442070292308927
40.0,0.0012071534292772412
44.0,0.0011094140354543924
48.0,0.001201415085233748
52.0,0.001070439233444631
56.0,0.0011989857302978635
60.0,0.001211916795000434
64.0,0.0012959104496985674
72.0,0.0011723411735147238
80.0,0.001056324690580368
88.0,0.00069103401619941
96.0,0.0007605988648720086
104.0,0.0002973880909848958
112.0,0.0003307303413748741
120.0,0.0004970963345840573
128.0,0.000851974356919527
144.0,0.0005163784371688962
160.0,-0.00017148918414022774
176.0,-0.00037173586315475404
192.0,-7.334141992032528e-05
208.0,-0.00022787146735936403
224.0,-4.146468927501701e-05
240.0,0.00030460776179097593
256.0,0.00016432211850769818
288.0,8.372008596779779e-05
320.0,0.00019643723499029875
352.0,9.47559965425171e-05
384.0,-0.00014822976663708687
416.0,-0.0002845649723894894
448.0,-0.00021251430734992027
480.0,-0.00026090984465554357
512.0,0.00040806917240843177
576.0,9.995246364269406e-05
640.0,0.0004675951786339283
704.0,-0.0004281551518943161
768.0,-0.0005828742287121713
832.0,0.00010713748633861542
896.0,-0.0001676263491390273
960.0,-3.3895179512910545e-05
1024.0,-0.0002433652407489717
1152.0,-0.00011459614324849099
1280.0,-0.00018103900947608054
1408.0,-0.000291681382805109
1536.0,-0.0003585163503885269
1664.0,-2.8648963052546605e-05
1792.0,-0.000280662439763546
1920.0,0.00012315536150708795
2048.0,0.00016000590403564274
2304.0,-0.00029538763919845223
2560.0,0.0001674156083026901
2816.0,0.0001243573206011206
3072.0,0.00041107169818133116
3328.0,-6.787419260945171e-05
3584.0,-0.00013949813728686422
3840.0,-0.00019031960982829332
4096.0,7.001746416790411e-05
4608.0,9.667692938819528e-05
5120.0,-2.619172664708458e-05
5632.0,-0.0001635408989386633
6144.0,3.084995114477351e-05
6656.0,-0.0001398214662913233
7168.0,0.00028788793133571744
7680.0,0.00020295544527471066
8192.0,-0.00021575090067926794
9216.0,-0.0002498682006262243
10240.0,0.0004147907311562449
11264.0,-0.0004216480883769691
12288.0,-0.00027140617021359503
13312.0,0.00035696776467375457
14336.0,0.00010797767026815563
end
