version,3.0
numOfCh,1
type,point
parent_name,2-cuts
ch_type,1_1
kcount,1
numberNandB,1
brightnessNandB,1
carpet pos,0
pc,0
Time (ms),CH1 Auto-Correlation
1.0,0.025246988981962204
2.0,0.020514434203505516
3.0,0.016969744116067886
4.0,0.014365972019731998
5.0,0.012531368061900139
6.0,0.011057814583182335
7.0,0.009799037128686905
8.0,0.008884125389158726
9.0,0.008162985555827618
10.0,0.007510670460760593
11.0,0.006908221635967493
12.0,0.006199261173605919
13.0,0.005557820666581392
14.0,0.005001121666282415
15.0,0.004536972381174564
16.0,0.004189808387309313
18.0,0.003790757153183222
20.0,0.0034986173268407583
22.0,0.002924638567492366
24.0,0.00234048580750823
26.0,0.0020197536796331406
28.0,0.0019672317430377007
30.0,0.0018070995574817061
32.0,0.002004469744861126
36.0,0.0019675996154546738
40.0,0.0018308500293642282
44.0,0.0017737706657499075
48.0,0.0020785494707524776
52.0,0.0021592089906334877
56.0,0.0019938969053328037
60.0,0.001420882879756391
64.0,0.0014061152469366789
72.0,0.0019704126752913
80.0,0.0016015485161915421
88.0,0.00131265411619097
96.0,0.0009880256839096546
104.0,0.0011607651831582189
112.0,0.0012377392267808318
120.0,0.0007264799787662923
128.0,0.0007317938725464046
144.0,0.0008118416299112141
160.0,0.0003631977888289839
176.0,4.974698094883934e-05
192.0,0.000253325211815536
208.0,0.00033113229437731206
224.0,-4.335581979830749e-05
240.0,-6.772243068553507e-06
256.0,0.00026614480884745717
288.0,0.00047102090320549905
320.0,-0.00040805002208799124
352.0,-0.0007720316643826663
384.0,0.00012826858437620103
416.0,-9.11485985852778e-05
448.0,0.0005624002660624683
480.0,-2.7406003937358037e-05
512.0,-2.8572536393767223e-05
576.0,0.00021333845506887883
640.0,-6.003208181937225e-05
704.0,0.00029917940264567733
768.0,-0.00016728554328437895
832.0,1.8679409549804404e-05
896.0,0.0005961931892670691
960.0,-0.0005843527032993734
1024.0,-0.0012425468303263187
1152.0,0.0006771557382307947
1280.0,0.0008824950782582164
1408.0,0.00045503044384531677
1536.0,-0.0004287470073904842
1664.0,0.0003192042058799416
1792.0,0.00019037627498619258
1920.0,-0.0004528882564045489
2048.0,0.0006423430750146508
2304.0,-0.00031572164152748883
2560.0,-0.00032108978484757245
2816.0,0.00024964549811556935
3072.0,0.00014455392374657094
3328.0,0.0003180061758030206
3584.0,-0.00026612021611072123
3840.0,7.731981168035418e-05
4096.0,0.0005030155298300087
4608.0,0.00018049494246952236
5120.0,2.8360185751807876e-05
5632.0,-0.0006115370779298246
6144.0,-0.0006167160463519394
6656.0,-0.0003913541731890291
7168.0,-7.020287011982873e-05
7680.0,-0.00025666889268904924
8192.0,-0.00033013889333233237
9216.0,-0.00030844073626212776
10240.0,-8.956364763434976e-05
11264.0,-0.00028923022910021245
12288.0,0.00042883295100182295
13312.0,0.00043258588993921876
14336.0,0.0002791105944197625
end
