version,3.0
numOfCh,1
type,point
parent_name,2-cuts
ch_type,1_1
kcount,1
numberNandB,1
brightnessNandB,1
carpet pos,0
pc,0
Time (ms),CH1 Auto-Correlation
1.0,0.015808304771780968
2.0,0.013012402690947056
3.0,0.010974937118589878
4.0,0.00940390583127737
5.0,0.008180905133485794
6.0,0.007318384479731321
7.0,0.0066034733317792416
8.0,0.006034088786691427
9.0,0.005574900656938553
10.0,0.005225006490945816
11.0,0.004861072171479464
12.0,0.004547542426735163
13.0,0.004251647740602493
14.0,0.003922363743185997
15.0,0.0035835427697747946
16.0,0.003299148054793477
18.0,0.002973294584080577
20.0,0.002726468723267317
22.0,0.0026339604519307613
24.0,0.002545273397117853
26.0,0.002261478453874588
28.0,0.002114370698109269
30.0,0.0020865651313215494
32.0,0.002026097383350134
36.0,0.0017619403079152107
40.0,0.001767509151250124
44.0,0.0015632129507139325
48.0,0.0013768865028396249
52.0,0.0011688811937347054
56.0,0.0011405854020267725
60.0,0.0010897850152105093
64.0,0.0011536545353010297
72.0,0.0009496172424405813
80.0,0.0008526181918568909
88.0,0.0007476198370568454
96.0,0.0003167820395901799
104.0,0.00044555062777362764
112.0,0.00048778700875118375
120.0,0.0005281854537315667
128.0,0.0006958654848858714
144.0,0.0002652756520546973
160.0,0.00014791406283620745
176.0,-0.00010755283437902108
192.0,-0.0002196073910454288
208.0,-9.109523671213537e-05
224.0,-0.0001524664694443345
240.0,-0.00022422440815716982
256.0,-0.00010763443424366415
288.0,-0.0003910753584932536
320.0,-7.365863712038845e-05
352.0,5.967915421933867e-05
384.0,-6.616763857891783e-05
416.0,-0.00033940013963729143
448.0,0.00011026744323316962
480.0,-0.0002149017818737775
512.0,-0.00048484461149200797
576.0,-0.00018129681120626628
640.0,-0.00011674206325551495
704.0,-0.00018090452067553997
768.0,-0.0003248858265578747
832.0,-0.0004289476200938225
896.0,7.181703404057771e-05
960.0,0.00019132641318719834
1024.0,0.0003042006865143776
1152.0,-0.0005317301256582141
1280.0,-0.0003282365796621889
1408.0,0.00014883727999404073
1536.0,-6.273124017752707e-05
1664.0,0.00011132020881632343
1792.0,0.00010661833948688582
1920.0,0.0002311809512320906
2048.0,0.0001182670530397445
2304.0,0.0001266767067136243
2560.0,-0.00029779766919091344
2816.0,-0.0002121473225997761
3072.0,-0.00041401968337595463
3328.0,7.510066643590108e-05
3584.0,0.0006598843028768897
3840.0,8.720055484445766e-05
4096.0,-0.00019098949269391596
4608.0,-0.0003621781070251018
5120.0,8.288669778266922e-05
5632.0,0.00021492587984539568
6144.0,-9.821874118642882e-05
6656.0,-0.00015014302334748209
7168.0,0.0002723401121329516
7680.0,-0.0001470638526370749
8192.0,-0.00010470232518855482
9216.0,4.244804222253151e-05
10240.0,-4.023857036372647e-05
11264.0,0.0001306215563090518
12288.0,0.00024462828878313303
13312.0,-0.00034855830017477274
14336.0,0.0004616410587914288
end
