version,3.0
numOfCh,1
type,point
parent_name,2-cuts
ch_type,1_1
kcount,1
numberNandB,1
brightnessNandB,1
carpet pos,0
pc,0
Time (ms),CH1 Auto-Correlation
1.0,0.028483886271715164
2.0,0.023725684732198715
3.0,0.020352166146039963
4.0,0.017963234335184097
5.0,0.016066135838627815
6.0,0.014591468498110771
7.0,0.013486814685165882
8.0,0.012424832209944725
9.0,0.011360565200448036
10.0,0.010304974392056465
11.0,0.009564673528075218
12.0,0.008895929902791977
13.0,0.008405831642448902
14.0,0.007953934371471405
15.0,0.00758247310295701
16.0,0.007416421081870794
18.0,0.00654175179079175
20.0,0.005803628358989954
22.0,0.0049439286813139915
24.0,0.004434211179614067
26.0,0.004295919556170702
28.0,0.003995212726294994
30.0,0.0036145595367997885
32.0,0.0032758854795247316
36.0,0.002860892564058304
40.0,0.0030425868462771177
44.0,0.003125782124698162
48.0,0.002937131794169545
52.0,0.002937528071925044
56.0,0.002502281218767166
60.0,0.0022843661718070507
64.0,0.0020169068593531847
72.0,0.002287378301844001
80.0,0.0017205842304974794
88.0,0.0018908367492258549
96.0,0.001738653052598238
104.0,0.001433169119991362
112.0,0.001083696959540248
120.0,0.0013913951115682721
128.0,0.0011966940946877003
144.0,0.0009418654371984303
160.0,0.0007338709547184408
176.0,0.000985367107205093
192.0,0.000721042335499078
208.0,0.0001602694537723437
224.0,0.00013913540169596672
240.0,-0.0006230946164578199
256.0,-0.0005704921786673367
288.0,-0.0004091393493581563
320.0,-0.0004513489839155227
352.0,4.029280535178259e-05
384.0,-0.00034651040914468467
416.0,0.0002049116010311991
448.0,0.00022281076235231012
480.0,-0.0006927973008714616
512.0,0.0003578034520614892
576.0,0.0008209061343222857
640.0,-0.0007987256394699216
704.0,-0.0005941253039054573
768.0,-0.0002887369191739708
832.0,-0.0012290377635508776
896.0,-0.0010000342736020684
960.0,-0.0007249713526107371
1024.0,-0.0010019605979323387
1152.0,-6.35957985650748e-05
1280.0,0.0004353189724497497
1408.0,0.0001922961528180167
1536.0,-0.00027266665711067617
1664.0,0.0002619867445901036
1792.0,0.0010602198308333755
1920.0,0.00032562523847445846
2048.0,0.00027888224576599896
2304.0,-0.0004673156945500523
2560.0,-0.0001003728830255568
2816.0,-0.00021217731409706175
3072.0,-1.610257641004864e-05
3328.0,0.0002952327486127615
3584.0,0.00041017401963472366
3840.0,0.00027675688033923507
4096.0,-0.0005108426557853818
4608.0,-0.000305009976727888
5120.0,1.098066695703892e-05
5632.0,3.3991975215030834e-05
6144.0,-0.0002258290332974866
6656.0,-0.0003962118935305625
7168.0,-0.00029578854446299374
7680.0,0.00011167809861944988
8192.0,-0.0004206429875921458
9216.0,0.00012443604646250606
10240.0,-0.000331606570398435
11264.0,0.0001797252189135179
12288.0,0.00014494365314021707
13312.0,0.0001580453827045858
14336.0,0.00037256497307680547
end
