version,3.0
numOfCh,1
type,point
parent_name,2-cuts
ch_type,1_1
kcount,1
numberNandB,1
brightnessNandB,1
carpet pos,0
pc,0
Time (ms),CH1 Auto-Correlation
1.0,0.025568261742591858
2.0,0.020965300500392914
3.0,0.017756853252649307
4.0,0.015221984125673771
5.0,0.013317912817001343
6.0,0.011854873970150948
7.0,0.01070554181933403
8.0,0.009611359797418118
9.0,0.008740554563701153
10.0,0.007946208119392395
11.0,0.007257923949509859
12.0,0.006720113102346659
13.0,0.006172210443764925
14.0,0.005722968373447657
15.0,0.005480945110321045
16.0,0.0053112399764359
18.0,0.004951607435941696
20.0,0.0047043925151228905
22.0,0.004347459878772497
24.0,0.0041009834967553616
26.0,0.0036064409650862217
28.0,0.0032609496265649796
30.0,0.002662121085450053
32.0,0.0022332214284688234
36.0,0.0017773581203073263
40.0,0.0013022728962823749
44.0,0.001137245213612914
48.0,0.001055424683727324
52.0,0.000669322966132313
56.0,0.0007701564463786781
60.0,0.000552658922970295
64.0,0.0006530519458465278
72.0,0.0008336309110745788
80.0,0.0007920001517049968
88.0,9.693431638879701e-05
96.0,0.00019140522636007518
104.0,0.00010321135050617158
112.0,-0.00044289277866482735
120.0,-0.0009350523469038308
128.0,-0.000409277796279639
144.0,3.0071278160903603e-05
160.0,0.0003677635977510363
176.0,0.0011783079244196415
192.0,0.0013475090963765979
208.0,0.0010514711029827595
224.0,0.0012010964564979076
240.0,0.0016077426262199879
256.0,0.0007529686554335058
288.0,-0.0002268258685944602
320.0,0.0008313070284202695
352.0,0.00083424017066136
384.0,8.121369319269434e-05
416.0,9.448127093492076e-05
448.0,-1.2698441423708573e-05
480.0,-0.00010787465726025403
512.0,-0.0005281816120259464
576.0,0.0005073815118521452
640.0,0.00045548699563369155
704.0,-0.00021192594431340694
768.0,-0.0002403829275863245
832.0,0.0003861194127239287
896.0,0.0005503265419974923
960.0,0.00021272861340548843
1024.0,0.000279866682831198
1152.0,-0.0004306107002776116
1280.0,-0.00018595752771943808
1408.0,0.00017228398064617068
1536.0,-0.0003065863566007465
1664.0,0.0006374912918545306
1792.0,-0.00016254546062555164
1920.0,0.00016417431470472366
2048.0,-0.00011300957703497261
2304.0,0.0001892809959826991
2560.0,-0.00010029530676547438
2816.0,-6.645081157330424e-05
3072.0,-0.00019565502589102834
3328.0,-7.897278555901721e-05
3584.0,0.00022538081975653768
3840.0,-0.0002038118545897305
4096.0,-0.0001503850653534755
4608.0,0.00042707237298600376
5120.0,0.0006560849724337459
5632.0,0.00027385225985199213
6144.0,-0.0006007272168062627
6656.0,-0.00043475671554915607
7168.0,3.9262318750843406e-05
7680.0,-0.000409420084906742
8192.0,-0.0002883406705223024
9216.0,-0.00038969010347500443
10240.0,0.00045643412158824503
11264.0,-0.0009551004623062909
12288.0,-0.0003300965472590178
13312.0,-0.00018037980771623552
14336.0,0.00017583847511559725
end
