version,3.0
numOfCh,1
type,point
parent_name,2-cuts
ch_type,1_1
kcount,1
numberNandB,1
brightnessNandB,1
carpet pos,0
pc,0
Time (ms),CH1 Auto-Correlation
1.0,0.016220038756728172
2.0,0.01327294297516346
3.0,0.01114432979375124
4.0,0.009598851203918457
5.0,0.008406585082411766
6.0,0.007527606561779976
7.0,0.006752863060683012
8.0,0.006136723794043064
9.0,0.005557775031775236
10.0,0.005179722793400288
11.0,0.004916139878332615
12.0,0.004656469449400902
13.0,0.004408706445246935
14.0,0.004103196319192648
15.0,0.0038731745444238186
16.0,0.00361630879342556
18.0,0.0033077176194638014
20.0,0.0028937130700796843
22.0,0.0026154108345508575
24.0,0.002344223903492093
26.0,0.0020237339194864035
28.0,0.0018590722465887666
30.0,0.001824412727728486
32.0,0.0017534010112285614
36.0,0.0019111952278763056
40.0,0.0018353583291172981
44.0,0.0014152058865875006
48.0,0.0011919608805328608
52.0,0.0011490503093227744
56.0,0.0009358584647998214
60.0,0.0006703590042889118
64.0,0.00039199067396111786
72.0,0.00019475373846944422
80.0,0.00047394371358677745
88.0,0.000414708920288831
96.0,0.00042270758422091603
104.0,0.0005504559958353639
112.0,0.0003647173289209604
120.0,0.0004413949209265411
128.0,0.00033523651654832065
144.0,-3.917582216672599e-05
160.0,-0.0003373484069015831
176.0,-0.0003748759045265615
192.0,-0.00033637965680100024
208.0,-0.00020561405108310282
224.0,-0.0001687130134087056
240.0,-0.0005914571229368448
256.0,-0.0007816152647137642
288.0,-0.0002646938373800367
320.0,0.0006263657123781741
352.0,0.0005117013351991773
384.0,0.00010624185233609751
416.0,-0.00010773607209557667
448.0,4.2209543607896194e-05
480.0,-4.728911517304368e-05
512.0,0.0003248451102990657
576.0,0.0001491796865593642
640.0,7.4638424848672e-05
704.0,4.886184251517989e-05
768.0,-0.0006319259409792721
832.0,-0.0008270386606454849
896.0,-0.00024395731452386826
960.0,-9.224785026162863e-05
1024.0,0.0003196635516360402
1152.0,-9.815007069846615e-05
1280.0,3.065881901420653e-05
1408.0,0.00042316611506976187
1536.0,8.688664820510894e-05
1664.0,-7.35660141799599e-05
1792.0,-2.3725129722151905e-05
1920.0,0.00019610297749750316
2048.0,0.00023691456590313464
2304.0,-0.0002286184608237818
2560.0,-0.00010339073196519166
2816.0,6.396200478775427e-05
3072.0,-0.0003648303390946239
3328.0,-3.7554738810285926e-05
3584.0,-0.00034719271934591234
3840.0,0.00021821603877469897
4096.0,-3.1817333365324885e-05
4608.0,6.289230805123225e-05
5120.0,-0.0001642007555346936
5632.0,6.724394916091114e-05
6144.0,8.115595846902579e-05
6656.0,0.00022767118935007602
7168.0,-0.000120623990369495
7680.0,2.5740484488778748e-05
8192.0,-5.652911204379052e-05
9216.0,-0.00017787613614927977
10240.0,6.66298801661469e-05
11264.0,-0.000347582739777863
12288.0,0.0001596434012753889
13312.0,8.524783333996311e-05
14336.0,5.675780266756192e-05
end
