version,3.0
numOfCh,1
type,point
parent_name,2-cuts
ch_type,1_1
kcount,1
numberNandB,1
brightnessNandB,1
carpet pos,0
pc,0
Time (ms),CH1 Auto-Correlation
1.0,0.015598030760884285
2.0,0.01263376884162426
3.0,0.010582287795841694
4.0,0.009065181948244572
5.0,0.007876881398260593
6.0,0.006941228173673153
7.0,0.006323532201349735
8.0,0.005678753834217787
9.0,0.005232852417975664
10.0,0.004879809450358152
11.0,0.0044629075564444065
12.0,0.004109969362616539
13.0,0.0037754259537905455
14.0,0.0034371186047792435
15.0,0.003124329261481762
16.0,0.002835919614881277
18.0,0.002218927489593625
20.0,0.0019039364997297525
22.0,0.0017082475824281573
24.0,0.0014585251919925213
26.0,0.0013288409681990743
28.0,0.0011780164204537868
30.0,0.0010900830384343863
32.0,0.0010044350055977702
36.0,0.0012006602482870221
40.0,0.0013380894670262933
44.0,0.001251065987162292
48.0,0.0009831733768805861
52.0,0.0008068385650403798
56.0,0.0007800097810104489
60.0,0.0007291228976100683
64.0,0.000692721048835665
72.0,0.000506118347402662
80.0,0.00011004754924215376
88.0,-0.0002895442594308406
96.0,-0.00040370813803747296
104.0,-1.7218597349710763e-05
112.0,0.0005697830347344279
120.0,0.00046517886221408844
128.0,0.0002719489857554436
144.0,0.00023408926790580153
160.0,0.0004256633692421019
176.0,0.00034425329067744315
192.0,-5.1108974730595946e-05
208.0,9.763027628650889e-05
224.0,0.0002369886642554775
240.0,0.000244966649916023
256.0,0.00013697767280973494
288.0,0.0006565356161445379
320.0,0.00017609114001970738
352.0,0.00029363829526118934
384.0,-0.00018421097774989903
416.0,-0.0006228805868886411
448.0,-0.0005583198508247733
480.0,8.003659604582936e-05
512.0,-8.540260751033202e-05
576.0,0.0003203515079803765
640.0,0.00027961720479652286
704.0,-6.5683459979482e-05
768.0,-0.00023589727061334997
832.0,2.701993980736006e-05
896.0,0.00016714366211090237
960.0,0.00037181522930040956
1024.0,-0.00015775280189700425
1152.0,-2.8582064260262996e-05
1280.0,0.0003664370742626488
1408.0,-7.133714825613424e-05
1536.0,-7.586310675833374e-05
1664.0,-0.0003581997298169881
1792.0,-0.000297051650704816
1920.0,0.00017797067994251847
2048.0,-0.00018914203974418342
2304.0,-0.0002941412676591426
2560.0,-0.00011397120397305116
2816.0,-4.88951918669045e-05
3072.0,-0.00018133306002710015
3328.0,0.00011476633517304435
3584.0,-4.130353045184165e-05
3840.0,-0.0002434421330690384
4096.0,3.114114224445075e-05
4608.0,0.00010607880540192127
5120.0,-0.0003458435239735991
5632.0,-9.024715109262615e-05
6144.0,1.989171505556442e-05
6656.0,-3.820959682343528e-05
7168.0,0.0001387388037983328
7680.0,0.00013801180466543883
8192.0,-1.3205901268520392e-05
9216.0,9.888566273730248e-05
10240.0,3.4903334835689748e-06
11264.0,-0.0002880127285607159
12288.0,-0.00028345893952064216
13312.0,-4.7892597649479285e-05
14336.0,0.0001580048119649291
end
