version,3.0
numOfCh,1
type,point
parent_name,2-cuts
ch_type,1_1
kcount,1
numberNandB,1
brightnessNandB,1
carpet pos,0
pc,0
Time (ms),CH1 Auto-Correlation
1.0,0.02722569741308689
2.0,0.022460922598838806
3.0,0.019114702939987183
4.0,0.01656331680715084
5.0,0.014603281393647194
6.0,0.013067343272268772
7.0,0.011776117607951164
8.0,0.010701426304876804
9.0,0.009818557649850845
10.0,0.00901088584214449
11.0,0.00836945790797472
12.0,0.007745095994323492
13.0,0.007106137927621603
14.0,0.006558580789715052
15.0,0.0060963560827076435
16.0,0.005725789349526167
18.0,0.005081514827907085
20.0,0.004834468942135572
22.0,0.0046202377416193485
24.0,0.004228726960718632
26.0,0.004099000710994005
28.0,0.003614215413108468
30.0,0.0033796040806919336
32.0,0.0032088442239910364
36.0,0.0030266004614531994
40.0,0.0026942139957100153
44.0,0.0024218931794166565
48.0,0.0019861189648509026
52.0,0.0012859096750617027
56.0,0.0006321572000160813
60.0,0.00040844245813786983
64.0,0.00014498128439299762
72.0,1.5370254914159887e-05
80.0,-0.00024988141376525164
88.0,-0.00010936832404695451
96.0,-0.0003673978499136865
104.0,-0.00010467477841302752
112.0,0.0003445289039518684
120.0,0.0002492084458936006
128.0,0.000711883301846683
144.0,0.000853570643812418
160.0,0.00037820739089511335
176.0,0.0006036036065779626
192.0,-4.221066046738997e-05
208.0,0.00016938061162363738
224.0,-0.00022700661793351173
240.0,-0.000567370152566582
256.0,-0.00041167307063005865
288.0,-0.00091759447241202
320.0,-0.00022304689628072083
352.0,3.70156230928842e-05
384.0,-0.0006776486407034099
416.0,-0.00021679562632925808
448.0,0.0003901240706909448
480.0,0.00129929487593472
512.0,0.0010752278612926602
576.0,-0.0003609175328165293
640.0,0.0016007865779101849
704.0,0.0005728580872528255
768.0,-0.0003111507394351065
832.0,-0.00024091119121294469
896.0,0.0001551487948745489
960.0,-0.0007291421643458307
1024.0,0.0006915737176313996
1152.0,0.0007247304311022162
1280.0,-0.0004065149696543813
1408.0,-0.0005636538262479007
1536.0,-0.000457710528280586
1664.0,-0.0003115065337624401
1792.0,2.581177068350371e-05
1920.0,-0.0002571588847786188
2048.0,-0.00026641375734470785
2304.0,-0.0003757336817216128
2560.0,0.0001674288505455479
2816.0,0.00027599273016676307
3072.0,-0.0002160668809665367
3328.0,-8.399133366765454e-05
3584.0,-0.0004131682508159429
3840.0,0.00023803379735909402
4096.0,-0.00031678235973231494
4608.0,-9.176794264931232e-05
5120.0,-4.5815715566277504e-05
5632.0,0.0003602991928346455
6144.0,-9.874596798908897e-06
6656.0,2.0762601707247086e-05
7168.0,-0.0003594639420043677
7680.0,0.00010325986659154296
8192.0,0.0001186892986879684
9216.0,0.0001291838416364044
10240.0,-0.0007463584188371897
11264.0,-0.0003082420735154301
12288.0,-0.0001473477459512651
13312.0,0.00047536726924590766
14336.0,0.0008458570227958262
end
