version,3.0
numOfCh,1
type,point
parent_name,2-cuts
ch_type,1_1
kcount,1
numberNandB,1
brightnessNandB,1
carpet pos,0
pc,0
Time (ms),CH1 Auto-Correlation
1.0,0.01723981276154518
2.0,0.014153341762721539
3.0,0.012000836431980133
4.0,0.010478070005774498
5.0,0.009329518303275108
6.0,0.008395811542868614
7.0,0.0075867935083806515
8.0,0.0068836575374007225
9.0,0.0063593159429728985
10.0,0.0059027886018157005
11.0,0.005423676688224077
12.0,0.005099500063806772
13.0,0.004853375721722841
14.0,0.0045765964314341545
15.0,0.004315508529543877
16.0,0.004085557069629431
18.0,0.003711701137945056
20.0,0.003474780358374119
22.0,0.0036001885309815407
24.0,0.0034925842192023993
26.0,0.0033622896298766136
28.0,0.0031919125467538834
30.0,0.0030057213734835386
32.0,0.0028094016015529633
36.0,0.0025462948251515627
40.0,0.002108929445967078
44.0,0.0021054560784250498
48.0,0.0021098926663398743
52.0,0.001775142503902316
56.0,0.001322812051512301
60.0,0.0010300215799361467
64.0,0.0009937776485458016
72.0,0.0008906438597477973
80.0,0.0006155458395369351
88.0,0.0004146638384554535
96.0,0.00031544818193651736
104.0,5.795098331873305e-05
112.0,-4.553291364572942e-05
120.0,0.00018698109488468617
128.0,0.00010039976768894121
144.0,-1.9792074454016984e-05
160.0,-0.00046822542208246887
176.0,-0.00015547205111943185
192.0,-0.00012276234338060021
208.0,-0.00024572727852500975
224.0,-0.0002192619867855683
240.0,-0.00022948774858377874
256.0,-5.1942075515398756e-05
288.0,0.00016589340521022677
320.0,9.707685967441648e-05
352.0,-0.0005279071629047394
384.0,-0.0010071590077131987
416.0,-0.0007624903228133917
448.0,-0.0006223730742931366
480.0,-0.0006339743849821389
512.0,-0.00034290223265998065
576.0,9.085202327696607e-05
640.0,-2.909316390287131e-05
704.0,0.00012702269305009395
768.0,0.00015699474897701293
832.0,-0.0003526185464579612
896.0,4.242769136908464e-05
960.0,-0.00021150225074961782
1024.0,0.0002804149407893419
1152.0,0.00018174113938584924
1280.0,0.00017889666196424514
1408.0,-0.00048479382530786097
1536.0,-0.0002559603308327496
1664.0,-0.00011383238597773015
1792.0,0.000283805129583925
1920.0,0.0002762358926702291
2048.0,0.000278439256362617
2304.0,-0.0002768386621028185
2560.0,-0.00038968276930972934
2816.0,0.0004136600182391703
3072.0,7.185891445260495e-05
3328.0,0.0002948843757621944
3584.0,-0.0003674493927974254
3840.0,0.0001964009425137192
4096.0,-0.00011132407234981656
4608.0,-6.4200971792161e-06
5120.0,-9.333455818705261e-05
5632.0,0.00011930365872103721
6144.0,0.00016631316975690424
6656.0,0.00013279292033985257
7168.0,-0.00018432390061207116
7680.0,-8.57720515341498e-05
8192.0,-0.0002921252744272351
9216.0,-3.1339412089437246e-05
10240.0,4.803591582458466e-05
11264.0,-0.0001583826233400032
12288.0,-1.5821957276784815e-05
13312.0,-0.00020368762488942593
14336.0,-0.00013423763448372483
end
