version,3.0
numOfCh,1
type,point
parent_name,2-cuts
ch_type,1_1
kcount,1
numberNandB,1
brightnessNandB,1
carpet pos,0
pc,0
Time (ms),CH1 Auto-Correlation
1.0,0.016817962750792503
2.0,0.0140073262155056
3.0,0.011998885311186314
4.0,0.010478906333446503
5.0,0.009303255006670952
6.0,0.008311380632221699
7.0,0.007531620562076569
8.0,0.0068644010461866856
9.0,0.006379526108503342
10.0,0.005953668616712093
11.0,0.005469216499477625
12.0,0.005096603650599718
13.0,0.004813036415725946
14.0,0.004536086227744818
15.0,0.00427411450073123
16.0,0.003956318832933903
18.0,0.003424591850489378
20.0,0.0030105782207101583
22.0,0.0026802646461874247
24.0,0.0024635528679937124
26.0,0.002324251225218177
28.0,0.002257519867271185
30.0,0.0022631718311458826
32.0,0.0021447185426950455
36.0,0.001709427684545517
40.0,0.0015557808801531792
44.0,0.0012513450346887112
48.0,0.0011202149325981736
52.0,0.0009925533086061478
56.0,0.0009310397435911
60.0,0.0009754110360518098
64.0,0.0009110481478273869
72.0,0.0008503604331053793
80.0,0.0008164774044416845
88.0,0.0006898381980136037
96.0,0.0008335700840689242
104.0,0.000915239448659122
112.0,0.0009208698174916208
120.0,0.0007365623023360968
128.0,0.0005523655563592911
144.0,0.0011913720518350601
160.0,0.0011178316781297326
176.0,0.0006216326728463173
192.0,0.0006851056241430342
208.0,0.0002927405876107514
224.0,-0.00019478064496070147
240.0,0.0005566818290390074
256.0,0.00032948149600997567
288.0,-0.000253941398113966
320.0,6.218906491994858e-05
352.0,-5.133775630383752e-06
384.0,0.0003016300033777952
416.0,0.00019605932175181806
448.0,-0.00015187484677881002
480.0,0.0002881818509195
512.0,-5.9058715123683214e-05
576.0,-0.00020732879056595266
640.0,-0.00029952064505778253
704.0,-0.00026490213349461555
768.0,-0.0004675612144637853
832.0,0.00013764118193648756
896.0,0.0007203044951893389
960.0,0.00010633659258019179
1024.0,0.0006265224074013531
1152.0,0.00033113203244283795
1280.0,0.00017419681535102427
1408.0,0.0002050982293440029
1536.0,-0.0005758861661888659
1664.0,-0.0005714425933547318
1792.0,-0.00026985519798472524
1920.0,-0.0005558555130846798
2048.0,-0.0002660547906998545
2304.0,4.8385740228695795e-05
2560.0,0.00013790892262477428
2816.0,-0.0001542124227853492
3072.0,-0.0003906665078829974
3328.0,-0.00019994188915006816
3584.0,0.00022607456776313484
3840.0,-2.9005926990066655e-05
4096.0,-0.00047418472240678966
4608.0,-7.0252981458907016e-06
5120.0,-8.55255639180541e-05
5632.0,-3.54561852873303e-05
6144.0,0.00013367213250603527
6656.0,2.513743879717367e-07
7168.0,0.00027027781470678747
7680.0,7.409365935018286e-05
8192.0,-0.00031132003641687334
9216.0,-0.0003298744559288025
10240.0,0.00010906126408372074
11264.0,0.0001142399778473191
12288.0,0.00011573948722798377
13312.0,-0.00012218140182085335
14336.0,-0.00015435855311807245
end
