version,3.0
numOfCh,1
type,point
parent_name,2-cuts
ch_type,1_1
kcount,1
numberNandB,1
brightnessNandB,1
carpet pos,0
pc,0
Time (ms),CH1 Auto-Correlation
1.0,0.015452491119503975
2.0,0.012581945396959782
3.0,0.010562868788838387
4.0,0.009018718264997005
5.0,0.007846007123589516
6.0,0.006966648623347282
7.0,0.006249933037906885
8.0,0.005838290322571993
9.0,0.0053997947834432125
10.0,0.005103254225105047
11.0,0.004808265250176191
12.0,0.004511089529842138
13.0,0.004185810219496489
14.0,0.003877290990203619
15.0,0.0036899398546665907
16.0,0.0035626625176519156
18.0,0.003106431569904089
20.0,0.002826948184520006
22.0,0.0025974013842642307
24.0,0.0024545732885599136
26.0,0.002294124336913228
28.0,0.002193958731368184
30.0,0.0020982809364795685
32.0,0.0021070227958261967
36.0,0.0020009158179163933
40.0,0.0017158208647742867
44.0,0.0012295839842408895
48.0,0.0009706623386591673
52.0,0.0010197772644460201
56.0,0.001127652358263731
60.0,0.0010840530740097165
64.0,0.001008648076094687
72.0,0.0010963096283376217
80.0,0.0009807513561099768
88.0,0.000640333048067987
96.0,0.0006197046604938805
104.0,0.0004762558382935822
112.0,1.5704647012171336e-05
120.0,-5.44791437278036e-05
128.0,-8.71541997184977e-05
144.0,-0.00037850954686291516
160.0,-0.0003129994438495487
176.0,1.855565824371297e-05
192.0,-0.000234026403632015
208.0,-0.00036975342663936317
224.0,-0.0005873782793059945
240.0,-0.0009757986408658326
256.0,-0.00047385189100168645
288.0,0.00015173149586189538
320.0,-0.00013282682630233467
352.0,0.00015723946853540838
384.0,0.00044043181696906686
416.0,0.0004502635565586388
448.0,0.00011857117351610214
480.0,0.00021015340462327003
512.0,0.00029391248244792223
576.0,-1.944353243743535e-05
640.0,0.00012826683814637363
704.0,0.00012519558367785066
768.0,0.0006825941381976008
832.0,0.0001058145790011622
896.0,-1.9492570572765544e-05
960.0,-6.286639109021053e-05
1024.0,0.00038774803397245705
1152.0,0.0004703858576249331
1280.0,0.0006415926036424935
1408.0,0.0004125004925299436
1536.0,-0.00010817564179887995
1664.0,0.0001479295751778409
1792.0,7.338668365264311e-05
1920.0,0.0006344226421788335
2048.0,0.00024297530762851238
2304.0,0.00015651369176339358
2560.0,-0.0001767664944054559
2816.0,0.00036859523970633745
3072.0,8.766102837398648e-05
3328.0,0.00037349690683186054
3584.0,-0.00011760557390516624
3840.0,-0.00016227034211624414
4096.0,-4.6476128773065284e-05
4608.0,6.91869790898636e-05
5120.0,-0.0001864747900981456
5632.0,-0.00020322379714343697
6144.0,3.966956865042448e-05
6656.0,-0.0003740284009836614
7168.0,-0.00027901760768145323
7680.0,-0.0003386621247045696
8192.0,-4.364176857052371e-05
9216.0,-0.000181360068381764
10240.0,-0.000132874192786403
11264.0,-0.00026385445380583405
12288.0,-0.0001832488487707451
13312.0,-0.00034396411501802504
14336.0,-0.00030319346114993095
end
