version,3.0
numOfCh,1
type,point
parent_name,2-cuts
ch_type,1_1
kcount,1
numberNandB,1
brightnessNandB,1
carpet pos,0
pc,0
Time (ms),CH1 Auto-Correlation
1.0,0.02561604045331478
2.0,0.020885907113552094
3.0,0.01762290485203266
4.0,0.015184825286269188
5.0,0.013255263678729534
6.0,0.01179969310760498
7.0,0.010527855716645718
8.0,0.009548766538500786
9.0,0.00890007521957159
10.0,0.008315988816320896
11.0,0.007724061608314514
12.0,0.007090471219271421
13.0,0.006466377060860395
14.0,0.005911156069487333
15.0,0.005430045071989298
16.0,0.005048946011811495
18.0,0.004601772408932447
20.0,0.0039565470069646835
22.0,0.003429050324484706
24.0,0.00312345614656806
26.0,0.002768447156995535
28.0,0.0025485740043222904
30.0,0.0025138205382972956
32.0,0.0026550358161330223
36.0,0.0024177939631044865
40.0,0.002143723890185356
44.0,0.0019035129807889462
48.0,0.001828442676924169
52.0,0.0011567844776436687
56.0,0.000998792820610106
60.0,0.0008276821463368833
64.0,0.0006011285586282611
72.0,0.000600529252551496
80.0,0.0005665583885274827
88.0,0.0008320757769979537
96.0,0.0006235131295397878
104.0,0.0008602760499343276
112.0,0.0012081826571375132
120.0,0.001488388516008854
128.0,0.0010563221294432878
144.0,0.0009595020674169064
160.0,0.0008691736147738993
176.0,0.000319426239002496
192.0,0.00019346029148437083
208.0,-5.754416179115651e-06
224.0,0.0001421718770870939
240.0,0.0004265846509952098
256.0,0.0006988050299696624
288.0,0.000214277722989209
320.0,-0.0002697200106922537
352.0,-3.2854142773430794e-05
384.0,0.00015595424338243902
416.0,0.000817141670268029
448.0,0.00048039157991297543
480.0,-0.0005650591920129955
512.0,-0.0008016231586225331
576.0,0.0004993555485270917
640.0,0.0002358163328608498
704.0,0.0008358401828445494
768.0,-0.0004120527592021972
832.0,0.000748391030356288
896.0,0.00046395871322602034
960.0,0.0004440773918759078
1024.0,0.0005177130806259811
1152.0,-9.907781350193545e-05
1280.0,-0.0003481204912532121
1408.0,-0.0004130422312300652
1536.0,-5.769935160060413e-05
1664.0,0.00020335844601504505
1792.0,0.0003309724561404437
1920.0,-0.0004393328563310206
2048.0,-0.0007252515060827136
2304.0,-0.0006804466247558594
2560.0,0.00022667019220534712
2816.0,-0.00033266012906096876
3072.0,-0.0005031481850892305
3328.0,-0.0006813562358729541
3584.0,0.00013297240366227925
3840.0,-8.463617996312678e-05
4096.0,-0.0003715544880833477
4608.0,0.00019749999046325684
5120.0,0.00027491027140058577
5632.0,0.00026336367591284215
6144.0,-0.00018550378445070237
6656.0,-4.2074425437022e-06
7168.0,-0.0007867409731261432
7680.0,-0.0005274184513837099
8192.0,-0.0006446309853345156
9216.0,-2.139193929906469e-05
10240.0,0.0005299819749779999
11264.0,0.0003420721914153546
12288.0,8.188528590835631e-05
13312.0,-2.4550616217311472e-05
14336.0,-0.00015498200082220137
end
