version,3.0
numOfCh,1
type,point
parent_name,2-cuts
ch_type,1_1
kcount,1
numberNandB,1
brightnessNandB,1
carpet pos,0
pc,0
Time (ms),CH1 Auto-Correlation
1.0,0.029216716066002846
2.0,0.024332251399755478
3.0,0.020852291956543922
4.0,0.018321670591831207
5.0,0.016202287748456
6.0,0.014477667398750782
7.0,0.013107002712786198
8.0,0.012098227627575397
9.0,0.011099083349108696
10.0,0.010174909606575966
11.0,0.009538802318274975
12.0,0.008828910999000072
13.0,0.008210311643779278
14.0,0.007557365112006664
15.0,0.007401349022984505
16.0,0.007209475617855787
18.0,0.006817309185862541
20.0,0.00671787466853857
22.0,0.006459792144596577
24.0,0.006218273192644119
26.0,0.005955150350928307
28.0,0.005820577498525381
30.0,0.005542985629290342
32.0,0.005247320979833603
36.0,0.004535560961812735
40.0,0.00402171490713954
44.0,0.0032737008295953274
48.0,0.002886188682168722
52.0,0.0024539341684430838
56.0,0.002186954952776432
60.0,0.0015217452310025692
64.0,0.0014796653995290399
72.0,0.0016250881599262357
80.0,0.0019565236289054155
88.0,0.0023192353546619415
96.0,0.0024810200557112694
104.0,0.0018793779890984297
112.0,0.0015685886610299349
120.0,0.0015599260805174708
128.0,0.001937500899657607
144.0,0.0014043268747627735
160.0,0.0011997950496152043
176.0,0.0013951354194432497
192.0,0.001374435261823237
208.0,0.0009558070451021194
224.0,0.0006350071635097265
240.0,0.0017805881798267365
256.0,0.0014010675949975848
288.0,0.001336434157565236
320.0,0.00011070678010582924
352.0,3.9956281398190185e-05
384.0,0.00017192287486977875
416.0,-0.00015990906103979796
448.0,0.0006576196174137294
480.0,-0.00026822692598216236
512.0,-0.00010925569949904457
576.0,0.00018554384587332606
640.0,-0.0009652876178734004
704.0,-0.000695420429110527
768.0,0.00011668843944789842
832.0,0.0002769468992482871
896.0,-0.0008237403817474842
960.0,0.0002867210132535547
1024.0,0.000439048366388306
1152.0,0.0004270491190254688
1280.0,2.913075513788499e-05
1408.0,0.0006019289139658213
1536.0,-4.161609922448406e-06
1664.0,0.00014248446677811444
1792.0,-3.53684117726516e-05
1920.0,-0.00043930200627073646
2048.0,-0.00024768125149421394
2304.0,-0.00025209886371158063
2560.0,-0.00034593179589137435
2816.0,-0.0015237386105582118
3072.0,-0.001407693955115974
3328.0,-0.00024990379461087286
3584.0,0.0005897146183997393
3840.0,0.00032475480111315846
4096.0,0.0008750211563892663
4608.0,-0.0006323073175735772
5120.0,-0.0001426219823770225
5632.0,0.0007079559145495296
6144.0,4.4806074583902955e-05
6656.0,-0.00033919140696525574
7168.0,-5.09738820255734e-05
7680.0,0.0004957985947839916
8192.0,-0.0007773861871100962
9216.0,-0.0006109499372541904
10240.0,-0.00035724937333725393
11264.0,0.0010360644664615393
12288.0,0.0007400697213597596
13312.0,0.00020109870820306242
14336.0,-0.0009602131904102862
end
