version,3.0
numOfCh,1
type,point
parent_name,2-cuts
ch_type,1_1
kcount,1
numberNandB,1
brightnessNandB,1
carpet pos,0
pc,0
Time (ms),CH1 Auto-Correlation
1.0,0.016769465059041977
2.0,0.013806009665131569
3.0,0.011660000309348106
4.0,0.010192567482590675
5.0,0.0090366555377841
6.0,0.008037884719669819
7.0,0.007238450460135937
8.0,0.006567380391061306
9.0,0.006046630442142487
10.0,0.005752218421548605
11.0,0.0054572029039263725
12.0,0.0051987431943416595
13.0,0.004841863643378019
14.0,0.004543412942439318
15.0,0.004317434970289469
16.0,0.00397106260061264
18.0,0.0035431268624961376
20.0,0.003141751978546381
22.0,0.002889722352847457
24.0,0.0027735051698982716
26.0,0.002427160507068038
28.0,0.0021656358148902655
30.0,0.0020217210985720158
32.0,0.0020096334628760815
36.0,0.002123650163412094
40.0,0.0021916364785283804
44.0,0.002250787802040577
48.0,0.0020636809058487415
52.0,0.001697702333331108
56.0,0.0016611622413620353
60.0,0.0015307528665289283
64.0,0.0013514802558347583
72.0,0.0008733883732929826
80.0,0.0008483699639327824
88.0,0.0005811480805277824
96.0,0.0005568806082010269
104.0,0.0006390842027030885
112.0,0.0004191161715425551
120.0,0.00034033702104352415
128.0,2.772484367596917e-05
144.0,-0.00025654054479673505
160.0,0.00012789804895874113
176.0,-0.00018927277415059507
192.0,-0.00016993626195471734
208.0,0.00042232393752783537
224.0,0.0003237251949030906
240.0,4.947463094140403e-05
256.0,0.00047203380381688476
288.0,-6.073437543818727e-05
320.0,-0.0003913257096428424
352.0,-0.000513106700964272
384.0,4.066583278472535e-05
416.0,0.00027853689971379936
448.0,0.00032964354613795877
480.0,0.0002480063121765852
512.0,0.00034753745421767235
576.0,-0.0003233245515730232
640.0,-0.00048398837679997087
704.0,-0.0005420888774096966
768.0,-0.0008941057603806257
832.0,-0.00015231248107738793
896.0,-0.0003876054543070495
960.0,-0.00015921873273327947
1024.0,-0.00028869209927506745
1152.0,2.6985551812686026e-05
1280.0,8.610030636191368e-05
1408.0,9.723154653329402e-05
1536.0,0.0003555605362635106
1664.0,0.0003207560512237251
1792.0,1.211738072015578e-05
1920.0,-0.00038068133289925754
2048.0,-0.00028052469133399427
2304.0,7.331516098929569e-05
2560.0,0.00030253478325903416
2816.0,-6.881201989017427e-05
3072.0,-0.0001404180657118559
3328.0,-0.00038093444891273975
3584.0,-2.0452343960641883e-05
3840.0,0.000145861049531959
4096.0,2.056732409982942e-05
4608.0,-0.00025126291438937187
5120.0,1.9057877580053173e-05
5632.0,-0.00014951988123357296
6144.0,-0.0002510641352273524
6656.0,0.00020333864085841924
7168.0,1.935869295266457e-05
7680.0,-0.00017868666327558458
8192.0,0.0004595127538777888
9216.0,-0.00019493361469358206
10240.0,9.126363875111565e-05
11264.0,0.00011709501268342137
12288.0,-0.0001389926765114069
13312.0,0.000261170556768775
14336.0,-0.0004268878255970776
end
