version,3.0
numOfCh,1
type,point
parent_name,2-cuts
ch_type,1_1
kcount,1
numberNandB,1
brightnessNandB,1
carpet pos,0
pc,0
Time (ms),CH1 Auto-Correlation
1.0,0.026038404554128647
2.0,0.0214894637465477
3.0,0.01796768419444561
4.0,0.015541763044893742
5.0,0.013529416173696518
6.0,0.012317395769059658
7.0,0.011349784210324287
8.0,0.010506909340620041
9.0,0.009738949127495289
10.0,0.008971083909273148
11.0,0.008524640463292599
12.0,0.00814302172511816
13.0,0.0078959409147501
14.0,0.00766877131536603
15.0,0.007428342010825872
16.0,0.007048708386719227
18.0,0.0060872542671859264
20.0,0.00534025626257062
22.0,0.004856654908508062
24.0,0.004235605243593454
26.0,0.003699209541082382
28.0,0.0034040899481624365
30.0,0.0032644574530422688
32.0,0.0032265745103359222
36.0,0.0027117598801851273
40.0,0.0025630223099142313
44.0,0.0021344844717532396
48.0,0.0015888070920482278
52.0,0.0015330222668126225
56.0,0.0018004311714321375
60.0,0.0021413378417491913
64.0,0.002106145955622196
72.0,0.0013219710672274232
80.0,0.0016376940766349435
88.0,0.0013449530815705657
96.0,0.00112624850589782
104.0,0.0006898820283822715
112.0,0.0003601828939281404
120.0,0.000210798520129174
128.0,0.0001751427334966138
144.0,0.0001240401470568031
160.0,0.0003215617616660893
176.0,-4.09732419939246e-05
192.0,-0.0003444197354838252
208.0,-0.000751723418943584
224.0,-0.0008322353241965175
240.0,-0.00031983116059564054
256.0,2.875269274227321e-05
288.0,-0.0005516538512893021
320.0,9.931037538990495e-07
352.0,-0.00027391311596147716
384.0,-0.00042473847861401737
416.0,-0.0003964019997511059
448.0,-0.0010664360597729683
480.0,-0.00013975265028420836
512.0,-0.00023896023049019277
576.0,-0.0001263420272152871
640.0,3.1445026252185926e-05
704.0,0.00040517779416404665
768.0,0.00016043870709836483
832.0,0.0007483938825316727
896.0,0.0011843921383842826
960.0,0.0016271101776510477
1024.0,0.00023569694894831628
1152.0,-0.0009198060724884272
1280.0,0.00016968054114840925
1408.0,0.0004907368565909564
1536.0,-8.879249799065292e-05
1664.0,-0.00044102148967795074
1792.0,-0.0006259106448851526
1920.0,0.00019896771118510514
2048.0,2.3120572222978808e-05
2304.0,0.0004230315098538995
2560.0,-0.0005742960493080318
2816.0,4.585301940096542e-05
3072.0,0.00045198024599812925
3328.0,-0.0006588083924725652
3584.0,0.0002524066367186606
3840.0,0.00021317308710422367
4096.0,-0.000292219192488119
4608.0,-0.0002761461364571005
5120.0,0.0004157983639743179
5632.0,-3.097168155363761e-05
6144.0,0.00029974980861879885
6656.0,-0.0003652768209576607
7168.0,0.00019150052685290575
7680.0,-0.0002801736700348556
8192.0,0.00012569574755616486
9216.0,0.0001454891316825524
10240.0,-0.0002730571723077446
11264.0,-0.00041120132664218545
12288.0,-0.00045916071394458413
13312.0,-0.0005441248067654669
14336.0,-3.6740828363690525e-05
end
