version,3.0
numOfCh,1
type,point
parent_name,2-cuts
ch_type,1_1
kcount,1
numberNandB,1
brightnessNandB,1
carpet pos,0
pc,0
Time (ms),CH1 Auto-Correlation
1.0,0.027757223695516586
2.0,0.022813968360424042
3.0,0.019436372444033623
4.0,0.017011629417538643
5.0,0.015075010247528553
6.0,0.013705934397876263
7.0,0.012431248091161251
8.0,0.011315099895000458
9.0,0.010472078807651997
10.0,0.009847288951277733
11.0,0.009287087246775627
12.0,0.008759924210608006
13.0,0.008338432759046555
14.0,0.00790111068636179
15.0,0.0075168912298977375
16.0,0.006978467106819153
18.0,0.006212178617715836
20.0,0.005514837801456451
22.0,0.004905726294964552
24.0,0.004293226171284914
26.0,0.003862030804157257
28.0,0.0034491904079914093
30.0,0.003230803646147251
32.0,0.00320510589517653
36.0,0.0027475706301629543
40.0,0.002665111795067787
44.0,0.0028466221410781145
48.0,0.002729943487793207
52.0,0.0022723425645381212
56.0,0.001737136859446764
60.0,0.0017318562604486942
64.0,0.001434621517546475
72.0,0.0008980469428934157
80.0,0.0008932688506320119
88.0,0.0010178436059504747
96.0,0.0006359643302857876
104.0,0.0005111827631480992
112.0,0.0005543484003283083
120.0,0.0002726227103266865
128.0,0.0003351185587234795
144.0,0.0006883692694827914
160.0,0.0004911859286949039
176.0,0.0007313171518035233
192.0,0.0009740838431753218
208.0,0.001055502681992948
224.0,0.0005093811778351665
240.0,0.00042334242607466877
256.0,-0.00024236759054474533
288.0,0.000672853842843324
320.0,0.0006203158409334719
352.0,0.0008004886913113296
384.0,0.0003290589083917439
416.0,-8.824705582810566e-05
448.0,-4.4844138756161556e-05
480.0,0.00010267980542266741
512.0,0.0008097773534245789
576.0,0.001040185336023569
640.0,0.0006936905556358397
704.0,0.0007305368781089783
768.0,-0.0004064746026415378
832.0,-0.0011952160857617855
896.0,-0.00019157446513418108
960.0,-0.0013030715053901076
1024.0,-0.0006040939479134977
1152.0,0.00015974788402672857
1280.0,0.00024166490766219795
1408.0,-0.0006828431505709887
1536.0,-0.00020489213056862354
1664.0,0.00038970939931459725
1792.0,0.000563688634429127
1920.0,0.0006872228696011007
2048.0,1.676873398537282e-05
2304.0,0.00047571916365996003
2560.0,0.0003013097739312798
2816.0,-0.00011521991837071255
3072.0,-7.253059447975829e-05
3328.0,-0.0004354340198915452
3584.0,-0.00023113848874345422
3840.0,-1.754749973770231e-05
4096.0,-0.00012430624337866902
4608.0,8.466278814012185e-05
5120.0,-0.00037584640085697174
5632.0,-0.0004928155685774982
6144.0,6.508449132525129e-06
6656.0,2.904712346207816e-05
7168.0,-0.0007747765048407018
7680.0,-0.0002988302439916879
8192.0,0.00021085301705170423
9216.0,-0.00013008143287152052
10240.0,-6.058194048819132e-05
11264.0,2.3238511857925914e-05
12288.0,5.994763705530204e-05
13312.0,-7.302882295334712e-05
14336.0,-0.00014480319805443287
end
