version,3.0
numOfCh,1
type,point
parent_name,2-cuts
ch_type,1_1
kcount,1
numberNandB,1
brightnessNandB,1
carpet pos,0
pc,0
Time (ms),CH1 Auto-Correlation
1.0,0.018781812861561775
2.0,0.015869610011577606
3.0,0.01374131441116333
4.0,0.012029777280986309
5.0,0.0108030391857028
6.0,0.009855560958385468
7.0,0.009099751710891724
8.0,0.008438097313046455
9.0,0.00792672485113144
10.0,0.007456532679498196
11.0,0.007099322974681854
12.0,0.006764971651136875
13.0,0.006493622902780771
14.0,0.006179292686283588
15.0,0.005815081764012575
16.0,0.005615258123725653
18.0,0.005212506279349327
20.0,0.004936706740409136
22.0,0.004761544521898031
24.0,0.0045410883612930775
26.0,0.004373973235487938
28.0,0.0040700677782297134
30.0,0.0036577049177139997
32.0,0.003265917534008622
36.0,0.0026508928276598454
40.0,0.0026744394563138485
44.0,0.002440029988065362
48.0,0.00225717481225729
52.0,0.0021472335793077946
56.0,0.0019068722613155842
60.0,0.0018213196890428662
64.0,0.002045944333076477
72.0,0.002168324077501893
80.0,0.0023999065160751343
88.0,0.002421163022518158
96.0,0.0022815740667283535
104.0,0.001824966398999095
112.0,0.0018803237471729517
120.0,0.0014555526431649923
128.0,0.00141880102455616
144.0,0.0009166390518657863
160.0,0.0010858661262318492
176.0,0.0013038894394412637
192.0,0.001183472340926528
208.0,0.0008592280792072415
224.0,0.0006312434561550617
240.0,0.0007420402253046632
256.0,0.0011840657098218799
288.0,0.000493339030072093
320.0,-6.348128954414278e-05
352.0,5.862137913936749e-05
384.0,-0.00037335214437916875
416.0,-0.0004470379208214581
448.0,0.00024864115403033793
480.0,-0.00010283542360411957
512.0,-0.00047464060480706394
576.0,-0.00021146096696611494
640.0,-0.000640235492028296
704.0,-0.0009933655383065343
768.0,-0.0004971343441866338
832.0,-0.0011210785014554858
896.0,-0.000500249327160418
960.0,-0.00025640911189839244
1024.0,0.0004590519820339978
1152.0,0.0007472170400433242
1280.0,0.0005419434746727347
1408.0,-3.5068676424998557e-06
1536.0,0.00028860216843895614
1664.0,0.0005181351443752646
1792.0,-3.199030061296071e-06
1920.0,-0.00027692681760527194
2048.0,-0.0011327274842187762
2304.0,-0.0006985454238019884
2560.0,-0.0003751588228624314
2816.0,0.0005340958596207201
3072.0,0.0001724950852803886
3328.0,-0.00025856890715658665
3584.0,-0.0004131299792788923
3840.0,-0.00017745242803357542
4096.0,-0.0003836943069472909
4608.0,0.00032024181564338505
5120.0,-0.00040893396362662315
5632.0,2.2845637431601062e-05
6144.0,6.059277893655235e-06
6656.0,-0.00019104221428278834
7168.0,-0.0003662770614027977
7680.0,-0.0004102000093553215
8192.0,2.6340132535551675e-05
9216.0,4.3742933485191315e-05
10240.0,-3.9561073208460584e-05
11264.0,0.00025191984605044127
12288.0,0.00013091201253701001
13312.0,0.00034876359859481454
14336.0,-6.474754627561197e-05
end
