version,3.0
numOfCh,1
type,point
parent_name,2-cuts
ch_type,1_1
kcount,1
numberNandB,1
brightnessNandB,1
carpet pos,0
pc,0
Time (ms),CH1 Auto-Correlation
1.0,0.02573630027472973
2.0,0.020859647542238235
3.0,0.017371010035276413
4.0,0.014858993701636791
5.0,0.012748468667268753
6.0,0.01117752492427826
7.0,0.009974751621484756
8.0,0.008916475810110569
9.0,0.00817914493381977
10.0,0.007496809586882591
11.0,0.0068778395652771
12.0,0.006337721832096577
13.0,0.005784432869404554
14.0,0.005372786428779364
15.0,0.00500255823135376
16.0,0.004587472882121801
18.0,0.004070335067808628
20.0,0.0036486173048615456
22.0,0.0033604048658162355
24.0,0.0031345891766250134
26.0,0.0031712274067103863
28.0,0.0030169710516929626
30.0,0.0027138860896229744
32.0,0.0025609894655644894
36.0,0.0017023761756718159
40.0,0.0012961713364347816
44.0,0.0008301284397020936
48.0,0.0007861708290874958
52.0,0.0007494286401197314
56.0,0.0004771708627231419
60.0,0.0003410200879443437
64.0,0.00038838243926875293
72.0,0.0006722749094478786
80.0,0.00031666032737120986
88.0,-1.0855555956368335e-05
96.0,-0.00011470200843177736
104.0,1.4582184121536557e-05
112.0,0.00044105510460212827
120.0,0.0007786715286783874
128.0,0.0009554314892739058
144.0,0.0005906026344746351
160.0,0.00048387001152150333
176.0,-0.00012906482152175158
192.0,-0.0003886799095198512
208.0,-0.00037290918407961726
224.0,-0.0002986144972965121
240.0,-0.00027601333567872643
256.0,0.00010826119978446513
288.0,-0.00043488197843544185
320.0,-0.0007120572263374925
352.0,0.0001622640120331198
384.0,0.0013300941791385412
416.0,0.0003009519132319838
448.0,2.8101407224312425e-05
480.0,-0.000843782676383853
512.0,-0.00027717198827303946
576.0,-0.00016677789972163737
640.0,-0.00028814715915359557
704.0,0.00017962166748475283
768.0,0.0007101189694367349
832.0,0.000107400439446792
896.0,-0.00021090982772875577
960.0,5.2742678235517815e-05
1024.0,0.00038371054688468575
1152.0,0.00019978571799583733
1280.0,-6.355146615533158e-05
1408.0,-0.0002334321034140885
1536.0,8.036154031287879e-05
1664.0,-0.0005401125526987016
1792.0,-0.00029124965658411384
1920.0,0.00026696076383814216
2048.0,0.00045864650746807456
2304.0,-0.00021289529104251415
2560.0,-0.00010073608427774161
2816.0,0.00010995283810188994
3072.0,6.074837074265815e-05
3328.0,-9.214912279276177e-05
3584.0,-0.0004015229642391205
3840.0,-8.779631752986461e-05
4096.0,-0.0005892411572858691
4608.0,-0.00012530686217360198
5120.0,-2.271904122608248e-05
5632.0,-0.00010920786735368893
6144.0,3.487685899017379e-05
6656.0,-9.945705096470192e-05
7168.0,-0.0001637550740269944
7680.0,0.00013066804967820644
8192.0,0.00012513936962932348
9216.0,5.4812193411635235e-05
10240.0,-9.255630175175611e-06
11264.0,0.0002525835298001766
12288.0,-1.6326530385413207e-05
13312.0,-0.0002355157776037231
14336.0,-0.00010711480717873201
end
