version,3.0
numOfCh,1
type,point
parent_name,2-cuts
ch_type,1_1
kcount,1
numberNandB,1
brightnessNandB,1
carpet pos,0
pc,0
Time (ms),CH1 Auto-Correlation
1.0,0.026339510455727577
2.0,0.021399712190032005
3.0,0.018013976514339447
4.0,0.015553763136267662
5.0,0.014053063467144966
6.0,0.01274906937032938
7.0,0.011392539367079735
8.0,0.010376452468335629
9.0,0.009478545747697353
10.0,0.008809233084321022
11.0,0.008166278712451458
12.0,0.007474666927009821
13.0,0.006944183260202408
14.0,0.006394122261554003
15.0,0.005986563861370087
16.0,0.005858654156327248
18.0,0.005375844892114401
20.0,0.004910850897431374
22.0,0.004550011828541756
24.0,0.00416576350107789
26.0,0.0038534007035195827
28.0,0.0038016964681446552
30.0,0.0036540876608341932
32.0,0.0035994374193251133
36.0,0.00265285512432456
40.0,0.0019854481797665358
44.0,0.0016519048949703574
48.0,0.0007842654013074934
52.0,0.00042257513268850744
56.0,0.0005589738138951361
60.0,0.000276450184173882
64.0,0.0005236229626461864
72.0,0.0008119508274830878
80.0,0.0003368691832292825
88.0,0.00018049166828859597
96.0,0.00032056387863121927
104.0,0.0007266854518093169
112.0,0.00040562081267125905
120.0,0.0003489783557597548
128.0,0.00015687047562096268
144.0,-0.0003260702360421419
160.0,-9.579447942087427e-05
176.0,0.00038217479595914483
192.0,0.0002768513513728976
208.0,0.0005853755865246058
224.0,0.0007583172409795225
240.0,0.001106979325413704
256.0,0.00040185890975408256
288.0,-5.989287456031889e-05
320.0,-0.00041951131424866617
352.0,0.0007205817964859307
384.0,0.0006797250243835151
416.0,0.0003251388552598655
448.0,-0.0003902689495589584
480.0,-0.001034719287417829
512.0,-0.0002957785327453166
576.0,0.00046370012569241226
640.0,-0.0001743147149682045
704.0,-0.0006471337983384728
768.0,-0.00024383369600400329
832.0,-0.0005468184244818985
896.0,0.0002457551017869264
960.0,0.0002567082119639963
1024.0,0.00019071807037107646
1152.0,0.0005775453173555434
1280.0,-0.0006047068163752556
1408.0,-0.00031272132764570415
1536.0,-8.397929195780307e-05
1664.0,2.9741355319856666e-05
1792.0,0.00011260269093327224
1920.0,-4.4651449570665136e-05
2048.0,-0.0006474726251326501
2304.0,-0.0001921064394991845
2560.0,-0.0003115996951237321
2816.0,0.0008228484075516462
3072.0,5.630608575302176e-05
3328.0,-0.00019751950458157808
3584.0,-0.0005122375441715121
3840.0,-0.00025085482047870755
4096.0,-0.00034784304443746805
4608.0,4.8646354116499424e-05
5120.0,2.980101271532476e-05
5632.0,0.00010031358397100121
6144.0,0.0006631306605413556
6656.0,0.00013984122779220343
7168.0,-0.0004450745473150164
7680.0,0.00024112866958603263
8192.0,-0.00047753535909578204
9216.0,-4.8342422815039754e-05
10240.0,-0.0003932191466446966
11264.0,0.00014676660066470504
12288.0,-0.0001658120017964393
13312.0,-7.023021316854283e-05
14336.0,0.0004595122009050101
end
