version,3.0
numOfCh,1
type,point
parent_name,2-cuts
ch_type,1_1
kcount,1
numberNandB,1
brightnessNandB,1
carpet pos,0
pc,0
Time (ms),CH1 Auto-Correlation
1.0,0.01617566868662834
2.0,0.013312486931681633
3.0,0.01135990396142006
4.0,0.009976443834602833
5.0,0.008830633014440536
6.0,0.007912347093224525
7.0,0.007192621007561684
8.0,0.006483732257038355
9.0,0.005925455130636692
10.0,0.005447163246572018
11.0,0.005014062859117985
12.0,0.004654590506106615
13.0,0.004308773670345545
14.0,0.0040242294780910015
15.0,0.003803757019340992
16.0,0.0036371410824358463
18.0,0.0033410335890948772
20.0,0.0030816576909273863
22.0,0.0026301350444555283
24.0,0.0024666611570864916
26.0,0.0021918038837611675
28.0,0.002055297838523984
30.0,0.001885571633465588
32.0,0.001745177898555994
36.0,0.0014270939864218235
40.0,0.0012836932437494397
44.0,0.0011308328248560429
48.0,0.0010707058245316148
52.0,0.0011172678787261248
56.0,0.0009442656300961971
60.0,0.0007524472894147038
64.0,0.0009041826706379652
72.0,0.0007462514913640916
80.0,0.0005278804455883801
88.0,0.0004180549585726112
96.0,-3.547349842847325e-05
104.0,-0.00020061539544258267
112.0,-0.00012052569218212739
120.0,6.83232574374415e-05
128.0,-0.00037561601493507624
144.0,-0.00053774518892169
160.0,-0.0004958542413078249
176.0,-0.00027583615155890584
192.0,-0.00045582029270008206
208.0,-0.0003671391459647566
224.0,-0.0002848552539944649
240.0,0.00019337002595420927
256.0,-0.0001921553339343518
288.0,-8.114700904116035e-05
320.0,-2.8648351872107014e-05
352.0,-0.0006007396732456982
384.0,-0.0005342180375009775
416.0,-0.0005217198631726205
448.0,-0.0001669760822551325
480.0,7.554840976808919e-06
512.0,-0.000173219435964711
576.0,0.0005534305819310248
640.0,0.00014405610272660851
704.0,-0.0004234471416566521
768.0,0.0001195580989588052
832.0,0.0006199198542162776
896.0,0.0005018349620513618
960.0,-0.00037901982432231307
1024.0,-0.0009162878850474954
1152.0,-0.0002127993939211592
1280.0,0.00014088697207625955
1408.0,0.0003921290044672787
1536.0,0.00013229397882241756
1664.0,0.00040833844104781747
1792.0,-0.0001153166958829388
1920.0,-0.0006700540543533862
2048.0,0.00019180250819772482
2304.0,9.559817954141181e-06
2560.0,0.00015037800767458975
2816.0,7.268302579177544e-05
3072.0,1.4773509064980317e-06
3328.0,-4.907780385110527e-05
3584.0,-0.00037068812525831163
3840.0,0.00017458216461818665
4096.0,1.3814042176818475e-05
4608.0,-6.346676673274487e-05
5120.0,-2.328263144590892e-05
5632.0,-0.00013018210302107036
6144.0,-0.00013971980661153793
6656.0,-3.021389238710981e-05
7168.0,0.0001537972129881382
7680.0,-0.00014011008897796273
8192.0,-7.201902917586267e-05
9216.0,0.00015039709978736937
10240.0,-0.000195687374798581
11264.0,8.124049054458737e-05
12288.0,-3.5899058275390416e-05
13312.0,-4.489465572987683e-05
14336.0,0.00017966015730053186
end
