version,3.0
numOfCh,1
type,point
parent_name,2-cuts
ch_type,1_1
kcount,1
numberNandB,1
brightnessNandB,1
carpet pos,0
pc,0
Time (ms),CH1 Auto-Correlation
1.0,0.01663367822766304
2.0,0.013848253525793552
3.0,0.011838981881737709
4.0,0.010308421216905117
5.0,0.00912243127822876
6.0,0.008226568810641766
7.0,0.007445154711604118
8.0,0.00680557219311595
9.0,0.00616530142724514
10.0,0.005695825908333063
11.0,0.005239715334028006
12.0,0.004875057376921177
13.0,0.0045938086695969105
14.0,0.004221043083816767
15.0,0.0038446232210844755
16.0,0.003503965213894844
18.0,0.003052192972972989
20.0,0.00274090887978673
22.0,0.0025493893772363663
24.0,0.0023729184176772833
26.0,0.0020571753848344088
28.0,0.0017121759010478854
30.0,0.0016212222399190068
32.0,0.0015659646596759558
36.0,0.0014878298388794065
40.0,0.0013941441429778934
44.0,0.001345178228802979
48.0,0.0013420925242826343
52.0,0.0012831391068175435
56.0,0.001258278964087367
60.0,0.0010495950700715184
64.0,0.0008443232509307563
72.0,0.0005589475622400641
80.0,0.0007042455254122615
88.0,0.0007622805424034595
96.0,0.0007167890435084701
104.0,0.0005137660191394389
112.0,0.00015742755203973502
120.0,0.00010031772399088368
128.0,0.00026817742036655545
144.0,0.00031482064514420927
160.0,0.0002791868173517287
176.0,0.0003232881717849523
192.0,0.000171158550074324
208.0,-0.0006203965749591589
224.0,-0.000702398712746799
240.0,-0.0004742543096654117
256.0,-0.00035779926110990345
288.0,-0.0004802814219146967
320.0,6.762867997167632e-05
352.0,-0.0004931214498355985
384.0,-0.00015343792620114982
416.0,-0.0003534309798851609
448.0,-3.1582814699504524e-05
480.0,-0.0004052221484016627
512.0,-0.0003502704785205424
576.0,-0.000263652706053108
640.0,-0.00014590323553420603
704.0,-0.0002023614215431735
768.0,-0.00035126443253830075
832.0,0.00017036445206031203
896.0,0.0003064636839553714
960.0,-0.0003309778985567391
1024.0,-6.218702992555336e-07
1152.0,0.00046454998664557934
1280.0,0.00026304388302378356
1408.0,-0.00030417682137340307
1536.0,5.800293729407713e-05
1664.0,-8.969661575974897e-05
1792.0,-7.478840416297317e-05
1920.0,-0.0004542517417576164
2048.0,-0.00026881188387051225
2304.0,-0.00022176567290443927
2560.0,0.0003840943390969187
2816.0,-0.0002635862329043448
3072.0,-0.00025134487077593803
3328.0,7.991876918822527e-05
3584.0,0.0001732097298372537
3840.0,-0.00011698102025547996
4096.0,4.272041769581847e-05
4608.0,0.00015679730859119445
5120.0,4.6354714868357405e-05
5632.0,-0.0001592158805578947
6144.0,0.0002218285808339715
6656.0,-0.00020823589875362813
7168.0,0.0001021109928842634
7680.0,-8.749437984079123e-05
8192.0,-0.00013171069440431893
9216.0,-0.00020587918697856367
10240.0,-1.2574644642882049e-05
11264.0,0.00014330347767099738
12288.0,1.9913963114959188e-05
13312.0,-0.00028579263016581535
14336.0,7.454991282429546e-05
end
