version,3.0
numOfCh,1
type,point
parent_name,2-cuts
ch_type,1_1
kcount,1
numberNandB,1
brightnessNandB,1
carpet pos,0
pc,0
Time (ms),CH1 Auto-Correlation
1.0,0.01609727367758751
2.0,0.013217945583164692
3.0,0.011282796040177345
4.0,0.009746139869093895
5.0,0.008520304225385189
6.0,0.007610886823385954
7.0,0.00681646540760994
8.0,0.006195946130901575
9.0,0.005606256891041994
10.0,0.005120973102748394
11.0,0.004703460726886988
12.0,0.004494233522564173
13.0,0.004263766575604677
14.0,0.003905955236405134
15.0,0.0037029345985502005
16.0,0.0035399161279201508
18.0,0.0031131342984735966
20.0,0.0028637247160077095
22.0,0.002601293148472905
24.0,0.0022832255344837904
26.0,0.0020095373038202524
28.0,0.0019553829915821552
30.0,0.0018991155084222555
32.0,0.0017546011367812753
36.0,0.001394549384713173
40.0,0.0010710053611546755
44.0,0.0010420111939311028
48.0,0.000948418106418103
52.0,0.0009236109908670187
56.0,0.0009340775432065129
60.0,0.0011254429118707776
64.0,0.0012389555340632796
72.0,0.001344918506219983
80.0,0.0011506618466228247
88.0,0.0008953064098022878
96.0,0.0009174113511107862
104.0,0.0009735443163663149
112.0,0.0006661079823970795
120.0,0.0003858278796542436
128.0,0.00018225192616228014
144.0,0.0004958763020113111
160.0,0.0007773907855153084
176.0,-2.1807238226756454e-05
192.0,0.00018652180733624846
208.0,-0.000439697498222813
224.0,-0.0006248604040592909
240.0,-0.0004915222525596619
256.0,-0.00048356500337831676
288.0,9.747109288582578e-05
320.0,0.00046207147534005344
352.0,0.0001084439063561149
384.0,4.332251410232857e-05
416.0,0.0007397271692752838
448.0,-0.00015475746477022767
480.0,0.000507012358866632
512.0,0.0001780442107701674
576.0,0.0003950878162868321
640.0,8.563900337321684e-05
704.0,-8.68050119606778e-05
768.0,-0.0008393240859732032
832.0,-0.0005232083494774997
896.0,-0.00047342796460725367
960.0,5.636096830130555e-06
1024.0,0.00014461211685556918
1152.0,-0.00013237383973319083
1280.0,-0.00036993593676015735
1408.0,-0.00010490554268471897
1536.0,0.0006012815865688026
1664.0,0.00029649477801285684
1792.0,-0.0006967789959162474
1920.0,-0.00025257020024582744
2048.0,0.00038340064929798245
2304.0,2.123503691109363e-05
2560.0,-0.00012847917969338596
2816.0,-7.01202661730349e-05
3072.0,-0.0005262799095362425
3328.0,6.710215075145243e-06
3584.0,0.0002416122006252408
3840.0,0.00010399334132671356
4096.0,3.976660082116723e-05
4608.0,-0.0004920015926472843
5120.0,-6.781479896744713e-05
5632.0,7.184132118709385e-05
6144.0,0.00028973884764127433
6656.0,-0.00022932082356419414
7168.0,8.751979476073757e-05
7680.0,0.0003313616325613111
8192.0,-0.0002670070680323988
9216.0,1.8697493942454457e-05
10240.0,-8.002994036360178e-06
11264.0,-0.00010180546814808622
12288.0,-0.00027703307569026947
13312.0,0.0001813874114304781
14336.0,0.000138784758746624
end
