version,3.0
numOfCh,1
type,point
parent_name,2-cuts
ch_type,1_1
kcount,1
numberNandB,1
brightnessNandB,1
carpet pos,0
pc,0
Time (ms),CH1 Auto-Correlation
1.0,0.015624085441231728
2.0,0.012598388828337193
3.0,0.01041546743363142
4.0,0.008845201693475246
5.0,0.007643688004463911
6.0,0.006637456826865673
7.0,0.005923536606132984
8.0,0.005438946653157473
9.0,0.005035479087382555
10.0,0.004748486448079348
11.0,0.004491007886826992
12.0,0.004204720724374056
13.0,0.003858578624203801
14.0,0.003490021452307701
15.0,0.0031454856507480145
16.0,0.002763098105788231
18.0,0.0022552681621164083
20.0,0.0019911620765924454
22.0,0.0018557130824774504
24.0,0.0017422131495550275
26.0,0.0016113637248054147
28.0,0.0016067485557869077
30.0,0.0014906908618286252
32.0,0.001355259446427226
36.0,0.001182088628411293
40.0,0.0010347695788368583
44.0,0.0006878660060465336
48.0,0.0005071875639259815
52.0,0.00044330317177809775
56.0,0.00016158387006726116
60.0,0.00040755182271823287
64.0,0.0004304010944906622
72.0,0.0005702016642317176
80.0,0.0004459654737729579
88.0,0.0004209374310448766
96.0,0.0007122654351405799
104.0,0.0010501593351364136
112.0,0.0006890675285831094
120.0,-3.7794099625898525e-05
128.0,0.00019988247368019074
144.0,-1.8669776181923226e-05
160.0,5.947772478975821e-06
176.0,-4.076974073541351e-05
192.0,1.691239231149666e-05
208.0,-0.00027503358433023095
224.0,-0.00047858626930974424
240.0,-7.241802813950926e-05
256.0,6.53561728540808e-05
288.0,-0.00034137029433622956
320.0,-9.742403926793486e-05
352.0,6.908630894031376e-05
384.0,-5.375687396735884e-05
416.0,-8.875296043697745e-05
448.0,-4.935869947075844e-05
480.0,3.203533560736105e-05
512.0,-0.00021125641069374979
576.0,6.84619735693559e-05
640.0,0.0002008597512030974
704.0,0.00039649117388762534
768.0,0.00019635481294244528
832.0,0.00042017753003165126
896.0,-0.00021479032875504345
960.0,-0.0004078056081198156
1024.0,-0.0007019259501248598
1152.0,-0.00014854426262900233
1280.0,-7.771195669192821e-05
1408.0,3.0733088351553306e-05
1536.0,3.2349467801395804e-05
1664.0,-0.0001525420229882002
1792.0,-0.0006566176889464259
1920.0,-0.0002449007297400385
2048.0,0.000318034493830055
2304.0,0.00013764698815066367
2560.0,-0.0001652545906836167
2816.0,0.00025927627575583756
3072.0,6.98958829161711e-05
3328.0,-8.464989514322951e-05
3584.0,4.276206163922325e-05
3840.0,8.284660725621507e-05
4096.0,0.00019201940449420363
4608.0,-4.0640743463882245e-06
5120.0,-0.00012388317554723471
5632.0,-0.0002840384258888662
6144.0,-0.00013239584222901613
6656.0,1.7927961380337365e-05
7168.0,6.959418533369899e-05
7680.0,0.0001697749539744109
8192.0,2.8647045837715268e-05
9216.0,-0.00022461805201601237
10240.0,-1.3664492144016549e-05
11264.0,0.0002778067428153008
12288.0,3.199975617462769e-05
13312.0,-0.0005052944179624319
14336.0,0.0004335239646025002
end
