version,3.0
numOfCh,1
type,point
parent_name,2-cuts
ch_type,1_1
kcount,1
numberNandB,1
brightnessNandB,1
carpet pos,0
pc,0
Time (ms),CH1 Auto-Correlation
1.0,0.02794032171368599
2.0,0.023051168769598007
3.0,0.019679440185427666
4.0,0.017270484939217567
5.0,0.015497012063860893
6.0,0.014055348001420498
7.0,0.012889412231743336
8.0,0.011910931207239628
9.0,0.010979405604302883
10.0,0.010234803892672062
11.0,0.009578353725373745
12.0,0.009114844724535942
13.0,0.00856146588921547
14.0,0.007953272201120853
15.0,0.0075598182156682014
16.0,0.00698604341596365
18.0,0.006506180856376886
20.0,0.005743527784943581
22.0,0.005053458735346794
24.0,0.004362615756690502
26.0,0.003967339172959328
28.0,0.003381637390702963
30.0,0.003061590250581503
32.0,0.0027656203601509333
36.0,0.002595344325527549
40.0,0.0025360386352986097
44.0,0.002266545547172427
48.0,0.002282576635479927
52.0,0.001892153057269752
56.0,0.001383879454806447
60.0,0.0006816495442762971
64.0,0.0005426392308436334
72.0,0.001048763864673674
80.0,0.0010450324043631554
88.0,0.0010965944966301322
96.0,0.001113471807911992
104.0,0.00040639881626702845
112.0,0.00014856181223876774
120.0,0.00017812625446822494
128.0,0.00029958775849081576
144.0,0.0002815978950820863
160.0,-8.340449130628258e-05
176.0,-0.0004252474755048752
192.0,-0.00023999855329748243
208.0,-0.00011636438284767792
224.0,-0.000595700228586793
240.0,-0.0005828918656334281
256.0,-0.0008993940427899361
288.0,-0.001188761438243091
320.0,-0.00011478679516585544
352.0,-0.0002653834817465395
384.0,-0.0003965231589972973
416.0,-0.00047490870929323137
448.0,-0.0008737322059459984
480.0,0.0008517192327417433
512.0,0.0006969239329919219
576.0,0.0004496178880799562
640.0,0.00016818287258502096
704.0,0.00043667384306900203
768.0,-0.0007066828547976911
832.0,-0.0007997509092092514
896.0,-0.0013527172850444913
960.0,-0.0009433121886104345
1024.0,-0.0006782147102057934
1152.0,-0.00038178570684976876
1280.0,-7.79389010858722e-05
1408.0,-0.0005292811547406018
1536.0,0.00036194786662235856
1664.0,0.0006509274826385081
1792.0,0.00022389550576917827
1920.0,1.4806436411163304e-05
2048.0,0.00025984030799008906
2304.0,-0.00011972084030276164
2560.0,-0.00020352935825940222
2816.0,-0.0005752573488280177
3072.0,-0.0004252186045050621
3328.0,8.198398427339271e-05
3584.0,0.0004347339563537389
3840.0,0.00049996079178527
4096.0,0.0001955378393176943
4608.0,-0.00020523948478512466
5120.0,-0.0003713934274856001
5632.0,0.00027791628963313997
6144.0,0.00036823880509473383
6656.0,-0.00041791555122472346
7168.0,-0.00011598134005907923
7680.0,0.0005651963292621076
8192.0,-3.467333590378985e-05
9216.0,-0.00016561569646000862
10240.0,-0.00013813425903208554
11264.0,0.00044679545680992305
12288.0,-0.00020377535838633776
13312.0,-4.480653296923265e-05
14336.0,-0.0005395936314016581
end
