version,3.0
numOfCh,1
type,point
parent_name,2-cuts
ch_type,1_1
kcount,1
numberNandB,1
brightnessNandB,1
carpet pos,0
pc,0
Time (ms),CH1 Auto-Correlation
1.0,0.016574734821915627
2.0,0.0137204984202981
3.0,0.011602160520851612
4.0,0.009974478743970394
5.0,0.008782047778367996
6.0,0.0077719492837786674
7.0,0.007125744130462408
8.0,0.006595824845135212
9.0,0.006149942055344582
10.0,0.005761905573308468
11.0,0.005263740196824074
12.0,0.00483116926625371
13.0,0.004487616941332817
14.0,0.0041603329591453075
15.0,0.003913078457117081
16.0,0.0036892739590257406
18.0,0.0032608979381620884
20.0,0.002994815818965435
22.0,0.002816570922732353
24.0,0.0026610521599650383
26.0,0.002502737333998084
28.0,0.002186562167480588
30.0,0.001891099032945931
32.0,0.0017955037765204906
36.0,0.0016408329829573631
40.0,0.0015312747564166784
44.0,0.0012441560393199325
48.0,0.0012114201672375202
52.0,0.0010055239545181394
56.0,0.0007044548983685672
60.0,0.0007274678791873157
64.0,0.0008921200642362237
72.0,0.0008089743787422776
80.0,0.0008778091287240386
88.0,0.0009080841555260122
96.0,0.0006695585907436907
104.0,0.0004627478192560375
112.0,0.0004628748865798116
120.0,0.0003238303179387003
128.0,9.507427603239194e-05
144.0,0.00014848652062937617
160.0,0.0004220225673634559
176.0,8.950132905738428e-05
192.0,-0.0002708319516386837
208.0,-0.0008449231972917914
224.0,-0.0002174355904571712
240.0,-0.0003914538538083434
256.0,-0.00042006411240436137
288.0,-0.00044326551142148674
320.0,-0.0004091544251423329
352.0,-0.00011289807298453525
384.0,-0.00035531044704839587
416.0,-0.0001357602304778993
448.0,-0.0001843344361986965
480.0,-0.00042246823431923985
512.0,-0.0003110939869657159
576.0,-0.00019585063273552805
640.0,0.00022360548609867692
704.0,0.0001932398008648306
768.0,0.0003079510643146932
832.0,-0.00016612435865681618
896.0,0.0004648724861908704
960.0,-5.080896880826913e-05
1024.0,-0.0004807499353773892
1152.0,1.5915233234409243e-05
1280.0,0.00039784162072464824
1408.0,0.00030912752845324576
1536.0,0.00023989551118575037
1664.0,-0.00039882908458821476
1792.0,-0.00048511227942071855
1920.0,-3.040065712411888e-05
2048.0,0.00028703437419608235
2304.0,-0.00020668416982516646
2560.0,0.00041094128391705453
2816.0,0.00041697185952216387
3072.0,-0.0002495309745427221
3328.0,1.3335571566130966e-05
3584.0,-8.78450446180068e-05
3840.0,-0.00020999308617319912
4096.0,-7.484829257009551e-05
4608.0,-0.00010991602903231978
5120.0,-6.688414578093216e-05
5632.0,0.00014138157712295651
6144.0,-1.6830030290293507e-05
6656.0,5.963008152320981e-05
7168.0,-0.00014325909432955086
7680.0,0.00020887859864160419
8192.0,-9.86191225820221e-05
9216.0,5.1360595534788445e-05
10240.0,-9.229927673004568e-05
11264.0,-0.0002269861870445311
12288.0,-0.00027868454344570637
13312.0,-0.0003173038421664387
14336.0,-0.00032230239594355226
end
