version,3.0
numOfCh,1
type,point
parent_name,2-cuts
ch_type,1_1
kcount,1
numberNandB,1
brightnessNandB,1
carpet pos,0
pc,0
Time (ms),CH1 Auto-Correlation
1.0,0.028930004686117172
2.0,0.023954356089234352
3.0,0.020490046590566635
4.0,0.01788940280675888
5.0,0.01589244045317173
6.0,0.014463476836681366
7.0,0.013105292804539204
8.0,0.011801056563854218
9.0,0.01087881624698639
10.0,0.01010164711624384
11.0,0.009519040584564209
12.0,0.009106696583330631
13.0,0.008513210341334343
14.0,0.007952003739774227
15.0,0.0074252355843782425
16.0,0.00695027643814683
18.0,0.00609643803909421
20.0,0.005276153329759836
22.0,0.00466949725523591
24.0,0.004372372757643461
26.0,0.004142127465456724
28.0,0.0037673155311495066
30.0,0.0036446431186050177
32.0,0.003167393384501338
36.0,0.0024518389254808426
40.0,0.002530418336391449
44.0,0.002845528069883585
48.0,0.0031480672769248486
52.0,0.003004802856594324
56.0,0.002558755921199918
60.0,0.0024207665119320154
64.0,0.0018932841485366225
72.0,0.0012789425672963262
80.0,0.00129107350949198
88.0,0.0007765267509967089
96.0,0.0006757034570910037
104.0,0.0008713406859897077
112.0,0.0007164622657001019
120.0,0.0008215446141548455
128.0,0.0007494278252124786
144.0,0.0007429686957038939
160.0,4.835373692912981e-05
176.0,0.00014675412967335433
192.0,0.00040632448508404195
208.0,0.0007688651676289737
224.0,0.0006656947662122548
240.0,0.0002424825361231342
256.0,-0.0001866593083832413
288.0,0.0010569808073341846
320.0,9.382725693285465e-06
352.0,0.00041902155498974025
384.0,0.00032364093931391835
416.0,0.0005347098340280354
448.0,-0.00021958124125376344
480.0,-0.00044806982623413205
512.0,-0.00015667505795136094
576.0,0.000539434258826077
640.0,-0.00022790752700529993
704.0,0.0004226566816214472
768.0,-0.0005243109189905226
832.0,-0.00041651129140518606
896.0,0.00014429692237172276
960.0,-0.0004051741270814091
1024.0,-0.0010487062390893698
1152.0,-0.0004808727535419166
1280.0,8.761492790654302e-05
1408.0,-4.363817788544111e-05
1536.0,0.0003718238149303943
1664.0,-0.00021392245253082365
1792.0,-0.00034189369762316346
1920.0,-0.00028381121228449047
2048.0,5.4611937230220065e-05
2304.0,-0.0005974068772047758
2560.0,-0.00021515748812817037
2816.0,-0.00041692637023516
3072.0,-0.0005160924629308283
3328.0,0.0002263387868879363
3584.0,0.0006381412968039513
3840.0,0.00043392967199906707
4096.0,0.0003050115192309022
4608.0,-0.00012791053450200707
5120.0,-4.901489592157304e-05
5632.0,-0.00011645745689747855
6144.0,-0.0004926781402900815
6656.0,-0.00019771751249209046
7168.0,0.00010046842362498865
7680.0,0.0003306609869468957
8192.0,0.0006327622104436159
9216.0,9.099472663365304e-05
10240.0,-0.0001273063971893862
11264.0,-0.00021550487144850194
12288.0,-0.00018485831969883293
13312.0,-0.0002937880635727197
14336.0,-0.00031101785134524107
end
