version,3.0
numOfCh,1
type,point
parent_name,2-cuts
ch_type,1_1
kcount,1
numberNandB,1
brightnessNandB,1
carpet pos,0
pc,0
Time (ms),CH1 Auto-Correlation
1.0,0.027475353330373764
2.0,0.02261061780154705
3.0,0.01936485432088375
4.0,0.016906410455703735
5.0,0.015082730911672115
6.0,0.013508078642189503
7.0,0.012102109380066395
8.0,0.010873827151954174
9.0,0.009917479939758778
10.0,0.009174991399049759
11.0,0.008609481155872345
12.0,0.008237297646701336
13.0,0.007845668122172356
14.0,0.007414772640913725
15.0,0.006931343115866184
16.0,0.00668587489053607
18.0,0.006444169674068689
20.0,0.006093684583902359
22.0,0.005487736314535141
24.0,0.005139501765370369
26.0,0.004691752605140209
28.0,0.004379892256110907
30.0,0.004208783153444529
32.0,0.00406864145770669
36.0,0.003420582739636302
40.0,0.0033086775802075863
44.0,0.0033164354972541332
48.0,0.003107643686234951
52.0,0.0027323770336806774
56.0,0.0026091516483575106
60.0,0.0024416001979261637
64.0,0.0022389867808669806
72.0,0.0019984557293355465
80.0,0.0011229849187657237
88.0,0.001302226446568966
96.0,0.0010154017945751548
104.0,0.0011861114762723446
112.0,0.0011518072569742799
120.0,0.0007707941113039851
128.0,0.0002918863610830158
144.0,0.00041250340291298926
160.0,0.00033329823054373264
176.0,0.00034530070843175054
192.0,0.00037139133200980723
208.0,0.000661443336866796
224.0,0.0004203608550596982
240.0,0.000416076771216467
256.0,0.00017490565369371325
288.0,0.0006094158161431551
320.0,0.0007678987458348274
352.0,0.0009080399759113789
384.0,0.00021897714759688824
416.0,-0.00031400314765051007
448.0,-0.00023157217947300524
480.0,-0.0006950743845663965
512.0,-0.0004886804381385446
576.0,0.00011988155893050134
640.0,2.8973048756597564e-05
704.0,0.0007266055326908827
768.0,-0.0002120356512023136
832.0,-0.00035050700535066426
896.0,-6.124008359620348e-05
960.0,-0.0005609318614006042
1024.0,-0.0012113028205931187
1152.0,-0.00042016481165774167
1280.0,3.378899782546796e-05
1408.0,0.00010360409214626998
1536.0,-0.000351830298313871
1664.0,-0.0005737576284445822
1792.0,-0.0005593826645053923
1920.0,-0.00019545588293112814
2048.0,-3.86257961508818e-05
2304.0,9.402920841239393e-05
2560.0,-0.00046849067439325154
2816.0,-0.00020953465718775988
3072.0,-0.0002502644492778927
3328.0,2.7651238269754685e-05
3584.0,0.0009349744650535285
3840.0,0.0005909897154197097
4096.0,-0.0002574711397755891
4608.0,-5.4566353355767205e-05
5120.0,-0.00039173458935692906
5632.0,-0.0004954703617841005
6144.0,-0.0004968975554220378
6656.0,-0.00044646288733929396
7168.0,0.0004972363240085542
7680.0,0.0005013394984416664
8192.0,0.00039336230838671327
9216.0,-8.198339492082596e-05
10240.0,5.979886918794364e-05
11264.0,0.00032226965413428843
12288.0,-7.929823186714202e-05
13312.0,-0.0007133281324058771
14336.0,0.00016259885160252452
end
