version,3.0
numOfCh,1
type,point
parent_name,2-cuts
ch_type,1_1
kcount,1
numberNandB,1
brightnessNandB,1
carpet pos,0
pc,0
Time (ms),CH1 Auto-Correlation
1.0,0.016387155279517174
2.0,0.013394714333117008
3.0,0.011211106553673744
4.0,0.009562386199831963
5.0,0.008368285372853279
6.0,0.007386522833257914
7.0,0.006535021588206291
8.0,0.00576814403757453
9.0,0.005098334047943354
10.0,0.004633281379938126
11.0,0.004197478294372559
12.0,0.003863891586661339
13.0,0.003590962616726756
14.0,0.0034230120945721865
15.0,0.0032262864988297224
16.0,0.002970052883028984
18.0,0.0025270096957683563
20.0,0.0023666727356612682
22.0,0.002064531436190009
24.0,0.002024969784542918
26.0,0.0018636506283655763
28.0,0.001800084370188415
30.0,0.0018400338012725115
32.0,0.0017448797589167953
36.0,0.0015222893562167883
40.0,0.001497940975241363
44.0,0.001409337972290814
48.0,0.0012065635528415442
52.0,0.0011059022508561611
56.0,0.0013683645520359278
60.0,0.00157674471847713
64.0,0.0016576331108808517
72.0,0.00093507842393592
80.0,0.0007011304842308164
88.0,0.0005872698966413736
96.0,0.00034174707252532244
104.0,9.576274896971881e-05
112.0,0.00020733194833155721
120.0,-9.361519187223166e-05
128.0,-0.00013711895735468715
144.0,0.00051627226639539
160.0,0.000927761837374419
176.0,0.0007883692160248756
192.0,9.10682138055563e-05
208.0,-0.00024006098101381212
224.0,0.0001597134250914678
240.0,0.00012055017577949911
256.0,-6.341138214338571e-05
288.0,-0.0003886744671035558
320.0,0.00010490589920664206
352.0,-0.0001430969568900764
384.0,0.00011132314102724195
416.0,4.440389966475777e-05
448.0,-0.00010579321678960696
480.0,0.0002960299316328019
512.0,6.8509420088958e-05
576.0,0.00013108835264574736
640.0,0.0001984714181162417
704.0,0.00027069280622527003
768.0,0.00018488311616238207
832.0,-0.0005278877797536552
896.0,-0.0005164210451766849
960.0,-0.00011772396101150662
1024.0,-0.00011595343676162884
1152.0,0.0004585784045048058
1280.0,6.660567305516452e-05
1408.0,-0.0003014745016116649
1536.0,-0.00034344918094575405
1664.0,0.00021976589050609618
1792.0,0.00021256040781736374
1920.0,-0.00045137954293750226
2048.0,-0.0004099247744306922
2304.0,-0.0003390847996342927
2560.0,-0.0002978200791403651
2816.0,0.00027375086210668087
3072.0,-0.00020402860536705703
3328.0,-0.0003343441348988563
3584.0,0.00025584406103007495
3840.0,-8.463451194984373e-06
4096.0,0.0004988285363651812
4608.0,0.00017683845362626016
5120.0,-0.0002382749371463433
5632.0,-5.607748244074173e-05
6144.0,-0.0006156476447358727
6656.0,-0.0001092282182071358
7168.0,0.0003825511084869504
7680.0,-8.814523084765824e-07
8192.0,0.0003497338911984116
9216.0,-5.087388490210287e-05
10240.0,-0.00020509101159404963
11264.0,0.00022603159595746547
12288.0,0.00020043877884745598
13312.0,-0.0004030729178339243
14336.0,-6.812676292611286e-05
end
