version,3.0
numOfCh,1
type,point
parent_name,2-cuts
ch_type,1_1
kcount,1
numberNandB,1
brightnessNandB,1
carpet pos,0
pc,0
Time (ms),CH1 Auto-Correlation
1.0,0.016826696693897247
2.0,0.013908647932112217
3.0,0.01178559847176075
4.0,0.010366792790591717
5.0,0.009245726279914379
6.0,0.008274873718619347
7.0,0.00750320078805089
8.0,0.006735698319971561
9.0,0.0062104156240820885
10.0,0.005744842812418938
11.0,0.005357753019779921
12.0,0.004968777298927307
13.0,0.004660867620259523
14.0,0.004355363082140684
15.0,0.004167002160102129
16.0,0.003956105560064316
18.0,0.003628342878073454
20.0,0.003157977480441332
22.0,0.002832508645951748
24.0,0.0024171459954231977
26.0,0.0023075698409229517
28.0,0.0022268728353083134
30.0,0.0021383094135671854
32.0,0.002084864303469658
36.0,0.0020969684701412916
40.0,0.0020177948754280806
44.0,0.001877209055237472
48.0,0.001636684057302773
52.0,0.0017391365254297853
56.0,0.0017259630840271711
60.0,0.0015386654995381832
64.0,0.0012735354248434305
72.0,0.0009449225035496056
80.0,0.0008126478642225266
88.0,0.0010225410806015134
96.0,0.001246079453267157
104.0,0.0008948686299845576
112.0,0.0006046953494660556
120.0,2.8878474040539004e-05
128.0,6.380459672072902e-05
144.0,0.0001792678376659751
160.0,0.0005827534478157759
176.0,0.00025074236327782273
192.0,9.192124707624316e-05
208.0,-0.00023796821187715977
224.0,-0.00039252042188309133
240.0,-0.00029213764355517924
256.0,-0.0006456610863097012
288.0,-0.0005921779084019363
320.0,-0.000505821022670716
352.0,-0.000291132484562695
384.0,-2.9791759516228922e-05
416.0,0.0003995617153123021
448.0,0.00044749685912393034
480.0,0.000690071377903223
512.0,0.00023035671620164067
576.0,0.00038428459083661437
640.0,0.0002435576607240364
704.0,-0.0002645955828484148
768.0,-0.0005293714930303395
832.0,-0.0006143264472484589
896.0,-0.0005485089495778084
960.0,-0.00046524949721060693
1024.0,-8.431443711742759e-05
1152.0,3.1602416129317135e-05
1280.0,-0.00045366722042672336
1408.0,-0.0002303935616509989
1536.0,-1.1339824595779646e-05
1664.0,0.00018892835942097008
1792.0,-0.00013436895096674562
1920.0,-7.821471808711067e-05
2048.0,-3.7207089917501435e-05
2304.0,-0.00011388638813514262
2560.0,-0.00043251150054857135
2816.0,-0.00039564730832353234
3072.0,-0.00019803627219516784
3328.0,0.00025259878020733595
3584.0,0.0003404649323783815
3840.0,0.00018784686108119786
4096.0,5.116883403388783e-05
4608.0,-3.614262823248282e-05
5120.0,-9.662724914960563e-05
5632.0,4.163780147337093e-07
6144.0,-8.252428960986435e-05
6656.0,0.0001107955104089342
7168.0,-9.971083636628464e-05
7680.0,-0.00010930667485808954
8192.0,4.98144217999652e-05
9216.0,0.00016515546303708106
10240.0,0.00018136414291802794
11264.0,-0.0005195655394345522
12288.0,0.00013827507791575044
13312.0,0.000198800815269351
14336.0,9.548165689921007e-05
end
