version,3.0
numOfCh,1
type,point
parent_name,2-cuts
ch_type,1_1
kcount,1
numberNandB,1
brightnessNandB,1
carpet pos,0
pc,0
Time (ms),CH1 Auto-Correlation
1.0,0.026203086599707603
2.0,0.02117234468460083
3.0,0.017747141420841217
4.0,0.01524557825177908
5.0,0.013273501768708229
6.0,0.011710921302437782
7.0,0.010607502423226833
8.0,0.009644286707043648
9.0,0.008609424345195293
10.0,0.007880534045398235
11.0,0.007226265501230955
12.0,0.006543590687215328
13.0,0.006089385133236647
14.0,0.005697127431631088
15.0,0.005319686606526375
16.0,0.004981422331184149
18.0,0.0044920495711266994
20.0,0.0040357704274356365
22.0,0.0036711511202156544
24.0,0.0033833361230790615
26.0,0.0030230339616537094
28.0,0.002752824919298291
30.0,0.002658058889210224
32.0,0.002680079312995076
36.0,0.0026915776543319225
40.0,0.0024998530279845
44.0,0.002236981876194477
48.0,0.0018231793073937297
52.0,0.0013928223634138703
56.0,0.001163142966106534
60.0,0.0013760828878730536
64.0,0.001205194741487503
72.0,0.0012600681511685252
80.0,0.0008603530004620552
88.0,0.00019969076674897224
96.0,0.00038911611773073673
104.0,9.70128967310302e-05
112.0,0.00041630250052548945
120.0,0.00031246704747900367
128.0,0.0008058598614297807
144.0,0.0009787003509700298
160.0,0.0005031945765949786
176.0,0.0007557699573226273
192.0,0.0006255169282667339
208.0,0.00087426119716838
224.0,0.001013519475236535
240.0,0.0008682530024088919
256.0,0.0006681423983536661
288.0,0.00029626479954458773
320.0,0.0007991651655174792
352.0,0.00020329268591012806
384.0,-0.00021306128473952413
416.0,-0.00011488503514556214
448.0,0.000387902109650895
480.0,0.0002834221231751144
512.0,-1.4681709217256866e-05
576.0,-0.0003500000457279384
640.0,-4.144406830164371e-06
704.0,0.00041910630534403026
768.0,0.0001031568244798109
832.0,0.00018268874555360526
896.0,4.384329076856375e-05
960.0,0.0001761958992574364
1024.0,-0.00030768869328312576
1152.0,-7.5419811764732e-05
1280.0,-0.00021098824799992144
1408.0,-4.932675801683217e-05
1536.0,-0.0006897361017763615
1664.0,-0.0005528171896003187
1792.0,-8.157476258929819e-05
1920.0,0.00011894771887455136
2048.0,-0.0003503803163766861
2304.0,0.0002375809708610177
2560.0,-0.0003827690670732409
2816.0,-0.0005104990559630096
3072.0,-0.0002017619990510866
3328.0,-0.00015136289584916085
3584.0,-0.00040322038694284856
3840.0,8.456087380181998e-05
4096.0,0.00026400681235827506
4608.0,-4.117960270377807e-05
5120.0,-0.0003460087173152715
5632.0,0.000275987054919824
6144.0,0.0004626528825610876
6656.0,0.0003458696010056883
7168.0,-0.0007976232445798814
7680.0,0.0004511754377745092
8192.0,-0.0006119203171692789
9216.0,0.00018347760487813503
10240.0,-0.00026554043870419264
11264.0,1.1323671969876159e-05
12288.0,0.0010469593107700348
13312.0,-5.426601637736894e-05
14336.0,-0.0014858986251056194
end
