version,3.0
numOfCh,1
type,point
parent_name,2-cuts
ch_type,1_1
kcount,1
numberNandB,1
brightnessNandB,1
carpet pos,0
pc,0
Time (ms),CH1 Auto-Correlation
1.0,0.014713136479258537
2.0,0.011831731535494328
3.0,0.009817814454436302
4.0,0.008331439457833767
5.0,0.007311323191970587
6.0,0.006564024835824966
7.0,0.005798340309411287
8.0,0.005263912957161665
9.0,0.004832710139453411
10.0,0.004521367605775595
11.0,0.004318316001445055
12.0,0.004039797466248274
13.0,0.0038105840794742107
14.0,0.0036483234725892544
15.0,0.003535300726071
16.0,0.003493265947327018
18.0,0.003292046021670103
20.0,0.0029629473574459553
22.0,0.0029003345407545567
24.0,0.0027577474247664213
26.0,0.002443484729155898
28.0,0.0020671917591243982
30.0,0.0018121171742677689
32.0,0.0016422279877588153
36.0,0.001375962165184319
40.0,0.0012724254047498107
44.0,0.0012294607004150748
48.0,0.001066015101969242
52.0,0.0009010255453176796
56.0,0.0007770085358060896
60.0,0.0007481713546440005
64.0,0.0008240845054388046
72.0,0.0008608365897089243
80.0,0.0005703495116904378
88.0,0.00027291118749417365
96.0,0.000285000802250579
104.0,0.00016004472854547203
112.0,8.557874389225617e-05
120.0,-0.00022413351689465344
128.0,-0.0006548893870785832
144.0,-0.00019008723029401153
160.0,-0.0003073236730415374
176.0,8.719988727534655e-06
192.0,0.00017560938431415707
208.0,0.000151604792336002
224.0,0.0001075516629498452
240.0,6.506139470729977e-05
256.0,-1.5590143448207527e-05
288.0,-0.00016698421677574515
320.0,0.00013370884698815644
352.0,0.00011425886623328552
384.0,-0.00035483468673191965
416.0,-0.0002875231148209423
448.0,-0.00022573419846594334
480.0,-8.660714229336008e-05
512.0,5.9876529121538624e-05
576.0,-0.000291975011350587
640.0,-0.0001508988643763587
704.0,5.810420771013014e-05
768.0,0.00013545413094107062
832.0,0.0002936599776148796
896.0,0.0005047068698331714
960.0,0.0005879497621208429
1024.0,0.0003192793228663504
1152.0,1.4008815014676657e-05
1280.0,-0.0007000166806392372
1408.0,-0.0002091995847877115
1536.0,-0.0004216952947899699
1664.0,0.00046046607894822955
1792.0,9.343604324385524e-05
1920.0,0.0005042846314609051
2048.0,-4.8451661314175e-06
2304.0,-0.0003105988434981555
2560.0,7.026512321317568e-05
2816.0,0.00011539422848727554
3072.0,-0.0005844999686814845
3328.0,-0.0001366111682727933
3584.0,0.0004775557026732713
3840.0,-0.00012348793097771704
4096.0,-0.0003733285702764988
4608.0,-0.00010313963139196858
5120.0,-0.0004315819824114442
5632.0,-1.4512369489239063e-05
6144.0,0.0002879162202589214
6656.0,-5.636096830130555e-05
7168.0,0.00014993271906860173
7680.0,-0.00016456832236144692
8192.0,0.0003573234425857663
9216.0,7.465270027751103e-05
10240.0,0.00024229829432442784
11264.0,-0.0003076109569519758
12288.0,-3.398951230337843e-05
13312.0,0.00016897724708542228
14336.0,-0.0003904260229319334
end
