version,3.0
numOfCh,1
type,point
parent_name,2-cuts
ch_type,1_1
kcount,1
numberNandB,1
brightnessNandB,1
carpet pos,0
pc,0
Time (ms),CH1 Auto-Correlation
1.0,0.016964763402938843
2.0,0.014149660244584084
3.0,0.012122810818254948
4.0,0.010669922456145287
5.0,0.009501977823674679
6.0,0.008518879301846027
7.0,0.007750057149678469
8.0,0.00704802293330431
9.0,0.006503238342702389
10.0,0.0060264053754508495
11.0,0.005534907802939415
12.0,0.005198696628212929
13.0,0.0049034287221729755
14.0,0.004714698065072298
15.0,0.004407631698995829
16.0,0.004154079128056765
18.0,0.003707858733832836
20.0,0.003313646884635091
22.0,0.00295622437261045
24.0,0.002776535926386714
26.0,0.002413183217868209
28.0,0.002159300958737731
30.0,0.002050570212304592
32.0,0.0018982592737302184
36.0,0.0015419431729242206
40.0,0.0012260364601388574
44.0,0.0011301413178443909
48.0,0.0009825746528804302
52.0,0.0007329688523896039
56.0,0.000706360035110265
60.0,0.0007442584610544145
64.0,0.00071411655517295
72.0,0.00048308339319191873
80.0,1.3347833373700269e-05
88.0,-5.269251232675742e-06
96.0,0.0002911491319537163
104.0,0.0006310056196525693
112.0,0.0003956170112360269
120.0,0.00016479199985042214
128.0,0.0005547989276237786
144.0,0.00019717768009286374
160.0,0.00033032515784725547
176.0,0.0003581414348445833
192.0,0.0005591047229245305
208.0,0.00016767397755756974
224.0,8.216981223085895e-05
240.0,-9.648088598623872e-05
256.0,-0.0002969553170260042
288.0,-5.895037975278683e-05
320.0,0.00048539036652073264
352.0,0.0004331452364567667
384.0,0.0008894430939108133
416.0,0.0008584026363678277
448.0,0.00011199914297321811
480.0,-0.0002091987698804587
512.0,0.00018573571287561208
576.0,-0.00030915363458916545
640.0,-0.00017885243869386613
704.0,0.00019808280922006816
768.0,-0.0001819772442104295
832.0,-8.01695350673981e-05
896.0,-0.00031896718428470194
960.0,-0.0007287047919817269
1024.0,-0.000702089979313314
1152.0,-0.0004303959140088409
1280.0,-0.0008868362056091428
1408.0,-0.0003691506863106042
1536.0,9.15121054276824e-05
1664.0,-0.0004091078008059412
1792.0,-0.0003800052800215781
1920.0,-1.62923097377643e-05
2048.0,-0.0003753801865968853
2304.0,0.00015909109788481146
2560.0,0.00045827351277694106
2816.0,4.119235018151812e-05
3072.0,0.0005386872799135745
3328.0,6.80045923218131e-05
3584.0,-0.00014666735660284758
3840.0,-8.065268775681034e-05
4096.0,0.0001099098808481358
4608.0,-4.714066017186269e-05
5120.0,-0.00025244668358936906
5632.0,0.0002619361621327698
6144.0,-9.261972081731074e-06
6656.0,-0.00042936019599437714
7168.0,0.0003779349790420383
7680.0,0.00017332611605525017
8192.0,-0.0005440879031084478
9216.0,0.00012630406126845628
10240.0,-7.407516386592761e-05
11264.0,-1.40726533572888e-05
12288.0,2.672766822797712e-05
13312.0,-2.468283810230787e-06
14336.0,8.85642075445503e-05
end
