version,3.0
numOfCh,1
type,point
parent_name,2-cuts
ch_type,1_1
kcount,1
numberNandB,1
brightnessNandB,1
carpet pos,0
pc,0
Time (ms),CH1 Auto-Correlation
1.0,0.017356816679239273
2.0,0.014422099106013775
3.0,0.012354295700788498
4.0,0.010677442885935307
5.0,0.009208065457642078
6.0,0.008121532388031483
7.0,0.007301925681531429
8.0,0.006768304388970137
9.0,0.006164869759231806
10.0,0.00570994708687067
11.0,0.005262269172817469
12.0,0.0049223583191633224
13.0,0.004630498122423887
14.0,0.004275172483175993
15.0,0.0039979699067771435
16.0,0.0038250768557190895
18.0,0.003492875723168254
20.0,0.0033471155911684036
22.0,0.0031404909677803516
24.0,0.002808189718052745
26.0,0.0022883377969264984
28.0,0.00200866861268878
30.0,0.00204161973670125
32.0,0.002173996064811945
36.0,0.0019094411982223392
40.0,0.001621824223548174
44.0,0.0016574740875512362
48.0,0.0014584182063117623
52.0,0.0013376718852669
56.0,0.0013523463858291507
60.0,0.0010807965882122517
64.0,0.0010267136385664344
72.0,0.0009408531477674842
80.0,0.0007005101651884615
88.0,0.0005046232254244387
96.0,2.796706212393474e-05
104.0,0.0006343101849779487
112.0,0.0007627320592291653
120.0,0.0005822494858875871
128.0,0.0007663680007681251
144.0,0.0008911981713026762
160.0,0.0005179672152735293
176.0,0.00010486818064237013
192.0,-0.00011832187010440975
208.0,-0.00034927602973766625
224.0,-0.0001006168604362756
240.0,0.0001099721048376523
256.0,0.00038456940092146397
288.0,-0.0003429201024118811
320.0,-0.0005201264284551144
352.0,-0.00023563166905660182
384.0,-0.0002014636411331594
416.0,-0.00047175600775517523
448.0,-0.00032123891287483275
480.0,0.0002982769801747054
512.0,0.0006001382716931403
576.0,0.00024741687229834497
640.0,0.0004056709003634751
704.0,-6.667254638159648e-05
768.0,0.0003635876055341214
832.0,-0.0003077069704886526
896.0,-0.0003049503138754517
960.0,-0.00017289780953433365
1024.0,0.0002511906495783478
1152.0,-3.255937554058619e-05
1280.0,0.000129144755192101
1408.0,0.00048240614705719054
1536.0,2.58053023571847e-05
1664.0,9.134896390605718e-05
1792.0,-0.00020836260227952152
1920.0,9.576349839335307e-05
2048.0,0.00012137390876887366
2304.0,-0.00020433886675164104
2560.0,-0.00010889188706642017
2816.0,-0.00015116084250621498
3072.0,0.00033298114431090653
3328.0,-0.0004736021510325372
3584.0,-2.9440612706821412e-05
3840.0,-0.00013990522711537778
4096.0,-9.861436410574242e-05
4608.0,-6.318488158285618e-05
5120.0,-0.00026006775442510843
5632.0,-0.0003092691476922482
6144.0,5.9432710258988664e-05
6656.0,-8.528182661393657e-05
7168.0,-0.00027543536270968616
7680.0,9.119845344685018e-05
8192.0,4.4218628318049014e-05
9216.0,0.00026668744976632297
10240.0,-4.40481016994454e-05
11264.0,-4.065467874170281e-05
12288.0,0.00023248480283655226
13312.0,-4.9481102905701846e-05
14336.0,-0.00012974950368516147
end
