version,3.0
numOfCh,1
type,point
parent_name,2-cuts
ch_type,1_1
kcount,1
numberNandB,1
brightnessNandB,1
carpet pos,0
pc,0
Time (ms),CH1 Auto-Correlation
1.0,0.016750242561101913
2.0,0.013750974088907242
3.0,0.011686052195727825
4.0,0.010227041319012642
5.0,0.008988001383841038
6.0,0.007958590053021908
7.0,0.007175728213042021
8.0,0.0065460423938930035
9.0,0.005938285496085882
10.0,0.005403744988143444
11.0,0.005026889964938164
12.0,0.004587563686072826
13.0,0.004226539749652147
14.0,0.0039692288264632225
15.0,0.0036452298518270254
16.0,0.003448633709922433
18.0,0.003092572558671236
20.0,0.002674029441550374
22.0,0.002374502597376704
24.0,0.002213146537542343
26.0,0.0020477348007261753
28.0,0.0017374507151544094
30.0,0.001540967496111989
32.0,0.0014195883413776755
36.0,0.0010050488635897636
40.0,0.0007643242133781314
44.0,0.0006499793962575495
48.0,0.00052311597391963
52.0,0.00047540583182126284
56.0,0.00036618055310100317
60.0,0.00022800783335696906
64.0,0.00038535104249604046
72.0,0.0006398571422323585
80.0,0.0006454334943555295
88.0,0.0005621340242214501
96.0,0.00023680516460444778
104.0,0.00027188766398467124
112.0,0.00013952190056443214
120.0,-0.00014784594532102346
128.0,-0.00017013124306686223
144.0,5.515624434337951e-05
160.0,0.00043262451072223485
176.0,0.0003148483519908041
192.0,0.00020926485012751073
208.0,0.0005273466231301427
224.0,0.00023319676984101534
240.0,0.0002923273714259267
256.0,0.00041439454071223736
288.0,0.0002576568513177335
320.0,0.0003942227631341666
352.0,-0.00017374023445881903
384.0,-1.7788808690966107e-05
416.0,0.0004124714178033173
448.0,0.000580334453843534
480.0,0.0005323018995113671
512.0,0.0006727136205881834
576.0,0.0005035850335843861
640.0,-0.0004774640838149935
704.0,0.0004934938042424619
768.0,-5.120603964314796e-05
832.0,0.0001400582550559193
896.0,-0.00023402064107358456
960.0,-0.00015598288155160844
1024.0,0.00032554706558585167
1152.0,-0.0004736889386549592
1280.0,-0.00022885053476784378
1408.0,0.00041201504063792527
1536.0,1.4778595868847333e-05
1664.0,-0.0005311034619808197
1792.0,-0.0007122152601368725
1920.0,-0.0005364076932892203
2048.0,-0.000251577963354066
2304.0,-0.00013242130808066577
2560.0,-7.778739382047206e-05
2816.0,0.0004322256427258253
3072.0,7.99225308583118e-05
3328.0,-0.0002412046305835247
3584.0,0.00025848334189504385
3840.0,-5.689748650183901e-05
4096.0,-0.00017581127758603543
4608.0,-0.00016763251915108413
5120.0,0.00018283010285813361
5632.0,0.0003301392134744674
6144.0,0.0002748160040937364
6656.0,0.00011482366971904412
7168.0,-0.00021390107576735318
7680.0,-0.0004077571502421051
8192.0,-0.00026033929316326976
9216.0,-0.00011412787716835737
10240.0,9.62207923294045e-05
11264.0,0.00012918519496452063
12288.0,-0.00021519760775845498
13312.0,-0.0002950910129584372
14336.0,-6.120836042100564e-05
end
