version,3.0
numOfCh,1
type,point
parent_name,2-cuts
ch_type,1_1
kcount,1
numberNandB,1
brightnessNandB,1
carpet pos,0
pc,0
Time (ms),CH1 Auto-Correlation
1.0,0.027432549744844437
2.0,0.02244644984602928
3.0,0.018967974931001663
4.0,0.016261273995041847
5.0,0.014509173110127449
6.0,0.012956150807440281
7.0,0.011750505305826664
8.0,0.010712395422160625
9.0,0.009728160686790943
10.0,0.00908716581761837
11.0,0.008636790327727795
12.0,0.00829707644879818
13.0,0.007807323709130287
14.0,0.0074163698591291904
15.0,0.0070678736083209515
16.0,0.006732876878231764
18.0,0.005733369383960962
20.0,0.0052803619764745235
22.0,0.005009254440665245
24.0,0.004768986254930496
26.0,0.004527419805526733
28.0,0.003971713595092297
30.0,0.0037135137245059013
32.0,0.003330446081236005
36.0,0.003113953396677971
40.0,0.0025068921968340874
44.0,0.0021730074658989906
48.0,0.0016378303989768028
52.0,0.0016012610867619514
56.0,0.001345291966572404
60.0,0.0013597673969343305
64.0,0.0013072651345282793
72.0,0.0006646792171522975
80.0,0.0010264344746246934
88.0,0.0007545411353930831
96.0,0.00021980085875838995
104.0,0.0005294493166729808
112.0,0.0003236917546018958
120.0,-0.0002013706398429349
128.0,-0.0004300001892261207
144.0,-7.849357643863186e-07
160.0,-3.841604120680131e-05
176.0,0.0008698859601281583
192.0,0.0006070518866181374
208.0,0.0004983930266462266
224.0,0.00019525352399796247
240.0,3.1433242838829756e-05
256.0,0.00014016528439242393
288.0,0.00031881805625744164
320.0,-0.00048440819955430925
352.0,-2.188863800256513e-05
384.0,-0.00019841588800773025
416.0,1.4831821317784488e-05
448.0,-0.00016757163393776864
480.0,0.00017633599054533988
512.0,0.0010956967016682029
576.0,0.0010595145868137479
640.0,0.0005684425705112517
704.0,0.0005605610786005855
768.0,3.045606536034029e-05
832.0,-0.000276380218565464
896.0,-0.0004634269280359149
960.0,-0.00010646810551406816
1024.0,-0.00017704891797620803
1152.0,-0.000528933887835592
1280.0,-2.198533547925763e-05
1408.0,-0.00033059052657335997
1536.0,-0.0006021656445227563
1664.0,0.00040003651520237327
1792.0,-0.000327553745592013
1920.0,-0.0007293217349797487
2048.0,-0.000521491514518857
2304.0,-5.017231887904927e-05
2560.0,-0.00021019252017140388
2816.0,-0.0008023997652344406
3072.0,-0.00048261223128065467
3328.0,-0.0006141592166386545
3584.0,-0.0004517445922829211
3840.0,0.0005983670125715435
4096.0,-1.0654778634489048e-05
4608.0,0.00028726120945066214
5120.0,0.00042415832285769284
5632.0,0.00014678672596346587
6144.0,0.00025177301722578704
6656.0,-0.0002505321172066033
7168.0,-0.00025636525242589414
7680.0,-0.00023709330707788467
8192.0,-0.00042373783071525395
9216.0,-3.991894845967181e-05
10240.0,0.0003454348770901561
11264.0,-0.0002991490764543414
12288.0,-9.149745164904743e-05
13312.0,-0.00016266624152194709
14336.0,0.0004117643111385405
end
