version,3.0
numOfCh,1
type,point
parent_name,2-cuts
ch_type,1_1
kcount,1
numberNandB,1
brightnessNandB,1
carpet pos,0
pc,0
Time (ms),CH1 Auto-Correlation
1.0,0.015994584187865257
2.0,0.013053716160356998
3.0,0.011080837808549404
4.0,0.009621094912290573
5.0,0.008513177745044231
6.0,0.007538551464676857
7.0,0.006742297206073999
8.0,0.006152771413326263
9.0,0.005592397879809141
10.0,0.0051655881106853485
11.0,0.004742666147649288
12.0,0.004453809931874275
13.0,0.0043131266720592976
14.0,0.004139784257858992
15.0,0.003965354524552822
16.0,0.0038323148619383574
18.0,0.003511568298563361
20.0,0.0032552359625697136
22.0,0.0030221883207559586
24.0,0.002831055084243417
26.0,0.002757623326033354
28.0,0.0026889112778007984
30.0,0.002612834330648184
32.0,0.002347576431930065
36.0,0.0018912689993157983
40.0,0.0015940865268930793
44.0,0.0014602459268644452
48.0,0.0015678989002481103
52.0,0.0016061917413026094
56.0,0.0012660578358918428
60.0,0.0011049052700400352
64.0,0.0013173221377655864
72.0,0.0009967706864699721
80.0,0.0008646094938740134
88.0,0.0006924470071680844
96.0,0.0006862419540993869
104.0,0.0004908709088340402
112.0,0.0004677664546761662
120.0,0.00047849290422163904
128.0,0.0003042489115614444
144.0,0.00010951756121357903
160.0,-0.00013008063251618296
176.0,0.00015665630053263158
192.0,0.00020451413001865149
208.0,0.00013049544941168278
224.0,7.61730334488675e-05
240.0,3.473772812867537e-05
256.0,-0.00015030642680358142
288.0,8.45534959807992e-05
320.0,-0.00014414216275326908
352.0,-0.0002393142640357837
384.0,-0.0002742876240517944
416.0,-0.00014948546595405787
448.0,0.00021131768880877644
480.0,-4.5956392568768933e-05
512.0,-4.601689215633087e-05
576.0,-8.931927004596218e-05
640.0,-0.0002458354865666479
704.0,-0.0005333232111297548
768.0,-0.00016798937576822937
832.0,0.00010335187107557431
896.0,5.2662184316432104e-05
960.0,0.0006146405357867479
1024.0,0.0005641573807224631
1152.0,0.0003129921678919345
1280.0,0.00011808943236246705
1408.0,0.00013964006211608648
1536.0,-0.00037966598756611347
1664.0,-0.00011928765889024362
1792.0,-0.0006447935593314469
1920.0,0.0002500521659385413
2048.0,-3.993268546764739e-05
2304.0,0.0002579784777481109
2560.0,0.00011643997277133167
2816.0,-0.00010479240154381841
3072.0,0.0001619458053028211
3328.0,-0.00022050758707337081
3584.0,0.0002026064757956192
3840.0,5.176986815058626e-05
4096.0,-0.0003116115112788975
4608.0,0.00021298733190633357
5120.0,-0.00030472534126602113
5632.0,-1.9868582967319526e-05
6144.0,-4.848361277254298e-05
6656.0,-0.00017411740554962307
7168.0,5.8080084272660315e-05
7680.0,-0.0003104195056948811
8192.0,2.5697330784169026e-05
9216.0,9.84617363428697e-05
10240.0,-0.00024414045037701726
11264.0,-2.3691391106694937e-05
12288.0,0.00018489663489162922
13312.0,-0.0005266231601126492
14336.0,0.0008467101724818349
end
