version,3.0
numOfCh,1
type,point
parent_name,2-cuts
ch_type,1_1
kcount,1
numberNandB,1
brightnessNandB,1
carpet pos,0
pc,0
Time (ms),CH1 Auto-Correlation
1.0,0.015872379764914513
2.0,0.013076690956950188
3.0,0.011107071302831173
4.0,0.00953544769436121
5.0,0.008340229280292988
6.0,0.007444809656590223
7.0,0.0066100903786718845
8.0,0.005965546704828739
9.0,0.005476852413266897
10.0,0.0050546047277748585
11.0,0.004651385825127363
12.0,0.004413274582475424
13.0,0.004168495535850525
14.0,0.004052742384374142
15.0,0.003846363862976432
16.0,0.003686620155349374
18.0,0.0033844124991446733
20.0,0.0030795063357800245
22.0,0.0028305102605372667
24.0,0.0026050591841340065
26.0,0.002419070340692997
28.0,0.0019922065548598766
30.0,0.00173187255859375
32.0,0.001536129740998149
36.0,0.0013664142461493611
40.0,0.0011681945761665702
44.0,0.0010338760912418365
48.0,0.0009201880311593413
52.0,0.0008920797845348716
56.0,0.0008991880458779633
60.0,0.0009070548694580793
64.0,0.0008797830669209361
72.0,0.0006966557120904326
80.0,0.0006015649996697903
88.0,0.0006708159344270825
96.0,0.0008981143473647535
104.0,0.000610870192758739
112.0,0.0006284536211751401
120.0,0.0007889794651418924
128.0,0.000271389028057456
144.0,-7.754341640975326e-05
160.0,5.733226862503216e-05
176.0,-0.0003243456594645977
192.0,-0.000574902631342411
208.0,-5.7819146604742855e-05
224.0,0.00023409575805999339
240.0,0.00018656441534403712
256.0,-5.9566693380475044e-05
288.0,8.940912812249735e-05
320.0,0.0007358279544860125
352.0,0.0003895045956596732
384.0,0.0001496729819336906
416.0,0.0001860386983025819
448.0,3.0316514312289655e-06
480.0,-0.00011320808698656037
512.0,-0.0005227989749982953
576.0,-0.00039565973565913737
640.0,-0.00020302356278989464
704.0,5.1847571739926934e-05
768.0,1.5457572999366676e-06
832.0,-0.00017315978766418993
896.0,-0.0003172768629156053
960.0,-0.00033000283292494714
1024.0,-0.0005249024834483862
1152.0,-0.0002376862830715254
1280.0,9.093689732253551e-05
1408.0,9.155301813734695e-05
1536.0,0.00012672650336753577
1664.0,-0.00028150674188509583
1792.0,-0.0002357038320042193
1920.0,-0.0004483548691496253
2048.0,0.00066987588070333
2304.0,-5.896177390241064e-05
2560.0,-4.988873843103647e-05
2816.0,0.00021540216403082013
3072.0,-0.00019340809376444668
3328.0,-0.00042527663754299283
3584.0,-0.00038350740214809775
3840.0,-0.00025310221826657653
4096.0,0.00010262924479320645
4608.0,0.00032131653279066086
5120.0,0.0001449506962671876
5632.0,-0.00025020434986799955
6144.0,1.1703698874043766e-05
6656.0,0.00019263761350885034
7168.0,0.00022605678532272577
7680.0,-0.00015698967035859823
8192.0,-0.00033022090792655945
9216.0,5.1278209866723046e-05
10240.0,-4.6647073759231716e-05
11264.0,0.0003384769079275429
12288.0,-0.00013757645501755178
13312.0,-0.0002985622559208423
14336.0,9.246083936886862e-05
end
