version,3.0
numOfCh,1
type,point
parent_name,2-cuts
ch_type,1_1
kcount,1
numberNandB,1
brightnessNandB,1
carpet pos,0
pc,0
Time (ms),CH1 Auto-Correlation
1.0,0.027325144037604332
2.0,0.022420572116971016
3.0,0.01903725415468216
4.0,0.016526678577065468
5.0,0.014589706435799599
6.0,0.013184158131480217
7.0,0.01192835345864296
8.0,0.010843043215572834
9.0,0.00977372657507658
10.0,0.009046887047588825
11.0,0.008313954807817936
12.0,0.007678267080336809
13.0,0.006996240001171827
14.0,0.006609284784644842
15.0,0.00610311608761549
16.0,0.005659098736941814
18.0,0.004950101021677256
20.0,0.0043630171567201614
22.0,0.004081226885318756
24.0,0.00345254666171968
26.0,0.0028992092702537775
28.0,0.002556826686486602
30.0,0.002450947416946292
32.0,0.002395091112703085
36.0,0.0021262075752019882
40.0,0.002100415527820587
44.0,0.001982666552066803
48.0,0.0016701354179531336
52.0,0.0012353892670944333
56.0,0.0011889419984072447
60.0,0.0011511609191074967
64.0,0.0012198534095659852
72.0,0.0007036962197162211
80.0,0.00041548401350155473
88.0,0.0005066670128144324
96.0,0.0006058089202269912
104.0,0.0001850915141403675
112.0,0.0004968332359567285
120.0,0.0005416408530436456
128.0,7.766353519400582e-06
144.0,-5.8794659707928076e-05
160.0,0.000486268982058391
176.0,0.00014262826880440116
192.0,-0.001178354723379016
208.0,-0.001084676943719387
224.0,0.00029668016941286623
240.0,0.0004836264706682414
256.0,-0.0004971320740878582
288.0,-0.0005335615132935345
320.0,-0.00029178158729337156
352.0,-0.0001373643463011831
384.0,-0.00015724754484836012
416.0,-0.0006428026244975626
448.0,-0.0006647799746133387
480.0,-0.0004734607064165175
512.0,0.0007390633691102266
576.0,-0.0005867811269126832
640.0,-0.0003786916204262525
704.0,0.00034522367059253156
768.0,-0.00010955167090287432
832.0,-0.00024664541706442833
896.0,0.0006535923457704484
960.0,-0.000560605782084167
1024.0,-0.0007008959073573351
1152.0,-0.0004743211029563099
1280.0,0.00027878626133315265
1408.0,2.0125116861891e-05
1536.0,-0.0007867462118156254
1664.0,-9.99245821731165e-05
1792.0,0.0006764200516045094
1920.0,-0.00011619521683314815
2048.0,2.2416907086153515e-05
2304.0,-8.731147681828588e-05
2560.0,0.0001497828052379191
2816.0,-6.317075894912705e-05
3072.0,-0.00029349460965022445
3328.0,0.00018694308528210968
3584.0,-0.0001570808090036735
3840.0,-0.00019078617333434522
4096.0,0.00038628606125712395
4608.0,-0.0005081567214801908
5120.0,0.00011696804722305387
5632.0,0.0001265642640646547
6144.0,0.00039259548066183925
6656.0,4.34825815318618e-05
7168.0,-0.0002095566305797547
7680.0,0.0002825557312462479
8192.0,-0.00026567233726382256
9216.0,4.632544732885435e-05
10240.0,-9.635347669245675e-05
11264.0,0.0003261408128309995
12288.0,-0.0004236727545503527
13312.0,0.0005444257403723896
14336.0,-0.0006426233449019492
end
