version,3.0
numOfCh,1
type,point
parent_name,2-cuts
ch_type,1_1
kcount,1
numberNandB,1
brightnessNandB,1
carpet pos,0
pc,0
Time (ms),CH1 Auto-Correlation
1.0,0.01592913828790188
2.0,0.012995260767638683
3.0,0.010920027270913124
4.0,0.009389414452016354
5.0,0.008172230795025826
6.0,0.007225300185382366
7.0,0.006432336289435625
8.0,0.005878607742488384
9.0,0.0053685009479522705
10.0,0.004932149779051542
11.0,0.004576027859002352
12.0,0.004173050168901682
13.0,0.0038238256238400936
14.0,0.0035946618299931288
15.0,0.0033535801339894533
16.0,0.0030358536168932915
18.0,0.002463397104293108
20.0,0.002019257051870227
22.0,0.0015037469565868378
24.0,0.0011175518156960607
26.0,0.0007173258345574141
28.0,0.000666970678139478
30.0,0.0005555360112339258
32.0,0.0005728828255087137
36.0,0.0003476297715678811
40.0,0.00044122381950728595
44.0,0.0005271885311231017
48.0,0.000615872791968286
52.0,0.0006472457316704094
56.0,0.0006162830977700651
60.0,0.000785902317147702
64.0,0.0008571023354306817
72.0,0.0008012512698769569
80.0,0.0005246616201475263
88.0,9.968923677661223e-07
96.0,-0.0001511626032879576
104.0,-0.00016200850950554013
112.0,0.0003743369597941637
120.0,0.0003239965590182692
128.0,0.00035408305120654404
144.0,0.00020454511104617268
160.0,0.00017371239664498717
176.0,0.0002584498724900186
192.0,0.0004644690779969096
208.0,0.00020764273358508945
224.0,0.00041438243351876736
240.0,0.0007093095337040722
256.0,0.0004216384841129184
288.0,3.775408549699932e-05
320.0,-0.00028398106223903596
352.0,1.2315532330831047e-05
384.0,-0.00012435474491212517
416.0,0.00016005022916942835
448.0,0.0004970739828422666
480.0,0.00047465472016483545
512.0,0.0003203750238753855
576.0,0.00048281607450917363
640.0,0.0004463239456526935
704.0,0.00021359813399612904
768.0,0.00011291604459984228
832.0,-6.783944991184399e-05
896.0,0.0002693643618840724
960.0,-9.092412801692262e-05
1024.0,8.51206059451215e-05
1152.0,0.0001133928308263421
1280.0,-0.00011201205779798329
1408.0,-8.284459909191355e-05
1536.0,1.3429048522084486e-05
1664.0,-0.00023952852643560618
1792.0,2.266467890876811e-05
1920.0,-0.0003609733539633453
2048.0,0.00028216917417012155
2304.0,-3.110636680503376e-05
2560.0,9.742820839164779e-05
2816.0,7.544093386968598e-05
3072.0,0.00013496659812517464
3328.0,8.474515925627202e-05
3584.0,-0.00030699651688337326
3840.0,-4.395503310661297e-06
4096.0,-0.00015377203817479312
4608.0,-0.00010948429553536698
5120.0,-1.9417131625232287e-05
5632.0,0.0002848282747436315
6144.0,2.9185908715589903e-05
6656.0,9.381110430695117e-06
7168.0,-0.0001243747683474794
7680.0,7.810386159690097e-05
8192.0,-6.705318810418248e-05
9216.0,-0.00024105756892822683
10240.0,-0.0003431618388276547
11264.0,2.930523805844132e-05
12288.0,-0.0003994996368419379
13312.0,-0.00017086039588321
14336.0,0.00048448293819092214
end
