version,3.0
numOfCh,1
type,point
parent_name,2-cuts
ch_type,1_1
kcount,1
numberNandB,1
brightnessNandB,1
carpet pos,0
pc,0
Time (ms),CH1 Auto-Correlation
1.0,0.025288175791502
2.0,0.020589349791407585
3.0,0.017247945070266724
4.0,0.01476192194968462
5.0,0.013015186414122581
6.0,0.01155016478151083
7.0,0.01024795975536108
8.0,0.009126991033554077
9.0,0.008057941682636738
10.0,0.007538594771176577
11.0,0.007008066400885582
12.0,0.006619400344789028
13.0,0.006357285659760237
14.0,0.005891989916563034
15.0,0.005530482158064842
16.0,0.005437297280877829
18.0,0.005236723460257053
20.0,0.0047933850437402725
22.0,0.004541558679193258
24.0,0.004203745163977146
26.0,0.0037651383318006992
28.0,0.0034535753075033426
30.0,0.0031368175987154245
32.0,0.0026365555822849274
36.0,0.0023104913998395205
40.0,0.0024245153181254864
44.0,0.001884766505099833
48.0,0.0015885126776993275
52.0,0.0013557391939684749
56.0,0.0011307065142318606
60.0,0.0012119825696572661
64.0,0.0010455087758600712
72.0,0.0011037972290068865
80.0,0.0004091114387847483
88.0,0.0001680065761320293
96.0,0.0002590323565527797
104.0,-1.3502252613761812e-06
112.0,-0.00027461376157589257
120.0,-0.00037043358315713704
128.0,-0.0002168521605199203
144.0,-0.00018083838222082704
160.0,-0.0002956734679173678
176.0,-0.0003690728626679629
192.0,-0.0006010826327838004
208.0,-0.0005730480770580471
224.0,-0.0007412864360958338
240.0,-0.0007778804865665734
256.0,-0.00043382716830819845
288.0,-0.0002987058542203158
320.0,-0.00041822544881142676
352.0,-0.0006790137267671525
384.0,-0.0006409960915334523
416.0,9.054709516931325e-05
448.0,0.0006432433146983385
480.0,-3.481300882413052e-05
512.0,0.00015994290879461914
576.0,0.0004743034078273922
640.0,-0.00030769576551392674
704.0,-0.0006726541905663908
768.0,0.0004460072086658329
832.0,0.0003162799694109708
896.0,-1.7183376257889904e-05
960.0,-0.0005028836894780397
1024.0,-0.00038690309156663716
1152.0,-0.00027571426471695304
1280.0,-0.0002975011302623898
1408.0,0.00036116273258812726
1536.0,-0.0010190738830715418
1664.0,-1.3646258594235405e-05
1792.0,0.0004459954216144979
1920.0,-2.7776075512520038e-05
2048.0,0.000158004550030455
2304.0,-0.00018339333473704755
2560.0,3.308082159492187e-05
2816.0,0.0001321501622442156
3072.0,-0.0004159278469160199
3328.0,-0.0004277010157238692
3584.0,0.0002807806304190308
3840.0,-0.000266499409917742
4096.0,7.555887714261189e-05
4608.0,0.00020894694898743182
5120.0,-0.0002586997870821506
5632.0,0.0001040501520037651
6144.0,0.00017555052181705832
6656.0,0.00014468649169430137
7168.0,-0.0004472583532333374
7680.0,-0.00019135749607812613
8192.0,5.686295116902329e-05
9216.0,-0.0002484382421243936
10240.0,0.0002867339935619384
11264.0,1.1583187188080046e-05
12288.0,-0.0004079221107531339
13312.0,9.396603854838759e-05
14336.0,0.00038523218245245516
end
