version,3.0
numOfCh,1
type,point
parent_name,34766_0dot2-1dot0
ch_type,1_1
kcount,1
numberNandB,1
brightnessNandB,1
carpet pos,0
pc,0
Time (ms),CH1 Auto-Correlation
1.0,0.02159176580607891
2.0,0.02113383077085018
3.0,0.020712051540613174
4.0,0.020326916128396988
5.0,0.01994265615940094
6.0,0.01956336945295334
7.0,0.019217247143387794
8.0,0.01887887716293335
9.0,0.0185383390635252
10.0,0.018215052783489227
11.0,0.01790115423500538
12.0,0.01759897917509079
13.0,0.01730806566774845
14.0,0.017036622390151024
15.0,0.01676854118704796
16.0,0.016511594876646996
18.0,0.01603403128683567
20.0,0.015591593459248543
22.0,0.015157647430896759
24.0,0.014745666645467281
26.0,0.014324916526675224
28.0,0.013915435411036015
30.0,0.013523295521736145
32.0,0.013138074427843094
36.0,0.012478306889533997
40.0,0.011898715049028397
44.0,0.011415517888963223
48.0,0.01094849407672882
52.0,0.010578578338027
56.0,0.010328658856451511
60.0,0.010093261487782001
64.0,0.009827041067183018
72.0,0.009291557595133781
80.0,0.008802035823464394
88.0,0.008384005166590214
96.0,0.007959521375596523
104.0,0.007457682862877846
112.0,0.0069372993893921375
120.0,0.00641518272459507
128.0,0.005864044651389122
144.0,0.004948020447045565
160.0,0.004724026191979647
176.0,0.004477505572140217
192.0,0.004317681770771742
208.0,0.004057072568684816
224.0,0.00401422381401062
240.0,0.004002373665571213
256.0,0.003919228445738554
288.0,0.00401191134005785
320.0,0.003813674207776785
352.0,0.0031687049195170403
384.0,0.002488822443410754
416.0,0.0017773833824321628
448.0,0.0008361450745724142
480.0,0.0006866753683425486
512.0,0.00047580129466950893
576.0,-0.0006634129676967859
640.0,-0.0013490136479958892
704.0,-0.001791883958503604
768.0,-0.0022175388876348734
832.0,-0.0014622049639001489
896.0,-0.0024107766803354025
960.0,-0.0023444772232323885
1024.0,-0.0029556916560977697
1152.0,-0.00266077509149909
1280.0,-0.0013107610866427422
1408.0,-0.0020465871784836054
1536.0,-0.0007241570856422186
1664.0,0.0001595977519173175
1792.0,-0.00017641203885432333
1920.0,0.0005364475073292851
2048.0,0.0013996700290590525
2304.0,0.0005013978807255626
2560.0,0.00037527468521147966
2816.0,-0.0025344386231154203
3072.0,-0.002390629844740033
3328.0,-0.001108971773646772
3584.0,-0.0009286402491852641
3840.0,0.0006309173186309636
4096.0,2.2496085875900462e-05
4608.0,-0.0002200735325459391
5120.0,0.0017023951513692737
5632.0,-0.0007237435784190893
6144.0,-0.001912012230604887
6656.0,-0.0020420781802386045
7168.0,0.0020641388837248087
7680.0,0.0035898026544600725
8192.0,-0.0031296650413423777
end
