version,3.0
numOfCh,1
type,point
parent_name,34766_0dot2-1dot0
ch_type,1_1
kcount,1
numberNandB,1
brightnessNandB,1
carpet pos,0
pc,0
Time (ms),CH1 Auto-Correlation
1.0,0.025467490777373314
2.0,0.025043193250894547
3.0,0.024653209373354912
4.0,0.0242824237793684
5.0,0.023925403133034706
6.0,0.02358010597527027
7.0,0.02325398661196232
8.0,0.022944916039705276
9.0,0.022666582837700844
10.0,0.022388188168406487
11.0,0.02211175672709942
12.0,0.02184727042913437
13.0,0.02159818448126316
14.0,0.02134641259908676
15.0,0.02109973132610321
16.0,0.020859211683273315
18.0,0.02037309855222702
20.0,0.01992260105907917
22.0,0.019490091130137444
24.0,0.019083388149738312
26.0,0.018703872337937355
28.0,0.018342075869441032
30.0,0.01798488199710846
32.0,0.01763271726667881
36.0,0.01697259582579136
40.0,0.016339795663952827
44.0,0.01577104441821575
48.0,0.015225827693939209
52.0,0.01473863236606121
56.0,0.014292165637016296
60.0,0.013831818476319313
64.0,0.01341561134904623
72.0,0.012685137800872326
80.0,0.012084228917956352
88.0,0.011574792675673962
96.0,0.011179761961102486
104.0,0.010884158313274384
112.0,0.010533669963479042
120.0,0.010185511782765388
128.0,0.009898236952722073
144.0,0.00936254020780325
160.0,0.00908204447478056
176.0,0.008884971030056477
192.0,0.008631392382085323
208.0,0.008305341936647892
224.0,0.008132671937346458
240.0,0.008277175948023796
256.0,0.008661402389407158
288.0,0.008467556908726692
320.0,0.007681685499846935
352.0,0.007346931844949722
384.0,0.006585262715816498
416.0,0.005545448511838913
448.0,0.00425135251134634
480.0,0.0033011441119015217
512.0,0.0029220699798315763
576.0,0.00214221328496933
640.0,0.0008403001702390611
704.0,0.001070384168997407
768.0,0.0010689774062484503
832.0,0.00033805103157646954
896.0,0.00047364868805743754
960.0,0.0007022070931270719
1024.0,6.591634883079678e-05
1152.0,0.0011096897069364786
1280.0,0.001134539837948978
1408.0,0.0017750452971085906
1536.0,0.0031089000403881073
1664.0,0.0033744124229997396
1792.0,0.002005667658522725
1920.0,-5.286758823785931e-05
2048.0,-0.001258712261915207
2304.0,-0.003731751348823309
2560.0,-0.005171250551939011
2816.0,-0.004902174696326256
3072.0,-0.002918378682807088
3328.0,-0.0005977710825391114
3584.0,-0.00023432637681253254
3840.0,-0.002729340922087431
4096.0,-0.0028655349742621183
4608.0,-0.001622915267944336
5120.0,0.001249748864211142
5632.0,-0.0022019685711711645
6144.0,-0.003014368936419487
6656.0,-0.0012685387628152966
7168.0,-0.001676499960012734
7680.0,-0.0020047842990607023
8192.0,-0.0003521675243973732
end
