version,3.0
numOfCh,1
type,point
parent_name,34766_0dot2-1dot0
ch_type,1_1
kcount,1
numberNandB,1
brightnessNandB,1
carpet pos,0
pc,0
Time (ms),CH1 Auto-Correlation
1.0,0.023520341143012047
2.0,0.023092826828360558
3.0,0.022687962278723717
4.0,0.02230742946267128
5.0,0.021923501044511795
6.0,0.021559178829193115
7.0,0.02122769132256508
8.0,0.020902065560221672
9.0,0.020581429824233055
10.0,0.02028076909482479
11.0,0.020000994205474854
12.0,0.019731026142835617
13.0,0.019470302388072014
14.0,0.019221628084778786
15.0,0.01897898130118847
16.0,0.01873636431992054
18.0,0.018244896084070206
20.0,0.017778877168893814
22.0,0.017373669892549515
24.0,0.01698419637978077
26.0,0.016601767390966415
28.0,0.016208305954933167
30.0,0.01582895964384079
32.0,0.015455069951713085
36.0,0.014737487770617008
40.0,0.014095029793679714
44.0,0.01349655818194151
48.0,0.012973475269973278
52.0,0.012484682723879814
56.0,0.012065434828400612
60.0,0.011687961407005787
64.0,0.011322345584630966
72.0,0.01057254895567894
80.0,0.009909954853355885
88.0,0.009351380169391632
96.0,0.008851378224790096
104.0,0.008330769836902618
112.0,0.007870843634009361
120.0,0.007447474170476198
128.0,0.00709203165024519
144.0,0.006282811053097248
160.0,0.005553582217544317
176.0,0.005028239917010069
192.0,0.004628951195627451
208.0,0.004178272094577551
224.0,0.003444419242441654
240.0,0.0028688451275229454
256.0,0.0022926887031644583
288.0,0.0015412757638841867
320.0,0.0013214078499004245
352.0,0.0012529389932751656
384.0,0.0006604451918974519
416.0,0.0006068029324524105
448.0,0.0008789181592874229
480.0,0.001775318756699562
512.0,0.0025037163868546486
576.0,0.003040191950276494
640.0,0.002568652620539069
704.0,0.003113402985036373
768.0,0.004353861324489117
832.0,0.0047687203623354435
896.0,0.005619538947939873
960.0,0.004270576406270266
1024.0,0.0019481969065964222
1152.0,0.0006942771724425256
1280.0,0.0027617078740149736
1408.0,0.005050993524491787
1536.0,0.004886548034846783
1664.0,0.0021982842590659857
1792.0,0.0012008290505036712
1920.0,-2.0201678125886247e-05
2048.0,0.001004949095658958
2304.0,0.001672533224336803
2560.0,-0.00011342005745973438
2816.0,-0.0012106605572625995
3072.0,-0.0005308064282871783
3328.0,0.001289556734263897
3584.0,-0.0011640621814876795
3840.0,-0.002405892126262188
4096.0,-0.002439237665385008
4608.0,-0.0007535400218330324
5120.0,-0.0025402740575373173
5632.0,-0.0007283415179699659
6144.0,-0.0022274183575063944
6656.0,-0.0025557128246873617
7168.0,-0.000644753803499043
7680.0,-0.0019140128279104829
8192.0,-0.0016920076450333
end
