version,3.0
numOfCh,1
type,point
parent_name,34766_0dot2-1dot0
ch_type,1_1
kcount,1
numberNandB,1
brightnessNandB,1
carpet pos,0
pc,0
Time (ms),CH1 Auto-Correlation
1.0,0.01858905330300331
2.0,0.018124805763363838
3.0,0.017700213938951492
4.0,0.01729242317378521
5.0,0.01690124347805977
6.0,0.01651911810040474
7.0,0.01615329273045063
8.0,0.015803003683686256
9.0,0.015470459125936031
10.0,0.015134085901081562
11.0,0.014820296317338943
12.0,0.014545709826052189
13.0,0.014267878606915474
14.0,0.013994842767715454
15.0,0.013724715448915958
16.0,0.013463295064866543
18.0,0.012997417710721493
20.0,0.01255721878260374
22.0,0.01214153878390789
24.0,0.01175997406244278
26.0,0.011407531797885895
28.0,0.011065587401390076
30.0,0.010744959115982056
32.0,0.010441597551107407
36.0,0.009962573647499084
40.0,0.009489844553172588
44.0,0.009011908434331417
48.0,0.008563706651329994
52.0,0.008158374577760696
56.0,0.007804910186678171
60.0,0.007398550398647785
64.0,0.006936116609722376
72.0,0.006200121715664864
80.0,0.005580371245741844
88.0,0.004907421767711639
96.0,0.004246579948812723
104.0,0.003696606494486332
112.0,0.0033399707172065973
120.0,0.0031060443725436926
128.0,0.0028718896210193634
144.0,0.0020999552216380835
160.0,0.0016712314682081342
176.0,0.0017191552324220538
192.0,0.0017706837970763445
208.0,0.0017821899382397532
224.0,0.0013803989859297872
240.0,0.0010647375602275133
256.0,0.0009419882553629577
288.0,0.0006063107866793871
320.0,0.0004090515139978379
352.0,-0.00011408788850530982
384.0,0.0002715592854656279
416.0,0.0005016843206249177
448.0,0.0006967034423723817
480.0,0.0006598395411856472
512.0,0.0008948518079705536
576.0,0.0005851626046933234
640.0,7.91157508501783e-05
704.0,-0.0012300650123506784
768.0,-0.001791894668713212
832.0,-0.0017979044932872057
896.0,-0.0016631834441795945
960.0,-0.0010858605382964015
1024.0,-0.00148724892642349
1152.0,-0.0004777085268869996
1280.0,-0.00097922224085778
1408.0,-0.0013597870711237192
1536.0,-0.0008963389554992318
1664.0,-0.0008863928378559649
1792.0,-0.0005680097965523601
1920.0,-0.00047964081750251353
2048.0,-0.001061252667568624
2304.0,-0.0012855723034590483
2560.0,-0.000655720999930054
2816.0,0.00020988476171623915
3072.0,0.0024166605435311794
3328.0,0.0006771010812371969
3584.0,0.0015507055213674903
3840.0,-0.0005960694397799671
4096.0,-0.0007401937036775053
4608.0,-0.0015880768187344074
5120.0,0.00041145755676552653
5632.0,0.0009766599396243691
6144.0,0.0017038549995049834
6656.0,-0.00021419761469587684
7168.0,-0.0012989129172638059
7680.0,-0.0018034687964245677
8192.0,-0.0004325947957113385
end
