version,3.0
numOfCh,1
type,point
parent_name,34766_0dot2-1dot0
ch_type,1_1
kcount,1
numberNandB,1
brightnessNandB,1
carpet pos,0
pc,0
Time (ms),CH1 Auto-Correlation
1.0,0.018829677253961563
2.0,0.01841888390481472
3.0,0.01801699586212635
4.0,0.017627211287617683
5.0,0.01726401038467884
6.0,0.016922248527407646
7.0,0.016585124656558037
8.0,0.01627662405371666
9.0,0.015977077186107635
10.0,0.015679024159908295
11.0,0.015392189845442772
12.0,0.015098984353244305
13.0,0.014821438118815422
14.0,0.014549748972058296
15.0,0.014286958612501621
16.0,0.014034416526556015
18.0,0.01355750486254692
20.0,0.013123199343681335
22.0,0.012709703296422958
24.0,0.012322967872023582
26.0,0.011953688226640224
28.0,0.011614952236413956
30.0,0.011285029351711273
32.0,0.010976580902934074
36.0,0.010340281762182713
40.0,0.009791393764317036
44.0,0.009332905523478985
48.0,0.008863742463290691
52.0,0.008391276933252811
56.0,0.007958466187119484
60.0,0.007570105604827404
64.0,0.007212222553789616
72.0,0.006400063168257475
80.0,0.0055734626948833466
88.0,0.004911838099360466
96.0,0.004569338168948889
104.0,0.004420939367264509
112.0,0.004223119467496872
120.0,0.004013969097286463
128.0,0.003683177288621664
144.0,0.003357938025146723
160.0,0.00325603480450809
176.0,0.0033785717096179724
192.0,0.0035203746519982815
208.0,0.003727438161149621
224.0,0.004086139611899853
240.0,0.004272697493433952
256.0,0.003898842493072152
288.0,0.003962824586778879
320.0,0.0037450543604791164
352.0,0.003198599210008979
384.0,0.0023492572363466024
416.0,0.002584044588729739
448.0,0.0023875751066952944
480.0,0.0023811834398657084
512.0,0.0022574744652956724
576.0,0.0030992161482572556
640.0,0.00405564671382308
704.0,0.00417170487344265
768.0,0.003668256802484393
832.0,0.0037028142251074314
896.0,0.003569334512576461
960.0,0.0029936975333839655
1024.0,0.002850648947060108
1152.0,0.0023341327905654907
1280.0,0.002083921106532216
1408.0,0.0029982267878949642
1536.0,0.0017241182504221797
1664.0,0.00165603868663311
1792.0,0.0014665084891021252
1920.0,0.0017010116716846824
2048.0,0.0017971553606912494
2304.0,0.0013510381104424596
2560.0,0.000772887549828738
2816.0,0.0006267699063755572
3072.0,0.00044077535858377814
3328.0,-0.00035975678474642336
3584.0,0.0008317804895341396
3840.0,-9.896093979477882e-05
4096.0,-0.0017086232546716928
4608.0,-0.0021171392872929573
5120.0,-0.002114169066771865
5632.0,-0.0022128974087536335
6144.0,-0.00172860873863101
6656.0,-0.002551377983763814
7168.0,-0.00104294263292104
7680.0,-0.0007466842071153224
8192.0,-0.0002885058056563139
end
