version,3.0
numOfCh,1
type,point
parent_name,34766_0dot2-1dot0
ch_type,1_1
kcount,1
numberNandB,1
brightnessNandB,1
carpet pos,0
pc,0
Time (ms),CH1 Auto-Correlation
1.0,0.025999514386057854
2.0,0.025573749095201492
3.0,0.025157548487186432
4.0,0.024756789207458496
5.0,0.024376530200242996
6.0,0.023994205519557
7.0,0.02362314984202385
8.0,0.023248329758644104
9.0,0.0228811576962471
10.0,0.022538408637046814
11.0,0.022219011560082436
12.0,0.02190074510872364
13.0,0.021591603755950928
14.0,0.021297065541148186
15.0,0.021015292033553123
16.0,0.020753586664795876
18.0,0.020252196118235588
20.0,0.019755389541387558
22.0,0.019284918904304504
24.0,0.018841881304979324
26.0,0.018398279324173927
28.0,0.017963070422410965
30.0,0.017552120611071587
32.0,0.01716575399041176
36.0,0.016446223482489586
40.0,0.015758700668811798
44.0,0.01515275053679943
48.0,0.01465574186295271
52.0,0.014229083433747292
56.0,0.013788770884275436
60.0,0.013303006999194622
64.0,0.012815863825380802
72.0,0.01206448394805193
80.0,0.011509891599416733
88.0,0.01099283155053854
96.0,0.0105669554322958
104.0,0.010111073963344097
112.0,0.009747687727212906
120.0,0.009287562221288681
128.0,0.008891336619853973
144.0,0.008319634944200516
160.0,0.007721622474491596
176.0,0.007255824748426676
192.0,0.006748128216713667
208.0,0.006130982656031847
224.0,0.005422933492809534
240.0,0.005059836432337761
256.0,0.004951576702296734
288.0,0.005098295398056507
320.0,0.0050512333400547504
352.0,0.004648336675018072
384.0,0.003710760036483407
416.0,0.002628532936796546
448.0,0.002359056379646063
480.0,0.0024647198151797056
512.0,0.002159863244742155
576.0,0.0016800902085378766
640.0,0.0011234610574319959
704.0,0.0022578334901481867
768.0,0.0028959501069039106
832.0,0.002050575101748109
896.0,0.00122791004832834
960.0,0.0012457966804504395
1024.0,0.0005184427718631923
1152.0,-0.00042583144386298954
1280.0,-0.0022458324674516916
1408.0,-0.002557808766141534
1536.0,-0.004653880372643471
1664.0,-0.0061694663017988205
1792.0,-0.0050085680559277534
1920.0,-0.0030538353603333235
2048.0,-0.0023626855108886957
2304.0,-0.0012129760580137372
2560.0,-0.0027007674798369408
2816.0,-0.0022157274652272463
3072.0,0.0004480383067857474
3328.0,0.0017158775590360165
3584.0,0.001402252702973783
3840.0,0.0014778525801375508
4096.0,0.004606614354997873
4608.0,0.0007077099871821702
5120.0,-0.0022071695420891047
5632.0,-0.004125858191400766
6144.0,-0.0023233648389577866
6656.0,0.002580624306574464
7168.0,0.002794982399791479
7680.0,0.000353733979864046
8192.0,0.0019926854874938726
end
