version,3.0
numOfCh,1
type,point
parent_name,34766_0dot2-1dot0
ch_type,1_1
kcount,1
numberNandB,1
brightnessNandB,1
carpet pos,0
pc,0
Time (ms),CH1 Auto-Correlation
1.0,0.024488303810358047
2.0,0.024045264348387718
3.0,0.023622386157512665
4.0,0.02323083207011223
5.0,0.022861488163471222
6.0,0.02251061610877514
7.0,0.022174891084432602
8.0,0.0218396857380867
9.0,0.021514171734452248
10.0,0.021200884133577347
11.0,0.020895084366202354
12.0,0.020612796768546104
13.0,0.02032376639544964
14.0,0.02003086544573307
15.0,0.019748767837882042
16.0,0.019474174827337265
18.0,0.018927553668618202
20.0,0.018408354371786118
22.0,0.017920134589076042
24.0,0.017471302300691605
26.0,0.017025016248226166
28.0,0.016594350337982178
30.0,0.016183888539671898
32.0,0.015754366293549538
36.0,0.01496295165270567
40.0,0.01430693082511425
44.0,0.013730531558394432
48.0,0.01314731128513813
52.0,0.01261271070688963
56.0,0.012141448445618153
60.0,0.011694452725350857
64.0,0.011271314695477486
72.0,0.010590662248432636
80.0,0.009957722388207912
88.0,0.009361762553453445
96.0,0.008771088905632496
104.0,0.008304488845169544
112.0,0.007881758734583855
120.0,0.007578850258141756
128.0,0.0073235901072621346
144.0,0.006948202848434448
160.0,0.006611941382288933
176.0,0.006349868141114712
192.0,0.006164540071040392
208.0,0.0058303591795265675
224.0,0.00565312197431922
240.0,0.005715095438063145
256.0,0.005491990130394697
288.0,0.005257023498415947
320.0,0.005117363762110472
352.0,0.004830028396099806
384.0,0.004381895996630192
416.0,0.004555266350507736
448.0,0.004234296269714832
480.0,0.004644378554075956
512.0,0.00469015259295702
576.0,0.003618075745180249
640.0,0.0030679283663630486
704.0,0.0030661956407129765
768.0,0.003233763389289379
832.0,0.0036328034475445747
896.0,0.0029844120144844055
960.0,0.0033988754730671644
1024.0,0.0031066974624991417
1152.0,0.0011341950157657266
1280.0,0.00310747348703444
1408.0,0.0026594046503305435
1536.0,0.0028872971888631582
1664.0,0.0005950336344540119
1792.0,0.001184140215627849
1920.0,0.0007034553564153612
2048.0,0.0008150006178766489
2304.0,0.002563185291364789
2560.0,0.0008288703975267708
2816.0,0.0005799704231321812
3072.0,0.0001777038414729759
3328.0,0.0006901657907292247
3584.0,0.0001905185345094651
3840.0,0.00017547857714816928
4096.0,-0.00010171862959396094
4608.0,0.0009297786164097488
5120.0,-0.0006252453895285726
5632.0,-0.002709992928430438
6144.0,-0.0026994815561920404
6656.0,-0.004907348658889532
7168.0,-0.004862578585743904
7680.0,-0.004370654933154583
8192.0,-0.004680488258600235
end
