version,3.0
numOfCh,1
type,point
parent_name,34766_0dot2-1dot0
ch_type,1_1
kcount,1
numberNandB,1
brightnessNandB,1
carpet pos,0
pc,0
Time (ms),CH1 Auto-Correlation
1.0,0.01603110134601593
2.0,0.015609340742230415
3.0,0.015214285813272
4.0,0.014839044772088528
5.0,0.014469383284449577
6.0,0.01411938201636076
7.0,0.013775309547781944
8.0,0.013448735699057579
9.0,0.01314894575625658
10.0,0.012850034981966019
11.0,0.012564131058752537
12.0,0.012287859804928303
13.0,0.012003830634057522
14.0,0.01173059456050396
15.0,0.011465526185929775
16.0,0.011207091622054577
18.0,0.010705573484301567
20.0,0.010252567008137703
22.0,0.00984340813010931
24.0,0.009488514624536037
26.0,0.009145963005721569
28.0,0.008797993883490562
30.0,0.008462293073534966
32.0,0.008134515024721622
36.0,0.007524390239268541
40.0,0.006967476103454828
44.0,0.006427140440791845
48.0,0.005924136843532324
52.0,0.005478748120367527
56.0,0.005082364194095135
60.0,0.004694514442235231
64.0,0.004328564275056124
72.0,0.003696487518027425
80.0,0.0031179676298052073
88.0,0.0027947218623012304
96.0,0.0026095793582499027
104.0,0.002423110418021679
112.0,0.002269350690767169
120.0,0.0019241507397964597
128.0,0.0014822366647422314
144.0,0.0009859813144430518
160.0,0.0007622235571034253
176.0,0.000700392120052129
192.0,0.0008558675181120634
208.0,0.0008653682889416814
224.0,0.000935173302423209
240.0,0.001030996791087091
256.0,0.0008175164693966508
288.0,0.0008429196896031499
320.0,0.0010706371394917369
352.0,0.001120784436352551
384.0,0.0011688636150211096
416.0,0.001229770015925169
448.0,0.0010296311229467392
480.0,0.0013112074229866266
512.0,0.0014463721308857203
576.0,0.00028951207059435546
640.0,1.2190103916509543e-05
704.0,-0.00027390161994844675
768.0,0.0007964703254401684
832.0,0.0009603723301552236
896.0,0.00059740204596892
960.0,0.0006138641620054841
1024.0,0.0013830114621669054
1152.0,0.0005730291013605893
1280.0,0.0002317153848707676
1408.0,-0.0013827827060595155
1536.0,-0.0011205453192815185
1664.0,0.000573683762922883
1792.0,0.0002806203265208751
1920.0,-2.6867706765187904e-05
2048.0,0.0004963547689840198
2304.0,-0.000931035727262497
2560.0,-1.1795721547969151e-05
2816.0,-0.0003969901008531451
3072.0,0.00022433798585552722
3328.0,-0.0007420614711008966
3584.0,-0.0013610960450023413
3840.0,-0.0016322012525051832
4096.0,-0.0019557676278054714
4608.0,-0.001097156316973269
5120.0,-0.0009623363148421049
5632.0,-0.00019763605087064207
6144.0,0.0005274395807646215
6656.0,-0.0005320796044543386
7168.0,-0.00041111643076874316
7680.0,0.0009256472112610936
8192.0,0.0013198992237448692
end
