version,3.0
numOfCh,1
type,point
parent_name,34766_0dot2-1dot0
ch_type,1_1
kcount,1
numberNandB,1
brightnessNandB,1
carpet pos,0
pc,0
Time (ms),CH1 Auto-Correlation
1.0,0.02480057254433632
2.0,0.024313928559422493
3.0,0.023913346230983734
4.0,0.023521343246102333
5.0,0.02313349023461342
6.0,0.022772440686821938
7.0,0.02243954688310623
8.0,0.0220950897783041
9.0,0.02176232822239399
10.0,0.02143607847392559
11.0,0.021112821996212006
12.0,0.020773809403181076
13.0,0.020451143383979797
14.0,0.02013976126909256
15.0,0.01982850208878517
16.0,0.01952933333814144
18.0,0.018995672464370728
20.0,0.018484661355614662
22.0,0.01802387274801731
24.0,0.01759262941777706
26.0,0.01719413883984089
28.0,0.016800295561552048
30.0,0.01642380654811859
32.0,0.01607031375169754
36.0,0.01538443099707365
40.0,0.014691089279949665
44.0,0.014081956818699837
48.0,0.013555538840591908
52.0,0.01304258219897747
56.0,0.012665251269936562
60.0,0.012357614003121853
64.0,0.012072441168129444
72.0,0.011462479829788208
80.0,0.010760526172816753
88.0,0.010045524686574936
96.0,0.009402342140674591
104.0,0.008877966552972794
112.0,0.008311397396028042
120.0,0.007713101804256439
128.0,0.007219541817903519
144.0,0.0065841395407915115
160.0,0.006096199154853821
176.0,0.005842890124768019
192.0,0.005575829651206732
208.0,0.005082916002720594
224.0,0.004503701347857714
240.0,0.004069711547344923
256.0,0.004133058711886406
288.0,0.004148034378886223
320.0,0.0037199140060693026
352.0,0.003858202835544944
384.0,0.003912204410880804
416.0,0.003969633020460606
448.0,0.003931714221835136
480.0,0.0028171204030513763
512.0,0.0018392974743619561
576.0,0.0004525570257101208
640.0,-0.00031473676790483296
704.0,-4.338134021963924e-05
768.0,-0.0008262025658041239
832.0,-0.0005896779475733638
896.0,-8.547868492314592e-05
960.0,-0.001679101143963635
1024.0,-0.002208687597885728
1152.0,-0.003057988826185465
1280.0,-0.002421525539830327
1408.0,-0.0018167747184634209
1536.0,-0.0016304129967465997
1664.0,-0.0017696366412565112
1792.0,-0.0023022990208119154
1920.0,-0.0011615174589678645
2048.0,-0.0013579893857240677
2304.0,-0.001364411786198616
2560.0,-0.0026961243711411953
2816.0,0.0007128143333829939
3072.0,0.0015414743684232235
3328.0,0.0007599044474773109
3584.0,0.0013491861755028367
3840.0,0.0011689175153151155
4096.0,-0.0018486225744709373
4608.0,-0.0024249993730336428
5120.0,-0.0006149130058474839
5632.0,-0.0005933946813456714
6144.0,-0.0014637568965554237
6656.0,0.0007461232016794384
7168.0,0.003017327981069684
7680.0,0.0001828379899961874
8192.0,0.0024321479722857475
end
