version,3.0
numOfCh,1
type,point
parent_name,34766_0dot2-1dot0
ch_type,1_1
kcount,1
numberNandB,1
brightnessNandB,1
carpet pos,0
pc,0
Time (ms),CH1 Auto-Correlation
1.0,0.026494009420275688
2.0,0.026069125160574913
3.0,0.025663577020168304
4.0,0.025286709889769554
5.0,0.024926574900746346
6.0,0.02457987703382969
7.0,0.024248825386166573
8.0,0.023927370086312294
9.0,0.02361101098358631
10.0,0.023303935304284096
11.0,0.02300936169922352
12.0,0.0227268747985363
13.0,0.02245108224451542
14.0,0.022202830761671066
15.0,0.021956659853458405
16.0,0.021719058975577354
18.0,0.02127542346715927
20.0,0.020853735506534576
22.0,0.02042677439749241
24.0,0.020047832280397415
26.0,0.01968729868531227
28.0,0.01935616321861744
30.0,0.019040903076529503
32.0,0.018746349960565567
36.0,0.01820063404738903
40.0,0.017712077125906944
44.0,0.017252523452043533
48.0,0.01681806705892086
52.0,0.016437802463769913
56.0,0.016090789809823036
60.0,0.015734517946839333
64.0,0.01540082972496748
72.0,0.014774907380342484
80.0,0.014121467247605324
88.0,0.01345359068363905
96.0,0.012795197777450085
104.0,0.012050456367433071
112.0,0.011452390812337399
120.0,0.010926701128482819
128.0,0.01041753776371479
144.0,0.00936598889529705
160.0,0.007950511761009693
176.0,0.006642296444624662
192.0,0.005951575003564358
208.0,0.005809696391224861
224.0,0.005336982663720846
240.0,0.004422639962285757
256.0,0.0038225234020501375
288.0,0.00302092800848186
320.0,0.002339863684028387
352.0,0.002160239266231656
384.0,0.0016882468480616808
416.0,0.0011452073231339455
448.0,0.0010202131234109402
480.0,0.0012011438375338912
512.0,0.000900327053386718
576.0,0.00018142821500077844
640.0,-0.0008894108468666673
704.0,-0.0017990532796829939
768.0,-0.0015043156454339623
832.0,-0.0015711118467152119
896.0,-0.0017408072017133236
960.0,-0.000967882398981601
1024.0,-0.0004378502781037241
1152.0,-6.10918432357721e-05
1280.0,0.0005535696400329471
1408.0,0.002117688301950693
1536.0,0.0010287935147061944
1664.0,-2.9631288271048106e-05
1792.0,-0.00029572658240795135
1920.0,-0.0012366354931145906
2048.0,-0.00280117173679173
2304.0,-0.004848279990255833
2560.0,-0.005742948967963457
2816.0,-0.0021525733172893524
3072.0,-0.0028039489407092333
3328.0,-0.00047765063936822116
3584.0,-0.0022995397448539734
3840.0,-8.93840697244741e-05
4096.0,-0.0021878129336982965
4608.0,0.0006132979178801179
5120.0,-0.0004738777643069625
5632.0,0.0013694806257262826
6144.0,0.005666857119649649
6656.0,0.0021214368753135204
7168.0,0.002011985285207629
7680.0,4.5438693632604554e-05
8192.0,-0.004082420375198126
end
