version,3.0
numOfCh,1
type,point
parent_name,34766_0dot2-1dot0
ch_type,1_1
kcount,1
numberNandB,1
brightnessNandB,1
carpet pos,0
pc,0
Time (ms),CH1 Auto-Correlation
1.0,0.02251199446618557
2.0,0.02210175432264805
3.0,0.02170761674642563
4.0,0.021335052326321602
5.0,0.020975684747099876
6.0,0.020620981231331825
7.0,0.020266810432076454
8.0,0.019942862913012505
9.0,0.019623737782239914
10.0,0.01930500939488411
11.0,0.019010702148079872
12.0,0.01872701197862625
13.0,0.01844683662056923
14.0,0.01817142404615879
15.0,0.017908310517668724
16.0,0.017645688727498055
18.0,0.017163394019007683
20.0,0.016692684963345528
22.0,0.01625916175544262
24.0,0.015857288613915443
26.0,0.015463383868336678
28.0,0.015079068951308727
30.0,0.014713741838932037
32.0,0.014370511285960674
36.0,0.013706279918551445
40.0,0.013083644211292267
44.0,0.012503579258918762
48.0,0.01191425509750843
52.0,0.01137926522642374
56.0,0.010852186940610409
60.0,0.010260908864438534
64.0,0.00969622191041708
72.0,0.008757932111620903
80.0,0.008000897243618965
88.0,0.007191585376858711
96.0,0.006388375535607338
104.0,0.005549835506826639
112.0,0.004746642895042896
120.0,0.0042044329456985
128.0,0.003675644751638174
144.0,0.002662970218807459
160.0,0.0016484783263877034
176.0,0.0009332231129519641
192.0,0.0004867737297900021
208.0,0.00038028976996429265
224.0,0.000209489167900756
240.0,0.00029801507480442524
256.0,0.0005982589791528881
288.0,0.00025073360302485526
320.0,-0.00044035096652805805
352.0,-0.0011784355156123638
384.0,-0.0008216734859161079
416.0,-0.0007767021306790411
448.0,-0.0013156021013855934
480.0,-0.0012385855661705136
512.0,-0.0006906074704602361
576.0,-0.00013591621245723218
640.0,0.0002898698439821601
704.0,-5.2170016715535894e-05
768.0,7.733923121122643e-05
832.0,-0.0003434339596424252
896.0,0.0002134408860001713
960.0,0.0002508434990886599
1024.0,0.0012154714204370975
1152.0,-8.849089499562979e-05
1280.0,-0.001568688196130097
1408.0,-0.001839390373788774
1536.0,-0.0009753092308528721
1664.0,-0.0008893494377844036
1792.0,-0.0009738210937939584
1920.0,-0.002322073094546795
2048.0,-0.0017927971202880144
2304.0,-0.0018885337049141526
2560.0,0.00026069418527185917
2816.0,0.001045618555508554
3072.0,0.0006549321697093546
3328.0,-0.00022921853815205395
3584.0,0.0025472899433225393
3840.0,0.002361864782869816
4096.0,0.0009421787690371275
4608.0,-0.00020865460101049393
5120.0,-0.0008559338166378438
5632.0,-0.0020418118219822645
6144.0,-0.00117137108463794
6656.0,0.0015729673905298114
7168.0,5.8103840274270624e-05
7680.0,0.0018409246113151312
8192.0,-0.0002686438092496246
end
