version,3.0
numOfCh,1
type,point
parent_name,34766_0dot2-1dot0
ch_type,1_1
kcount,1
numberNandB,1
brightnessNandB,1
carpet pos,0
pc,0
Time (ms),CH1 Auto-Correlation
1.0,0.021165387704968452
2.0,0.020750943571329117
3.0,0.020374933257699013
4.0,0.02000056765973568
5.0,0.019633764401078224
6.0,0.01927371323108673
7.0,0.018921080976724625
8.0,0.018567657098174095
9.0,0.018232835456728935
10.0,0.017905229702591896
11.0,0.01760099083185196
12.0,0.017306970432400703
13.0,0.017019081860780716
14.0,0.016734858974814415
15.0,0.01646084152162075
16.0,0.016205130144953728
18.0,0.015718871727585793
20.0,0.015240693464875221
22.0,0.014809176325798035
24.0,0.014435319229960442
26.0,0.014071430079638958
28.0,0.01374018657952547
30.0,0.013410903513431549
32.0,0.01307408045977354
36.0,0.012413415126502514
40.0,0.0117817847058177
44.0,0.011277807876467705
48.0,0.010819057002663612
52.0,0.010370559990406036
56.0,0.010033594444394112
60.0,0.009755830280482769
64.0,0.009481142275035381
72.0,0.009089885279536247
80.0,0.008782926015555859
88.0,0.008458573371171951
96.0,0.00810693297535181
104.0,0.007810796145349741
112.0,0.007459739688783884
120.0,0.00706855533644557
128.0,0.006666750181466341
144.0,0.005839994177222252
160.0,0.005427089054137468
176.0,0.005151906982064247
192.0,0.004806211683899164
208.0,0.004453753586858511
224.0,0.00444830721244216
240.0,0.004657026380300522
256.0,0.004597787279635668
288.0,0.003771741408854723
320.0,0.0025751274079084396
352.0,0.0022205135319381952
384.0,0.0020011821761727333
416.0,0.002059233607724309
448.0,0.0020366725511848927
480.0,0.002480969065800309
512.0,0.0031414066907018423
576.0,0.002338053658604622
640.0,0.0007221557316370308
704.0,-0.00010129794827662408
768.0,0.0007323444006033242
832.0,0.0013368157669901848
896.0,0.0010027044918388128
960.0,0.0013068460393697023
1024.0,0.003014650661498308
1152.0,0.0020674432162195444
1280.0,0.0022679963149130344
1408.0,0.0024586862418800592
1536.0,0.002516992622986436
1664.0,0.0015409108018502593
1792.0,0.002142813755199313
1920.0,0.001972545636817813
2048.0,0.001291559892706573
2304.0,-0.0018739734077826142
2560.0,-0.00067790353205055
2816.0,0.0005051970947533846
3072.0,0.0006562597118318081
3328.0,-0.0008788612904027104
3584.0,0.00017191562801599503
3840.0,2.353013951506e-05
4096.0,-2.3214914108393714e-05
4608.0,-0.00035778223536908627
5120.0,0.00021416909294202924
5632.0,5.980475543765351e-05
6144.0,0.000882225576788187
6656.0,0.0009974660351872444
7168.0,-0.0015954499831423163
7680.0,-0.0003592895227484405
8192.0,0.00017049438611138612
end
