version,3.0
numOfCh,1
type,point
parent_name,34766_0dot2-1dot0
ch_type,1_1
kcount,1
numberNandB,1
brightnessNandB,1
carpet pos,0
pc,0
Time (ms),CH1 Auto-Correlation
1.0,0.021494176238775253
2.0,0.021070796996355057
3.0,0.020654942840337753
4.0,0.02027066983282566
5.0,0.01991591602563858
6.0,0.019562089815735817
7.0,0.01924637332558632
8.0,0.01894187554717064
9.0,0.018642090260982513
10.0,0.01833370327949524
11.0,0.018048522993922234
12.0,0.017773868516087532
13.0,0.017507456243038177
14.0,0.017256198450922966
15.0,0.01700451411306858
16.0,0.016774093732237816
18.0,0.016315145418047905
20.0,0.015892714262008667
22.0,0.01551080122590065
24.0,0.0151517353951931
26.0,0.0147944251075387
28.0,0.014442743733525276
30.0,0.014108345843851566
32.0,0.013805593363940716
36.0,0.013265065848827362
40.0,0.012749658897519112
44.0,0.012238848023116589
48.0,0.011755060404539108
52.0,0.011347382329404354
56.0,0.010945777408778667
60.0,0.010554051958024502
64.0,0.010210216045379639
72.0,0.0096335643902421
80.0,0.009170697070658207
88.0,0.008554959669709206
96.0,0.008000034838914871
104.0,0.007566085550934076
112.0,0.007207659073174
120.0,0.006838586181402206
128.0,0.006550169084221125
144.0,0.005878240801393986
160.0,0.0052170963026583195
176.0,0.004841401241719723
192.0,0.004658237565308809
208.0,0.004355188459157944
224.0,0.004003865644335747
240.0,0.0034954077564179897
256.0,0.002835863968357444
288.0,0.0017604571767151356
320.0,0.0010877716122195125
352.0,0.00043512569391168654
384.0,-3.955993088311516e-05
416.0,-0.0002428967272862792
448.0,-4.472428190638311e-05
480.0,0.0005264188512228429
512.0,0.0016970449360087514
576.0,0.0027909467462450266
640.0,0.0030396515503525734
704.0,0.0022468690294772387
768.0,0.002462628297507763
832.0,0.0017003895482048392
896.0,0.001111402758397162
960.0,0.0020055787172168493
1024.0,0.0011896477080881596
1152.0,0.0017424970865249634
1280.0,0.002244265517219901
1408.0,0.0022937837056815624
1536.0,0.002621891675516963
1664.0,0.000786950346082449
1792.0,0.00036026837187819183
1920.0,0.0002242026966996491
2048.0,0.00013086266699247062
2304.0,-0.001297629438340664
2560.0,0.0023436371702700853
2816.0,0.001692167017608881
3072.0,-0.0013431665720418096
3328.0,-0.0020958345849066973
3584.0,-0.002208099467679858
3840.0,-0.0016013485146686435
4096.0,-0.00012844125740230083
4608.0,-0.0019556747283786535
5120.0,-0.0007591876783408225
5632.0,-0.0015638379845768213
6144.0,-0.003573054913431406
6656.0,-0.0007029952830635011
7168.0,-9.588918328518048e-05
7680.0,-0.002022135304287076
8192.0,-0.0019650107715278864
end
