version,3.0
numOfCh,1
type,point
parent_name,34766_0dot2-1dot0
ch_type,1_1
kcount,1
numberNandB,1
brightnessNandB,1
carpet pos,0
pc,0
Time (ms),CH1 Auto-Correlation
1.0,0.018278703093528748
2.0,0.01786121539771557
3.0,0.017469914630055428
4.0,0.017091302201151848
5.0,0.016716623678803444
6.0,0.01634475588798523
7.0,0.01599002256989479
8.0,0.015648629516363144
9.0,0.015318663790822029
10.0,0.015004594810307026
11.0,0.01469298917800188
12.0,0.014394599013030529
13.0,0.014116592705249786
14.0,0.013834819197654724
15.0,0.013562346808612347
16.0,0.013316660188138485
18.0,0.012837576679885387
20.0,0.012389635667204857
22.0,0.011947511695325375
24.0,0.01151393260806799
26.0,0.011101793497800827
28.0,0.010726943612098694
30.0,0.010369771160185337
32.0,0.010040299035608768
36.0,0.009398279711604118
40.0,0.00878099910914898
44.0,0.008157281205058098
48.0,0.007602558936923742
52.0,0.007105417549610138
56.0,0.006680699530988932
60.0,0.006295537110418081
64.0,0.005930029321461916
72.0,0.005247944500297308
80.0,0.004710815846920013
88.0,0.004279165528714657
96.0,0.003936683759093285
104.0,0.0036425446160137653
112.0,0.003413526341319084
120.0,0.003339274786412716
128.0,0.0032508554868400097
144.0,0.0028854934498667717
160.0,0.0022400696761906147
176.0,0.001562612596899271
192.0,0.0013111960142850876
208.0,0.0013500791974365711
224.0,0.0014997938415035605
240.0,0.0018341131508350372
256.0,0.0019003148190677166
288.0,0.0016527981497347355
320.0,0.0014393336605280638
352.0,0.0006838364060968161
384.0,0.00020785651577170938
416.0,0.00014264235505834222
448.0,2.048111673502717e-05
480.0,0.00030659689218737185
512.0,-2.6916009119304363e-06
576.0,-0.00048506201710551977
640.0,3.1534727895632386e-05
704.0,-0.0001138837105827406
768.0,-0.0009133427520282567
832.0,-0.001662653055973351
896.0,-0.0015842178836464882
960.0,-0.0006784205907024443
1024.0,0.0010332399979233742
1152.0,0.0011129433987662196
1280.0,-0.0005957207758910954
1408.0,-0.001426585135050118
1536.0,-0.001758800819516182
1664.0,-0.0017871777527034283
1792.0,5.087047611596063e-06
1920.0,-0.0014551522908732295
2048.0,-0.0012832090724259615
2304.0,-0.00025053005083464086
2560.0,-0.00045145247713662684
2816.0,-0.00011687375808833167
3072.0,-0.0007911266875453293
3328.0,-4.41519841842819e-05
3584.0,0.0018269222928211093
3840.0,0.002142127603292465
4096.0,0.0018444422166794538
4608.0,-0.0011220014421269298
5120.0,-0.00037095893640071154
5632.0,-0.00032866824767552316
6144.0,-0.0006051025120541453
6656.0,0.001237188815139234
7168.0,-0.0008269482641480863
7680.0,0.0024602599442005157
8192.0,-0.0018663721857592463
end
