version,3.0
numOfCh,1
type,point
parent_name,34766_0dot2-1dot0
ch_type,1_1
kcount,1
numberNandB,1
brightnessNandB,1
carpet pos,0
pc,0
Time (ms),CH1 Auto-Correlation
1.0,0.02077612467110157
2.0,0.020331071689724922
3.0,0.019922884181141853
4.0,0.019531667232513428
5.0,0.01916828192770481
6.0,0.018808886408805847
7.0,0.018464721739292145
8.0,0.0181315615773201
9.0,0.017815107479691505
10.0,0.017500804737210274
11.0,0.017204824835062027
12.0,0.016909796744585037
13.0,0.016626175493001938
14.0,0.016333017498254776
15.0,0.016034474596381187
16.0,0.01574554480612278
18.0,0.015203886665403843
20.0,0.014705486595630646
22.0,0.01422719843685627
24.0,0.013747965916991234
26.0,0.013297265395522118
28.0,0.012881817296147346
30.0,0.012500891461968422
32.0,0.01215907372534275
36.0,0.011550838127732277
40.0,0.010999460704624653
44.0,0.010462279431521893
48.0,0.009950382634997368
52.0,0.009508717805147171
56.0,0.009138652123510838
60.0,0.008793924935162067
64.0,0.008449381217360497
72.0,0.0077955638989806175
80.0,0.0073020244017243385
88.0,0.006904377602040768
96.0,0.006503188516944647
104.0,0.0061567905358970165
112.0,0.005896921269595623
120.0,0.005657671485096216
128.0,0.0053685433231294155
144.0,0.004776091780513525
160.0,0.003957335837185383
176.0,0.003465409157797694
192.0,0.002959292149171233
208.0,0.002682729857042432
224.0,0.0026439714711159468
240.0,0.0025108910631388426
256.0,0.0022000507451593876
288.0,0.0020627197809517384
320.0,0.0017928964225575328
352.0,0.0008834903128445148
384.0,-0.00024918391136452556
416.0,-0.0007705678581260145
448.0,-0.0013543993700295687
480.0,-0.0016235248185694218
512.0,-0.0013085600221529603
576.0,-0.0006372604984790087
640.0,0.00025432370603084564
704.0,0.000180956965778023
768.0,0.00047578514204360545
832.0,0.0014450476737692952
896.0,0.0023674590047448874
960.0,0.002748531987890601
1024.0,0.002104813465848565
1152.0,0.0007488557021133602
1280.0,-0.0012558778980746865
1408.0,-0.0004386817163322121
1536.0,-0.001403135946020484
1664.0,-0.0003412232908885926
1792.0,0.00043876402196474373
1920.0,0.0005225444328971207
2048.0,-6.905494501552312e-06
2304.0,-0.0011186274932697415
2560.0,-0.0023743468336760998
2816.0,-0.002150744665414095
3072.0,-0.0010211410699412227
3328.0,2.798965033434797e-05
3584.0,-0.002344131702557206
3840.0,-0.0016498785698786378
4096.0,0.0001532809401396662
4608.0,-0.000544883543625474
5120.0,0.0021772426553070545
5632.0,8.2207283412572e-05
6144.0,0.0004534481558948755
6656.0,0.0008158280397765338
7168.0,-0.0009519454906694591
7680.0,-0.0008642543689347804
8192.0,-0.0007139820954762399
end
