version,3.0
numOfCh,1
type,point
parent_name,34766_0dot2-1dot0
ch_type,1_1
kcount,1
numberNandB,1
brightnessNandB,1
carpet pos,0
pc,0
Time (ms),CH1 Auto-Correlation
1.0,0.021231282502412796
2.0,0.02075137384235859
3.0,0.02030763402581215
4.0,0.019898582249879837
5.0,0.019497442990541458
6.0,0.019106248393654823
7.0,0.018738074228167534
8.0,0.018387094140052795
9.0,0.01804347150027752
10.0,0.01772451587021351
11.0,0.0174021627753973
12.0,0.01710398867726326
13.0,0.01680472306907177
14.0,0.01651054434478283
15.0,0.016226472333073616
16.0,0.015957524999976158
18.0,0.01544792577624321
20.0,0.014940495602786541
22.0,0.014439188875257969
24.0,0.013954143971204758
26.0,0.013472250662744045
28.0,0.013003612868487835
30.0,0.012574712745845318
32.0,0.012170152738690376
36.0,0.011442259885370731
40.0,0.010783592239022255
44.0,0.010191681794822216
48.0,0.009654146619141102
52.0,0.009202403016388416
56.0,0.00881656352430582
60.0,0.008478371426463127
64.0,0.008209186606109142
72.0,0.007628302089869976
80.0,0.006801120005548
88.0,0.005915849469602108
96.0,0.005150110926479101
104.0,0.0045073069632053375
112.0,0.003938847687095404
120.0,0.003485002787783742
128.0,0.0031857637222856283
144.0,0.0026671236846596003
160.0,0.0024795078206807375
176.0,0.0024188272655010223
192.0,0.0024471047800034285
208.0,0.0026550418697297573
224.0,0.002918859478086233
240.0,0.0032375031150877476
256.0,0.003146974602714181
288.0,0.0024455657694488764
320.0,0.002796137472614646
352.0,0.0025096696335822344
384.0,0.002750283805653453
416.0,0.002983431564643979
448.0,0.002510979538783431
480.0,0.0014108777977526188
512.0,0.0007506018737331033
576.0,0.0006183715304359794
640.0,0.00033265247475355864
704.0,0.0006477085407823324
768.0,0.0004362101899459958
832.0,0.0010674577206373215
896.0,0.0016142831882461905
960.0,0.0011940845288336277
1024.0,0.0004327603382989764
1152.0,0.00042794065666384995
1280.0,-0.00021789116726722568
1408.0,-0.0010795795824378729
1536.0,-0.0006666139815934002
1664.0,0.001070542261004448
1792.0,0.001487885951064527
1920.0,0.0001285835896851495
2048.0,0.001124888309277594
2304.0,-0.0005422113463282585
2560.0,-0.0006383705185726285
2816.0,0.0010174775961786509
3072.0,2.3511316612712108e-05
3328.0,-3.3434549550293013e-05
3584.0,0.001324002048932016
3840.0,0.001935294596478343
4096.0,0.00031794700771570206
4608.0,0.001307397847995162
5120.0,-0.0002855795028153807
5632.0,0.001531663234345615
6144.0,-0.001825499115511775
6656.0,-0.000707283616065979
7168.0,-0.003263489343225956
7680.0,-0.00394368777051568
8192.0,-0.0005922882119193673
end
