version,3.0
numOfCh,1
type,point
parent_name,34766_0dot2-1dot0
ch_type,1_1
kcount,1
numberNandB,1
brightnessNandB,1
carpet pos,0
pc,0
Time (ms),CH1 Auto-Correlation
1.0,0.022412355989217758
2.0,0.022015998139977455
3.0,0.021628232672810555
4.0,0.021255742758512497
5.0,0.020898638293147087
6.0,0.02055748924612999
7.0,0.020229965448379517
8.0,0.019904255867004395
9.0,0.019592169672250748
10.0,0.019297368824481964
11.0,0.01900574378669262
12.0,0.018707698211073875
13.0,0.018407369032502174
14.0,0.01812431961297989
15.0,0.017855204641819
16.0,0.017593683674931526
18.0,0.017102189362049103
20.0,0.016615360975265503
22.0,0.016156679019331932
24.0,0.01570996828377247
26.0,0.015260010026395321
28.0,0.014828179031610489
30.0,0.014438120648264885
32.0,0.014057539403438568
36.0,0.013345079496502876
40.0,0.012730066664516926
44.0,0.012175519950687885
48.0,0.011657482013106346
52.0,0.011196346953511238
56.0,0.010769329033792019
60.0,0.01043637190014124
64.0,0.010129834525287151
72.0,0.009428809396922588
80.0,0.008740834891796112
88.0,0.008121307939291
96.0,0.007523147854954004
104.0,0.006952323019504547
112.0,0.006390278693288565
120.0,0.006071791518479586
128.0,0.005810513626784086
144.0,0.005443156696856022
160.0,0.004923704080283642
176.0,0.004322057589888573
192.0,0.003924445249140263
208.0,0.0038307795766741037
224.0,0.0037529373075813055
240.0,0.003632927779108286
256.0,0.003019981784746051
288.0,0.0024047724436968565
320.0,0.0020319803152233362
352.0,0.0012580271577462554
384.0,0.00035069245495833457
416.0,0.00034641061211004853
448.0,0.0005326562677510083
480.0,0.0009499695152044296
512.0,0.0012293537147343159
576.0,0.0011608172208070755
640.0,0.0005463464767672122
704.0,0.0011998075060546398
768.0,0.001848753890953958
832.0,0.0008416081545874476
896.0,-5.520790000446141e-05
960.0,-0.000658527365885675
1024.0,-0.0014878963120281696
1152.0,-0.000179356531589292
1280.0,0.0009221805958077312
1408.0,-5.425004928838462e-06
1536.0,0.00018976558931171894
1664.0,0.00042969887726940215
1792.0,0.0006304949056357145
1920.0,0.0010813908884301782
2048.0,6.445922190323472e-05
2304.0,0.0024303453974425793
2560.0,0.0022081148345023394
2816.0,0.001133084180764854
3072.0,0.00019572376913856715
3328.0,1.0695294804463629e-05
3584.0,-6.663637032033876e-05
3840.0,-0.0013957734918221831
4096.0,0.0015418812399730086
4608.0,0.0003284377162344754
5120.0,-0.0017106762388721108
5632.0,-0.0015198328765109181
6144.0,-0.0008037303341552615
6656.0,-0.0015338256489485502
7168.0,-0.002147043589502573
7680.0,-0.0034713970962911844
8192.0,-0.0027632289566099644
end
