version,3.0
numOfCh,1
type,point
parent_name,34766_0dot2-1dot0
ch_type,1_1
kcount,1
numberNandB,1
brightnessNandB,1
carpet pos,0
pc,0
Time (ms),CH1 Auto-Correlation
1.0,0.02374497801065445
2.0,0.023319285362958908
3.0,0.022915637120604515
4.0,0.02252686768770218
5.0,0.02214374579489231
6.0,0.021780749782919884
7.0,0.021433012560009956
8.0,0.021097205579280853
9.0,0.020760443061590195
10.0,0.020433329045772552
11.0,0.02011074125766754
12.0,0.01980176940560341
13.0,0.01950119063258171
14.0,0.0192245040088892
15.0,0.0189517829567194
16.0,0.01869809813797474
18.0,0.018188724294304848
20.0,0.017715640366077423
22.0,0.01728336699306965
24.0,0.016886066645383835
26.0,0.016501301899552345
28.0,0.016121963039040565
30.0,0.015760719776153564
32.0,0.015440273098647594
36.0,0.014854085631668568
40.0,0.014317193999886513
44.0,0.013832705095410347
48.0,0.013393672183156013
52.0,0.013020634651184082
56.0,0.012716428376734257
60.0,0.012435762211680412
64.0,0.01214014831930399
72.0,0.011610557325184345
80.0,0.011093639768660069
88.0,0.010382197797298431
96.0,0.00973670743405819
104.0,0.00917179323732853
112.0,0.008734709583222866
120.0,0.008351444266736507
128.0,0.007856263779103756
144.0,0.007172638084739447
160.0,0.006637759506702423
176.0,0.006438767537474632
192.0,0.00631589163094759
208.0,0.006081270519644022
224.0,0.00551670603454113
240.0,0.005112444516271353
256.0,0.005002268124371767
288.0,0.004713127855211496
320.0,0.004609605763107538
352.0,0.004469733685255051
384.0,0.004231173545122147
416.0,0.004042850341647863
448.0,0.0037217189092189074
480.0,0.003910581581294537
512.0,0.003706560470163822
576.0,0.0038567064329981804
640.0,0.003986810799688101
704.0,0.0037945876829326153
768.0,0.003514800453558564
832.0,0.0017586374888196588
896.0,-4.544277908280492e-05
960.0,-0.0009396497043780982
1024.0,-0.0017288466915488243
1152.0,-0.002547753741964698
1280.0,-0.0003945766657125205
1408.0,-8.712639100849628e-06
1536.0,-0.0003743487468454987
1664.0,-0.0006733349873684347
1792.0,-0.0019131125882267952
1920.0,-0.002008323324844241
2048.0,-0.001457878272049129
2304.0,0.00035539144300855696
2560.0,-0.00240373145788908
2816.0,-0.0006120548350736499
3072.0,0.000604029803071171
3328.0,0.0004924003733322024
3584.0,0.0034669165033847094
3840.0,0.004294680897146463
4096.0,0.0021954625844955444
4608.0,7.551195449195802e-05
5120.0,-0.0030599290039390326
5632.0,-0.004372911062091589
6144.0,-0.0028870401438325644
6656.0,-0.0026505363639444113
7168.0,-0.004145082086324692
7680.0,-0.0024438940454274416
8192.0,0.0005357935442589223
end
