version,3.0
numOfCh,1
type,point
parent_name,34766_0dot2-1dot0
ch_type,1_1
kcount,1
numberNandB,1
brightnessNandB,1
carpet pos,0
pc,0
Time (ms),CH1 Auto-Correlation
1.0,0.017521250993013382
2.0,0.017060279846191406
3.0,0.01663152128458023
4.0,0.01623508706688881
5.0,0.015865614637732506
6.0,0.01550920121371746
7.0,0.015155148692429066
8.0,0.014817927964031696
9.0,0.014495878480374813
10.0,0.014173424802720547
11.0,0.01386281568557024
12.0,0.013560939580202103
13.0,0.01327700074762106
14.0,0.01300762128084898
15.0,0.012742658145725727
16.0,0.012487697415053844
18.0,0.012000109069049358
20.0,0.011516342870891094
22.0,0.01104696188122034
24.0,0.010576619766652584
26.0,0.010138386860489845
28.0,0.009728403761982918
30.0,0.009351680055260658
32.0,0.009001118130981922
36.0,0.00841772835701704
40.0,0.007923529483377934
44.0,0.007510468363761902
48.0,0.00715117109939456
52.0,0.006824381649494171
56.0,0.006542577408254147
60.0,0.006282729096710682
64.0,0.00603772746399045
72.0,0.005485928151756525
80.0,0.0048912023194134235
88.0,0.004248102195560932
96.0,0.0036341878585517406
104.0,0.003082416718825698
112.0,0.002710874890908599
120.0,0.002481489209458232
128.0,0.0021605088841170073
144.0,0.0018795578507706523
160.0,0.0020672855898737907
176.0,0.002561704022809863
192.0,0.00263523799367249
208.0,0.00255816918797791
224.0,0.0023816332686692476
240.0,0.0024584303610026836
256.0,0.002780976938083768
288.0,0.0022960351780056953
320.0,0.0010692302603274584
352.0,0.0006276089698076248
384.0,-0.00016730782226659358
416.0,-0.0007717920816503465
448.0,-0.0012692089658230543
480.0,-0.0009379384573549032
512.0,-1.673310725891497e-05
576.0,0.0004090149886906147
640.0,-9.874739771476015e-05
704.0,-0.0009446899639442563
768.0,-0.0010159845696762204
832.0,-0.000998064992018044
896.0,-0.0012749360175803304
960.0,-0.0007033997098915279
1024.0,-0.0004087195557076484
1152.0,0.0001759462320478633
1280.0,-2.190520172007382e-05
1408.0,0.0013069529086351395
1536.0,0.0005967529723420739
1664.0,0.001130494987592101
1792.0,0.0007386868237517774
1920.0,0.00036205380456522107
2048.0,-9.16061399038881e-05
2304.0,-0.00034501226036809385
2560.0,-0.00018764438573271036
2816.0,0.00022956027532927692
3072.0,-7.186465518316254e-05
3328.0,-2.3259688077814644e-06
3584.0,-0.000502169132232666
3840.0,-0.0001283943565795198
4096.0,-0.0011215441627427936
4608.0,-0.0008281834307126701
5120.0,0.0010546536650508642
5632.0,-0.0004412901180330664
6144.0,0.00012350948236417025
6656.0,0.0025695546064525843
7168.0,-0.00027030264027416706
7680.0,-0.0007509494316764176
8192.0,-8.505928417434916e-05
end
