version,3.0
numOfCh,1
type,point
parent_name,34766_0dot2-1dot0
ch_type,1_1
kcount,1
numberNandB,1
brightnessNandB,1
carpet pos,0
pc,0
Time (ms),CH1 Auto-Correlation
1.0,0.018947049975395203
2.0,0.01847471110522747
3.0,0.018036451190710068
4.0,0.01764008402824402
5.0,0.01723373867571354
6.0,0.016854656860232353
7.0,0.01649479568004608
8.0,0.01614389382302761
9.0,0.01580684445798397
10.0,0.01549276802688837
11.0,0.015180733986198902
12.0,0.014877931214869022
13.0,0.0145951509475708
14.0,0.014320671558380127
15.0,0.014048436656594276
16.0,0.013785232789814472
18.0,0.013298038393259048
20.0,0.012830656953155994
22.0,0.012376103550195694
24.0,0.011945152655243874
26.0,0.011545463465154171
28.0,0.01117635890841484
30.0,0.010851182043552399
32.0,0.010525149293243885
36.0,0.009874523617327213
40.0,0.009238419122993946
44.0,0.00864005833864212
48.0,0.008129711262881756
52.0,0.007657079957425594
56.0,0.007217287085950375
60.0,0.006869116332381964
64.0,0.006588468328118324
72.0,0.0061002569273114204
80.0,0.005569858942180872
88.0,0.005063952412456274
96.0,0.004507130477577448
104.0,0.003916796762496233
112.0,0.003343071322888136
120.0,0.0028152153827250004
128.0,0.0023713652044534683
144.0,0.0019339800346642733
160.0,0.0017828850541263819
176.0,0.0016732170479372144
192.0,0.0013387054204940796
208.0,0.0008474122150801122
224.0,0.00032435820321552455
240.0,-0.00015188902034424245
256.0,-0.0006526076467707753
288.0,-0.0010578712681308389
320.0,-0.001265528961084783
352.0,-0.0007910647545941174
384.0,-0.0002193038526456803
416.0,-0.00023153085203375667
448.0,-0.0003639604547061026
480.0,-0.0006964266067370772
512.0,-0.0008514129440300167
576.0,-0.001163392560556531
640.0,-0.0020021251402795315
704.0,-0.0018743673572316766
768.0,-0.00024071920779533684
832.0,0.0015307588037103415
896.0,0.001613115193322301
960.0,0.0006934136617928743
1024.0,0.0009821989806368947
1152.0,0.0015208403347060084
1280.0,0.0016568887513130903
1408.0,0.00014775364252272993
1536.0,-0.001179965678602457
1664.0,9.20524907996878e-05
1792.0,0.0004351525567471981
1920.0,0.00036376138450577855
2048.0,0.0009587098029442132
2304.0,0.000345370004652068
2560.0,-0.0011098610702902079
2816.0,0.0005891560576856136
3072.0,0.0011202195892110467
3328.0,-0.0018474278040230274
3584.0,-0.0011955488007515669
3840.0,7.14915877324529e-05
4096.0,0.0010397050064057112
4608.0,-0.0011189955985173583
5120.0,-0.0002452080661896616
5632.0,-0.0009823868749663234
6144.0,-8.358083141501993e-05
6656.0,-0.0012934479163959622
7168.0,-0.0008183475001715124
7680.0,-0.0012990445829927921
8192.0,0.0010543480748310685
end
