version,3.0
numOfCh,1
type,point
parent_name,34766_0dot2-1dot0
ch_type,1_1
kcount,1
numberNandB,1
brightnessNandB,1
carpet pos,0
pc,0
Time (ms),CH1 Auto-Correlation
1.0,0.020242180675268173
2.0,0.01982390135526657
3.0,0.019413430243730545
4.0,0.019019033759832382
5.0,0.018638567999005318
6.0,0.018273117020726204
7.0,0.017916077747941017
8.0,0.017584579065442085
9.0,0.01726500131189823
10.0,0.016950558871030807
11.0,0.016661835834383965
12.0,0.016381267458200455
13.0,0.0161146093159914
14.0,0.015844661742448807
15.0,0.015592734329402447
16.0,0.015341529622673988
18.0,0.01485481671988964
20.0,0.014393986202776432
22.0,0.013981128111481667
24.0,0.013593635521829128
26.0,0.013228031806647778
28.0,0.012885013595223427
30.0,0.012566855177283287
32.0,0.01227552816271782
36.0,0.011762392707169056
40.0,0.011203856207430363
44.0,0.010717295110225677
48.0,0.010326345451176167
52.0,0.009946362115442753
56.0,0.009589964523911476
60.0,0.009310751222074032
64.0,0.009053018875420094
72.0,0.008524324744939804
80.0,0.007995217107236385
88.0,0.007512659300118685
96.0,0.007158588618040085
104.0,0.006937425117939711
112.0,0.006865551695227623
120.0,0.006776999216526747
128.0,0.006808360107243061
144.0,0.006507480517029762
160.0,0.006373877637088299
176.0,0.0060333372093737125
192.0,0.005435670726001263
208.0,0.004922084044665098
224.0,0.004480577073991299
240.0,0.0042396956123411655
256.0,0.004373445641249418
288.0,0.004220964852720499
320.0,0.004275610204786062
352.0,0.0038898016791790724
384.0,0.003948254510760307
416.0,0.003977169748395681
448.0,0.0038281246088445187
480.0,0.0035897614434361458
512.0,0.0030586794018745422
576.0,0.0031172537710517645
640.0,0.0031740975100547075
704.0,0.0031344143208116293
768.0,0.003464500419795513
832.0,0.002499844180420041
896.0,0.0018664252711459994
960.0,0.0026253550313413143
1024.0,0.0024982793256640434
1152.0,0.0022087786346673965
1280.0,0.0012618540786206722
1408.0,0.0010300131980329752
1536.0,0.0005237084697000682
1664.0,0.0008537922403775156
1792.0,0.0010792177636176348
1920.0,-0.0002940334379673004
2048.0,-8.44351507112151e-06
2304.0,-0.0010601410176604986
2560.0,-0.0009722615359351039
2816.0,-0.0012380228145048022
3072.0,-0.0021711441222578287
3328.0,-0.001127870287746191
3584.0,-0.001708884839899838
3840.0,-0.0010295503307133913
4096.0,-1.622824311198201e-05
4608.0,0.0008417508215643466
5120.0,0.00045937745016999543
5632.0,-0.0006350886542350054
6144.0,-0.0007797734579071403
6656.0,-0.0012191113783046603
7168.0,-0.0031099501065909863
7680.0,-0.0024571374524384737
8192.0,-0.003785266075283289
end
