version,3.0
numOfCh,1
type,point
parent_name,34766_0dot2-1dot0
ch_type,1_1
kcount,1
numberNandB,1
brightnessNandB,1
carpet pos,0
pc,0
Time (ms),CH1 Auto-Correlation
1.0,0.02378476969897747
2.0,0.02334655448794365
3.0,0.0229197908192873
4.0,0.022513119503855705
5.0,0.02211729623377323
6.0,0.021727852523326874
7.0,0.021356407552957535
8.0,0.021011019125580788
9.0,0.020669981837272644
10.0,0.020350569859147072
11.0,0.020034288987517357
12.0,0.019729910418391228
13.0,0.019412389025092125
14.0,0.019130650907754898
15.0,0.01885383203625679
16.0,0.01860002614557743
18.0,0.01811053417623043
20.0,0.017651205882430077
22.0,0.017261510714888573
24.0,0.016868824139237404
26.0,0.01650499552488327
28.0,0.016146114096045494
30.0,0.01578904688358307
32.0,0.015459829941391945
36.0,0.014834697358310223
40.0,0.014268112368881702
44.0,0.013726058416068554
48.0,0.013212802819907665
52.0,0.012825503014028072
56.0,0.01254085823893547
60.0,0.012294291518628597
64.0,0.012019590474665165
72.0,0.011560933664441109
80.0,0.01117455493658781
88.0,0.010767802596092224
96.0,0.010367609560489655
104.0,0.0100907813757658
112.0,0.009809352457523346
120.0,0.009450012817978859
128.0,0.008990639820694923
144.0,0.00803937017917633
160.0,0.0072763534262776375
176.0,0.006857945118099451
192.0,0.006635493133217096
208.0,0.0064058080315589905
224.0,0.006226044148206711
240.0,0.005886572413146496
256.0,0.005727834068238735
288.0,0.004699542187154293
320.0,0.00433760043233633
352.0,0.003574073314666748
384.0,0.0034197194036096334
416.0,0.002802537987008691
448.0,0.002117583528161049
480.0,0.0017914314521476626
512.0,0.0013068999396637082
576.0,-0.0004934205207973719
640.0,-0.0012430211063474417
704.0,-0.0011671799002215266
768.0,-0.001538110082037747
832.0,-0.001880998257547617
896.0,-0.0018619701731950045
960.0,-0.001032226369716227
1024.0,3.404742165002972e-05
1152.0,0.0003986995143350214
1280.0,0.0007655391236767173
1408.0,0.001566676190122962
1536.0,0.001709831296466291
1664.0,0.0006417414406314492
1792.0,-7.968493446242064e-05
1920.0,0.000541072862688452
2048.0,0.0011516434606164694
2304.0,0.0012422624276950955
2560.0,-1.3599878911918495e-05
2816.0,-0.0022041909396648407
3072.0,-0.002157388022169471
3328.0,-0.0035520184319466352
3584.0,-0.002561363857239485
3840.0,0.0009306853171437979
4096.0,0.0020672802347689867
4608.0,0.0008992542861960828
5120.0,-0.0012859448324888945
5632.0,-0.000134393252665177
6144.0,0.0015264233807101846
6656.0,0.0018594717839732766
7168.0,-0.0008491620537824929
7680.0,-0.0008592794183641672
8192.0,-0.0002175883128074929
end
