version,3.0
numOfCh,1
type,point
parent_name,34766_0dot2-1dot0
ch_type,1_1
kcount,1
numberNandB,1
brightnessNandB,1
carpet pos,0
pc,0
Time (ms),CH1 Auto-Correlation
1.0,0.018359055742621422
2.0,0.01790163852274418
3.0,0.01747671142220497
4.0,0.01707633212208748
5.0,0.016690906137228012
6.0,0.0163311455398798
7.0,0.015989989042282104
8.0,0.015659915283322334
9.0,0.01533365435898304
10.0,0.015016961842775345
11.0,0.014713772572577
12.0,0.014409189112484455
13.0,0.014104842208325863
14.0,0.013832157477736473
15.0,0.01357227936387062
16.0,0.01330273412168026
18.0,0.012819116935133934
20.0,0.01239978987723589
22.0,0.011990661732852459
24.0,0.011584111489355564
26.0,0.011193767189979553
28.0,0.01081791426986456
30.0,0.01046550739556551
32.0,0.010116968303918839
36.0,0.009471477009356022
40.0,0.008938752114772797
44.0,0.008498593233525753
48.0,0.008146372623741627
52.0,0.007848426699638367
56.0,0.007553815841674805
60.0,0.0072940015234053135
64.0,0.007040941156446934
72.0,0.006483806297183037
80.0,0.005851359106600285
88.0,0.00515765929594636
96.0,0.0047330837696790695
104.0,0.004408425651490688
112.0,0.0040006861090660095
120.0,0.0036139485891908407
128.0,0.0033564779441803694
144.0,0.002358619822189212
160.0,0.0016434547724202275
176.0,0.001002133940346539
192.0,0.0007161604589782655
208.0,0.0005362197407521307
224.0,0.0001843939971877262
240.0,0.00019239810353610665
256.0,0.0005109953926876187
288.0,0.0010019154287874699
320.0,0.0011021768441423774
352.0,0.0009170527919195592
384.0,0.0004977097269147635
416.0,0.0006502094911411405
448.0,-7.84496990036132e-07
480.0,0.0003114234423264861
512.0,0.00047131889732554555
576.0,-2.1629262846545316e-05
640.0,-0.0011343932710587978
704.0,-0.0013366624480113387
768.0,-0.0008037359802983701
832.0,0.0002447640581522137
896.0,-0.00013069616397842765
960.0,-0.00045730831334367394
1024.0,-0.0004190137842670083
1152.0,0.0002949892950709909
1280.0,-0.00021094121620990336
1408.0,0.0007969698053784668
1536.0,0.0009110755636356771
1664.0,0.0011618832359090447
1792.0,0.0005795593606308103
1920.0,-1.6156982383108698e-05
2048.0,0.00013064245285931975
2304.0,-0.0018106064526364207
2560.0,-0.001333736116066575
2816.0,-0.0012684798566624522
3072.0,-0.0017552778590470552
3328.0,0.00023101252736523747
3584.0,0.0009147496311925352
3840.0,3.129961987724528e-05
4096.0,-0.0014145550085231662
4608.0,-0.000447257625637576
5120.0,0.00047198813990689814
5632.0,0.001507074455730617
6144.0,-0.0008044764981605113
6656.0,-0.00030781811801716685
7168.0,0.0011127282632514834
7680.0,-4.538791108643636e-05
8192.0,-0.0017464379779994488
end
