version,3.0
numOfCh,1
type,point
parent_name,34766_0dot2-1dot0
ch_type,1_1
kcount,1
numberNandB,1
brightnessNandB,1
carpet pos,0
pc,0
Time (ms),CH1 Auto-Correlation
1.0,0.022425556555390358
2.0,0.02197267673909664
3.0,0.021542001515626907
4.0,0.021133165806531906
5.0,0.02075980417430401
6.0,0.02040756121277809
7.0,0.020056292414665222
8.0,0.019711950793862343
9.0,0.01938064582645893
10.0,0.019073618575930595
11.0,0.018791044130921364
12.0,0.01851349137723446
13.0,0.018253277987241745
14.0,0.017999911680817604
15.0,0.017735663801431656
16.0,0.017490511760115623
18.0,0.017016593366861343
20.0,0.016561372205615044
22.0,0.016114819794893265
24.0,0.01570579782128334
26.0,0.015305298380553722
28.0,0.014950632117688656
30.0,0.014602167531847954
32.0,0.01428097765892744
36.0,0.013728360645473003
40.0,0.013228393159806728
44.0,0.012809783220291138
48.0,0.012468590401113033
52.0,0.012170618399977684
56.0,0.011824609711766243
60.0,0.011489699594676495
64.0,0.011237743310630322
72.0,0.010764003731310368
80.0,0.010289104655385017
88.0,0.009844159707427025
96.0,0.009467330761253834
104.0,0.00921898428350687
112.0,0.008929421193897724
120.0,0.008530816994607449
128.0,0.008008687756955624
144.0,0.007356343790888786
160.0,0.006794122979044914
176.0,0.006213843822479248
192.0,0.00568276084959507
208.0,0.005155696999281645
224.0,0.004695613402873278
240.0,0.004574926104396582
256.0,0.004704129882156849
288.0,0.004663704428821802
320.0,0.004459161311388016
352.0,0.004062847699970007
384.0,0.00424551498144865
416.0,0.004434174858033657
448.0,0.004767911974340677
480.0,0.004984560888260603
512.0,0.005430514458566904
576.0,0.005263464991003275
640.0,0.004945280961692333
704.0,0.004114650189876556
768.0,0.0024727298878133297
832.0,0.001481621409766376
896.0,0.0006613078294321895
960.0,0.0007745763869024813
1024.0,0.001068033860065043
1152.0,0.0017150203930214047
1280.0,0.0007867615204304457
1408.0,-0.0003489963128231466
1536.0,-0.0014391462318599224
1664.0,-0.0007422586786560714
1792.0,4.189737228443846e-05
1920.0,-0.0009979886235669255
2048.0,-0.0005126334726810455
2304.0,0.0011711720144376159
2560.0,0.0008957444806583226
2816.0,0.0012727929279208183
3072.0,-0.0006567269447259605
3328.0,0.0004865225637331605
3584.0,-0.0018089120276272297
3840.0,-0.0023240591399371624
4096.0,-0.002878328785300255
4608.0,-0.001187524409033358
5120.0,0.0014220550656318665
5632.0,0.0019682408310472965
6144.0,0.0015979004092514515
6656.0,-0.0024312855675816536
7168.0,-0.002097212942317128
7680.0,-0.0010039587505161762
8192.0,-0.003178567858412862
end
