version,3.0
numOfCh,1
type,point
parent_name,34766_0dot2-1dot0
ch_type,1_1
kcount,1
numberNandB,1
brightnessNandB,1
carpet pos,0
pc,0
Time (ms),CH1 Auto-Correlation
1.0,0.02326040342450142
2.0,0.02285058982670307
3.0,0.022469688206911087
4.0,0.02209422178566456
5.0,0.02173755131661892
6.0,0.021388931199908257
7.0,0.021033216267824173
8.0,0.02069244533777237
9.0,0.0203496515750885
10.0,0.020024968311190605
11.0,0.01972258649766445
12.0,0.01941763237118721
13.0,0.019137687981128693
14.0,0.018855443224310875
15.0,0.018590135499835014
16.0,0.018333526328206062
18.0,0.01784125715494156
20.0,0.017358727753162384
22.0,0.016900446265935898
24.0,0.016477786004543304
26.0,0.01608501933515072
28.0,0.01572614349424839
30.0,0.015379156917333603
32.0,0.015051580965518951
36.0,0.014438639394938946
40.0,0.013875903561711311
44.0,0.0133516825735569
48.0,0.012853706255555153
52.0,0.012410636059939861
56.0,0.012041129171848297
60.0,0.011701490730047226
64.0,0.011311158537864685
72.0,0.010608312673866749
80.0,0.009860651567578316
88.0,0.009119345806539059
96.0,0.008534922264516354
104.0,0.008083472028374672
112.0,0.007736001163721085
120.0,0.007329083979129791
128.0,0.006901801098138094
144.0,0.006165564991533756
160.0,0.00519106350839138
176.0,0.004362709354609251
192.0,0.003836430609226227
208.0,0.0033370209857821465
224.0,0.002865987829864025
240.0,0.0026768397074192762
256.0,0.0028730412013828754
288.0,0.0025668626185506582
320.0,0.0016859194729477167
352.0,0.0005429129232652485
384.0,-0.0004401810874696821
416.0,-0.00028566675609909
448.0,-0.00063804053934291
480.0,-0.0011688063386827707
512.0,-0.0014242066536098719
576.0,-0.0011283035855740309
640.0,-0.0016112461453303695
704.0,-0.0007597958901897073
768.0,1.569781124999281e-05
832.0,-0.0010359223233535886
896.0,-0.0015029971254989505
960.0,-0.002404009224846959
1024.0,-0.0018515503033995628
1152.0,-0.0017101119738072157
1280.0,-0.0016634227940812707
1408.0,-0.0001767927606124431
1536.0,0.0015866948524489999
1664.0,0.001049042446538806
1792.0,7.168681622715667e-05
1920.0,-0.0005125656607560813
2048.0,-0.0027911898214370012
2304.0,-0.0018843567231670022
2560.0,0.0002657320292200893
2816.0,0.0003873113601002842
3072.0,0.0016538697527721524
3328.0,-0.0006046899361535907
3584.0,-0.001724455738440156
3840.0,0.0008833873434923589
4096.0,-0.0008788065752014518
4608.0,-0.0030080745927989483
5120.0,-0.0014626838965341449
5632.0,0.002155411522835493
6144.0,-0.0012780701508745551
6656.0,5.115228850627318e-05
7168.0,0.002560136141255498
7680.0,-0.0020718516316264868
8192.0,-0.0009443768649362028
end
