version,3.0
numOfCh,1
type,point
parent_name,34766_0dot2-1dot0
ch_type,1_1
kcount,1
numberNandB,1
brightnessNandB,1
carpet pos,0
pc,0
Time (ms),CH1 Auto-Correlation
1.0,0.021844619885087013
2.0,0.021404873579740524
3.0,0.02099240943789482
4.0,0.020601866766810417
5.0,0.020197700709104538
6.0,0.01982245221734047
7.0,0.019445935264229774
8.0,0.019090918824076653
9.0,0.01876605860888958
10.0,0.018447017297148705
11.0,0.01813546195626259
12.0,0.017836466431617737
13.0,0.017538564279675484
14.0,0.017231199890375137
15.0,0.01693541556596756
16.0,0.016635214909911156
18.0,0.016051035374403
20.0,0.015484614297747612
22.0,0.014958979561924934
24.0,0.014452669769525528
26.0,0.013942038640379906
28.0,0.013428505510091782
30.0,0.012924106791615486
32.0,0.012421287596225739
36.0,0.01152830757200718
40.0,0.010713030584156513
44.0,0.009963600896298885
48.0,0.009276600554585457
52.0,0.00868657510727644
56.0,0.00821019522845745
60.0,0.0077539957128465176
64.0,0.007335849571973085
72.0,0.006879435386508703
80.0,0.006602098233997822
88.0,0.00638213288038969
96.0,0.006245135795325041
104.0,0.006106598302721977
112.0,0.005972790997475386
120.0,0.0059120431542396545
128.0,0.005836526397615671
144.0,0.005573928356170654
160.0,0.005142801906913519
176.0,0.004589485004544258
192.0,0.003949543461203575
208.0,0.0036323415115475655
224.0,0.0036106163170188665
240.0,0.00362651189789176
256.0,0.0034326559398323298
288.0,0.0024864322040230036
320.0,0.0016881698975339532
352.0,0.0009872324299067259
384.0,0.00105000426992774
416.0,0.0009075706475414336
448.0,0.00019724303274415433
480.0,-0.00035563873825594783
512.0,0.00014032689796295017
576.0,0.0008242607582360506
640.0,0.0012258043279871345
704.0,-0.00024009011394809932
768.0,-0.000691763823851943
832.0,-0.00014447291323449463
896.0,0.0006224594544619322
960.0,0.0015325191197916865
1024.0,0.0003363591677043587
1152.0,0.0008760350756347179
1280.0,6.760697579011321e-05
1408.0,-0.00040161877404898405
1536.0,-0.0007359030423685908
1664.0,0.0003452379023656249
1792.0,0.0003514839627314359
1920.0,-0.0007338803843595088
2048.0,-0.000977200805209577
2304.0,-0.000910901406314224
2560.0,0.0014893385814502835
2816.0,0.001143446657806635
3072.0,-0.0003267089487053454
3328.0,-0.0009228886920027435
3584.0,0.0002015765057876706
3840.0,0.001021852600388229
4096.0,0.0007309601060114801
4608.0,0.00026354132569395006
5120.0,-0.0005335882306098938
5632.0,-0.001433685072697699
6144.0,-0.002704066224396229
6656.0,-0.0011474675266072154
7168.0,-0.0007496140897274017
7680.0,-0.00029327874653972685
8192.0,-0.0003201172803528607
end
