version,3.0
numOfCh,1
type,point
parent_name,34766_0dot2-1dot0
ch_type,1_1
kcount,1
numberNandB,1
brightnessNandB,1
carpet pos,0
pc,0
Time (ms),CH1 Auto-Correlation
1.0,0.024272356182336807
2.0,0.0238223597407341
3.0,0.023391051217913628
4.0,0.022993044927716255
5.0,0.022608676925301552
6.0,0.02223324589431286
7.0,0.021878065541386604
8.0,0.02152761071920395
9.0,0.021187368780374527
10.0,0.0208573155105114
11.0,0.02053801342844963
12.0,0.020229121670126915
13.0,0.01992645487189293
14.0,0.019645771011710167
15.0,0.01938348077237606
16.0,0.01913064531981945
18.0,0.018661199137568474
20.0,0.018227530643343925
22.0,0.01783883012831211
24.0,0.017458204180002213
26.0,0.017082881182432175
28.0,0.016734810546040535
30.0,0.016397271305322647
32.0,0.01606673374772072
36.0,0.01539633423089981
40.0,0.014763979241251945
44.0,0.014188619330525398
48.0,0.013613512739539146
52.0,0.013100391253829002
56.0,0.012614995241165161
60.0,0.012129419483244419
64.0,0.01160961203277111
72.0,0.010725747793912888
80.0,0.00999851617962122
88.0,0.009455504827201366
96.0,0.00899106077849865
104.0,0.008540665730834007
112.0,0.008220281451940536
120.0,0.00794281531125307
128.0,0.007772376295179129
144.0,0.007613395340740681
160.0,0.007463373709470034
176.0,0.007488583214581013
192.0,0.00726712541654706
208.0,0.006979325786232948
224.0,0.006712641566991806
240.0,0.006374557036906481
256.0,0.005919774528592825
288.0,0.005285021848976612
320.0,0.004740665666759014
352.0,0.004182300064712763
384.0,0.003990242723375559
416.0,0.0039013552013784647
448.0,0.003867861581966281
480.0,0.004012863151729107
512.0,0.003856170456856489
576.0,0.0031430551316589117
640.0,0.002306257840245962
704.0,0.0017243055626749992
768.0,0.0021276085171848536
832.0,0.0027846500743180513
896.0,0.0024586268700659275
960.0,0.0020420493092387915
1024.0,0.0013161534443497658
1152.0,-0.0006846616743132472
1280.0,-0.0016890952829271555
1408.0,-0.0010743566090241075
1536.0,0.00031000596936792135
1664.0,0.00031986887915991247
1792.0,0.0004877123574260622
1920.0,-0.0003498014120850712
2048.0,-0.0001666263851802796
2304.0,-0.002233437728136778
2560.0,-0.002365638967603445
2816.0,-0.004050373565405607
3072.0,-0.0044274404644966125
3328.0,-0.004642865154892206
3584.0,-0.003910762723535299
3840.0,-0.0018448266200721264
4096.0,-0.002921940991654992
4608.0,-0.001350082689896226
5120.0,0.0007007934618741274
5632.0,0.002736177993938327
6144.0,0.002342904917895794
6656.0,0.001895761233754456
7168.0,0.00041305209742859006
7680.0,0.0013022891944274306
8192.0,0.0008814292959868908
end
