version,3.0
numOfCh,1
type,point
parent_name,484af_3dot0-1dot0
ch_type,1_1
kcount,1
numberNandB,1
brightnessNandB,1
carpet pos,0
pc,0
Time (ms),CH1 Auto-Correlation
1.0,0.016998494043946266
2.0,0.014015977270901203
3.0,0.011817201972007751
4.0,0.01008213683962822
5.0,0.008861576206982136
6.0,0.00789729692041874
7.0,0.0071801901794970036
8.0,0.006582280155271292
9.0,0.00603970792144537
10.0,0.005790408235043287
11.0,0.005381245166063309
12.0,0.004879937972873449
13.0,0.004433965310454369
14.0,0.004195826593786478
15.0,0.0039669121615588665
16.0,0.0036762882955372334
18.0,0.0033133269753307104
20.0,0.0031169001013040543
22.0,0.0030978235881775618
24.0,0.0030774050392210484
26.0,0.0029030588921159506
28.0,0.0024881549179553986
30.0,0.0021411175839602947
32.0,0.00190129061229527
36.0,0.0016028881072998047
40.0,0.0013570287264883518
44.0,0.0013282449217513204
48.0,0.001403075410053134
52.0,0.0012547551887109876
56.0,0.0011485032737255096
60.0,0.0011117489775642753
64.0,0.0013143157120794058
72.0,0.0011599109275266528
80.0,0.0012954081175848842
88.0,0.00107299885712564
96.0,0.0006827277829870582
104.0,0.0007846495718695223
112.0,0.00112715654540807
120.0,0.0010898868786171079
128.0,0.0011077825911343098
144.0,0.0008069946779869497
160.0,0.00048823191900737584
176.0,0.0005785211687907577
192.0,0.00046953270793892443
208.0,0.00038356982986442745
224.0,5.431630779639818e-05
240.0,0.0003913125838153064
256.0,6.314369238680229e-05
288.0,-0.0002194471308030188
320.0,-2.170791731259669e-06
352.0,-0.0002974923118017614
384.0,0.00020076260261703283
416.0,-3.874452886520885e-05
448.0,-0.0002534173254389316
480.0,-0.000202154740691185
512.0,-0.0006194881279952824
576.0,-0.00025707640452310443
640.0,-0.0006011367659084499
704.0,-0.0006284820847213268
768.0,-0.0007126748096197844
832.0,-0.0009480675798840821
896.0,-0.0006760226679034531
960.0,-0.00046742043923586607
1024.0,0.00034694347414188087
1152.0,0.00025277872919104993
1280.0,-0.0004755782429128885
1408.0,-0.00022190669551491737
1536.0,-0.00010165179992327467
1664.0,2.461550820953562e-06
1792.0,0.0001776225253706798
1920.0,9.23573097679764e-05
2048.0,0.00022103782976046205
2304.0,0.00014744920190423727
2560.0,-8.262257324531674e-05
2816.0,7.156524952733889e-05
3072.0,-6.256203050725162e-05
3328.0,-0.0002068387984763831
3584.0,-0.0004574543854687363
3840.0,0.00010844952339539304
4096.0,2.5371207811986096e-05
4608.0,0.0004915017052553594
5120.0,-0.0004848903918173164
5632.0,0.00018511786765884608
6144.0,-0.00014766122330911458
6656.0,0.000338580779498443
7168.0,-0.0002546943142078817
7680.0,-0.0001160618630819954
8192.0,-0.00011574548989301547
end
