version,3.0
numOfCh,1
type,point
parent_name,484af_3dot0-1dot0
ch_type,1_1
kcount,1
numberNandB,1
brightnessNandB,1
carpet pos,0
pc,0
Time (ms),CH1 Auto-Correlation
1.0,0.01600099727511406
2.0,0.013082803227007389
3.0,0.010968483984470367
4.0,0.009385636076331139
5.0,0.008273088373243809
6.0,0.007297700736671686
7.0,0.0064927819184958935
8.0,0.0059026130475103855
9.0,0.005436309147626162
10.0,0.005006574559956789
11.0,0.004716988652944565
12.0,0.004220567177981138
13.0,0.0038866575341671705
14.0,0.003534687450155616
15.0,0.003160287393257022
16.0,0.0026986096054315567
18.0,0.0022679120302200317
20.0,0.002030176343396306
22.0,0.00176605477463454
24.0,0.0017598393606022
26.0,0.0018025260651484132
28.0,0.0017172358930110931
30.0,0.0017698747105896473
32.0,0.001831642584875226
36.0,0.0016131430165842175
40.0,0.0016192132607102394
44.0,0.001519672805443406
48.0,0.001356939203105867
52.0,0.0011740641202777624
56.0,0.00115288607776165
60.0,0.001172542804852128
64.0,0.0012074183905497193
72.0,0.001329562277533114
80.0,0.0011030446039512753
88.0,0.0005534758092835546
96.0,0.00011052194895455614
104.0,0.0003215129254385829
112.0,0.0006528728408738971
120.0,0.0005046380101703107
128.0,0.0006408474873751402
144.0,0.00011417570931371301
160.0,8.911456097848713e-05
176.0,-0.00041334194247610867
192.0,-0.00028460074099712074
208.0,-0.00044776906725019217
224.0,-0.0005422671674750745
240.0,-0.0006278058863244951
256.0,-0.0004907982074655592
288.0,-0.0003178304177708924
320.0,-0.00034538391628302634
352.0,-0.00018663132505025715
384.0,0.0002559317508712411
416.0,9.122643677983433e-05
448.0,-0.0001984596747206524
480.0,0.00014812240260653198
512.0,0.0003197368932887912
576.0,0.0005071951309219003
640.0,0.00013231571938376874
704.0,-0.00013824886991642416
768.0,-0.00037826725747436285
832.0,-0.00022890792752150446
896.0,-0.0005223524640314281
960.0,5.435688581201248e-05
1024.0,-5.2138591854600236e-05
1152.0,0.00011572974472073838
1280.0,-2.1349451344576664e-05
1408.0,0.00019182011601515114
1536.0,-2.0942943592672236e-05
1664.0,-0.0007147558499127626
1792.0,0.0003473745018709451
1920.0,0.00021602834749501199
2048.0,-0.0002709860564209521
2304.0,-7.123335672076792e-05
2560.0,0.000324180320603773
2816.0,-0.00022600998636335135
3072.0,0.0001271446089958772
3328.0,-0.00022518490732181817
3584.0,1.58317470777547e-05
3840.0,0.0001828540553105995
4096.0,-0.0005115786334499717
4608.0,-7.49666360206902e-05
5120.0,9.206889808410779e-05
5632.0,-3.851214569294825e-05
6144.0,-0.00018395362712908536
6656.0,3.5103763366350904e-05
7168.0,-0.0001960558001883328
7680.0,0.00024370367464143783
8192.0,-7.53295753384009e-05
end
