version,3.0
numOfCh,1
type,point
parent_name,484af_3dot0-1dot0
ch_type,1_1
kcount,1
numberNandB,1
brightnessNandB,1
carpet pos,0
pc,0
Time (ms),CH1 Auto-Correlation
1.0,0.015595627017319202
2.0,0.012576580978929996
3.0,0.010553970001637936
4.0,0.008989589288830757
5.0,0.00789839681237936
6.0,0.007118421606719494
7.0,0.006368744187057018
8.0,0.0057076141238212585
9.0,0.0051572020165622234
10.0,0.004679942037910223
11.0,0.004204615019261837
12.0,0.003920751623809338
13.0,0.003556198673322797
14.0,0.003241907339543104
15.0,0.002996845170855522
16.0,0.002728629158809781
18.0,0.002399907447397709
20.0,0.002184256911277771
22.0,0.002056143945083022
24.0,0.0020252575632184744
26.0,0.0019569932483136654
28.0,0.0017286151414737105
30.0,0.0017324325162917376
32.0,0.001582597615197301
36.0,0.0013325312174856663
40.0,0.0013317386619746685
44.0,0.0011978932889178395
48.0,0.0007170304306782782
52.0,0.0003478669095784426
56.0,0.0004930566647090018
60.0,0.0005402283859439194
64.0,0.0006368087488226593
72.0,0.0006803630967624485
80.0,0.0002591397787909955
88.0,6.584729271708056e-05
96.0,-9.636558218062419e-08
104.0,9.475702972849831e-05
112.0,-0.00011344985250616446
120.0,1.2713806427200325e-05
128.0,-4.418761091073975e-05
144.0,0.0001576758804731071
160.0,-0.0001590042229508981
176.0,2.343861160625238e-05
192.0,-0.00021540650050155818
208.0,-0.0006039349245838821
224.0,-0.0005320637719705701
240.0,-0.00040231423918157816
256.0,-0.0002233935083495453
288.0,0.0002045217843260616
320.0,0.00014725509390700608
352.0,0.00028645945712924004
384.0,0.0006329984753392637
416.0,0.00041605299338698387
448.0,6.458921416196972e-05
480.0,6.0718408349202946e-05
512.0,-0.00012007604527752846
576.0,-0.0004657100944314152
640.0,4.947184061165899e-05
704.0,0.00016230599430855364
768.0,0.000922995328437537
832.0,0.00034783361479640007
896.0,-0.0002967849432025105
960.0,-6.827482138760388e-05
1024.0,0.0004177893861196935
1152.0,0.00044818411697633564
1280.0,-0.0004020964843221009
1408.0,0.00010002308408729732
1536.0,0.00025413226103410125
1664.0,-0.0005525844753719866
1792.0,-1.701900146144908e-05
1920.0,0.00021257771004457027
2048.0,-0.0005042135599069297
2304.0,-7.348196959355846e-05
2560.0,-0.00017710677639115602
2816.0,-0.00024443824077025056
3072.0,-8.921508560888469e-05
3328.0,1.5599231119267642e-05
3584.0,-2.2936026653042063e-05
3840.0,-0.0001726835034787655
4096.0,-3.313763590995222e-05
4608.0,0.00020886704442091286
5120.0,-0.00026964451535604894
5632.0,0.0003242248494643718
6144.0,-0.0002658477460499853
6656.0,-0.00010025960364146158
7168.0,-0.00010988683789037168
7680.0,-5.8931633247993886e-05
8192.0,0.000268320000031963
end
