version,3.0
numOfCh,1
type,point
parent_name,484af_3dot0-1dot0
ch_type,1_1
kcount,1
numberNandB,1
brightnessNandB,1
carpet pos,0
pc,0
Time (ms),CH1 Auto-Correlation
1.0,0.01779373176395893
2.0,0.01476225908845663
3.0,0.012581042014062405
4.0,0.010866571217775345
5.0,0.009523112326860428
6.0,0.008565650321543217
7.0,0.007669254671782255
8.0,0.006905157584697008
9.0,0.006209005136042833
10.0,0.005602251272648573
11.0,0.005118668079376221
12.0,0.004639490973204374
13.0,0.004231983330100775
14.0,0.003905907040461898
15.0,0.003667469136416912
16.0,0.0034559217747300863
18.0,0.0030694077722728252
20.0,0.0028946688398718834
22.0,0.0028317049145698547
24.0,0.002763233846053481
26.0,0.0027347919531166553
28.0,0.002833608305081725
30.0,0.0027304200921207666
32.0,0.0025377674028277397
36.0,0.002007972216233611
40.0,0.0016109076095744967
44.0,0.0014592631487175822
48.0,0.0013537429040297866
52.0,0.0009922152385115623
56.0,0.0008424126426689327
60.0,0.0010690352646633983
64.0,0.0011467068688943982
72.0,0.0010064189555123448
80.0,0.0007670688210055232
88.0,0.0010457857279106975
96.0,0.0010426128283143044
104.0,0.0007118808571249247
112.0,0.00032203030423261225
120.0,3.2751257094787434e-05
128.0,6.768951425328851e-05
144.0,-0.00028144012321718037
160.0,-0.000399031734559685
176.0,-0.00019466623780317605
192.0,-0.0006391712813638151
208.0,-0.0011863011168316007
224.0,-0.0006251570885069668
240.0,-0.0006659606588073075
256.0,-0.0005079359980300069
288.0,-0.0007058915216475725
320.0,-0.00030398706439882517
352.0,0.0001409122924087569
384.0,0.0006996366428211331
416.0,0.00036932650255039334
448.0,-0.0004049869312439114
480.0,-0.0002791814331430942
512.0,4.064450695295818e-05
576.0,-0.00036002573324367404
640.0,-0.0003255335905123502
704.0,-0.0003716762876138091
768.0,-0.0004747727361973375
832.0,-2.1255837054923177e-05
896.0,0.00037863702164031565
960.0,0.0003286894643679261
1024.0,0.00020716209837701172
1152.0,2.772059633571189e-05
1280.0,0.0005809901049360633
1408.0,0.00033524370519444346
1536.0,-0.00020145067537669092
1664.0,-0.0002984129241667688
1792.0,-0.0006317056249827147
1920.0,-0.0003713855694513768
2048.0,4.8102487198775634e-05
2304.0,-0.00020260008750483394
2560.0,1.3317258890310768e-05
2816.0,0.00018138419545721263
3072.0,-0.00030434830114245415
3328.0,-9.398551628692076e-05
3584.0,-0.00018016363901551813
3840.0,2.138694435416255e-05
4096.0,0.0003124288050457835
4608.0,-0.00016994056932162493
5120.0,0.00016301880532409996
5632.0,-7.607501902384683e-05
6144.0,2.0659994333982468e-05
6656.0,0.00029816949972882867
7168.0,-7.257506513269618e-05
7680.0,-0.00018617667956277728
8192.0,8.621533925179392e-05
end
