version,3.0
numOfCh,1
type,point
parent_name,484af_3dot0-1dot0
ch_type,1_1
kcount,1
numberNandB,1
brightnessNandB,1
carpet pos,0
pc,0
Time (ms),CH1 Auto-Correlation
1.0,0.01641405001282692
2.0,0.01346600241959095
3.0,0.011418678797781467
4.0,0.009888973087072372
5.0,0.008786900900304317
6.0,0.007821232080459595
7.0,0.006999085657298565
8.0,0.006280450150370598
9.0,0.005764437839388847
10.0,0.005282536149024963
11.0,0.00488616805523634
12.0,0.00457276776432991
13.0,0.0043215639889240265
14.0,0.003992225509136915
15.0,0.003746725618839264
16.0,0.003558817785233259
18.0,0.003126448718830943
20.0,0.0028623889666050673
22.0,0.0025780112482607365
24.0,0.0022922309581190348
26.0,0.0020124458242207766
28.0,0.00188162992708385
30.0,0.0018478898564353585
32.0,0.0018459227867424488
36.0,0.001723725814372301
40.0,0.0012445846805348992
44.0,0.0011722042690962553
48.0,0.0007649746839888394
52.0,0.000537360436283052
56.0,0.0008381367661058903
60.0,0.0009040001896210015
64.0,0.0010165738640353084
72.0,0.0006043236935511231
80.0,0.0003588075051084161
88.0,0.0005311228451319039
96.0,0.000616003992035985
104.0,0.0006911008385941386
112.0,0.0007656657253392041
120.0,0.0002925760636571795
128.0,0.00010427000961499289
144.0,0.0001917677145684138
160.0,-0.00011694442946463823
176.0,-9.330285683972761e-05
192.0,-4.852344864048064e-05
208.0,5.6659460824448615e-05
224.0,-0.0002595268888399005
240.0,-7.588224252685905e-05
256.0,0.0002150695800082758
288.0,0.0003585822996683419
320.0,0.0005891343462280929
352.0,0.00032020872458815575
384.0,0.0005547618493437767
416.0,9.391988714924082e-05
448.0,-0.00020756272715516388
480.0,6.557631422765553e-05
512.0,-0.00015689556312281638
576.0,0.00042250647675246
640.0,0.0004756044945679605
704.0,-0.00025359619758091867
768.0,-0.00030761538073420525
832.0,0.00017973316425923258
896.0,0.00035770313115790486
960.0,0.00026438693748787045
1024.0,-0.00015946316125337034
1152.0,5.31858931935858e-05
1280.0,0.0004361278552096337
1408.0,0.0002104747691191733
1536.0,0.0006013787933625281
1664.0,0.0001378526649205014
1792.0,-0.0002015391510212794
1920.0,0.00023859247448854148
2048.0,-0.00013758099521510303
2304.0,0.0004420260665938258
2560.0,4.063226242578821e-06
2816.0,-7.908989937277511e-05
3072.0,0.00017339680925942957
3328.0,-0.0005501914420165122
3584.0,7.440352055709809e-05
3840.0,-0.000209730991628021
4096.0,7.052232831483707e-05
4608.0,-0.00018960148736368865
5120.0,-0.0003756603691726923
5632.0,-0.0005111269420012832
6144.0,-0.00012464715109672397
6656.0,-6.125132495071739e-05
7168.0,-0.00031042436603456736
7680.0,-0.00035235044197179377
8192.0,8.05636664154008e-05
end
