version,3.0
numOfCh,1
type,point
parent_name,484af_3dot0-1dot0
ch_type,1_1
kcount,1
numberNandB,1
brightnessNandB,1
carpet pos,0
pc,0
Time (ms),CH1 Auto-Correlation
1.0,0.01597755402326584
2.0,0.012999211438000202
3.0,0.010890191420912743
4.0,0.009215687401592731
5.0,0.007993086241185665
6.0,0.0070715490728616714
7.0,0.006246855948120356
8.0,0.005594005808234215
9.0,0.005136171821504831
10.0,0.004741874989122152
11.0,0.004497124347835779
12.0,0.004273768048733473
13.0,0.004032903350889683
14.0,0.0037934191059321165
15.0,0.0035976513754576445
16.0,0.0034067474771291018
18.0,0.0029954395722597837
20.0,0.0027051859069615602
22.0,0.0023956275545060635
24.0,0.0020976411178708076
26.0,0.001809705514460802
28.0,0.001683698152191937
30.0,0.0015263239620253444
32.0,0.001199046615511179
36.0,0.0010464000515639782
40.0,0.0010137564968317747
44.0,0.0009816235397011042
48.0,0.0008629923686385155
52.0,0.0006232633604668081
56.0,0.0006320817628875375
60.0,0.0005140277207829058
64.0,0.0005253266426734626
72.0,0.0008444265695288777
80.0,0.0007463134825229645
88.0,9.034349932335317e-05
96.0,-0.00019644673739094287
104.0,2.9518036171793938e-05
112.0,0.0001785364729585126
120.0,0.00019688601605594158
128.0,-1.613802851352375e-05
144.0,-0.00019780428556259722
160.0,-0.000310267525492236
176.0,-4.159065065323375e-05
192.0,-0.0002477528469171375
208.0,-0.0007462264620698988
224.0,-0.00038753519766032696
240.0,0.00020345915982034057
256.0,4.196239387965761e-05
288.0,-0.0002641522150952369
320.0,0.00014346679381560534
352.0,0.0002345131797483191
384.0,0.0003079344751313329
416.0,-3.0449125915765762e-05
448.0,-0.000166964644449763
480.0,-0.0005614135880023241
512.0,-0.0006170079577714205
576.0,-0.0002844009140972048
640.0,0.0004127841966692358
704.0,1.032964610203635e-05
768.0,-9.666571713751182e-05
832.0,0.00010942224616883323
896.0,8.865481504471973e-05
960.0,3.6272365832701325e-05
1024.0,-0.00021178708993829787
1152.0,-0.00017411238513886929
1280.0,0.0007103197858668864
1408.0,0.00012502280878834426
1536.0,-0.00014296630979515612
1664.0,3.150268821627833e-05
1792.0,-0.00018136747530661523
1920.0,0.0002918798418249935
2048.0,-8.597045052738395e-06
2304.0,0.0003584089281503111
2560.0,-8.54412792250514e-05
2816.0,0.00017145235324278474
3072.0,-0.0001616103108972311
3328.0,-0.00046507641673088074
3584.0,0.00029628226184286177
3840.0,8.816905756248161e-05
4096.0,-0.00020926220167893916
4608.0,-0.00012394870282150805
5120.0,0.00022947648540139198
5632.0,-0.0003239712677896023
6144.0,5.807088382425718e-05
6656.0,0.00012813961075153202
7168.0,8.095811790553853e-05
7680.0,8.637407154310495e-05
8192.0,-0.00012632405559998006
end
