version,3.0
numOfCh,1
type,point
parent_name,484af_3dot0-1dot0
ch_type,1_1
kcount,1
numberNandB,1
brightnessNandB,1
carpet pos,0
pc,0
Time (ms),CH1 Auto-Correlation
1.0,0.015723122283816338
2.0,0.012783195823431015
3.0,0.010654041543602943
4.0,0.009004725143313408
5.0,0.007782463449984789
6.0,0.006786286365240812
7.0,0.00592975877225399
8.0,0.005189614836126566
9.0,0.004523982759565115
10.0,0.004018185660243034
11.0,0.003546368330717087
12.0,0.003218189114704728
13.0,0.0029291436076164246
14.0,0.0028023957274854183
15.0,0.0026062624529004097
16.0,0.0023771743290126324
18.0,0.0020991272758692503
20.0,0.001979008549824357
22.0,0.0017865450354292989
24.0,0.0017022978281602263
26.0,0.0016095265746116638
28.0,0.0015877041732892394
30.0,0.0016211174661293626
32.0,0.0015540777239948511
36.0,0.0013714381493628025
40.0,0.0013369510415941477
44.0,0.0013305555330589414
48.0,0.001171544543467462
52.0,0.00103037862572819
56.0,0.0011807375121861696
60.0,0.0015279441140592098
64.0,0.0014089882606640458
72.0,0.0007799628074280918
80.0,0.000328558380715549
88.0,0.00016009272076189518
96.0,0.00013246695743873715
104.0,0.00018989465024787933
112.0,0.00018505239859223366
120.0,-7.701170397922397e-05
128.0,-0.00016394979320466518
144.0,0.0004765488556586206
160.0,0.0006029625074006617
176.0,0.00020858841890003532
192.0,0.00037073687417432666
208.0,-4.785424971487373e-05
224.0,6.477958959294483e-05
240.0,-0.00043523128260858357
256.0,-0.0004061781510245055
288.0,-0.00044550825259648263
320.0,-0.0005397513741627336
352.0,-0.00020520341058727354
384.0,-0.00011336310853948817
416.0,-0.00035774189746007323
448.0,-0.00010577142529655248
480.0,-0.0004068865964654833
512.0,-0.00015290365263354033
576.0,0.0003829750057775527
640.0,0.0001451507705496624
704.0,0.00036801965325139463
768.0,0.00022131939476821572
832.0,-0.00011625955812633038
896.0,-0.0001545982959214598
960.0,0.00011904301209142432
1024.0,-0.00028399171424098313
1152.0,4.780941526405513e-05
1280.0,-2.7003747163689695e-05
1408.0,0.00021869383635930717
1536.0,-4.562483445624821e-05
1664.0,0.00012529152445495129
1792.0,-0.00013347783533390611
1920.0,-0.00012220567441545427
2048.0,-0.0004561417445074767
2304.0,-8.637513019493781e-06
2560.0,0.00020559968834277242
2816.0,-0.0005337565671652555
3072.0,-0.00014161091530695558
3328.0,0.0001308621431235224
3584.0,0.00046862775343470275
3840.0,3.359406036906876e-05
4096.0,-0.00011964365694439039
4608.0,-0.00012771636829711497
5120.0,-6.011799541738583e-06
5632.0,-6.646716428804211e-06
6144.0,-0.00023469992447644472
6656.0,-6.903483154019341e-05
7168.0,0.00033182190963998437
7680.0,-0.00013189103628974408
8192.0,3.3596143111935817e-06
end
