version,3.0
numOfCh,1
type,point
parent_name,484af_3dot0-1dot0
ch_type,1_1
kcount,1
numberNandB,1
brightnessNandB,1
carpet pos,0
pc,0
Time (ms),CH1 Auto-Correlation
1.0,0.016406359151005745
2.0,0.013386755250394344
3.0,0.011247762478888035
4.0,0.009684992954134941
5.0,0.008483552373945713
6.0,0.0075657241977751255
7.0,0.006911206524819136
8.0,0.006418815813958645
9.0,0.005922478158026934
10.0,0.0054328786209225655
11.0,0.005032342858612537
12.0,0.004700374789535999
13.0,0.004408531356602907
14.0,0.0042510139755904675
15.0,0.004082696046680212
16.0,0.0038337709847837687
18.0,0.003551122033968568
20.0,0.0033162147738039494
22.0,0.0031664979178458452
24.0,0.002992300083860755
26.0,0.002801146823912859
28.0,0.0024740092922002077
30.0,0.0023055572528392076
32.0,0.0020866580307483673
36.0,0.0018041981384158134
40.0,0.001563314930535853
44.0,0.0014511081390082836
48.0,0.0014487669104710221
52.0,0.001117968582548201
56.0,0.0010571255115792155
60.0,0.000878474093042314
64.0,0.000619881262537092
72.0,0.0007208478637039661
80.0,0.000534955644980073
88.0,0.0006331114564090967
96.0,0.0006696292548440397
104.0,0.0009858888806775212
112.0,0.0009311765898019075
120.0,0.0005765981622971594
128.0,-0.00017595686949789524
144.0,-0.00014156113320495933
160.0,5.0515562179498374e-05
176.0,0.00013343457248993218
192.0,0.00037313392385840416
208.0,0.0004408279783092439
224.0,0.00023893616162240505
240.0,-4.1543873521732166e-05
256.0,-0.00022335673565976322
288.0,-0.0003151014680042863
320.0,5.908621460548602e-05
352.0,-0.000131084569147788
384.0,-0.0001073642706614919
416.0,0.0002617142745293677
448.0,0.0006349426112137735
480.0,0.000483350275317207
512.0,7.125801494112238e-05
576.0,0.00011445693962741643
640.0,0.00037294739740900695
704.0,0.0005662417388521135
768.0,0.00037784932646900415
832.0,-0.00014240958262234926
896.0,-0.0002527042233850807
960.0,-0.0004311226075515151
1024.0,-0.0006654505850747228
1152.0,-0.00033895496744662523
1280.0,-0.00035976135404780507
1408.0,-0.0003530103131197393
1536.0,0.0002017564547713846
1664.0,0.00012011191574856639
1792.0,-0.00014676850696559995
1920.0,-0.0005099411937408149
2048.0,0.0003477370773907751
2304.0,0.00035333874984644353
2560.0,-9.597084135748446e-05
2816.0,9.55476425588131e-05
3072.0,-0.0003797476238105446
3328.0,-0.0003325426368974149
3584.0,-4.156155409873463e-05
3840.0,-0.00022962452203501016
4096.0,9.1439978859853e-05
4608.0,9.41391263040714e-05
5120.0,1.4059186469239648e-05
5632.0,-0.00032954293419606984
6144.0,-0.0003632860316429287
6656.0,0.00022418821754399687
7168.0,-7.480759086320177e-05
7680.0,-0.0006712756003253162
8192.0,-0.00015734357293695211
end
