version,3.0
numOfCh,1
type,point
parent_name,484af_3dot0-1dot0
ch_type,1_1
kcount,1
numberNandB,1
brightnessNandB,1
carpet pos,0
pc,0
Time (ms),CH1 Auto-Correlation
1.0,0.01535134855657816
2.0,0.012434311211109161
3.0,0.010419373400509357
4.0,0.008902697823941708
5.0,0.007790971081703901
6.0,0.006849475204944611
7.0,0.006051463540643454
8.0,0.005424919072538614
9.0,0.004909012466669083
10.0,0.0045775254257023335
11.0,0.004129220265895128
12.0,0.0037787589244544506
13.0,0.0033474527299404144
14.0,0.0030688908882439137
15.0,0.0027685624081641436
16.0,0.0024539472069591284
18.0,0.001973074162378907
20.0,0.00148285913746804
22.0,0.0010527449194341898
24.0,0.0008662968757562339
26.0,0.0007724429597146809
28.0,0.0006526804645545781
30.0,0.0004907703842036426
32.0,0.00032188076875172555
36.0,0.0002963764709420502
40.0,0.00024580437457188964
44.0,-8.874646300682798e-05
48.0,-0.00011531943891895935
52.0,0.00010102435044245794
56.0,0.00018491569790057838
60.0,0.0003134051221422851
64.0,0.000204206706257537
72.0,-0.00011880796228069812
80.0,-0.0003089512465521693
88.0,-9.940767631633207e-05
96.0,-0.0002478947280906141
104.0,6.69605014991248e-06
112.0,0.0003549614630173892
120.0,0.0001158835002570413
128.0,0.0002987890038639307
144.0,0.00031177958589978516
160.0,0.0004328280338086188
176.0,0.00045452453196048737
192.0,0.00030237415921874344
208.0,4.9915102863451466e-05
224.0,0.00010740805737441406
240.0,6.808047328377143e-05
256.0,1.3580714039562736e-05
288.0,-9.130806688517623e-07
320.0,1.4089887372392695e-05
352.0,0.00010888880933634937
384.0,-0.00037610408617183566
416.0,0.00013200104876887053
448.0,-0.00019878230523318052
480.0,-0.0003917911963071674
512.0,-3.4144897654186934e-05
576.0,-0.000177051973878406
640.0,4.269415876478888e-05
704.0,0.0001886683312477544
768.0,3.682913666125387e-05
832.0,-0.00013782687892671674
896.0,5.019335003453307e-05
960.0,3.931599621864734e-06
1024.0,-0.0002057387464446947
1152.0,-9.431350918021053e-05
1280.0,-6.902524182805791e-05
1408.0,-0.00019015598809346557
1536.0,-0.00016645350842736661
1664.0,0.00030406040605157614
1792.0,4.2207626393064857e-05
1920.0,-4.457361501408741e-05
2048.0,0.00010221873526461422
2304.0,-0.00016957339539658278
2560.0,6.350082549033687e-05
2816.0,0.00016455874720122665
3072.0,-2.2044414436095394e-05
3328.0,-7.298561104107648e-05
3584.0,0.00013171335740480572
3840.0,1.0532466149015818e-05
4096.0,-0.00019508656987454742
4608.0,7.760967127978802e-05
5120.0,7.997767170309089e-06
5632.0,-8.64144749357365e-06
6144.0,-0.00015575338329654187
6656.0,1.7966904124477878e-05
7168.0,0.00017103577556554228
7680.0,-3.407297481317073e-05
8192.0,-3.285210914327763e-05
end
