version,3.0
numOfCh,1
type,point
parent_name,484af_3dot0-1dot0
ch_type,1_1
kcount,1
numberNandB,1
brightnessNandB,1
carpet pos,0
pc,0
Time (ms),CH1 Auto-Correlation
1.0,0.018146559596061707
2.0,0.015185768716037273
3.0,0.013091283850371838
4.0,0.011561673134565353
5.0,0.010473364032804966
6.0,0.009554140269756317
7.0,0.00870687235146761
8.0,0.007894494570791721
9.0,0.007179019507020712
10.0,0.0065917447209358215
11.0,0.0060357628390192986
12.0,0.005667427554726601
13.0,0.005408105906099081
14.0,0.005079968366771936
15.0,0.004660336766391993
16.0,0.004320596810430288
18.0,0.003985962830483913
20.0,0.0036059825215488672
22.0,0.00324637396261096
24.0,0.002877797232940793
26.0,0.0026256355922669172
28.0,0.0025390973314642906
30.0,0.002294016070663929
32.0,0.0020293688867241144
36.0,0.0016459961188957095
40.0,0.0017189005156978965
44.0,0.0017145834863185883
48.0,0.0015496828127652407
52.0,0.0014962550485506654
56.0,0.0015101130120456219
60.0,0.0015698759816586971
64.0,0.0016280139097943902
72.0,0.001237736432813108
80.0,0.0012689180439338088
88.0,0.0011799308704212308
96.0,0.0006025451584719121
104.0,0.000449691666290164
112.0,0.0007251654751598835
120.0,0.0009634903981350362
128.0,0.0008589559583924711
144.0,0.0006795404478907585
160.0,0.0002325451496290043
176.0,-0.0002817636413965374
192.0,-0.00011867207649629563
208.0,-0.00042128024506382644
224.0,6.274708721321076e-05
240.0,0.0006373748183250427
256.0,0.0011404018150642514
288.0,0.0007349328952841461
320.0,0.0005528434994630516
352.0,0.0010016898158937693
384.0,0.0006450983346439898
416.0,0.000172953397850506
448.0,4.183969213045202e-05
480.0,0.00039520367863588035
512.0,7.212560740299523e-05
576.0,0.0003229378198739141
640.0,0.0002560579450801015
704.0,-0.00017875534831546247
768.0,0.00012195095769129694
832.0,-0.00025423060287721455
896.0,-0.0005137839470990002
960.0,-0.00028343097073957324
1024.0,0.00021490959625225514
1152.0,-2.3542936105513945e-05
1280.0,0.00022888810781296343
1408.0,-0.0002562656009104103
1536.0,-0.0004309618379920721
1664.0,-0.00012815892114304006
1792.0,0.0002125781902577728
1920.0,-0.00037574884481728077
2048.0,-0.00041285500628873706
2304.0,-3.609046325436793e-05
2560.0,-0.0003727554576471448
2816.0,0.0003353731008246541
3072.0,0.00012226215039845556
3328.0,-0.00011003157123923302
3584.0,-0.00010164188279304653
3840.0,-0.00043756398372352123
4096.0,-6.864291935926303e-05
4608.0,-0.00034483487252146006
5120.0,-0.0006018871208652854
5632.0,0.0001856549206422642
6144.0,0.0004154473135713488
6656.0,-0.0003149246913380921
7168.0,-6.0415128245949745e-05
7680.0,0.000250051700277254
8192.0,0.0002431144384900108
end
