version,3.0
numOfCh,1
type,point
parent_name,484af_3dot0-1dot0
ch_type,1_1
kcount,1
numberNandB,1
brightnessNandB,1
carpet pos,0
pc,0
Time (ms),CH1 Auto-Correlation
1.0,0.01737491972744465
2.0,0.014382299967110157
3.0,0.012240299955010414
4.0,0.010671219788491726
5.0,0.009560779668390751
6.0,0.008542905561625957
7.0,0.007696529850363731
8.0,0.0070188301615417
9.0,0.006527967285364866
10.0,0.006079777143895626
11.0,0.0057866559363901615
12.0,0.005609277170151472
13.0,0.005389125552028418
14.0,0.0052373348735272884
15.0,0.004884217865765095
16.0,0.004528990481048822
18.0,0.004051024094223976
20.0,0.0037083178758621216
22.0,0.0033927287440747023
24.0,0.003249251516535878
26.0,0.003199503058567643
28.0,0.0030043383594602346
30.0,0.002752746222540736
32.0,0.002639077603816986
36.0,0.002433190355077386
40.0,0.0024206466041505337
44.0,0.0023448255378752947
48.0,0.002005849266424775
52.0,0.0017735364381223917
56.0,0.001746521913446486
60.0,0.002055383985862136
64.0,0.002024709479883313
72.0,0.001693523721769452
80.0,0.0015883789164945483
88.0,0.0013644411228597164
96.0,0.001106722978875041
104.0,0.0011317427270114422
112.0,0.0009961213218048215
120.0,0.0005107673350721598
128.0,0.0005720658227801323
144.0,0.0008652627584524453
160.0,0.00041393781430087984
176.0,-8.813060412649065e-05
192.0,0.0002426792634651065
208.0,-8.494299254380167e-05
224.0,-0.000144844307214953
240.0,-0.0004547839635051787
256.0,-0.00016129616415128112
288.0,-0.00019827431242447346
320.0,-0.000282538851024583
352.0,-0.00022097457258496433
384.0,-0.00021802687842864543
416.0,0.0006335109937936068
448.0,0.0002760385978035629
480.0,3.0387423976208083e-05
512.0,0.00026698416331782937
576.0,-0.00010266213212162256
640.0,-0.00023031816817820072
704.0,0.0001360899186693132
768.0,-0.0004981657839380205
832.0,-0.0007863280479796231
896.0,-0.0001688480406301096
960.0,0.0005153486272320151
1024.0,0.00034985592355951667
1152.0,0.0001752229145495221
1280.0,0.00042800078517757356
1408.0,-2.3160928321885876e-05
1536.0,-0.00017687193758320063
1664.0,-0.0007702492293901742
1792.0,-0.0008524966542609036
1920.0,0.00022198919032234699
2048.0,0.0002626453642733395
2304.0,-0.00036415085196495056
2560.0,-0.00015031725342851132
2816.0,-0.00030266158864833415
3072.0,0.00023627970949746668
3328.0,0.00026844325475394726
3584.0,0.000283785309875384
3840.0,7.454583828803152e-05
4096.0,-6.395306991180405e-05
4608.0,-0.0007483545923605561
5120.0,3.8034424505895004e-05
5632.0,2.0230763766448945e-05
6144.0,0.000150436200783588
6656.0,-0.00010145799751626328
7168.0,0.00020166746980976313
7680.0,-0.0010613295016810298
8192.0,7.295820978470147e-05
end
