version,3.0
numOfCh,1
type,point
parent_name,484af_3dot0-1dot0
ch_type,1_1
kcount,1
numberNandB,1
brightnessNandB,1
carpet pos,0
pc,0
Time (ms),CH1 Auto-Correlation
1.0,0.017025327309966087
2.0,0.014031339436769485
3.0,0.011908341199159622
4.0,0.010331433266401291
5.0,0.009012051858007908
6.0,0.008129127323627472
7.0,0.0074152760207653046
8.0,0.006666906643658876
9.0,0.006078976672142744
10.0,0.005645324010401964
11.0,0.0052437069825828075
12.0,0.004819252993911505
13.0,0.004592256620526314
14.0,0.0044710468500852585
15.0,0.004160675220191479
16.0,0.0038797552697360516
18.0,0.00340170506387949
20.0,0.002865420887246728
22.0,0.0025313717778772116
24.0,0.002230878686532378
26.0,0.0019374891417101026
28.0,0.0019327852642163634
30.0,0.0019454387947916985
32.0,0.002115744398906827
36.0,0.0019782064482569695
40.0,0.0017724487697705626
44.0,0.0016012934502214193
48.0,0.0014716448495164514
52.0,0.0013435882283374667
56.0,0.0014715752331539989
60.0,0.0014116665115579963
64.0,0.00114623608533293
72.0,0.0006839411216787994
80.0,0.0005006894934922457
88.0,0.00046392332296818495
96.0,0.0007338373106904328
104.0,0.0006467223283834755
112.0,0.0008916527731344104
120.0,0.0005784715758636594
128.0,8.922495180740952e-05
144.0,3.801903949351981e-05
160.0,0.0004743965109810233
176.0,0.0006077932193875313
192.0,0.00015849591000005603
208.0,0.00022512237774208188
224.0,1.0899630979110952e-05
240.0,-0.00024582428159192204
256.0,8.025085844565183e-05
288.0,0.0004996133502572775
320.0,0.0007733972161076963
352.0,0.0004794583364855498
384.0,0.00011267865193076432
416.0,0.0001609413739060983
448.0,0.0001059055284713395
480.0,-0.00035980678512714803
512.0,-0.00012027851335005835
576.0,-2.7580999812926166e-06
640.0,0.00020609580678865314
704.0,3.683438990265131e-05
768.0,-0.0002978806442115456
832.0,-9.518416482023895e-05
896.0,-0.00019665819127112627
960.0,0.0003166159149259329
1024.0,0.00032085113343782723
1152.0,-0.00020199098798912019
1280.0,-4.943197200191207e-05
1408.0,4.8283265641657636e-05
1536.0,-0.00034558543120510876
1664.0,-0.0003889823565259576
1792.0,-9.082769793167245e-06
1920.0,-0.00033738018828444183
2048.0,-0.00046289007877931
2304.0,5.167730705579743e-05
2560.0,1.2624854207388125e-05
2816.0,0.00035343714989721775
3072.0,0.000172276355442591
3328.0,-0.00020724249770864844
3584.0,8.662293112138286e-06
3840.0,0.00044027873082086444
4096.0,0.0003060900198761374
4608.0,-0.0003069657541345805
5120.0,7.50517938286066e-05
5632.0,8.308012911584228e-05
6144.0,9.695741027826443e-06
6656.0,9.759537351783365e-05
7168.0,-0.00036525799077935517
7680.0,-0.0005460990942083299
8192.0,9.88792089628987e-05
end
