version,3.0
numOfCh,1
type,point
parent_name,484af_3dot0-1dot0
ch_type,1_1
kcount,1
numberNandB,1
brightnessNandB,1
carpet pos,0
pc,0
Time (ms),CH1 Auto-Correlation
1.0,0.0170121006667614
2.0,0.013989756815135479
3.0,0.011874627321958542
4.0,0.010362462140619755
5.0,0.009113164618611336
6.0,0.008185041137039661
7.0,0.007517269812524319
8.0,0.006917593535035849
9.0,0.006377748213708401
10.0,0.005912975873798132
11.0,0.0054725962691009045
12.0,0.005021967459470034
13.0,0.004526789300143719
14.0,0.004166677128523588
15.0,0.0038880796637386084
16.0,0.0036853745114058256
18.0,0.0032956181094050407
20.0,0.0030789359007030725
22.0,0.0029053569305688143
24.0,0.002875530393794179
26.0,0.002822893438860774
28.0,0.002721533179283142
30.0,0.0024432018399238586
32.0,0.0022233459167182446
36.0,0.002139102900400758
40.0,0.0020003693643957376
44.0,0.001628234051167965
48.0,0.0013520828215405345
52.0,0.001323361531831324
56.0,0.0012321029789745808
60.0,0.0008370204013772309
64.0,0.0011030156165361404
72.0,0.0009725088020786643
80.0,0.0008757791947573423
88.0,0.0007711396319791675
96.0,0.0007856700685806572
104.0,0.000920505088288337
112.0,0.0007697841501794755
120.0,0.0011810159776359797
128.0,0.0009033126989379525
144.0,0.000634451920632273
160.0,0.0004890873096883297
176.0,0.000872909848112613
192.0,0.0008383984095416963
208.0,0.0005533901276066899
224.0,0.0005470453761518002
240.0,0.000505193485878408
256.0,0.0005023072008043528
288.0,0.00015943447942845523
320.0,-0.00023888876603450626
352.0,0.00015803490532562137
384.0,-0.0004996821517124772
416.0,-3.831124558928423e-06
448.0,0.00040010936209000647
480.0,-0.0008919870597310364
512.0,-0.0005644276970997453
576.0,-0.0002744641387835145
640.0,-3.05357898469083e-05
704.0,-0.00023721593606751412
768.0,0.00028614760958589613
832.0,-0.0003654200700111687
896.0,-0.00055832409998402
960.0,-7.520627696067095e-05
1024.0,-0.0004034626472275704
1152.0,0.00019940001948270947
1280.0,7.351763542828849e-06
1408.0,0.00011487281153677031
1536.0,0.0002623792679514736
1664.0,-0.00065102509688586
1792.0,-0.00013044860679656267
1920.0,-0.0007210748153738678
2048.0,-0.0005864499835297465
2304.0,-0.00024170342658180743
2560.0,0.000726671889424324
2816.0,0.00037055148277431726
3072.0,5.041012991569005e-05
3328.0,0.00021180273324716836
3584.0,-0.00016060312918853015
3840.0,5.315031376085244e-05
4096.0,0.00021168310195207596
4608.0,-0.0005021365941502154
5120.0,-0.00032039545476436615
5632.0,-0.00013141318049747497
6144.0,7.816192919563036e-06
6656.0,0.0006382783176377416
7168.0,-0.00010873102291952819
7680.0,-0.00027069952921010554
8192.0,-0.0001286877813981846
end
