version,3.0
numOfCh,1
type,point
parent_name,484af_3dot0-1dot0
ch_type,1_1
kcount,1
numberNandB,1
brightnessNandB,1
carpet pos,0
pc,0
Time (ms),CH1 Auto-Correlation
1.0,0.01593753695487976
2.0,0.012966949492692947
3.0,0.010915037244558334
4.0,0.009291228838264942
5.0,0.007984044961631298
6.0,0.007064943667501211
7.0,0.0064285146072506905
8.0,0.005814111791551113
9.0,0.005263333674520254
10.0,0.004826148971915245
11.0,0.004399399738758802
12.0,0.004069802816957235
13.0,0.00384486373513937
14.0,0.003630079096183181
15.0,0.0035105550196021795
16.0,0.003376161679625511
18.0,0.003055495209991932
20.0,0.0028096139430999756
22.0,0.002623082837089896
24.0,0.002473569242283702
26.0,0.0022754385136067867
28.0,0.0019833766855299473
30.0,0.0019853964913636446
32.0,0.0019369629444554448
36.0,0.001787707326002419
40.0,0.0012153671123087406
44.0,0.0008670653332956135
48.0,0.0006434248061850667
52.0,0.00040460791205987334
56.0,0.0002621048770379275
60.0,0.00033923189039342105
64.0,0.0004192664346192032
72.0,0.0006539265159517527
80.0,0.0006837777909822762
88.0,0.0004884882946498692
96.0,0.00050390261458233
104.0,0.00047117116628214717
112.0,0.00045155055704526603
120.0,0.0005638492875732481
128.0,0.0007617109804414213
144.0,0.0003521188336890191
160.0,0.00033919818815775216
176.0,0.00018915660621132702
192.0,0.0003094289859291166
208.0,3.402439324418083e-05
224.0,-0.00011261777399340644
240.0,0.00021232562721706927
256.0,0.00033213774440810084
288.0,0.0005436137435026467
320.0,0.0004096340271644294
352.0,3.8278947613434866e-05
384.0,-5.097697430755943e-05
416.0,-1.1981996067333966e-05
448.0,-4.225601878715679e-05
480.0,0.0003262451500631869
512.0,-0.0002125165337929502
576.0,5.530404450837523e-05
640.0,-0.00013481470523402095
704.0,-4.324498149799183e-05
768.0,-0.00036327066482044756
832.0,-0.0004168175219092518
896.0,-0.0005345740355551243
960.0,-0.0006387577741406858
1024.0,-0.0008606434566900134
1152.0,-0.00036852003540843725
1280.0,-0.00021468395425472409
1408.0,-6.999784818617627e-05
1536.0,0.00027320627123117447
1664.0,0.0004271497600711882
1792.0,-1.8192642528447323e-05
1920.0,-0.00028603815007954836
2048.0,0.00012876567780040205
2304.0,-0.00029056327184662223
2560.0,-0.0003506718494463712
2816.0,-0.00015738318325020373
3072.0,0.00010092207958223298
3328.0,0.0003234742907807231
3584.0,0.00045214485726319253
3840.0,0.00025730766355991364
4096.0,1.8202976207248867e-05
4608.0,-0.0002447153674438596
5120.0,2.5539160560583696e-05
5632.0,0.00014239150914363563
6144.0,-5.533436342375353e-05
6656.0,-8.379898645216599e-05
7168.0,0.00012060163135174662
7680.0,-0.00014419369108509272
8192.0,-6.904290057718754e-05
end
