version,3.0
numOfCh,1
type,point
parent_name,484af_3dot0-1dot0
ch_type,1_1
kcount,1
numberNandB,1
brightnessNandB,1
carpet pos,0
pc,0
Time (ms),CH1 Auto-Correlation
1.0,0.01627126708626747
2.0,0.013336706906557083
3.0,0.011267634108662605
4.0,0.009785269387066364
5.0,0.008731014095246792
6.0,0.0077539063058793545
7.0,0.006906107068061829
8.0,0.006150694563984871
9.0,0.005594021640717983
10.0,0.005163214169442654
11.0,0.004731071647256613
12.0,0.004407060798257589
13.0,0.004117428790777922
14.0,0.0038273786194622517
15.0,0.0036764026153832674
16.0,0.0035110674798488617
18.0,0.0033000181429088116
20.0,0.003130601719021797
22.0,0.0029503535479307175
24.0,0.002694506663829088
26.0,0.00267638242803514
28.0,0.0025478459428995848
30.0,0.002421383047476411
32.0,0.0021269037388265133
36.0,0.001556702540256083
40.0,0.0011637890711426735
44.0,0.0010112959425896406
48.0,0.0011028130538761616
52.0,0.0010310300858691335
56.0,0.0008518168469890952
60.0,0.0008163984748534858
64.0,0.0008752586436457932
72.0,0.0005640042363665998
80.0,0.0008887050207704306
88.0,0.0007246361928991973
96.0,0.0007291142828762531
104.0,0.000704461126588285
112.0,0.00044659391278401017
120.0,0.00038555386709049344
128.0,0.00024181509797926992
144.0,-0.0002383347600698471
160.0,-0.0002122388395946473
176.0,0.0002490424958523363
192.0,0.00047919893404468894
208.0,0.0007442017085850239
224.0,0.00015276949852705002
240.0,-0.00018610480765346438
256.0,-0.00024087615020107478
288.0,-0.00031026365468278527
320.0,-0.0004883570363745093
352.0,-0.00045838739606551826
384.0,-0.00024730220320634544
416.0,0.00020862418750766665
448.0,-0.0003131940611638129
480.0,-0.00033899463596753776
512.0,-7.318664574995637e-05
576.0,-0.0002520216803532094
640.0,-0.0003702496469486505
704.0,-0.0006426003528758883
768.0,-0.0003766945446841419
832.0,-7.70733313402161e-05
896.0,-0.00023184402380138636
960.0,0.00018472204101271927
1024.0,0.00021075372933410108
1152.0,0.00026555178919807076
1280.0,-0.0003636257315520197
1408.0,0.0003661634982563555
1536.0,0.0002556229883339256
1664.0,-0.0002454371133353561
1792.0,-0.00024574194685555995
1920.0,-5.562443766393699e-05
2048.0,-0.0003884861944243312
2304.0,2.4968810976133682e-05
2560.0,0.00020640369621105492
2816.0,-0.0002860672539100051
3072.0,-0.00021608208771795034
3328.0,0.00012347984011285007
3584.0,0.00048205009079538286
3840.0,-7.434096914948896e-05
4096.0,9.894331742543727e-05
4608.0,0.00017112425121013075
5120.0,0.00014676424325443804
5632.0,-0.00044397159945219755
6144.0,0.00018865283345803618
6656.0,-0.0001209656402352266
7168.0,-1.958867142093368e-05
7680.0,0.00012712458556052297
8192.0,6.883471360197291e-05
end
