version,3.0
numOfCh,1
type,point
parent_name,484af_3dot0-1dot0
ch_type,1_1
kcount,1
numberNandB,1
brightnessNandB,1
carpet pos,0
pc,0
Time (ms),CH1 Auto-Correlation
1.0,0.016068052500486374
2.0,0.01313166692852974
3.0,0.011126994155347347
4.0,0.009547585621476173
5.0,0.008212660439312458
6.0,0.007292964030057192
7.0,0.006607980467379093
8.0,0.005979470908641815
9.0,0.0054048518650233746
10.0,0.0048116231337189674
11.0,0.004357766825705767
12.0,0.004073379095643759
13.0,0.003786936169490218
14.0,0.0035332045517861843
15.0,0.0031956564635038376
16.0,0.0028679834213107824
18.0,0.0023383833467960358
20.0,0.0022038593888282776
22.0,0.0019209814490750432
24.0,0.0015569387469440699
26.0,0.001090883743017912
28.0,0.0007695892709307373
30.0,0.0009098823647946119
32.0,0.0009173201397061348
36.0,0.0012190989218652248
40.0,0.0010942367371171713
44.0,0.001199120655655861
48.0,0.0012358169769868255
52.0,0.0012136995792388916
56.0,0.001234422903507948
60.0,0.0012104451889172196
64.0,0.0012229483108967543
72.0,0.00112339504994452
80.0,0.0008954921504482627
88.0,0.0007878788746893406
96.0,0.000840169726870954
104.0,0.0004227554309181869
112.0,0.0003234975738450885
120.0,0.00027371718897484243
128.0,0.0007125597912818193
144.0,0.0006549341487698257
160.0,0.00018124717462342232
176.0,-7.913779700174928e-05
192.0,-7.084885874064639e-05
208.0,-0.00031902556656859815
224.0,-9.420252172276378e-05
240.0,0.00044223820441402495
256.0,0.0002662392216734588
288.0,-5.2995135774835944e-05
320.0,0.00010971583105856553
352.0,0.0004817887383978814
384.0,-0.0002318822662346065
416.0,-0.00021606955851893872
448.0,-0.00034758387482725084
480.0,1.7013217075145803e-05
512.0,0.0007279557758010924
576.0,4.227580575388856e-05
640.0,-4.704582897829823e-05
704.0,-0.00011951976921409369
768.0,0.00015148708189371973
832.0,0.00010290009231539443
896.0,-0.0002513676881790161
960.0,-0.0006338224629871547
1024.0,-0.0004785046330653131
1152.0,-0.0003059677837882191
1280.0,-0.00022648580488748848
1408.0,-0.00035242291050963104
1536.0,-0.0003274304617661983
1664.0,-0.0001969004952115938
1792.0,9.059920557774603e-05
1920.0,-0.00013605543063022196
2048.0,0.0001397881133016199
2304.0,-0.00011908284068340436
2560.0,-0.00023807947582099587
2816.0,0.0002641029132064432
3072.0,8.667647489346564e-05
3328.0,-0.00018300171359442174
3584.0,8.747287938604131e-05
3840.0,-0.00014070828910917044
4096.0,0.00019084441009908915
4608.0,0.00025203428231179714
5120.0,-0.000193371219211258
5632.0,-0.0003198312479071319
6144.0,1.3044435036135837e-05
6656.0,-0.00010147701686946675
7168.0,0.0001407773233950138
7680.0,0.00015519723820034415
8192.0,-0.0001339051523245871
end
