version,3.0
numOfCh,1
type,point
parent_name,484af_3dot0-1dot0
ch_type,1_1
kcount,1
numberNandB,1
brightnessNandB,1
carpet pos,0
pc,0
Time (ms),CH1 Auto-Correlation
1.0,0.016841037198901176
2.0,0.01389736495912075
3.0,0.011843792162835598
4.0,0.010301725007593632
5.0,0.009093507193028927
6.0,0.008159584365785122
7.0,0.007364797405898571
8.0,0.006911924574524164
9.0,0.006501683034002781
10.0,0.0060328589752316475
11.0,0.0055894372053444386
12.0,0.005183531437069178
13.0,0.004818625748157501
14.0,0.004532576072961092
15.0,0.00423780083656311
16.0,0.003970042336732149
18.0,0.0034657130017876625
20.0,0.0032803602516651154
22.0,0.0030638885218650103
24.0,0.002827997086569667
26.0,0.002712610177695751
28.0,0.002511937404051423
30.0,0.0023641809821128845
32.0,0.002161601325497031
36.0,0.0017964356811717153
40.0,0.0016239754622802138
44.0,0.0014913218328729272
48.0,0.001460940227843821
52.0,0.001390259712934494
56.0,0.0014103021239861846
60.0,0.0011234626872465014
64.0,0.0008449028828181326
72.0,0.0009452373487874866
80.0,0.0006957034929655492
88.0,0.0006523256306536496
96.0,0.0008342784130945802
104.0,0.0009349531610496342
112.0,0.0007693708757869899
120.0,0.0005281232297420502
128.0,0.00027259282069280744
144.0,0.00020315473375376314
160.0,0.0001418406463926658
176.0,-7.416709559038281e-05
192.0,-0.00027562450850382447
208.0,-0.00034241165849380195
224.0,7.65137083362788e-05
240.0,0.00029274143162183464
256.0,0.0006089172675274312
288.0,8.066199370659888e-05
320.0,0.00024083892640192062
352.0,0.000550248078070581
384.0,0.0005344278179109097
416.0,-5.3787895012646914e-05
448.0,-3.042360958716017e-06
480.0,7.723466114839539e-05
512.0,6.108274101279676e-05
576.0,0.00010837314766831696
640.0,0.0002638120495248586
704.0,-0.00010892399586737156
768.0,0.0001496096811024472
832.0,0.0002254414139315486
896.0,0.00015910700312815607
960.0,6.302329711616039e-05
1024.0,5.1165367040084675e-05
1152.0,-0.00036867012386210263
1280.0,-0.00028987391851842403
1408.0,3.4693130146479234e-06
1536.0,-2.8921976991114207e-05
1664.0,-0.00047747523058205843
1792.0,-0.00042965475586242974
1920.0,-0.0005605019396170974
2048.0,-7.97531902207993e-05
2304.0,1.1974349945376161e-05
2560.0,0.00016318130656145513
2816.0,0.0002823453978635371
3072.0,8.912249904824421e-05
3328.0,4.2540905269561335e-05
3584.0,-7.169280434027314e-05
3840.0,-0.0002583300229161978
4096.0,7.14170018909499e-05
4608.0,-0.0005045572179369628
5120.0,-2.7985548513242975e-05
5632.0,9.186286479234695e-05
6144.0,-0.00024116288113873452
6656.0,0.00013868155656382442
7168.0,-7.844081846997142e-05
7680.0,0.0001407138624927029
8192.0,0.0007297489210031927
end
