version,3.0
numOfCh,1
type,point
parent_name,484af_3dot0-1dot0
ch_type,1_1
kcount,1
numberNandB,1
brightnessNandB,1
carpet pos,0
pc,0
Time (ms),CH1 Auto-Correlation
1.0,0.015240532346069813
2.0,0.012227815575897694
3.0,0.010059775784611702
4.0,0.00851004384458065
5.0,0.007330114953219891
6.0,0.006378634832799435
7.0,0.0056893713772296906
8.0,0.005186213180422783
9.0,0.004785704426467419
10.0,0.004465855658054352
11.0,0.004203537944704294
12.0,0.003940355498343706
13.0,0.0036240413319319487
14.0,0.0032883824314922094
15.0,0.002933325944468379
16.0,0.002588721225038171
18.0,0.002232337137684226
20.0,0.0019220070680603385
22.0,0.0017694906564429402
24.0,0.0016376603161916137
26.0,0.0014622227754443884
28.0,0.001442907378077507
30.0,0.0012875893153250217
32.0,0.0010555972112342715
36.0,0.001034091110341251
40.0,0.0009842505678534508
44.0,0.0005718949832953513
48.0,0.0005782020161859691
52.0,0.0005355615285225213
56.0,0.0003765445726457983
60.0,0.00040893437108024955
64.0,0.0004073613090440631
72.0,0.0005463327979668975
80.0,0.0003047754871658981
88.0,0.0005135081592015922
96.0,0.0008188678184524179
104.0,0.0008197764400392771
112.0,0.0007377680740319192
120.0,1.844470352807548e-05
128.0,7.728762284386903e-05
144.0,3.112658305326477e-05
160.0,-0.00016603009134996682
176.0,-0.00015169725520536304
192.0,1.3735866559727583e-05
208.0,-0.0004001633496955037
224.0,-0.00020717251754831523
240.0,9.227206464856863e-05
256.0,0.0003667422279249877
288.0,-0.0002673151611816138
320.0,-0.00033753912430256605
352.0,-2.5052690034499392e-05
384.0,-0.00014015368651598692
416.0,-3.9226408262038603e-05
448.0,-0.00026480513042770326
480.0,-0.00013808348739985377
512.0,-0.00017217658751178533
576.0,0.0001638320682104677
640.0,0.00025168590946123004
704.0,0.000356907956302166
768.0,0.0002783995878417045
832.0,-0.00042388527072034776
896.0,-0.0001821690530050546
960.0,-0.0002856072096619755
1024.0,-0.0009033154346980155
1152.0,-1.1834271390398499e-05
1280.0,5.251100810710341e-05
1408.0,8.33746962598525e-05
1536.0,-0.00035589857725426555
1664.0,-0.00039357933565042913
1792.0,-0.00037790698115713894
1920.0,0.00036974341492168605
2048.0,-9.896393748931587e-05
2304.0,5.836325271957321e-06
2560.0,0.00011568302579689771
2816.0,-0.00017391867004334927
3072.0,0.00012112411059206352
3328.0,0.00015750984312035143
3584.0,-0.00012363186397124082
3840.0,0.00032133201602846384
4096.0,-6.787094753235579e-05
4608.0,5.2900715672876686e-05
5120.0,-0.00012111055548302829
5632.0,-0.00021388476307038218
6144.0,-6.548511737491935e-05
6656.0,7.650928455404937e-05
7168.0,0.00031137478072196245
7680.0,-5.866721403435804e-05
8192.0,-0.00014033998013474047
end
