version,3.0
numOfCh,1
type,point
parent_name,484af_3dot0-1dot0
ch_type,1_1
kcount,1
numberNandB,1
brightnessNandB,1
carpet pos,0
pc,0
Time (ms),CH1 Auto-Correlation
1.0,0.01667180471122265
2.0,0.013777920044958591
3.0,0.011656083166599274
4.0,0.010066300630569458
5.0,0.00898650474846363
6.0,0.008203604258596897
7.0,0.00746806850656867
8.0,0.006733912043273449
9.0,0.006131486501544714
10.0,0.0056246193125844
11.0,0.0051885382272303104
12.0,0.004861318506300449
13.0,0.00456612603738904
14.0,0.004179529845714569
15.0,0.004003251902759075
16.0,0.0037475978024303913
18.0,0.003512443508952856
20.0,0.003274087095633149
22.0,0.003093073144555092
24.0,0.0030489631462842226
26.0,0.002985587576404214
28.0,0.002795053878799081
30.0,0.0024383841082453728
32.0,0.0021473520901054144
36.0,0.0018314654007554054
40.0,0.0013247886672616005
44.0,0.0008970499038696289
48.0,0.0007032325956970453
52.0,0.00022972043370828032
56.0,-2.0581406715791672e-05
60.0,0.00015488150529563427
64.0,0.00046458400902338326
72.0,0.0005159454885870218
80.0,0.00015286610869225115
88.0,1.1274461940047331e-05
96.0,-0.00023220438743010163
104.0,6.642593507422134e-05
112.0,0.00020329210383351892
120.0,0.00014615808322560042
128.0,6.987798406044021e-05
144.0,0.000538187799975276
160.0,0.00022198773513082415
176.0,0.0008268686942756176
192.0,0.0007055718451738358
208.0,0.00047437308239750564
224.0,0.0005563934100791812
240.0,0.0002948323672171682
256.0,0.00024280519573949277
288.0,-9.292102731706109e-06
320.0,-0.00013985790428705513
352.0,-6.414697418222204e-05
384.0,3.335368091939017e-05
416.0,-0.00016250611224677414
448.0,-0.000338889891281724
480.0,-0.0006015213439241052
512.0,-0.0003626549441833049
576.0,0.00010735233809100464
640.0,4.036055179312825e-05
704.0,0.00020183667948003858
768.0,0.0003170340205542743
832.0,-0.00012938692816533148
896.0,-0.0003228814748581499
960.0,0.00030769361183047295
1024.0,0.0004925778484903276
1152.0,-0.00012408356997184455
1280.0,0.000260940141743049
1408.0,-0.00011562599684111774
1536.0,0.00018051356892101467
1664.0,3.855873001157306e-05
1792.0,-3.4027863875962794e-05
1920.0,-0.0006084190681576729
2048.0,-0.000647225824650377
2304.0,-8.977550169220194e-05
2560.0,0.00018511945381760597
2816.0,0.00012317448272369802
3072.0,-3.405213647056371e-05
3328.0,-0.0003291972680017352
3584.0,-0.00024461321299895644
3840.0,-2.016804319282528e-05
4096.0,0.00020153861260041595
4608.0,-3.3913534025487024e-06
5120.0,8.766863902565092e-05
5632.0,4.294046448194422e-05
6144.0,-0.00015392743807751685
6656.0,-0.0003397635882720351
7168.0,-6.694750481983647e-05
7680.0,-0.00030023671570234
8192.0,-2.5654655473772436e-05
end
