version,3.0
numOfCh,1
type,point
parent_name,484af_3dot0-1dot0
ch_type,1_1
kcount,1
numberNandB,1
brightnessNandB,1
carpet pos,0
pc,0
Time (ms),CH1 Auto-Correlation
1.0,0.016749432310461998
2.0,0.013739821501076221
3.0,0.011586738750338554
4.0,0.010170705616474152
5.0,0.009050671942532063
6.0,0.008155531249940395
7.0,0.007416709791868925
8.0,0.006756686605513096
9.0,0.0062105488032102585
10.0,0.005625807214528322
11.0,0.00525482464581728
12.0,0.004917704965919256
13.0,0.0046995277516543865
14.0,0.004526110365986824
15.0,0.004300347063690424
16.0,0.004108081571757793
18.0,0.003674071980640292
20.0,0.003069239901378751
22.0,0.0026064927224069834
24.0,0.002225853269919753
26.0,0.0021752421744167805
28.0,0.0020780761260539293
30.0,0.001973812934011221
32.0,0.001634914893656969
36.0,0.0014123407891020179
40.0,0.0013583821710199118
44.0,0.0009904648177325726
48.0,0.0007267796318046749
52.0,0.00044427509419620037
56.0,0.00036556506529450417
60.0,0.0004220529517624527
64.0,0.0002909777103923261
72.0,0.00038356787990778685
80.0,0.0006240730290301144
88.0,0.0003926133213099092
96.0,-0.00022413587430492043
104.0,-0.00018383056158199906
112.0,-0.00031114599551074207
120.0,-0.0003096432192251086
128.0,-0.00044256477849557996
144.0,-0.00018017464026343077
160.0,8.590827928856015e-05
176.0,8.781439646554645e-06
192.0,1.6267509636236355e-05
208.0,3.762277992791496e-05
224.0,-0.00023945419525261968
240.0,-0.00025025050854310393
256.0,-0.00023451766173820943
288.0,-0.00024452063371427357
320.0,-0.00047803999041207135
352.0,0.0002783967647701502
384.0,-4.839009852730669e-05
416.0,-0.0005008068983443081
448.0,0.00024168995150830597
480.0,0.00012690482253674418
512.0,-0.0005554506788030267
576.0,-0.0002288476243847981
640.0,-0.0002847109572030604
704.0,6.164782826090232e-05
768.0,-0.00021937543351668864
832.0,0.00028725137235596776
896.0,-8.454881026409566e-05
960.0,0.00038055042386986315
1024.0,-8.502571290591732e-05
1152.0,-0.0002550386998336762
1280.0,-0.0002583468158263713
1408.0,9.639786003390327e-05
1536.0,9.312662768934388e-06
1664.0,4.938250276609324e-05
1792.0,8.146923937601969e-05
1920.0,-5.5624466767767444e-05
2048.0,0.00022832192189525813
2304.0,6.850406498415396e-05
2560.0,-0.00013979741197545081
2816.0,-3.998447209596634e-05
3072.0,0.0001073896128218621
3328.0,-5.1366398110985756e-05
3584.0,0.00015673754387535155
3840.0,-8.914699719753116e-05
4096.0,-0.00015495129628106952
4608.0,-0.00015058992721606046
5120.0,-0.00013607398432213813
5632.0,0.00010906178067671135
6144.0,0.00017105467850342393
6656.0,-0.00010946703696390614
7168.0,-0.0001916285400511697
7680.0,0.00019053122377954423
8192.0,-0.0002418114454485476
end
