version,3.0
numOfCh,1
type,point
parent_name,484af_3dot0-1dot0
ch_type,1_1
kcount,1
numberNandB,1
brightnessNandB,1
carpet pos,0
pc,0
Time (ms),CH1 Auto-Correlation
1.0,0.017350278794765472
2.0,0.014401928521692753
3.0,0.012245590798556805
4.0,0.010606417432427406
5.0,0.009319756180047989
6.0,0.008409357629716396
7.0,0.007669597398489714
8.0,0.006960240658372641
9.0,0.006358157377690077
10.0,0.005902660544961691
11.0,0.005461147986352444
12.0,0.0050505404360592365
13.0,0.004710872191935778
14.0,0.004444953985512257
15.0,0.004198894370347261
16.0,0.0040647974237799644
18.0,0.003793225158005953
20.0,0.003628616454079747
22.0,0.003394703846424818
24.0,0.003100163768976927
26.0,0.002864154754206538
28.0,0.0025258411187678576
30.0,0.00227851583622396
32.0,0.002247151220217347
36.0,0.0024169471580535173
40.0,0.002154827117919922
44.0,0.002016698941588402
48.0,0.001711450982838869
52.0,0.0014534394722431898
56.0,0.0009680744842626154
60.0,0.0010854413267225027
64.0,0.0011354037560522556
72.0,0.0010531560983508825
80.0,0.001118102460168302
88.0,0.0009033194510266185
96.0,0.0008845439297147095
104.0,0.0003307581937406212
112.0,0.00042252003913745284
120.0,0.0010605202987790108
128.0,0.0010145532432943583
144.0,0.00036447777529247105
160.0,0.00040914781857281923
176.0,0.0003026521299034357
192.0,-0.00020884358673356473
208.0,3.6346395063446835e-05
224.0,-9.184287046082318e-05
240.0,0.000139052644954063
256.0,0.00012123974011046812
288.0,0.00016528530977666378
320.0,0.0006667976849712431
352.0,0.00021704795653931797
384.0,3.943518458981998e-05
416.0,-7.015990559011698e-05
448.0,2.0958348613930866e-05
480.0,0.0004757937276735902
512.0,-0.00023557462554890662
576.0,-0.0002944397274404764
640.0,-0.00023049024457577616
704.0,-0.00041319028241559863
768.0,-0.00017530280456412584
832.0,-3.409264172660187e-05
896.0,0.00025444544735364616
960.0,-0.00016283786681015044
1024.0,5.715232327929698e-05
1152.0,-0.00028589850990101695
1280.0,-0.00012818147661164403
1408.0,0.0002585006586741656
1536.0,0.0003328318416606635
1664.0,0.00030593323754146695
1792.0,4.0088951209327206e-05
1920.0,-0.0004727030172944069
2048.0,-0.0008310977718792856
2304.0,-0.0001864577498054132
2560.0,-0.00015499662549700588
2816.0,-5.60221669729799e-05
3072.0,2.563042835390661e-05
3328.0,0.000554609636310488
3584.0,-0.00015941844321787357
3840.0,0.00027548568323254585
4096.0,9.595161827746779e-05
4608.0,-1.9078706827713177e-05
5120.0,-4.18406534663518e-06
5632.0,-0.00035350650432519615
6144.0,-0.00010732203372754157
6656.0,0.00025755210663191974
7168.0,-0.00023392046568915248
7680.0,-0.0002550853823777288
8192.0,0.00022797750716563314
end
