version,3.0
numOfCh,1
type,point
parent_name,484af_3dot0-1dot0
ch_type,1_1
kcount,1
numberNandB,1
brightnessNandB,1
carpet pos,0
pc,0
Time (ms),CH1 Auto-Correlation
1.0,0.01679353043437004
2.0,0.01376883964985609
3.0,0.011760769411921501
4.0,0.010320760309696198
5.0,0.009143063798546791
6.0,0.008213973604142666
7.0,0.007481561973690987
8.0,0.006930268369615078
9.0,0.006476749200373888
10.0,0.006081789266318083
11.0,0.0058800941333174706
12.0,0.005575181450694799
13.0,0.00531964423134923
14.0,0.0049869897775352
15.0,0.004699844401329756
16.0,0.004425548017024994
18.0,0.0039045491721481085
20.0,0.0033028984908014536
22.0,0.003004306461662054
24.0,0.0028226333670318127
26.0,0.002629340859130025
28.0,0.002522252732887864
30.0,0.0023553066421300173
32.0,0.002254862803965807
36.0,0.001879437710158527
40.0,0.0017826174153015018
44.0,0.0017487487057223916
48.0,0.0018320725066587329
52.0,0.0017207646742463112
56.0,0.001769153168424964
60.0,0.00165891635697335
64.0,0.0015656372997909784
72.0,0.0012802504934370518
80.0,0.0012560851173475385
88.0,0.0009897379204630852
96.0,0.0009439259301871061
104.0,0.0009180560591630638
112.0,0.0007065525860525668
120.0,0.00042037558159790933
128.0,5.4775980970589444e-05
144.0,-6.92620305926539e-05
160.0,0.00015237029583659023
176.0,0.0004485667741391808
192.0,0.0006009459029883146
208.0,0.0002645184868015349
224.0,-4.876230377703905e-05
240.0,-1.1341785466356669e-05
256.0,-3.9723439840599895e-05
288.0,-0.0006213548476807773
320.0,-0.00028589554131031036
352.0,-0.00027639829204417765
384.0,-0.0004449206462595612
416.0,-0.00028879279852844775
448.0,-0.0008580638095736504
480.0,-0.0004811238031834364
512.0,-2.0092893464607187e-05
576.0,2.4316590497619472e-05
640.0,0.00020726934599224478
704.0,0.00021746644051745534
768.0,-0.0003473792166914791
832.0,-0.0003929923695977777
896.0,-0.0002438134979456663
960.0,0.0003112121776212007
1024.0,-6.071789903216995e-05
1152.0,5.932751082582399e-05
1280.0,0.0007998226792551577
1408.0,0.000554407190065831
1536.0,2.5994602765422314e-05
1664.0,-0.0008134979871101677
1792.0,-0.0006551689002662897
1920.0,0.00024754213518463075
2048.0,0.0001729131763568148
2304.0,-0.0005125378957018256
2560.0,0.00029142695711925626
2816.0,0.0002324460947420448
3072.0,-0.0006550810066983104
3328.0,-0.0001260052085854113
3584.0,-0.0005166922346688807
3840.0,0.00026767360395751894
4096.0,0.00043292436748743057
4608.0,-0.0001765872148098424
5120.0,0.00037858972791582346
5632.0,-0.0002362208324484527
6144.0,0.00013041523925494403
6656.0,0.00029226831975392997
7168.0,-0.0002589267969597131
7680.0,0.0004320348089095205
8192.0,-5.833174509461969e-05
end
