version,3.0
numOfCh,1
type,point
parent_name,484af_3dot0-1dot0
ch_type,1_1
kcount,1
numberNandB,1
brightnessNandB,1
carpet pos,0
pc,0
Time (ms),CH1 Auto-Correlation
1.0,0.016245301812887192
2.0,0.013398136012256145
3.0,0.011372900567948818
4.0,0.009883159771561623
5.0,0.008799674920737743
6.0,0.00779862841591239
7.0,0.006928572431206703
8.0,0.006342114880681038
9.0,0.00566564267501235
10.0,0.005094766151160002
11.0,0.004678086843341589
12.0,0.004355354234576225
13.0,0.00410878099501133
14.0,0.003898774506524205
15.0,0.003607407445088029
16.0,0.00343737518414855
18.0,0.003181154141202569
20.0,0.0030128764919936657
22.0,0.003002492245286703
24.0,0.002815986517816782
26.0,0.0027595721185207367
28.0,0.0026016293559223413
30.0,0.0023060240782797337
32.0,0.0020521136466413736
36.0,0.0015135683352127671
40.0,0.0011589841451495886
44.0,0.0009843504521995783
48.0,0.0007800056482665241
52.0,0.0006161215133033693
56.0,0.0004460542695596814
60.0,0.00042328762356191874
64.0,0.000667513464577496
72.0,0.0008904210408218205
80.0,0.000553703517653048
88.0,0.0003804094740189612
96.0,0.00031445000786334276
104.0,1.1838696991617326e-05
112.0,-8.991629147203639e-05
120.0,8.92979878699407e-05
128.0,-7.641492993570864e-05
144.0,-0.00018626477685756981
160.0,-0.00031018222216516733
176.0,-0.00019876769511029124
192.0,-0.00044467515544965863
208.0,-0.00061511603416875
224.0,-1.5472171071451157e-05
240.0,0.00017905821732711047
256.0,2.630950984894298e-05
288.0,0.0003012508386746049
320.0,0.0003713869955390692
352.0,2.2736961909686215e-05
384.0,-0.0003576078452169895
416.0,-0.0006302121328189969
448.0,-0.00029937311774119735
480.0,-0.00031195257906802
512.0,-0.00013771084195468575
576.0,-0.00014352501602843404
640.0,5.7716821174835786e-05
704.0,-0.00024240431957878172
768.0,-0.0004981013480573893
832.0,-0.00015118738519959152
896.0,0.00029895678744651377
960.0,2.114261587848887e-05
1024.0,-7.939609349705279e-05
1152.0,-0.000301964144455269
1280.0,-3.950138852815144e-05
1408.0,-0.00031556887552142143
1536.0,-9.984054486267269e-06
1664.0,-0.0002893705095630139
1792.0,0.0003812747891061008
1920.0,0.0002175340778194368
2048.0,-0.0003137863823212683
2304.0,0.00010184346319874749
2560.0,-1.3474971638061106e-05
2816.0,-1.5102688848855905e-05
3072.0,-5.838339347974397e-05
3328.0,-0.0002049018512479961
3584.0,-6.862261216156185e-05
3840.0,3.6994086258346215e-05
4096.0,0.00021800027752760798
4608.0,6.307674630079418e-05
5120.0,0.00013796554412692785
5632.0,0.00013974063040222973
6144.0,-0.00013513195153791457
6656.0,-0.00028505001682788134
7168.0,0.00010915435996139422
7680.0,4.779569280799478e-05
8192.0,-5.937999958405271e-05
end
