version,3.0
numOfCh,1
type,point
parent_name,484af_3dot0-1dot0
ch_type,1_1
kcount,1
numberNandB,1
brightnessNandB,1
carpet pos,0
pc,0
Time (ms),CH1 Auto-Correlation
1.0,0.015382817015051842
2.0,0.01251083891838789
3.0,0.010448120534420013
4.0,0.008946150541305542
5.0,0.007814710028469563
6.0,0.006838503293693066
7.0,0.00614452688023448
8.0,0.00550121022388339
9.0,0.004941202234476805
10.0,0.004582535941153765
11.0,0.00445855176076293
12.0,0.0042799655348062515
13.0,0.004019059706479311
14.0,0.0037976547610014677
15.0,0.003670003032311797
16.0,0.0034054704010486603
18.0,0.003033712040632963
20.0,0.0026718294247984886
22.0,0.0023642592132091522
24.0,0.002197581809014082
26.0,0.0018243106314912438
28.0,0.0015532117104157805
30.0,0.0015914428513497114
32.0,0.0015227939002215862
36.0,0.0013457913883030415
40.0,0.0009945057099685073
44.0,0.001064987387508154
48.0,0.0008417407516390085
52.0,0.0005711301928386092
56.0,0.00046824480523355305
60.0,0.00025318970438092947
64.0,0.00019085037638433278
72.0,0.00017746542289387435
80.0,3.262369500589557e-05
88.0,7.88047764217481e-05
96.0,6.940901948837563e-05
104.0,0.00010333891259506345
112.0,-5.5101150792324916e-05
120.0,-9.60004108492285e-05
128.0,-0.00031081418273970485
144.0,0.0001344233751296997
160.0,0.0001681396970525384
176.0,5.1935898227384314e-05
192.0,0.00014448021829593927
208.0,-9.96343296719715e-05
224.0,-0.0006264754920266569
240.0,-0.00041446444811299443
256.0,-0.0006054032710380852
288.0,0.00015251855074893683
320.0,7.197511149570346e-05
352.0,0.0004126543935853988
384.0,-0.00037820517900399864
416.0,-0.0008044622954912484
448.0,-0.0008233648259192705
480.0,-0.0006510671228170395
512.0,-0.0007741765002720058
576.0,0.00011897210060851648
640.0,0.00010480688069947064
704.0,0.0006324861315079033
768.0,0.00042408681474626064
832.0,0.00017221539746969938
896.0,0.00010509585263207555
960.0,0.000688065483700484
1024.0,-6.976626173127443e-05
1152.0,-0.0003384617739357054
1280.0,-0.00023693271214142442
1408.0,-7.635405927430838e-05
1536.0,0.0001499187492299825
1664.0,-9.682992822490633e-05
1792.0,-0.00020261821919120848
1920.0,-0.00040194246685132384
2048.0,-0.00027645641239359975
2304.0,2.8336429750197567e-05
2560.0,-0.0004110901791136712
2816.0,-0.00010834527347469702
3072.0,0.00011097788228653371
3328.0,7.829406240489334e-05
3584.0,-0.0001664071751292795
3840.0,0.0002638768055476248
4096.0,3.9088881749194115e-05
4608.0,3.695541454362683e-05
5120.0,-2.6990166588802822e-05
5632.0,0.0002522325376048684
6144.0,-3.5866698453901336e-05
6656.0,-0.00021450153144542128
7168.0,0.00010545698023634031
7680.0,-0.00010899097833316773
8192.0,-0.0002104244049405679
end
