version,3.0
numOfCh,1
type,point
parent_name,484af_3dot0-1dot0
ch_type,1_1
kcount,1
numberNandB,1
brightnessNandB,1
carpet pos,0
pc,0
Time (ms),CH1 Auto-Correlation
1.0,0.016232134774327278
2.0,0.01321254763752222
3.0,0.011153304018080235
4.0,0.009714903309941292
5.0,0.008498409762978554
6.0,0.007467455230653286
7.0,0.0066263251937925816
8.0,0.005957445595413446
9.0,0.0054214708507061005
10.0,0.004906914662569761
11.0,0.004566860385239124
12.0,0.004395538009703159
13.0,0.00426193792372942
14.0,0.003996982239186764
15.0,0.003694218583405018
16.0,0.0035220468416810036
18.0,0.0031569090206176043
20.0,0.0028032667469233274
22.0,0.0024182903580367565
24.0,0.0021091646049171686
26.0,0.002013296354562044
28.0,0.0017781701171770692
30.0,0.0015953948022797704
32.0,0.0014269242528825998
36.0,0.001125768176279962
40.0,0.0010836200090125203
44.0,0.0010156487114727497
48.0,0.0008695962023921311
52.0,0.001122026820667088
56.0,0.0009951636893674731
60.0,0.0008723173523321748
64.0,0.0007960233488120139
72.0,0.00035067208227701485
80.0,9.830729686655104e-05
88.0,-5.566025720327161e-05
96.0,-0.00015045478357933462
104.0,-2.8459404347813688e-05
112.0,-0.00025639310479164124
120.0,-0.00030989351216703653
128.0,-0.0006152272108010948
144.0,-0.0004855050938203931
160.0,-0.0006593191064894199
176.0,-0.0003600780910346657
192.0,-0.00019768171478062868
208.0,0.00016600344679318368
224.0,0.0002848918957170099
240.0,5.399279689299874e-05
256.0,4.1884311940521e-05
288.0,-0.0001292402157559991
320.0,-0.0003343241987749934
352.0,-0.000547593692317605
384.0,0.00010175131319556385
416.0,-0.00018305513367522508
448.0,-0.0004050608549732715
480.0,9.494886762695387e-05
512.0,0.0004434917645994574
576.0,-8.787255501374602e-05
640.0,-9.056386261363514e-06
704.0,-0.0005531145725399256
768.0,-5.371292354539037e-05
832.0,0.000761709176003933
896.0,0.00043225951958447695
960.0,1.5066038940858562e-06
1024.0,0.00018363389244768769
1152.0,-2.1792548068333417e-05
1280.0,-9.949317609425634e-05
1408.0,-0.0003146956441923976
1536.0,-0.00011171539517818019
1664.0,0.000306889385683462
1792.0,-9.127234807237983e-05
1920.0,-0.0004503403033595532
2048.0,-5.449331001727842e-05
2304.0,-0.00021899485727772117
2560.0,-0.00011821900261566043
2816.0,0.00016941143258009106
3072.0,-0.00040921717300079763
3328.0,-0.00017654700786806643
3584.0,0.00031240980024449527
3840.0,-6.8096042014076374e-06
4096.0,-0.0001477659825468436
4608.0,-9.762406989466399e-05
5120.0,2.7230284104007296e-05
5632.0,0.00010653304343577474
6144.0,3.072301115025766e-05
6656.0,4.594218626152724e-05
7168.0,0.00014011199527885765
7680.0,-5.016021532355808e-05
8192.0,-9.22316758078523e-05
end
