version,3.0
numOfCh,1
type,point
parent_name,484af_3dot0-1dot0
ch_type,1_1
kcount,1
numberNandB,1
brightnessNandB,1
carpet pos,0
pc,0
Time (ms),CH1 Auto-Correlation
1.0,0.016232792288064957
2.0,0.013201567344367504
3.0,0.011076650582253933
4.0,0.009644979611039162
5.0,0.008571355603635311
6.0,0.007690502796322107
7.0,0.0069403937086462975
8.0,0.006349833216518164
9.0,0.005750548094511032
10.0,0.005246466025710106
11.0,0.004829430021345615
12.0,0.004536359570920467
13.0,0.0040924628265202045
14.0,0.0037110100965946913
15.0,0.0034087137319147587
16.0,0.0031579395290464163
18.0,0.0027465105522423983
20.0,0.0023450450971722603
22.0,0.002149444306269288
24.0,0.0018283399986103177
26.0,0.0015453920932486653
28.0,0.0014599080896005034
30.0,0.0011531421914696693
32.0,0.0009064259356819093
36.0,0.0008468203013762832
40.0,0.0008212223765440285
44.0,0.0005472645862028003
48.0,0.0005795123870484531
52.0,0.0006721930112689734
56.0,0.0005642144824378192
60.0,0.0004086699627805501
64.0,0.0005845673149451613
72.0,0.00020160331041552126
80.0,1.3013535863137804e-05
88.0,-0.00031277566449716687
96.0,-0.0003335351648274809
104.0,0.00011458463995950297
112.0,0.00018604953947942704
120.0,0.00029093478224240243
128.0,0.00016828460502438247
144.0,-0.0001340646849712357
160.0,-7.033148722257465e-05
176.0,0.00010473053407622501
192.0,0.000332521740347147
208.0,0.0005860032397322357
224.0,0.0009156669257208705
240.0,0.0010686969617381692
256.0,0.000537979300133884
288.0,-1.1489524695207365e-05
320.0,0.00015430431813001633
352.0,-6.708747969241813e-05
384.0,-0.00022651998733635992
416.0,-0.00041793385753408074
448.0,-8.855996566126123e-05
480.0,0.00016488316759932786
512.0,-0.00010137065692106262
576.0,5.232603143667802e-05
640.0,0.00048142141895368695
704.0,5.0799990276573226e-05
768.0,-0.0002604750043246895
832.0,-2.10502162190096e-06
896.0,0.00011007292778231204
960.0,0.0002979328273795545
1024.0,-1.3423605196294375e-05
1152.0,-0.00013495993334800005
1280.0,-9.062836761586368e-05
1408.0,-0.0002430575987091288
1536.0,-0.00018795044161379337
1664.0,-0.0004400991601869464
1792.0,-0.00016148854047060013
1920.0,-0.00012891720689367503
2048.0,-0.00011636436101980507
2304.0,-0.00014522696437779814
2560.0,5.071851046523079e-05
2816.0,-0.00017006308189593256
3072.0,2.3522068659076467e-05
3328.0,0.0002777088084258139
3584.0,-0.0001319686125498265
3840.0,0.0002655741118360311
4096.0,0.00012629834236577153
4608.0,-0.00021341012325137854
5120.0,-8.038261148612946e-05
5632.0,-0.00033347849966958165
6144.0,-1.3347534149943385e-05
6656.0,-2.874017445719801e-05
7168.0,0.0004092337912879884
7680.0,0.0001077199267456308
8192.0,0.0002727969258558005
end
