version,3.0
numOfCh,1
type,point
parent_name,484af_3dot0-1dot0
ch_type,1_1
kcount,1
numberNandB,1
brightnessNandB,1
carpet pos,0
pc,0
Time (ms),CH1 Auto-Correlation
1.0,0.01634422317147255
2.0,0.01340116374194622
3.0,0.011318507604300976
4.0,0.009891177527606487
5.0,0.008765988983213902
6.0,0.007768471259623766
7.0,0.006989327725023031
8.0,0.006339972373098135
9.0,0.00579648744314909
10.0,0.00552893104031682
11.0,0.005222767125815153
12.0,0.004941247869282961
13.0,0.004607279784977436
14.0,0.004315153695642948
15.0,0.004090436734259129
16.0,0.0037832309026271105
18.0,0.0033723749220371246
20.0,0.002952397568151355
22.0,0.0026471384335309267
24.0,0.002620990853756666
26.0,0.0023450201842933893
28.0,0.00207758997566998
30.0,0.0018836840754374862
32.0,0.001886419951915741
36.0,0.0018522987375035882
40.0,0.001913795480504632
44.0,0.0019260222325101495
48.0,0.0016621962422505021
52.0,0.001371849444694817
56.0,0.0014552735956385732
60.0,0.0012904120376333594
64.0,0.0010175112402066588
72.0,0.0007879079785197973
80.0,0.00077582843368873
88.0,0.0005094800726510584
96.0,0.0004252976505085826
104.0,0.0003340464027132839
112.0,0.0002894206263590604
120.0,0.00039337671478278935
128.0,0.00024356880749110132
144.0,-5.416675776359625e-06
160.0,3.86550382245332e-05
176.0,0.0001494609605288133
192.0,-9.815057273954153e-05
208.0,0.0003025525074917823
224.0,0.00020541758567560464
240.0,-0.0001648018806008622
256.0,3.861856021103449e-05
288.0,-0.0005094719235785306
320.0,-0.0002780757495202124
352.0,-1.8058794012176804e-05
384.0,-7.292514783330262e-05
416.0,0.0003299732052255422
448.0,0.00012336825602687895
480.0,0.00024406927695963532
512.0,-2.865049464162439e-05
576.0,-0.00042654384742490947
640.0,-0.00034162026713602245
704.0,-0.0003428612253628671
768.0,-0.0001978824002435431
832.0,-9.6066331025213e-05
896.0,4.511076622293331e-05
960.0,-0.0003070401435252279
1024.0,-0.0002769462007563561
1152.0,0.0003243334940634668
1280.0,-0.00034853664692491293
1408.0,-6.756671064067632e-05
1536.0,0.0006658060592599213
1664.0,0.0003482183674350381
1792.0,-6.996603588049766e-06
1920.0,3.721923349075951e-05
2048.0,-4.084992906427942e-05
2304.0,-6.811700586695224e-05
2560.0,8.132277434924617e-05
2816.0,-3.361442213645205e-05
3072.0,-0.0001455618184991181
3328.0,-0.00021379782992880791
3584.0,-0.0004129836743231863
3840.0,0.0001283118617720902
4096.0,-0.00018575185094960034
4608.0,-0.00013922656944487244
5120.0,-0.0001696417311904952
5632.0,-0.00028561503859236836
6144.0,9.724898700369522e-05
6656.0,0.00019699896802194417
7168.0,-0.00016794499242678285
7680.0,1.198467089125188e-05
8192.0,4.961102968081832e-05
end
