version,3.0
numOfCh,1
type,point
parent_name,484af_3dot0-1dot0
ch_type,1_1
kcount,1
numberNandB,1
brightnessNandB,1
carpet pos,0
pc,0
Time (ms),CH1 Auto-Correlation
1.0,0.016165805980563164
2.0,0.013248919509351254
3.0,0.011263505555689335
4.0,0.009900599718093872
5.0,0.008886023424565792
6.0,0.008048131130635738
7.0,0.007406506687402725
8.0,0.006912374868988991
9.0,0.006513744592666626
10.0,0.0060453289188444614
11.0,0.005608843639492989
12.0,0.005253242328763008
13.0,0.00500129722058773
14.0,0.0047687930054962635
15.0,0.004665500018745661
16.0,0.004460400901734829
18.0,0.004130208864808083
20.0,0.003794430522248149
22.0,0.0033813193440437317
24.0,0.0030648873653262854
26.0,0.003043769160285592
28.0,0.0028959752526134253
30.0,0.002656847471371293
32.0,0.002714246977120638
36.0,0.002612717915326357
40.0,0.002345978980883956
44.0,0.0023638978600502014
48.0,0.002194090047851205
52.0,0.0020458726212382317
56.0,0.0020220503211021423
60.0,0.0018399331020191312
64.0,0.0014505856670439243
72.0,0.0012442823499441147
80.0,0.0006355859222821891
88.0,0.00037315787631087005
96.0,-2.140528886229731e-05
104.0,0.0002919677353929728
112.0,0.0005430178716778755
120.0,0.0006223327945917845
128.0,0.00031615438638255
144.0,0.0003497533034533262
160.0,0.000246852490818128
176.0,0.00022103305673226714
192.0,0.00016700669948477298
208.0,0.00016124581452459097
224.0,7.406277291011065e-05
240.0,-0.0005182054010219872
256.0,-0.00023146596504375339
288.0,-0.0004048855334986001
320.0,-7.008026295807213e-05
352.0,0.0004619202227331698
384.0,8.799572242423892e-05
416.0,4.499353963183239e-06
448.0,-0.0001269039639737457
480.0,0.0002252543345093727
512.0,-0.00034623080864548683
576.0,-0.00018521708261687309
640.0,-1.6726204194128513e-05
704.0,-6.525517528643832e-05
768.0,-0.00020226612105034292
832.0,-0.0001607309386599809
896.0,-0.0005880646640434861
960.0,-0.00027670778217725456
1024.0,-0.0008953629876486957
1152.0,-0.0002725227386690676
1280.0,-0.0003920655872207135
1408.0,-0.0002120595017913729
1536.0,0.00022842854377813637
1664.0,-0.0002075533411698416
1792.0,-0.00022338231792673469
1920.0,-0.00020622106967493892
2048.0,1.778162913979031e-05
2304.0,-0.00010701610881369561
2560.0,1.5023127161839511e-05
2816.0,0.0001187627567560412
3072.0,7.697520777583122e-05
3328.0,-4.263427035766654e-05
3584.0,0.0004439931071829051
3840.0,-0.0001547045394545421
4096.0,-0.0005835978081449866
4608.0,-0.00027827659505419433
5120.0,0.0003732399782165885
5632.0,0.000379913515644148
6144.0,-0.00026957152294926345
6656.0,-0.00015080660523381084
7168.0,0.00011144393647555262
7680.0,-0.00023590346972923726
8192.0,0.0002673235139809549
end
