version,3.0
numOfCh,1
type,point
parent_name,484af_3dot0-1dot0
ch_type,1_1
kcount,1
numberNandB,1
brightnessNandB,1
carpet pos,0
pc,0
Time (ms),CH1 Auto-Correlation
1.0,0.015555906109511852
2.0,0.012531435117125511
3.0,0.010410398244857788
4.0,0.008840594440698624
5.0,0.007586915045976639
6.0,0.006644314154982567
7.0,0.005920424126088619
8.0,0.005300902295857668
9.0,0.004988044034689665
10.0,0.004685691557824612
11.0,0.004292733035981655
12.0,0.003939764108508825
13.0,0.00369258807040751
14.0,0.003491088282316923
15.0,0.003327334765344858
16.0,0.003014332614839077
18.0,0.0026645702309906483
20.0,0.002451846608892083
22.0,0.002337210811674595
24.0,0.0023439296055585146
26.0,0.0023686799686402082
28.0,0.0021312949247658253
30.0,0.0020341130439192057
32.0,0.001945136347785592
36.0,0.0017014977056533098
40.0,0.0015098416479304433
44.0,0.0014283442869782448
48.0,0.0013745544711127877
52.0,0.0013066843384876847
56.0,0.0011696135625243187
60.0,0.0009042887832038105
64.0,0.0008081764681264758
72.0,0.00087757408618927
80.0,0.0007393911946564913
88.0,0.00033677835017442703
96.0,-0.00045879732351750135
104.0,-0.00046453491086140275
112.0,5.146449984749779e-05
120.0,0.00022209895541891456
128.0,9.954357665264979e-05
144.0,-8.968505426310003e-05
160.0,0.00012089942902093753
176.0,-0.0005172716337256134
192.0,-0.0002155688707716763
208.0,-6.553110870299861e-05
224.0,-0.0004202991840429604
240.0,-0.00023355588200502098
256.0,0.00017688129446469247
288.0,-0.00027858358225785196
320.0,-0.0004045286332257092
352.0,-0.0005950732156634331
384.0,-0.0006253565079532564
416.0,-0.0003369012847542763
448.0,-2.8738462788169272e-05
480.0,0.00043262424878776073
512.0,0.0003155816229991615
576.0,-5.684281495632604e-05
640.0,-0.00016391254030168056
704.0,0.000504571944475174
768.0,-0.0002015749050769955
832.0,-2.721742021094542e-06
896.0,-0.00014079624088481069
960.0,-0.00016293393855448812
1024.0,6.243066309252754e-05
1152.0,0.00019578964565880597
1280.0,0.00014958427345845848
1408.0,-0.00011435028864070773
1536.0,-0.00019670395704451948
1664.0,0.00017145945457741618
1792.0,0.00034430736559443176
1920.0,8.552254439564422e-05
2048.0,-0.0001134645426645875
2304.0,-7.555223419331014e-05
2560.0,-0.0001484885870013386
2816.0,-0.0001554610498715192
3072.0,0.00026887425337918103
3328.0,-1.7548265532241203e-05
3584.0,-8.804732351563871e-05
3840.0,0.0001746019843267277
4096.0,-0.00029361603083088994
4608.0,4.6551867853850126e-05
5120.0,2.9457292839651927e-05
5632.0,0.0001313752291025594
6144.0,8.102395804598927e-05
6656.0,-0.0001479137281421572
7168.0,0.0001249562919838354
7680.0,-4.183616692898795e-05
8192.0,-0.0001943331299116835
end
