version,3.0
numOfCh,1
type,point
parent_name,0cd20_0dot08-1dot0
ch_type,1_1
kcount,1
numberNandB,1
brightnessNandB,1
carpet pos,0
pc,0
Time (ms),CH1 Auto-Correlation
1.0,0.0234358087182045
2.0,0.0232087392359972
3.0,0.02301710657775402
4.0,0.02283061295747757
5.0,0.02265053801238537
6.0,0.022479761391878128
7.0,0.02230902761220932
8.0,0.022150691598653793
9.0,0.02198977582156658
10.0,0.021831363439559937
11.0,0.02169192023575306
12.0,0.021543432027101517
13.0,0.021387631073594093
14.0,0.021241480484604836
15.0,0.021103601902723312
16.0,0.020966604351997375
18.0,0.020688049495220184
20.0,0.020432814955711365
22.0,0.0201780516654253
24.0,0.019940687343478203
26.0,0.019704200327396393
28.0,0.019469300284981728
30.0,0.019233601167798042
32.0,0.01899419166147709
36.0,0.01853698119521141
40.0,0.018071861937642097
44.0,0.017601720988750458
48.0,0.01712125539779663
52.0,0.016629980877041817
56.0,0.016136623919010162
60.0,0.015659742057323456
64.0,0.015216132625937462
72.0,0.014432727359235287
80.0,0.013787963427603245
88.0,0.013173254206776619
96.0,0.012500746175646782
104.0,0.011891426518559456
112.0,0.011309520341455936
120.0,0.010777468793094158
128.0,0.010317723266780376
144.0,0.00956001691520214
160.0,0.009041089564561844
176.0,0.00850499514490366
192.0,0.00806740764528513
208.0,0.00777910090982914
224.0,0.007617682684212923
240.0,0.007427578791975975
256.0,0.007143374532461166
288.0,0.006402673199772835
320.0,0.005708607845008373
352.0,0.005338091868907213
384.0,0.005274008493870497
416.0,0.004905723966658115
448.0,0.004543321672827005
480.0,0.004467058461159468
512.0,0.004737494979053736
576.0,0.004360380116850138
640.0,0.00383400940336287
704.0,0.002587172668427229
768.0,0.001987162744626403
832.0,0.0019941339269280434
896.0,0.001631593331694603
960.0,0.0008635618141852319
1024.0,0.0015226224204525352
1152.0,0.0034543611109256744
1280.0,0.0020944031421095133
1408.0,0.0007524651009589434
1536.0,-0.001315172528848052
1664.0,-0.0006603532820008695
1792.0,-0.0003731164906639606
1920.0,-0.0012948288349434733
2048.0,4.6909528464311734e-05
2304.0,0.001566146849654615
2560.0,0.002302400069311261
2816.0,0.0015590072143822908
3072.0,0.0023905220441520214
3328.0,0.0014673118712380528
3584.0,0.0008538896800018847
3840.0,-0.0019911087583750486
4096.0,-0.0026930212043225765
4608.0,-0.002126352395862341
5120.0,-0.0011229567462578416
5632.0,0.003303190693259239
6144.0,0.0012876450782641768
6656.0,0.0009549820679239929
7168.0,-0.0040013049729168415
7680.0,-0.004494069144129753
8192.0,-0.007814240641891956
end
