version,3.0
numOfCh,1
type,point
parent_name,0cd20_0dot08-1dot0
ch_type,1_1
kcount,1
numberNandB,1
brightnessNandB,1
carpet pos,0
pc,0
Time (ms),CH1 Auto-Correlation
1.0,0.03310754522681236
2.0,0.03284599259495735
3.0,0.03260526806116104
4.0,0.03237324580550194
5.0,0.03213764354586601
6.0,0.03192812204360962
7.0,0.03171120584011078
8.0,0.03150652348995209
9.0,0.03129081428050995
10.0,0.031079472973942757
11.0,0.030873771756887436
12.0,0.03067484311759472
13.0,0.030463892966508865
14.0,0.030267473310232162
15.0,0.03008771874010563
16.0,0.029906930401921272
18.0,0.02952921763062477
20.0,0.02918442152440548
22.0,0.028870951384305954
24.0,0.0285628754645586
26.0,0.0282735638320446
28.0,0.02799173817038536
30.0,0.027717629447579384
32.0,0.02746075578033924
36.0,0.026965634897351265
40.0,0.026450684294104576
44.0,0.025934601202607155
48.0,0.025470690801739693
52.0,0.024978499859571457
56.0,0.02449090965092182
60.0,0.0240482110530138
64.0,0.023660480976104736
72.0,0.022966112941503525
80.0,0.02222003974020481
88.0,0.02149871550500393
96.0,0.020868923515081406
104.0,0.020352894440293312
112.0,0.019882870838046074
120.0,0.01940479874610901
128.0,0.018948251381516457
144.0,0.018379641696810722
160.0,0.017826616764068604
176.0,0.017340824007987976
192.0,0.01679755002260208
208.0,0.01619676873087883
224.0,0.015504772774875164
240.0,0.014762939885258675
256.0,0.013841850683093071
288.0,0.012516509741544724
320.0,0.01096295565366745
352.0,0.00947070773690939
384.0,0.008805673569440842
416.0,0.00833170022815466
448.0,0.008108138106763363
480.0,0.007609039545059204
512.0,0.006868933327496052
576.0,0.004140252713114023
640.0,0.002441420452669263
704.0,0.0021155544091016054
768.0,0.0021743709221482277
832.0,0.001837200834415853
896.0,0.002593621611595154
960.0,0.0033541591838002205
1024.0,0.003271492663770914
1152.0,0.0032126104924827814
1280.0,0.0019522232469171286
1408.0,-0.000650764093734324
1536.0,-0.004299978259950876
1664.0,-0.00659375824034214
1792.0,-0.007014619652181864
1920.0,-0.007650990039110184
2048.0,-0.006054581142961979
2304.0,-0.0017109953332692385
2560.0,-0.0012051400262862444
2816.0,-0.0007737036794424057
3072.0,-0.0006759317475371063
3328.0,0.00031077387393452227
3584.0,0.0001647999742999673
3840.0,0.0006704292609356344
4096.0,0.000626791559625417
4608.0,0.0004978693905286491
5120.0,0.002247117692604661
5632.0,-0.0010994154727086425
6144.0,-0.004785323981195688
6656.0,-0.007780926302075386
7168.0,-0.01186284702271223
7680.0,-0.0035228729248046875
8192.0,0.0008499042596668005
end
