version,3.0
numOfCh,1
type,point
parent_name,0cd20_0dot08-1dot0
ch_type,1_1
kcount,1
numberNandB,1
brightnessNandB,1
carpet pos,0
pc,0
Time (ms),CH1 Auto-Correlation
1.0,0.02396766096353531
2.0,0.02373236045241356
3.0,0.023528752848505974
4.0,0.02332695573568344
5.0,0.02312757447361946
6.0,0.022940291091799736
7.0,0.02277442254126072
8.0,0.022606804966926575
9.0,0.022432466968894005
10.0,0.02226787433028221
11.0,0.022113056853413582
12.0,0.021963484585285187
13.0,0.021812589839100838
14.0,0.02166071906685829
15.0,0.021514421328902245
16.0,0.021372033283114433
18.0,0.021105989813804626
20.0,0.020863637328147888
22.0,0.02061213180422783
24.0,0.020369984209537506
26.0,0.020136304199695587
28.0,0.019904043525457382
30.0,0.019669432193040848
32.0,0.019435809925198555
36.0,0.018997523933649063
40.0,0.018598375841975212
44.0,0.018228571861982346
48.0,0.01785758137702942
52.0,0.017469899728894234
56.0,0.01710919663310051
60.0,0.01677045226097107
64.0,0.016454927623271942
72.0,0.015741143375635147
80.0,0.015046283602714539
88.0,0.01451384462416172
96.0,0.0140195582062006
104.0,0.013500022701919079
112.0,0.013048022985458374
120.0,0.012655647471547127
128.0,0.012265934608876705
144.0,0.01157301850616932
160.0,0.01116164680570364
176.0,0.010820909403264523
192.0,0.01029216405004263
208.0,0.009622031822800636
224.0,0.009069498628377914
240.0,0.008666463196277618
256.0,0.008285222575068474
288.0,0.007340808864682913
320.0,0.006319273263216019
352.0,0.00519057922065258
384.0,0.004235172178596258
416.0,0.0032388283871114254
448.0,0.002688026987016201
480.0,0.002625568537041545
512.0,0.0028165217954665422
576.0,0.0023381568025797606
640.0,0.0011215765262022614
704.0,0.0008048434392549098
768.0,4.606207585311495e-05
832.0,-1.035681452776771e-05
896.0,0.0009545883513055742
960.0,0.0015613355208188295
1024.0,0.0025688139721751213
1152.0,0.003549683839082718
1280.0,0.004730389919131994
1408.0,0.00359779573045671
1536.0,0.0021731252782046795
1664.0,0.001572900335304439
1792.0,0.0003562909842003137
1920.0,-0.00026857820921577513
2048.0,-0.001149986288510263
2304.0,-0.00187429238576442
2560.0,-0.004065119195729494
2816.0,-0.004300609230995178
3072.0,-0.005123317241668701
3328.0,-0.0023104960564523935
3584.0,0.0008981712744571269
3840.0,0.0016018589958548546
4096.0,-0.0006366040324792266
4608.0,-0.0005435895873233676
5120.0,0.002377354074269533
5632.0,0.0023977230302989483
6144.0,-0.002344002015888691
6656.0,-0.002965634223073721
7168.0,-0.001142252003774047
7680.0,-0.004509567283093929
8192.0,0.00013882204075343907
end
