version,3.0
numOfCh,1
type,point
parent_name,0cd20_0dot08-1dot0
ch_type,1_1
kcount,1
numberNandB,1
brightnessNandB,1
carpet pos,0
pc,0
Time (ms),CH1 Auto-Correlation
1.0,0.020870918408036232
2.0,0.020678870379924774
3.0,0.020502040162682533
4.0,0.020333990454673767
5.0,0.02017263136804104
6.0,0.02001776546239853
7.0,0.019869215786457062
8.0,0.019721360877156258
9.0,0.019573774188756943
10.0,0.01942874863743782
11.0,0.019294943660497665
12.0,0.019171183928847313
13.0,0.019048422574996948
14.0,0.018930580466985703
15.0,0.01880677603185177
16.0,0.018683912232518196
18.0,0.018447820097208023
20.0,0.01821819134056568
22.0,0.017996329814195633
24.0,0.01778084971010685
26.0,0.017574898898601532
28.0,0.017368484288454056
30.0,0.017157483845949173
32.0,0.016958897933363914
36.0,0.016577638685703278
40.0,0.016197506338357925
44.0,0.0158312376588583
48.0,0.015480771660804749
52.0,0.015137680806219578
56.0,0.01479325257241726
60.0,0.014457615092396736
64.0,0.014158496633172035
72.0,0.013642107136547565
80.0,0.013095259666442871
88.0,0.01256032008677721
96.0,0.012008153833448887
104.0,0.01145645696669817
112.0,0.010969460010528564
120.0,0.010531469248235226
128.0,0.0100874537602067
144.0,0.00920474249869585
160.0,0.008523463271558285
176.0,0.007887279614806175
192.0,0.007390496786683798
208.0,0.006860239896923304
224.0,0.0062950304709374905
240.0,0.005782188847661018
256.0,0.005342716351151466
288.0,0.00471049640327692
320.0,0.004231547471135855
352.0,0.0040176911279559135
384.0,0.003985620569437742
416.0,0.0039428602904081345
448.0,0.003845899598672986
480.0,0.0035034583415836096
512.0,0.0033265771344304085
576.0,0.0033839091192930937
640.0,0.0032601277343928814
704.0,0.003388749435544014
768.0,0.0024845136795192957
832.0,0.0013459862675517797
896.0,0.000802353722974658
960.0,-0.00014084654685575515
1024.0,-0.0004076001641806215
1152.0,0.0009214086458086967
1280.0,0.001415678416378796
1408.0,0.0011838681530207396
1536.0,-0.000477028195746243
1664.0,-0.0013249991461634636
1792.0,-0.0012352982303127646
1920.0,-0.001999573316425085
2048.0,-0.002667108317837119
2304.0,-0.0029542269185185432
2560.0,-0.0019370426889508963
2816.0,-0.0013440180337056518
3072.0,-0.0017412572633475065
3328.0,-0.0007184772985056043
3584.0,-0.0008751522400416434
3840.0,0.0003645436663646251
4096.0,-0.00021626963280141354
4608.0,-0.0018801806727424264
5120.0,-0.002392528811469674
5632.0,-0.0028824121691286564
6144.0,-0.0024766011629253626
6656.0,0.0012681905645877123
7168.0,0.005643309559673071
7680.0,0.003484987886622548
8192.0,0.0033829202875494957
end
