version,3.0
numOfCh,1
type,point
parent_name,0cd20_0dot08-1dot0
ch_type,1_1
kcount,1
numberNandB,1
brightnessNandB,1
carpet pos,0
pc,0
Time (ms),CH1 Auto-Correlation
1.0,0.021686304360628128
2.0,0.02146959863603115
3.0,0.021264750510454178
4.0,0.021075129508972168
5.0,0.020888615399599075
6.0,0.020706970244646072
7.0,0.020535534247756004
8.0,0.020367776975035667
9.0,0.02020290121436119
10.0,0.02003938890993595
11.0,0.01987522654235363
12.0,0.019702084362506866
13.0,0.01953868567943573
14.0,0.019374383613467216
15.0,0.01921880804002285
16.0,0.019068649038672447
18.0,0.018775934353470802
20.0,0.01849285513162613
22.0,0.018224263563752174
24.0,0.017967572435736656
26.0,0.017718464136123657
28.0,0.01747787743806839
30.0,0.017238978296518326
32.0,0.0169996190816164
36.0,0.016537247225642204
40.0,0.01608794368803501
44.0,0.015666868537664413
48.0,0.015226430259644985
52.0,0.014775979332625866
56.0,0.014326320961117744
60.0,0.013880296610295773
64.0,0.013476090505719185
72.0,0.012757879681885242
80.0,0.012124151922762394
88.0,0.011603930965065956
96.0,0.011084161698818207
104.0,0.01055463869124651
112.0,0.010062266141176224
120.0,0.009649621322751045
128.0,0.009325304999947548
144.0,0.008719953708350658
160.0,0.008107244968414307
176.0,0.007595018483698368
192.0,0.007230734918266535
208.0,0.006915002595633268
224.0,0.006572441663593054
240.0,0.006439352873712778
256.0,0.006333493161946535
288.0,0.005525853484869003
320.0,0.004952298477292061
352.0,0.004537512548267841
384.0,0.0037185433320701122
416.0,0.0028276625089347363
448.0,0.002127596875652671
480.0,0.002030994277447462
512.0,0.0021521185990422964
576.0,0.0020625567995011806
640.0,0.001763313659466803
704.0,0.0006064175395295024
768.0,-0.000788420788012445
832.0,-0.001040877541527152
896.0,-0.000479976850328967
960.0,-0.0009172569261863828
1024.0,-0.002272906480357051
1152.0,-0.0023210113868117332
1280.0,-0.0011018072254955769
1408.0,0.0001487371337134391
1536.0,6.300242966972291e-05
1664.0,-0.00010610139725031331
1792.0,0.00023069030430633575
1920.0,-0.0007029340486042202
2048.0,-0.001655603526160121
2304.0,-0.0002646515495143831
2560.0,0.0013693533837795258
2816.0,-0.00012957231956534088
3072.0,-0.003900868119671941
3328.0,-0.005709694232791662
3584.0,-0.005305638071149588
3840.0,-0.0028506757225841284
4096.0,0.000833548023365438
4608.0,0.0029069094453006983
5120.0,0.0007152299513109028
5632.0,0.0009151753620244563
6144.0,5.542835788219236e-05
6656.0,0.0003763673303183168
7168.0,0.0014789659762755036
7680.0,-0.0032949934247881174
8192.0,-0.005600010510534048
end
