version,3.0
numOfCh,1
type,point
parent_name,0cd20_0dot08-1dot0
ch_type,1_1
kcount,1
numberNandB,1
brightnessNandB,1
carpet pos,0
pc,0
Time (ms),CH1 Auto-Correlation
1.0,0.019340861588716507
2.0,0.01913522742688656
3.0,0.018938658758997917
4.0,0.01874067448079586
5.0,0.018550453707575798
6.0,0.018363719806075096
7.0,0.018188951537013054
8.0,0.018015462905168533
9.0,0.017850544303655624
10.0,0.017687829211354256
11.0,0.017523840069770813
12.0,0.017369477078318596
13.0,0.01721760630607605
14.0,0.017068859189748764
15.0,0.0169222354888916
16.0,0.016776055097579956
18.0,0.01649964228272438
20.0,0.016236625611782074
22.0,0.015981212258338928
24.0,0.01572592556476593
26.0,0.0154750170186162
28.0,0.015238666906952858
30.0,0.0149976946413517
32.0,0.014766211621463299
36.0,0.01432084571570158
40.0,0.01388805452734232
44.0,0.013441723771393299
48.0,0.012987521477043629
52.0,0.012533405795693398
56.0,0.012046421878039837
60.0,0.011580690741539001
64.0,0.011156242340803146
72.0,0.010342760942876339
80.0,0.009576134383678436
88.0,0.008916450664401054
96.0,0.008408302441239357
104.0,0.008031115867197514
112.0,0.0077114165760576725
120.0,0.007291973102837801
128.0,0.006851494312286377
144.0,0.006178047973662615
160.0,0.005682157352566719
176.0,0.005303965415805578
192.0,0.004946087021380663
208.0,0.004703296814113855
224.0,0.004398602060973644
240.0,0.0041886805556714535
256.0,0.004038546234369278
288.0,0.003921781666576862
320.0,0.003867983352392912
352.0,0.004039403982460499
384.0,0.004277649335563183
416.0,0.004479949362576008
448.0,0.004013819620013237
480.0,0.0029330807738006115
512.0,0.0018440246349200606
576.0,0.0009849902708083391
640.0,0.0006906692287884653
704.0,0.0004346775822341442
768.0,0.000530630408320576
832.0,-9.733276237966493e-05
896.0,-0.0005531234201043844
960.0,-0.0006096092402003706
1024.0,-0.0015679766656830907
1152.0,-0.001448704395443201
1280.0,0.0005161302397027612
1408.0,0.00041554158087819815
1536.0,-0.0006003123708069324
1664.0,-0.001480849925428629
1792.0,-0.002024965127930045
1920.0,-8.86926063685678e-05
2048.0,-0.0009992404375225306
2304.0,-0.0018369994359090924
2560.0,0.00039231832488439977
2816.0,0.001468873000703752
3072.0,0.0007622597622685134
3328.0,0.0005427589640021324
3584.0,-0.002818433800712228
3840.0,-0.002183979842811823
4096.0,-0.0006104971398599446
4608.0,0.0015221000649034977
5120.0,0.0011520662810653448
5632.0,-0.0010047998512163758
6144.0,-0.003458636114373803
6656.0,-0.0049257040955126286
7168.0,-0.0039414772763848305
7680.0,0.0017620398430153728
8192.0,0.0026943993289023638
end
