version,3.0
numOfCh,1
type,point
parent_name,0cd20_0dot08-1dot0
ch_type,1_1
kcount,1
numberNandB,1
brightnessNandB,1
carpet pos,0
pc,0
Time (ms),CH1 Auto-Correlation
1.0,0.02184411510825157
2.0,0.021628672257065773
3.0,0.021424639970064163
4.0,0.021233320236206055
5.0,0.021055404096841812
6.0,0.02087920904159546
7.0,0.02071000263094902
8.0,0.020541613921523094
9.0,0.0203834380954504
10.0,0.02023717574775219
11.0,0.02009427361190319
12.0,0.01994904689490795
13.0,0.019804826006293297
14.0,0.01966315507888794
15.0,0.01952226832509041
16.0,0.0193773340433836
18.0,0.01909570023417473
20.0,0.018822627142071724
22.0,0.018562983721494675
24.0,0.018308991566300392
26.0,0.018058205023407936
28.0,0.01781936176121235
30.0,0.017591465264558792
32.0,0.01737176813185215
36.0,0.01694597862660885
40.0,0.016572926193475723
44.0,0.01624656841158867
48.0,0.015927212312817574
52.0,0.015618858858942986
56.0,0.015294773504137993
60.0,0.014958810992538929
64.0,0.014605908654630184
72.0,0.013909545727074146
80.0,0.013227635063230991
88.0,0.012646309100091457
96.0,0.012127088382840157
104.0,0.011655803769826889
112.0,0.011159386485815048
120.0,0.010673529468476772
128.0,0.010183217003941536
144.0,0.009192369878292084
160.0,0.008287128061056137
176.0,0.007382360752671957
192.0,0.0064334562048316
208.0,0.005704043433070183
224.0,0.005045213736593723
240.0,0.004463584627956152
256.0,0.004088313784450293
288.0,0.003465241054072976
320.0,0.0025433963164687157
352.0,0.001369559788145125
384.0,0.00036258980981074274
416.0,-0.0009317065123468637
448.0,-0.0020999200642108917
480.0,-0.0027810540050268173
512.0,-0.0030683944933116436
576.0,-0.003164045512676239
640.0,-0.003912735730409622
704.0,-0.0037259296514093876
768.0,-0.0031126465182751417
832.0,-0.0024438833352178335
896.0,-0.002038768259808421
960.0,-0.0023969756439328194
1024.0,-0.00246884161606431
1152.0,-0.0022800767328590155
1280.0,-0.00271249539218843
1408.0,-0.0023538556415587664
1536.0,-0.0029948630835860968
1664.0,-0.0030581702012568712
1792.0,-0.0014941762201488018
1920.0,0.0006822853465564549
2048.0,0.002762298099696636
2304.0,0.0036205551587045193
2560.0,0.0014158330159261823
2816.0,2.7500389478518628e-05
3072.0,-0.0021695003379136324
3328.0,-0.0030954445246607065
3584.0,-0.003045890247449279
3840.0,-0.00036281615030020475
4096.0,0.0002386417327215895
4608.0,0.0021588027011603117
5120.0,-0.0021960323210805655
5632.0,-0.003198969643563032
6144.0,0.0030804667621850967
6656.0,0.001759043545462191
7168.0,0.003080967580899596
7680.0,-0.0013892297865822911
8192.0,-0.0007166517316363752
end
