version,3.0
numOfCh,1
type,point
parent_name,0cd20_0dot08-1dot0
ch_type,1_1
kcount,1
numberNandB,1
brightnessNandB,1
carpet pos,0
pc,0
Time (ms),CH1 Auto-Correlation
1.0,0.023058630526065826
2.0,0.022312195971608162
3.0,0.02161056362092495
4.0,0.02125345729291439
5.0,0.021060248836874962
6.0,0.02078521065413952
7.0,0.020633798092603683
8.0,0.02047516219317913
9.0,0.020347757264971733
10.0,0.02023961767554283
11.0,0.019991740584373474
12.0,0.019603125751018524
13.0,0.0193905271589756
14.0,0.019245078787207603
15.0,0.019089920446276665
16.0,0.0188897792249918
18.0,0.018512634560465813
20.0,0.01850547082722187
22.0,0.01811274327337742
24.0,0.017686650156974792
26.0,0.0173680130392313
28.0,0.017007384449243546
30.0,0.01694939099252224
32.0,0.016770480200648308
36.0,0.016109054908156395
40.0,0.015667688101530075
44.0,0.014937754720449448
48.0,0.014531523920595646
52.0,0.014089018106460571
56.0,0.013745114207267761
60.0,0.013232164084911346
64.0,0.01238417811691761
72.0,0.01140272244811058
80.0,0.010582972317934036
88.0,0.009916814975440502
96.0,0.009326104074716568
104.0,0.008780173026025295
112.0,0.008330496028065681
120.0,0.007753417827188969
128.0,0.007266433909535408
144.0,0.006475020200014114
160.0,0.006191559601575136
176.0,0.005958959925919771
192.0,0.005701607558876276
208.0,0.005496077239513397
224.0,0.005191315896809101
240.0,0.004485362209379673
256.0,0.003987886477261782
288.0,0.0031254696659743786
320.0,0.0027132797986268997
352.0,0.002516756532713771
384.0,0.0025480100885033607
416.0,0.002770170336589217
448.0,0.002682593883946538
480.0,0.002170625841245055
512.0,0.001435517449863255
576.0,0.00038735990528948605
640.0,-0.0012048325734212995
704.0,-0.0020722700282931328
768.0,-0.0014972318895161152
832.0,-0.0002849282172974199
896.0,-0.0002908115857280791
960.0,-0.00012666529801208526
1024.0,0.0005207115318626165
1152.0,-0.000630505383014679
1280.0,0.0007043936057016253
1408.0,0.0012796769151464105
1536.0,0.0015254828613251448
1664.0,0.0022307648323476315
1792.0,0.0017316907178610563
1920.0,0.0006263658870011568
2048.0,-0.000859921972732991
2304.0,8.778439951129258e-05
2560.0,-0.0029463418759405613
2816.0,-0.0010673836804926395
3072.0,-0.001796643016859889
3328.0,-0.0013811783865094185
3584.0,-0.0017632272792980075
3840.0,8.817140042083338e-05
4096.0,0.001425726804882288
4608.0,-0.0016437512822449207
5120.0,-0.003745735390111804
5632.0,-0.0006853926461189985
6144.0,0.00017578406550455838
6656.0,-0.0012128830421715975
7168.0,0.0005812912131659687
7680.0,0.0016017371090129018
8192.0,0.0008046815637499094
end
