version,3.0
numOfCh,1
type,point
parent_name,0cd20_0dot08-1dot0
ch_type,1_1
kcount,1
numberNandB,1
brightnessNandB,1
carpet pos,0
pc,0
Time (ms),CH1 Auto-Correlation
1.0,0.02412419579923153
2.0,0.023836269974708557
3.0,0.023484976962208748
4.0,0.023232584819197655
5.0,0.02302655205130577
6.0,0.022873273119330406
7.0,0.022764166817069054
8.0,0.02264575846493244
9.0,0.022501962259411812
10.0,0.022266915068030357
11.0,0.022051986306905746
12.0,0.02180757373571396
13.0,0.021631082519888878
14.0,0.021440057083964348
15.0,0.02129272371530533
16.0,0.021187826991081238
18.0,0.02087044157087803
20.0,0.020545238628983498
22.0,0.02022794634103775
24.0,0.01989719085395336
26.0,0.019600391387939453
28.0,0.01927603967487812
30.0,0.018958942964673042
32.0,0.018676619976758957
36.0,0.018239932134747505
40.0,0.017594292759895325
44.0,0.017099453136324883
48.0,0.016585754230618477
52.0,0.016111057251691818
56.0,0.01564754918217659
60.0,0.015174341388046741
64.0,0.014716285280883312
72.0,0.01394740305840969
80.0,0.013208732008934021
88.0,0.012614124454557896
96.0,0.012133318930864334
104.0,0.011715997010469437
112.0,0.011306890286505222
120.0,0.010929582640528679
128.0,0.010565929114818573
144.0,0.009810104966163635
160.0,0.00896165706217289
176.0,0.008172226138412952
192.0,0.0076072439551353455
208.0,0.007224005647003651
224.0,0.0067543270997703075
240.0,0.006309347692877054
256.0,0.005952988285571337
288.0,0.005616824608296156
320.0,0.005585355684161186
352.0,0.005578034557402134
384.0,0.0058925943449139595
416.0,0.006250954233109951
448.0,0.006103929132223129
480.0,0.00534913269802928
512.0,0.0037642016541212797
576.0,0.0018532875692471862
640.0,0.0008247770019806921
704.0,0.0005408665165305138
768.0,0.0004936396144330502
832.0,0.0002928005997091532
896.0,0.0002006226422963664
960.0,-0.00013182093971408904
1024.0,0.0002466222213115543
1152.0,0.0014990459894761443
1280.0,0.0016604915726929903
1408.0,0.0012091663666069508
1536.0,-0.00034841473097912967
1664.0,-0.0004974239272996783
1792.0,-0.0012582060880959034
1920.0,-0.0016780769219622016
2048.0,-0.0032191858626902103
2304.0,0.00021044049935881048
2560.0,0.0029725844506174326
2816.0,0.004351451061666012
3072.0,0.0023577865213155746
3328.0,0.00029397913021966815
3584.0,-0.0008621113956905901
3840.0,-0.0003717280342243612
4096.0,-0.0031880394089967012
4608.0,-0.004860077518969774
5120.0,-0.0022626372519880533
5632.0,-0.0013747313059866428
6144.0,0.0023223333992064
6656.0,0.0005830011214129627
7168.0,-0.0017943769926205277
7680.0,-0.0018157170852646232
8192.0,-0.0037196886260062456
end
