version,3.0
numOfCh,1
type,point
parent_name,0cd20_0dot08-1dot0
ch_type,1_1
kcount,1
numberNandB,1
brightnessNandB,1
carpet pos,0
pc,0
Time (ms),CH1 Auto-Correlation
1.0,0.021910924464464188
2.0,0.021683627739548683
3.0,0.02147337980568409
4.0,0.02128417231142521
5.0,0.021103523671627045
6.0,0.020915301516652107
7.0,0.020724859088659286
8.0,0.020544027909636497
9.0,0.02036929689347744
10.0,0.020196160301566124
11.0,0.02003468945622444
12.0,0.019871292635798454
13.0,0.019709616899490356
14.0,0.019547972828149796
15.0,0.019389759749174118
16.0,0.019244607537984848
18.0,0.01894969306886196
20.0,0.018655046820640564
22.0,0.018363114446401596
24.0,0.018086986616253853
26.0,0.017830029129981995
28.0,0.017581352964043617
30.0,0.017350604757666588
32.0,0.017130915075540543
36.0,0.0166973527520895
40.0,0.016277294605970383
44.0,0.015879372134804726
48.0,0.0154807073995471
52.0,0.0150672672316432
56.0,0.014688799157738686
60.0,0.014352784492075443
64.0,0.014042290858924389
72.0,0.013449233956634998
80.0,0.01291443407535553
88.0,0.012407045811414719
96.0,0.0119352200999856
104.0,0.011522193439304829
112.0,0.011150671169161797
120.0,0.01070778165012598
128.0,0.010279378853738308
144.0,0.009863622486591339
160.0,0.009407266974449158
176.0,0.00880143791437149
192.0,0.007922841235995293
208.0,0.0072473143227398396
224.0,0.006842755246907473
240.0,0.006426149047911167
256.0,0.00595666142180562
288.0,0.00508264172822237
320.0,0.003972044680267572
352.0,0.002887570997700095
384.0,0.0025412996765226126
416.0,0.0023634640965610743
448.0,0.0020264089107513428
480.0,0.001622537849470973
512.0,0.000996312010101974
576.0,0.00034692540066316724
640.0,-0.0011392468586564064
704.0,-0.001931130071170628
768.0,-0.0018802405102178454
832.0,-0.0017744312062859535
896.0,-0.0020648103673011065
960.0,-0.002898343140259385
1024.0,-0.00408410606905818
1152.0,-0.004901316482573748
1280.0,-0.004511331208050251
1408.0,-0.004676918499171734
1536.0,-0.005888603162020445
1664.0,-0.005426047835499048
1792.0,-0.004129073582589626
1920.0,-0.0026161738205701113
2048.0,-0.0011992924846708775
2304.0,0.0028214347548782825
2560.0,0.004672916140407324
2816.0,0.0032221898436546326
3072.0,0.0010793681722134352
3328.0,-0.0013023637002333999
3584.0,-0.0030664100777357817
3840.0,-0.0045329793356359005
4096.0,-0.003947860095649958
4608.0,0.0018126069335266948
5120.0,0.0025407630018889904
5632.0,0.0015192382270470262
6144.0,-0.0031035463325679302
6656.0,0.0008586751646362245
7168.0,0.002550005679950118
7680.0,0.0013677732786163688
8192.0,-0.003905656049028039
end
