version,3.0
numOfCh,1
type,point
parent_name,0cd20_0dot08-1dot0
ch_type,1_1
kcount,1
numberNandB,1
brightnessNandB,1
carpet pos,0
pc,0
Time (ms),CH1 Auto-Correlation
1.0,0.021932199597358704
2.0,0.021722812205553055
3.0,0.021537089720368385
4.0,0.02135351672768593
5.0,0.021169958636164665
6.0,0.020995503291487694
7.0,0.020820124074816704
8.0,0.020650740712881088
9.0,0.020486682653427124
10.0,0.02031552977859974
11.0,0.020148880779743195
12.0,0.019987927749753
13.0,0.019820593297481537
14.0,0.019658710807561874
15.0,0.019506052136421204
16.0,0.01934584230184555
18.0,0.019033053889870644
20.0,0.018734397366642952
22.0,0.018453117460012436
24.0,0.018183652311563492
26.0,0.017914602532982826
28.0,0.0176582969725132
30.0,0.01741447113454342
32.0,0.017167095094919205
36.0,0.016715621575713158
40.0,0.016277236863970757
44.0,0.015869246795773506
48.0,0.01549652311950922
52.0,0.015143832191824913
56.0,0.01480147149413824
60.0,0.014462358318269253
64.0,0.014129282906651497
72.0,0.013560383580625057
80.0,0.012983350083231926
88.0,0.012436581775546074
96.0,0.011915027163922787
104.0,0.011399331502616405
112.0,0.010902528651058674
120.0,0.01049876119941473
128.0,0.010125367902219296
144.0,0.009524560533463955
160.0,0.008933589793741703
176.0,0.008494243025779724
192.0,0.008287548087537289
208.0,0.00805047620087862
224.0,0.007863895036280155
240.0,0.007695843931287527
256.0,0.007545888889580965
288.0,0.007196245715022087
320.0,0.006569785997271538
352.0,0.005873765330761671
384.0,0.004962654784321785
416.0,0.004291824530810118
448.0,0.003854196984320879
480.0,0.0034366196487098932
512.0,0.0028384646866470575
576.0,0.0019032057607546449
640.0,0.001050271326676011
704.0,0.0005390053847804666
768.0,0.0002804908435791731
832.0,0.0003730218159034848
896.0,0.0005872024339623749
960.0,0.0006079059094190598
1024.0,0.0002559456625021994
1152.0,0.0003833793743979186
1280.0,0.00026815448654815555
1408.0,0.0007801786996424198
1536.0,-0.0009500160231254995
1664.0,-0.000458858092315495
1792.0,-0.0005679668975062668
1920.0,-0.0004439956392161548
2048.0,-0.0010631916811689734
2304.0,0.00011369428102625534
2560.0,0.0033757262863218784
2816.0,0.004953999072313309
3072.0,0.002462587086483836
3328.0,-0.002246792195364833
3584.0,-0.004201412200927734
3840.0,-0.004344979766756296
4096.0,-0.0037352044600993395
4608.0,-0.0004610614851117134
5120.0,-0.001141006126999855
5632.0,0.00039404549170285463
6144.0,-0.0028571058064699173
6656.0,-0.005666007753461599
7168.0,-0.0028801318258047104
7680.0,-0.002504277741536498
8192.0,-0.002534606261178851
end
