version,3.0
numOfCh,1
type,point
parent_name,0cd20_0dot08-1dot0
ch_type,1_1
kcount,1
numberNandB,1
brightnessNandB,1
carpet pos,0
pc,0
Time (ms),CH1 Auto-Correlation
1.0,0.021771222352981567
2.0,0.021571021527051926
3.0,0.02138320915400982
4.0,0.02120601199567318
5.0,0.02103535085916519
6.0,0.0208671186119318
7.0,0.020707057788968086
8.0,0.02053583227097988
9.0,0.02037685737013817
10.0,0.020218802616000175
11.0,0.02006760612130165
12.0,0.01991317979991436
13.0,0.019767237827181816
14.0,0.019618136808276176
15.0,0.019465193152427673
16.0,0.019311580806970596
18.0,0.019008973613381386
20.0,0.018728874623775482
22.0,0.018439222127199173
24.0,0.01815260574221611
26.0,0.017877904698252678
28.0,0.017609553411602974
30.0,0.017343958839774132
32.0,0.017095495015382767
36.0,0.016643894836306572
40.0,0.01619816944003105
44.0,0.015759816393256187
48.0,0.01532262284308672
52.0,0.014919087290763855
56.0,0.014544909819960594
60.0,0.014184183441102505
64.0,0.01384231448173523
72.0,0.013264086097478867
80.0,0.012789004482328892
88.0,0.012286488898098469
96.0,0.01179043110460043
104.0,0.011282054707407951
112.0,0.010709920898079872
120.0,0.010144675150513649
128.0,0.009648926556110382
144.0,0.008882113732397556
160.0,0.008201872929930687
176.0,0.007755568716675043
192.0,0.007424266543239355
208.0,0.006995223928242922
224.0,0.006600443739444017
240.0,0.00616625277325511
256.0,0.005681643262505531
288.0,0.00555026438087225
320.0,0.005998989101499319
352.0,0.006521690636873245
384.0,0.006433108355849981
416.0,0.006062914151698351
448.0,0.005597554612904787
480.0,0.005374385509639978
512.0,0.005260818637907505
576.0,0.004989394452422857
640.0,0.005194854456931353
704.0,0.005550500471144915
768.0,0.006410660222172737
832.0,0.006776949390769005
896.0,0.005655692424625158
960.0,0.003989513963460922
1024.0,0.0023167927283793688
1152.0,0.0006764968857169151
1280.0,-0.0014520271215587854
1408.0,-0.0019553741440176964
1536.0,-0.001485859276726842
1664.0,-0.0012100491439923644
1792.0,-0.0017093095229938626
1920.0,-0.00230835541151464
2048.0,-0.0027530519291758537
2304.0,-0.0014655223349109292
2560.0,-0.0014744341606274247
2816.0,-0.00040180596988648176
3072.0,0.0006122488994151354
3328.0,-0.00038573466008529067
3584.0,-0.0014261746546253562
3840.0,-0.0014468677109107375
4096.0,-0.0011332606663927436
4608.0,-0.0033794203773140907
5120.0,-0.0023569874465465546
5632.0,-0.00026926645659841597
6144.0,0.001217053853906691
6656.0,0.002552039921283722
7168.0,-0.0010389123344793916
7680.0,-0.0004583784902933985
8192.0,0.0002375013573328033
end
