version,3.0
numOfCh,1
type,point
parent_name,0cd20_0dot08-1dot0
ch_type,1_1
kcount,1
numberNandB,1
brightnessNandB,1
carpet pos,0
pc,0
Time (ms),CH1 Auto-Correlation
1.0,0.018149591982364655
2.0,0.01789843663573265
3.0,0.017663944512605667
4.0,0.017448334023356438
5.0,0.017233479768037796
6.0,0.017041003331542015
7.0,0.016848383471369743
8.0,0.016662102192640305
9.0,0.016474124044179916
10.0,0.016299039125442505
11.0,0.016131781041622162
12.0,0.0159697774797678
13.0,0.015829265117645264
14.0,0.015674814581871033
15.0,0.015524021349847317
16.0,0.01535903662443161
18.0,0.015036522410809994
20.0,0.014732982963323593
22.0,0.014448613859713078
24.0,0.014170531183481216
26.0,0.013923043385148048
28.0,0.013679280877113342
30.0,0.013451150618493557
32.0,0.013211430050432682
36.0,0.012726020999252796
40.0,0.012268000282347202
44.0,0.011833127588033676
48.0,0.01139555498957634
52.0,0.010960042476654053
56.0,0.01053584460169077
60.0,0.010113099589943886
64.0,0.009706194512546062
72.0,0.00893041305243969
80.0,0.00818441342562437
88.0,0.007523994892835617
96.0,0.006989144720137119
104.0,0.006517244968563318
112.0,0.006050474010407925
120.0,0.005517431069165468
128.0,0.005055039189755917
144.0,0.004290604032576084
160.0,0.0036912807263433933
176.0,0.003316479967907071
192.0,0.0028148882556706667
208.0,0.0020494030322879553
224.0,0.0014388329582288861
240.0,0.0008832357707433403
256.0,0.0003883776953443885
288.0,-0.00044214571244083345
320.0,-0.001341740950010717
352.0,-0.002231576945632696
384.0,-0.0025196901988238096
416.0,-0.002058077370747924
448.0,-0.0013899124460294843
480.0,-0.0008937027305364609
512.0,-0.0011241274187341332
576.0,-0.0014371956931427121
640.0,-0.0010734909446910024
704.0,-0.0005822264356538653
768.0,-0.0003901694144587964
832.0,0.00026613540831021965
896.0,0.00023205675825010985
960.0,0.000507739488966763
1024.0,0.0003451238153502345
1152.0,-0.0002503252471797168
1280.0,0.0003785339940804988
1408.0,0.0003092617553193122
1536.0,0.000576066377107054
1664.0,0.0019502554787322879
1792.0,0.0014629942597821355
1920.0,0.0007279874989762902
2048.0,-0.000998633448034525
2304.0,-0.0008139769779518247
2560.0,0.0006268267752602696
2816.0,-0.00027474420494399965
3072.0,-0.0004333025717642158
3328.0,-0.00018442455620970577
3584.0,-0.000507740827742964
3840.0,-0.0006741135730408132
4096.0,-0.0005704042850993574
4608.0,8.786635589785874e-06
5120.0,0.0005733229918405414
5632.0,0.0008567181066609919
6144.0,-0.0005047792219556868
6656.0,-0.0005854314076714218
7168.0,-0.0007023784564808011
7680.0,-0.0002695211733225733
8192.0,-0.0008098461548797786
end
