version,3.0
numOfCh,1
type,point
parent_name,0cd20_0dot08-1dot0
ch_type,1_1
kcount,1
numberNandB,1
brightnessNandB,1
carpet pos,0
pc,0
Time (ms),CH1 Auto-Correlation
1.0,0.02329912595450878
2.0,0.023065509274601936
3.0,0.022843237966299057
4.0,0.022633284330368042
5.0,0.022431449964642525
6.0,0.022243408486247063
7.0,0.02204880490899086
8.0,0.021880613639950752
9.0,0.021696731448173523
10.0,0.02150529809296131
11.0,0.02132393606007099
12.0,0.02115168608725071
13.0,0.02099381946027279
14.0,0.02084660530090332
15.0,0.02068326063454151
16.0,0.02051163651049137
18.0,0.020192649215459824
20.0,0.019875872880220413
22.0,0.019555818289518356
24.0,0.019260982051491737
26.0,0.018968850374221802
28.0,0.018694115802645683
30.0,0.018431298434734344
32.0,0.01817205734550953
36.0,0.017705537378787994
40.0,0.017297960817813873
44.0,0.016882453113794327
48.0,0.01648082584142685
52.0,0.01610097661614418
56.0,0.015709925442934036
60.0,0.015321090817451477
64.0,0.014966997317969799
72.0,0.014337446540594101
80.0,0.01372477039694786
88.0,0.013173622079193592
96.0,0.012705504894256592
104.0,0.012314971536397934
112.0,0.011971513740718365
120.0,0.01160376239567995
128.0,0.011265618726611137
144.0,0.010546303354203701
160.0,0.00978066399693489
176.0,0.00919117871671915
192.0,0.008636931888759136
208.0,0.008160701021552086
224.0,0.007702013943344355
240.0,0.007184681948274374
256.0,0.00659173121675849
288.0,0.005656443070620298
320.0,0.00502771558240056
352.0,0.0044588567689061165
384.0,0.003858192590996623
416.0,0.0032658479176461697
448.0,0.0026908188592642546
480.0,0.002082249615341425
512.0,0.0016300973948091269
576.0,0.0010668586473912
640.0,0.0013119905488565564
704.0,0.0008977639954537153
768.0,0.0013130968436598778
832.0,0.0027735852636396885
896.0,0.004239814355969429
960.0,0.005310319364070892
1024.0,0.005806918255984783
1152.0,0.005333965178579092
1280.0,0.004710910841822624
1408.0,0.004012939985841513
1536.0,0.003384621813893318
1664.0,0.001914494438096881
1792.0,0.0034273385535925627
1920.0,0.0050955526530742645
2048.0,0.004344541113823652
2304.0,0.0021763937547802925
2560.0,9.741813300934155e-06
2816.0,0.001730474061332643
3072.0,0.003958371002227068
3328.0,0.004999104887247086
3584.0,0.0008424792904406786
3840.0,-0.002975066192448139
4096.0,-0.0022941259667277336
4608.0,0.0013709963532164693
5120.0,-0.00016200891695916653
5632.0,-0.0022555391769856215
6144.0,-0.00012724663247354329
6656.0,-0.0009604553924873471
7168.0,-0.0027885972522199154
7680.0,-0.0021396183874458075
8192.0,-0.0024869367480278015
end
