version,3.0
numOfCh,1
type,point
parent_name,0cd20_0dot08-1dot0
ch_type,1_1
kcount,1
numberNandB,1
brightnessNandB,1
carpet pos,0
pc,0
Time (ms),CH1 Auto-Correlation
1.0,0.024896161630749702
2.0,0.024636028334498405
3.0,0.024403078481554985
4.0,0.024182341992855072
5.0,0.02398740127682686
6.0,0.023794790729880333
7.0,0.023606354370713234
8.0,0.023410296067595482
9.0,0.023222822695970535
10.0,0.023035749793052673
11.0,0.022852210327982903
12.0,0.02267538756132126
13.0,0.02249407023191452
14.0,0.022322675213217735
15.0,0.022146426141262054
16.0,0.021971676498651505
18.0,0.02163342386484146
20.0,0.021310018375515938
22.0,0.021013198420405388
24.0,0.020724261179566383
26.0,0.02043875679373741
28.0,0.02015472762286663
30.0,0.019862528890371323
32.0,0.01956857368350029
36.0,0.01902266964316368
40.0,0.01850515976548195
44.0,0.01801607944071293
48.0,0.017568929120898247
52.0,0.017175821587443352
56.0,0.016778456047177315
60.0,0.01641044020652771
64.0,0.01605360396206379
72.0,0.015384629368782043
80.0,0.014723770320415497
88.0,0.014054124243557453
96.0,0.0133631257340312
104.0,0.012750447727739811
112.0,0.012234564870595932
120.0,0.011765499599277973
128.0,0.011212400160729885
144.0,0.010246943682432175
160.0,0.009633011184632778
176.0,0.009252858348190784
192.0,0.00903034396469593
208.0,0.008985411375761032
224.0,0.008834922686219215
240.0,0.008587704971432686
256.0,0.008301172405481339
288.0,0.007738659158349037
320.0,0.006770547945052385
352.0,0.006262356415390968
384.0,0.006020864937454462
416.0,0.005882530938833952
448.0,0.0056137815117836
480.0,0.005497706588357687
512.0,0.0056961397640407085
576.0,0.005665595177561045
640.0,0.0059081255458295345
704.0,0.005954085383564234
768.0,0.0059831091202795506
832.0,0.005613415502011776
896.0,0.006422040984034538
960.0,0.006960422731935978
1024.0,0.006604562047868967
1152.0,0.005747828632593155
1280.0,0.0037074394058436155
1408.0,0.0022333255037665367
1536.0,0.004779247101396322
1664.0,0.006182732991874218
1792.0,0.007219696883112192
1920.0,0.006304384674876928
2048.0,0.007581432815641165
2304.0,0.002619620878249407
2560.0,0.002863217145204544
2816.0,0.00497074518352747
3072.0,0.0033766606356948614
3328.0,0.002728545106947422
3584.0,0.003307189093902707
3840.0,0.0028063119389116764
4096.0,0.0007174749625846744
4608.0,-0.0016956422477960587
5120.0,-0.0019739812705665827
5632.0,-0.002100385958328843
6144.0,-0.0026966817677021027
6656.0,-0.0072249905206263065
7168.0,-0.003499068785458803
7680.0,-0.004967811983078718
8192.0,-0.007087789010256529
end
