version,3.0
numOfCh,1
type,point
parent_name,0cd20_0dot08-1dot0
ch_type,1_1
kcount,1
numberNandB,1
brightnessNandB,1
carpet pos,0
pc,0
Time (ms),CH1 Auto-Correlation
1.0,0.027249982580542564
2.0,0.02701685205101967
3.0,0.026797309517860413
4.0,0.0265889260917902
5.0,0.026379067450761795
6.0,0.026181302964687347
7.0,0.025997070595622063
8.0,0.02581408992409706
9.0,0.02563730999827385
10.0,0.02547147311270237
11.0,0.02530541457235813
12.0,0.025148265063762665
13.0,0.024994095787405968
14.0,0.024843407794833183
15.0,0.024690568447113037
16.0,0.024556078016757965
18.0,0.024277402088046074
20.0,0.024030661210417747
22.0,0.023768199607729912
24.0,0.02351479046046734
26.0,0.02326647751033306
28.0,0.023017480969429016
30.0,0.022780796512961388
32.0,0.02256089076399803
36.0,0.022130237892270088
40.0,0.021726759150624275
44.0,0.02135986089706421
48.0,0.02098672278225422
52.0,0.0206212867051363
56.0,0.020273247733712196
60.0,0.019945096224546432
64.0,0.019622717052698135
72.0,0.018867550417780876
80.0,0.018126362934708595
88.0,0.01746925711631775
96.0,0.016861774027347565
104.0,0.016329163685441017
112.0,0.01576867513358593
120.0,0.015205533243715763
128.0,0.014673699624836445
144.0,0.013898512348532677
160.0,0.013150112703442574
176.0,0.012322799302637577
192.0,0.011650072410702705
208.0,0.010837421752512455
224.0,0.009837757796049118
240.0,0.008930749259889126
256.0,0.008170339278876781
288.0,0.007042236160486937
320.0,0.0059161619283258915
352.0,0.005161792505532503
384.0,0.004544553812593222
416.0,0.004461425356566906
448.0,0.004523769486695528
480.0,0.004496054723858833
512.0,0.004529858939349651
576.0,0.0041112336330115795
640.0,0.003660554066300392
704.0,0.002669831970706582
768.0,0.002445415360853076
832.0,0.00188073783647269
896.0,0.0015121030155569315
960.0,0.002323708264157176
1024.0,0.0029372908174991608
1152.0,0.0033341343514621258
1280.0,0.0017041548853740096
1408.0,-0.00015554833225905895
1536.0,-0.001159476931206882
1664.0,-0.00313434936106205
1792.0,-0.0027167657390236855
1920.0,-0.0014439986553043127
2048.0,-0.0010428500827401876
2304.0,0.0006729130982421339
2560.0,0.0024339829105883837
2816.0,0.001171458512544632
3072.0,-0.0005998046253807843
3328.0,0.0001424287911504507
3584.0,0.0004944028332829475
3840.0,-0.002374560572206974
4096.0,-0.003619343973696232
4608.0,-0.0026041052769869566
5120.0,-0.00034744440927170217
5632.0,-0.001154882600530982
6144.0,0.0014057934749871492
6656.0,0.0007163912523537874
7168.0,-0.0027560906019061804
7680.0,0.00010684304288588464
8192.0,-0.004619896411895752
end
