version,3.0
numOfCh,1
type,point
parent_name,0cd20_0dot08-1dot0
ch_type,1_1
kcount,1
numberNandB,1
brightnessNandB,1
carpet pos,0
pc,0
Time (ms),CH1 Auto-Correlation
1.0,0.017430245876312256
2.0,0.01724068634212017
3.0,0.01704668439924717
4.0,0.016855398193001747
5.0,0.016666242852807045
6.0,0.016482794657349586
7.0,0.01630227267742157
8.0,0.01612231694161892
9.0,0.01595465838909149
10.0,0.015790807083249092
11.0,0.015636269003152847
12.0,0.01548507809638977
13.0,0.015330657362937927
14.0,0.015179707668721676
15.0,0.015035872347652912
16.0,0.014896908774971962
18.0,0.014631060883402824
20.0,0.014366691000759602
22.0,0.014105529524385929
24.0,0.013848370872437954
26.0,0.013595834374427795
28.0,0.013354883529245853
30.0,0.013135787099599838
32.0,0.012918815948069096
36.0,0.012499213218688965
40.0,0.012116772122681141
44.0,0.011753556318581104
48.0,0.011405655182898045
52.0,0.01109175756573677
56.0,0.01081610657274723
60.0,0.010565890930593014
64.0,0.010326752439141273
72.0,0.009900476783514023
80.0,0.00946276169270277
88.0,0.008970320224761963
96.0,0.008531861007213593
104.0,0.008260127156972885
112.0,0.0080454982817173
120.0,0.007795001845806837
128.0,0.007536331191658974
144.0,0.007070053834468126
160.0,0.006564541254192591
176.0,0.006046259310096502
192.0,0.005539663601666689
208.0,0.005113866645842791
224.0,0.004757179878652096
240.0,0.0042950245551764965
256.0,0.0039059575647115707
288.0,0.0032824489753693342
320.0,0.002627300564199686
352.0,0.0019208567682653666
384.0,0.001355548040010035
416.0,0.0009649945423007011
448.0,0.0004958399222232401
480.0,3.189156632288359e-05
512.0,-0.0002757822221610695
576.0,-2.78455154330004e-05
640.0,0.0004350162635091692
704.0,4.143212572671473e-05
768.0,0.00030423380667343736
832.0,-9.557552402839065e-05
896.0,-0.00019974484166596085
960.0,-0.0004849281976930797
1024.0,-0.0006674173637293279
1152.0,-0.001779208774678409
1280.0,-0.0023479117080569267
1408.0,-0.0018996929284185171
1536.0,-0.00024402153212577105
1664.0,0.0006677121855318546
1792.0,0.0009335548966191709
1920.0,0.0005380823276937008
2048.0,0.0004865664814133197
2304.0,-0.0012701418017968535
2560.0,-0.002800303976982832
2816.0,1.833268834161572e-05
3072.0,0.0006102981860749424
3328.0,-0.0005968365003354847
3584.0,0.001254931790754199
3840.0,0.0022691688500344753
4096.0,-0.0012590185506269336
4608.0,-4.269930286682211e-05
5120.0,0.0006589480326510966
5632.0,0.0010394988348707557
6144.0,0.0012998178135603666
6656.0,-0.0003237492055632174
7168.0,-0.003691559424623847
7680.0,-0.0013502499787136912
8192.0,0.0008720580954104662
end
