version,3.0
numOfCh,1
type,point
parent_name,0cd20_0dot08-1dot0
ch_type,1_1
kcount,1
numberNandB,1
brightnessNandB,1
carpet pos,0
pc,0
Time (ms),CH1 Auto-Correlation
1.0,0.023830696940422058
2.0,0.023559890687465668
3.0,0.02331187203526497
4.0,0.023075038567185402
5.0,0.022851094603538513
6.0,0.0226436797529459
7.0,0.022426089271903038
8.0,0.022209126502275467
9.0,0.022024495527148247
10.0,0.021833060309290886
11.0,0.02165086567401886
12.0,0.02146659418940544
13.0,0.021288955584168434
14.0,0.02112833596765995
15.0,0.02096419222652912
16.0,0.020799053832888603
18.0,0.020480360835790634
20.0,0.020196929574012756
22.0,0.01992148347198963
24.0,0.019653214141726494
26.0,0.01937498338520527
28.0,0.01908763498067856
30.0,0.018815405666828156
32.0,0.018544895574450493
36.0,0.01800432987511158
40.0,0.01747717708349228
44.0,0.01696576178073883
48.0,0.016472363844513893
52.0,0.015994325280189514
56.0,0.015587467700242996
60.0,0.015203027054667473
64.0,0.014802810736000538
72.0,0.014142939820885658
80.0,0.013607494533061981
88.0,0.013062193989753723
96.0,0.01246489118784666
104.0,0.011849618516862392
112.0,0.01133908610790968
120.0,0.010922866873443127
128.0,0.01053612306714058
144.0,0.009860922582447529
160.0,0.009195403195917606
176.0,0.008821124210953712
192.0,0.008553287014365196
208.0,0.008252333849668503
224.0,0.007872340269386768
240.0,0.007383471820503473
256.0,0.0069015128538012505
288.0,0.006044581066817045
320.0,0.005179912317544222
352.0,0.005085351411253214
384.0,0.005287798587232828
416.0,0.005578566342592239
448.0,0.005329880863428116
480.0,0.0047238776460289955
512.0,0.004410670604556799
576.0,0.003781896084547043
640.0,0.002979731885716319
704.0,0.0015823115827515721
768.0,0.0010930993594229221
832.0,0.0009879802819341421
896.0,0.0005989746423438191
960.0,0.0010280825663357973
1024.0,0.0014010317390784621
1152.0,-0.0008410855662077665
1280.0,-0.0008124369778670371
1408.0,0.0006707783904857934
1536.0,0.0016872312407940626
1664.0,0.0007107214187271893
1792.0,-0.0011503007262945175
1920.0,-0.0010038050822913647
2048.0,-0.0013262457214295864
2304.0,-0.0014246614882722497
2560.0,0.0001661356509430334
2816.0,0.0009870975045487285
3072.0,0.0012634326703846455
3328.0,0.0007908769766800106
3584.0,-0.0011288512032479048
3840.0,-0.0024018222466111183
4096.0,-0.00041093913023360074
4608.0,-0.0005660224705934525
5120.0,-0.003885464509949088
5632.0,-0.005164060741662979
6144.0,-0.0023259336594492197
6656.0,0.003425789764150977
7168.0,0.0032469884026795626
7680.0,0.004303771071135998
8192.0,0.0043786922469735146
end
