version,3.0
numOfCh,1
type,point
parent_name,0cd20_0dot08-1dot0
ch_type,1_1
kcount,1
numberNandB,1
brightnessNandB,1
carpet pos,0
pc,0
Time (ms),CH1 Auto-Correlation
1.0,0.021800853312015533
2.0,0.02159801684319973
3.0,0.02140921726822853
4.0,0.02121340110898018
5.0,0.021032046526670456
6.0,0.020853767171502113
7.0,0.020675361156463623
8.0,0.02050243876874447
9.0,0.020325981080532074
10.0,0.020152607932686806
11.0,0.019991498440504074
12.0,0.019831852987408638
13.0,0.019675476476550102
14.0,0.01952207274734974
15.0,0.01936865597963333
16.0,0.01921958476305008
18.0,0.01892584189772606
20.0,0.018633367493748665
22.0,0.018347814679145813
24.0,0.01807130128145218
26.0,0.017804428935050964
28.0,0.017533671110868454
30.0,0.01727229356765747
32.0,0.017007233574986458
36.0,0.01649264618754387
40.0,0.016001461073756218
44.0,0.015538757666945457
48.0,0.015115213580429554
52.0,0.014712580479681492
56.0,0.014342361129820347
60.0,0.014018574729561806
64.0,0.013716219924390316
72.0,0.0130578288808465
80.0,0.012491255067288876
88.0,0.011992879211902618
96.0,0.011555545032024384
104.0,0.01119049359112978
112.0,0.010916871018707752
120.0,0.010659294202923775
128.0,0.010429413057863712
144.0,0.01011844351887703
160.0,0.009856904856860638
176.0,0.009598802775144577
192.0,0.009390149265527725
208.0,0.009228893555700779
224.0,0.008973249234259129
240.0,0.008681687526404858
256.0,0.008477785624563694
288.0,0.008448109962046146
320.0,0.007938668131828308
352.0,0.007056326139718294
384.0,0.006746039260178804
416.0,0.006622751709073782
448.0,0.006305478047579527
480.0,0.005882594268769026
512.0,0.005678713787347078
576.0,0.005823222454637289
640.0,0.005713211838155985
704.0,0.005810900125652552
768.0,0.006707272958010435
832.0,0.0058679962530732155
896.0,0.0049326177686452866
960.0,0.003636420238763094
1024.0,0.003525622421875596
1152.0,0.0013119449140504003
1280.0,-0.00017858317005448043
1408.0,-0.0004867807438131422
1536.0,-0.0005135777173563838
1664.0,-0.0011325855739414692
1792.0,-0.0015473280800506473
1920.0,-0.0036177276633679867
2048.0,-0.004725311882793903
2304.0,-0.00481264665722847
2560.0,-0.005244145169854164
2816.0,-0.007185072638094425
3072.0,-0.007548411376774311
3328.0,-0.005434730090200901
3584.0,-0.0037053870037198067
3840.0,-0.004688466899096966
4096.0,-0.00361108616925776
4608.0,-0.001296878675930202
5120.0,0.001128384261392057
5632.0,0.0018795105861499906
6144.0,0.004507640842348337
6656.0,0.0038219180423766375
7168.0,0.004291465040296316
7680.0,0.0028855481650680304
8192.0,-0.0011115542147308588
end
