version,3.0
numOfCh,1
type,point
parent_name,0cd20_0dot08-1dot0
ch_type,1_1
kcount,1
numberNandB,1
brightnessNandB,1
carpet pos,0
pc,0
Time (ms),CH1 Auto-Correlation
1.0,0.02118690311908722
2.0,0.020974956452846527
3.0,0.02077769860625267
4.0,0.020589744672179222
5.0,0.020403673872351646
6.0,0.020229008048772812
7.0,0.020054994150996208
8.0,0.019890354946255684
9.0,0.019724130630493164
10.0,0.019567884504795074
11.0,0.01941009610891342
12.0,0.01924874447286129
13.0,0.019086085259914398
14.0,0.01893007569015026
15.0,0.018783004954457283
16.0,0.01863626204431057
18.0,0.018350616097450256
20.0,0.018073298037052155
22.0,0.01779724471271038
24.0,0.017540110275149345
26.0,0.017290910705924034
28.0,0.017054947093129158
30.0,0.016837013885378838
32.0,0.016622941941022873
36.0,0.016199810430407524
40.0,0.01579509675502777
44.0,0.015405134297907352
48.0,0.015022431500256062
52.0,0.01465282216668129
56.0,0.014284788630902767
60.0,0.013926444575190544
64.0,0.013593209907412529
72.0,0.012938874773681164
80.0,0.012273158878087997
88.0,0.011584317311644554
96.0,0.01089748740196228
104.0,0.010258619673550129
112.0,0.009772504679858685
120.0,0.009416119195520878
128.0,0.009086545556783676
144.0,0.00868953950703144
160.0,0.008370478637516499
176.0,0.007800153456628323
192.0,0.007358843926340342
208.0,0.006964510306715965
224.0,0.006495772860944271
240.0,0.006167308893054724
256.0,0.005813798867166042
288.0,0.0052489317022264
320.0,0.004699166864156723
352.0,0.0046610780991613865
384.0,0.0044713676907122135
416.0,0.0046587977558374405
448.0,0.0048254504799842834
480.0,0.004452679306268692
512.0,0.0042479755356907845
576.0,0.0036823858972638845
640.0,0.002895859070122242
704.0,0.0025068670511245728
768.0,0.0021316325291991234
832.0,0.0010501077631488442
896.0,0.000713162706233561
960.0,0.001148049021139741
1024.0,0.001345910015515983
1152.0,0.0007980262162163854
1280.0,-0.000488633057102561
1408.0,-0.002156781032681465
1536.0,-0.001690409262664616
1664.0,-0.0011252479162067175
1792.0,-0.001514134113676846
1920.0,-0.0027765692211687565
2048.0,-0.002483565593138337
2304.0,-0.001631115097552538
2560.0,-0.0008966870373114944
2816.0,0.00015441764844581485
3072.0,-0.00016395535203628242
3328.0,0.0002117321128025651
3584.0,0.0005566250183619559
3840.0,0.00016452145064249635
4096.0,-8.924428402679041e-05
4608.0,-0.0007222677813842893
5120.0,-0.001795793417841196
5632.0,-0.0028874403797090054
6144.0,3.34881515300367e-05
6656.0,-0.0025180138181895018
7168.0,-0.000982887577265501
7680.0,0.0017476907232776284
8192.0,0.0001973054459085688
end
