version,3.0
numOfCh,1
type,point
parent_name,0cd20_0dot08-1dot0
ch_type,1_1
kcount,1
numberNandB,1
brightnessNandB,1
carpet pos,0
pc,0
Time (ms),CH1 Auto-Correlation
1.0,0.02090117149055004
2.0,0.020651040598750114
3.0,0.020427603274583817
4.0,0.020224763080477715
5.0,0.020037520676851273
6.0,0.019871043041348457
7.0,0.0197109617292881
8.0,0.019552649930119514
9.0,0.01939399726688862
10.0,0.019229896366596222
11.0,0.01907256245613098
12.0,0.01892310194671154
13.0,0.018778512254357338
14.0,0.018638476729393005
15.0,0.018498551100492477
16.0,0.018357958644628525
18.0,0.018082160502672195
20.0,0.017804399132728577
22.0,0.017530059441924095
24.0,0.01726772077381611
26.0,0.017018087208271027
28.0,0.016787713393568993
30.0,0.01657320000231266
32.0,0.016368988901376724
36.0,0.015975244343280792
40.0,0.015583227388560772
44.0,0.015164281241595745
48.0,0.014738013967871666
52.0,0.014345395378768444
56.0,0.013940216973423958
60.0,0.013550441712141037
64.0,0.01316584087908268
72.0,0.012397454120218754
80.0,0.011653964407742023
88.0,0.01094807405024767
96.0,0.010199110023677349
104.0,0.009478638879954815
112.0,0.008899902924895287
120.0,0.008404453285038471
128.0,0.007925142534077168
144.0,0.006966746412217617
160.0,0.006079923827201128
176.0,0.005271316040307283
192.0,0.0045686522498726845
208.0,0.0038542840629816055
224.0,0.0033907489851117134
240.0,0.003185244044288993
256.0,0.0030018556863069534
288.0,0.0027041728608310223
320.0,0.002492551226168871
352.0,0.0022911028936505318
384.0,0.0018680001376196742
416.0,0.0011676852591335773
448.0,0.0007961320225149393
480.0,0.0009043237078003585
512.0,0.0009278581710532308
576.0,0.0018889677012339234
640.0,0.002850339049473405
704.0,0.002980457851663232
768.0,0.003787812776863575
832.0,0.003450479358434677
896.0,0.002999238669872284
960.0,0.00225297873839736
1024.0,0.0013022074708715081
1152.0,0.0013448859099298716
1280.0,0.0002056977536994964
1408.0,0.0001485941029386595
1536.0,0.0008370076538994908
1664.0,-0.0005683904746547341
1792.0,-0.0012695029145106673
1920.0,7.641550473636016e-05
2048.0,0.000606573827099055
2304.0,-0.0009533338015899062
2560.0,0.0003842671576421708
2816.0,0.0009324448765255511
3072.0,-0.0010899907210841775
3328.0,-0.0019332289230078459
3584.0,0.0007546326960437
3840.0,0.0002564145252108574
4096.0,0.0013700935523957014
4608.0,-0.0007053050794638693
5120.0,-0.0005539865233004093
5632.0,0.00013567220594268292
6144.0,-0.0008222149917855859
6656.0,-0.0010320578003302217
7168.0,-0.00319866556674242
7680.0,-0.003653036430478096
8192.0,-0.0035805371589958668
end
