version,3.0
numOfCh,1
type,point
parent_name,0cd20_0dot08-1dot0
ch_type,1_1
kcount,1
numberNandB,1
brightnessNandB,1
carpet pos,0
pc,0
Time (ms),CH1 Auto-Correlation
1.0,0.02890549786388874
2.0,0.028655650094151497
3.0,0.02843843586742878
4.0,0.028237251564860344
5.0,0.02804216556251049
6.0,0.027857212349772453
7.0,0.027684202417731285
8.0,0.027521183714270592
9.0,0.02737203799188137
10.0,0.02722654864192009
11.0,0.02707539312541485
12.0,0.026926454156637192
13.0,0.026774512603878975
14.0,0.026629621163010597
15.0,0.026491310447454453
16.0,0.02634466253221035
18.0,0.026047836989164352
20.0,0.025738347321748734
22.0,0.02544189989566803
24.0,0.025172794237732887
26.0,0.024911126121878624
28.0,0.024661827832460403
30.0,0.024414507672190666
32.0,0.024175724014639854
36.0,0.023715335875749588
40.0,0.02326390892267227
44.0,0.022865809500217438
48.0,0.02248854748904705
52.0,0.022080520167946815
56.0,0.021649403497576714
60.0,0.02125895582139492
64.0,0.02086632326245308
72.0,0.02013443410396576
80.0,0.019489862024784088
88.0,0.018864305689930916
96.0,0.018165122717618942
104.0,0.01745613105595112
112.0,0.016809767112135887
120.0,0.01618499495089054
128.0,0.015572314150631428
144.0,0.01441123429685831
160.0,0.013228034600615501
176.0,0.012140020728111267
192.0,0.011297213844954967
208.0,0.010540681891143322
224.0,0.009949300438165665
240.0,0.009559161961078644
256.0,0.009136219508945942
288.0,0.008535872213542461
320.0,0.008479702286422253
352.0,0.009047106839716434
384.0,0.00963225681334734
416.0,0.010001493617892265
448.0,0.010081857442855835
480.0,0.010044912807643414
512.0,0.00987272523343563
576.0,0.00832720473408699
640.0,0.005799468141049147
704.0,0.003585335798561573
768.0,0.002706273226067424
832.0,0.003691022749990225
896.0,0.0047852820716798306
960.0,0.00504549453034997
1024.0,0.004103340208530426
1152.0,0.0008837963105179369
1280.0,-0.0019432184053584933
1408.0,0.00011354830348864198
1536.0,0.0004873987636528909
1664.0,-0.00205409643240273
1792.0,-0.004677129443734884
1920.0,-0.005833311006426811
2048.0,-0.007599144242703915
2304.0,-0.008509661071002483
2560.0,-0.006275457795709372
2816.0,-0.0057034664787352085
3072.0,-0.0044146934524178505
3328.0,-0.004927486646920443
3584.0,-0.004269154276698828
3840.0,-0.0015432576183229685
4096.0,0.0040448615327477455
4608.0,0.007857577875256538
5120.0,0.0076780556701123714
5632.0,0.009070190601050854
6144.0,0.003468048758804798
6656.0,-0.002680804580450058
7168.0,-0.0015832089120522141
7680.0,-0.00846046581864357
8192.0,-0.012074863538146019
end
