version,3.0
numOfCh,1
type,point
parent_name,dirty_3dot0-0dot1
ch_type,1_1
kcount,1
numberNandB,1
brightnessNandB,1
carpet pos,0
pc,0
Time (ms),CH1 Auto-Correlation
1.0,0.294728547334671
2.0,0.29012560844421387
3.0,0.28613317012786865
4.0,0.28256118297576904
5.0,0.27925676107406616
6.0,0.27614879608154297
7.0,0.2732755243778229
8.0,0.2704813480377197
9.0,0.2677445709705353
10.0,0.26526015996932983
11.0,0.262917160987854
12.0,0.2607041895389557
13.0,0.25842490792274475
14.0,0.2563914358615875
15.0,0.25430700182914734
16.0,0.2522769272327423
18.0,0.248205304145813
20.0,0.24437515437602997
22.0,0.24067574739456177
24.0,0.23701044917106628
26.0,0.23336347937583923
28.0,0.22998538613319397
30.0,0.22686852514743805
32.0,0.22329670190811157
36.0,0.21602743864059448
40.0,0.2101650983095169
44.0,0.2051684856414795
48.0,0.19987468421459198
52.0,0.19462241232395172
56.0,0.19008734822273254
60.0,0.18556898832321167
64.0,0.18029572069644928
72.0,0.17086341977119446
80.0,0.16407674551010132
88.0,0.1589248776435852
96.0,0.15619857609272003
104.0,0.1518917828798294
112.0,0.14657452702522278
120.0,0.13978099822998047
128.0,0.1319272518157959
144.0,0.1151668056845665
160.0,0.09925742447376251
176.0,0.08787235617637634
192.0,0.08065246790647507
208.0,0.07800459861755371
224.0,0.07574588805437088
240.0,0.07407086342573166
256.0,0.07155683636665344
288.0,0.06767682731151581
320.0,0.06988213211297989
352.0,0.07634400576353073
384.0,0.07969877868890762
416.0,0.07717178016901016
448.0,0.0680169016122818
480.0,0.05812399089336395
512.0,0.0465971976518631
576.0,0.030473480001091957
640.0,0.023066328838467598
704.0,0.03528216853737831
768.0,0.040700603276491165
832.0,0.043754011392593384
896.0,0.03692775219678879
960.0,0.018385175615549088
1024.0,0.02279685251414776
1152.0,0.03676728159189224
1280.0,0.03642509877681732
1408.0,0.009684443473815918
1536.0,0.002305743983015418
1664.0,-0.0022937783505767584
1792.0,-0.024485891684889793
1920.0,-0.03356260806322098
2048.0,-0.03384016826748848
2304.0,-0.038846228271722794
2560.0,-0.03440197557210922
2816.0,-0.006967669818550348
3072.0,0.003112398786470294
3328.0,0.006100618280470371
3584.0,-0.00619899295270443
3840.0,-0.009252646937966347
4096.0,0.0022884628269821405
4608.0,-0.008612074889242649
5120.0,-0.02833206206560135
5632.0,-0.04465904086828232
6144.0,-0.04728536307811737
6656.0,-0.04806089028716087
7168.0,-0.03105221688747406
7680.0,-0.023936685174703598
8192.0,-0.021830487996339798
9216.0,0.00916802603751421
10240.0,0.049173224717378616
11264.0,0.01769092120230198
12288.0,0.010992798022925854
13312.0,0.03305468708276749
14336.0,-0.0046844338066875935
end
