version,3.0
numOfCh,1
type,point
parent_name,dirty_3dot0-0dot1
ch_type,1_1
kcount,1
numberNandB,1
brightnessNandB,1
carpet pos,0
pc,0
Time (ms),CH1 Auto-Correlation
1.0,0.06104496493935585
2.0,0.05760973319411278
3.0,0.05489553511142731
4.0,0.0527430959045887
5.0,0.05081014707684517
6.0,0.04912977293133736
7.0,0.0477074533700943
8.0,0.04636624455451965
9.0,0.045028168708086014
10.0,0.04384218901395798
11.0,0.04273386672139168
12.0,0.04176073148846626
13.0,0.040826212614774704
14.0,0.03991633653640747
15.0,0.03902992233633995
16.0,0.038210637867450714
18.0,0.03661276772618294
20.0,0.035146117210388184
22.0,0.03375408053398132
24.0,0.03250481188297272
26.0,0.03123614192008972
28.0,0.030242018401622772
30.0,0.02925283834338188
32.0,0.028503483161330223
36.0,0.02732655219733715
40.0,0.02666851319372654
44.0,0.02603531815111637
48.0,0.025095166638493538
52.0,0.02444649115204811
56.0,0.023621222004294395
60.0,0.02287466824054718
64.0,0.02222529798746109
72.0,0.020474452525377274
80.0,0.019090237095952034
88.0,0.018936412408947945
96.0,0.01835368014872074
104.0,0.018541956320405006
112.0,0.018761005252599716
120.0,0.018914729356765747
128.0,0.018564900383353233
144.0,0.018678981810808182
160.0,0.017868587747216225
176.0,0.015190300531685352
192.0,0.01179989892989397
208.0,0.010342111811041832
224.0,0.008630494587123394
240.0,0.006272061727941036
256.0,0.006620044354349375
288.0,0.005413152743130922
320.0,0.0034733384381979704
352.0,0.0013998518697917461
384.0,0.0003107110969722271
416.0,-0.0002312830911250785
448.0,-0.00035804585786536336
480.0,7.3609669925645e-05
512.0,0.0006126402295194566
576.0,0.0019385484047234058
640.0,0.0021876126993447542
704.0,0.0015477718552574515
768.0,0.00042300860513933003
832.0,-0.0016629165038466454
896.0,-0.0010046245297417045
960.0,-0.0008154987008310854
1024.0,-0.0021840697154402733
1152.0,-0.003898679045960307
1280.0,-0.004113540053367615
1408.0,-0.006595700979232788
1536.0,-0.0059103406965732574
1664.0,-0.004478891380131245
1792.0,-0.00351228890940547
1920.0,-0.001406518742442131
2048.0,0.0018604102078825235
2304.0,0.010081291198730469
2560.0,0.003554617054760456
2816.0,-0.0013442926574498415
3072.0,0.0009704611147753894
3328.0,-0.003495902521535754
3584.0,-0.00652779545634985
3840.0,-0.006791083142161369
4096.0,-0.004522291477769613
4608.0,-0.002894314471632242
5120.0,0.002665068721398711
5632.0,0.001344226417131722
6144.0,-0.0011819802457466722
6656.0,-0.004154430702328682
7168.0,0.0029960290994495153
7680.0,0.009916983544826508
8192.0,0.0048098694533109665
9216.0,-0.005606546998023987
10240.0,0.0012870276113972068
11264.0,-0.004198221955448389
12288.0,-0.00265174126252532
13312.0,-0.0025703248102217913
14336.0,0.007342110387980938
end
