version,3.0
numOfCh,1
type,point
parent_name,dirty_3dot0-0dot1
ch_type,1_1
kcount,1
numberNandB,1
brightnessNandB,1
carpet pos,0
pc,0
Time (ms),CH1 Auto-Correlation
1.0,0.25829797983169556
2.0,0.25446003675460815
3.0,0.2514955997467041
4.0,0.24893544614315033
5.0,0.2465956211090088
6.0,0.24446667730808258
7.0,0.24263297021389008
8.0,0.24095948040485382
9.0,0.23932667076587677
10.0,0.2378312349319458
11.0,0.2362632006406784
12.0,0.23451872169971466
13.0,0.23288719356060028
14.0,0.23138214647769928
15.0,0.2298193722963333
16.0,0.22815518081188202
18.0,0.2245994210243225
20.0,0.22108297049999237
22.0,0.21759748458862305
24.0,0.21436765789985657
26.0,0.2112637609243393
28.0,0.20802518725395203
30.0,0.20455001294612885
32.0,0.20080499351024628
36.0,0.19441108405590057
40.0,0.18819506466388702
44.0,0.1820196956396103
48.0,0.17650897800922394
52.0,0.17174303531646729
56.0,0.16638067364692688
60.0,0.1614246368408203
64.0,0.1567983627319336
72.0,0.14727064967155457
80.0,0.13889753818511963
88.0,0.13074292242527008
96.0,0.1237533763051033
104.0,0.11629322916269302
112.0,0.10940235108137131
120.0,0.10202229768037796
128.0,0.0947989895939827
144.0,0.08311136066913605
160.0,0.07230843603610992
176.0,0.0627356469631195
192.0,0.05876758694648743
208.0,0.05601794272661209
224.0,0.05165354162454605
240.0,0.04911065474152565
256.0,0.0481751374900341
288.0,0.03833123296499252
320.0,0.03163415193557739
352.0,0.027490047737956047
384.0,0.016481522470712662
416.0,0.009388298727571964
448.0,0.0022408943623304367
480.0,-0.003002311335876584
512.0,-0.006987076718360186
576.0,-0.007586434483528137
640.0,-0.0067639704793691635
704.0,0.0006037276471033692
768.0,0.00898591335862875
832.0,0.009441602043807507
896.0,0.0003579345648176968
960.0,-0.01093938946723938
1024.0,-0.014329778030514717
1152.0,-0.013348626904189587
1280.0,-0.01043869648128748
1408.0,-0.011905742809176445
1536.0,-0.001879690564237535
1664.0,0.00441189669072628
1792.0,-0.0007926348480395973
1920.0,-0.009852726012468338
2048.0,-0.009092177264392376
2304.0,-0.01451225858181715
2560.0,-0.018503036350011826
2816.0,-0.022014634683728218
3072.0,-0.017315680161118507
3328.0,0.0018938890425488353
3584.0,0.028928985819220543
3840.0,0.0479617640376091
4096.0,0.03060784377157688
4608.0,-0.01696453057229519
5120.0,-0.021381748840212822
5632.0,-0.017441553995013237
6144.0,-0.008736164309084415
6656.0,-0.021037185564637184
7168.0,0.011016495525836945
7680.0,0.049740470945835114
8192.0,-0.002005887683480978
9216.0,0.0038916280027478933
10240.0,-0.004562088288366795
11264.0,-0.01128446590155363
12288.0,-0.01899038441479206
13312.0,-0.009274409152567387
14336.0,-0.028103584423661232
end
