version,3.0
numOfCh,1
type,point
parent_name,dirty_3dot0-0dot1
ch_type,1_1
kcount,1
numberNandB,1
brightnessNandB,1
carpet pos,0
pc,0
Time (ms),CH1 Auto-Correlation
1.0,0.08245690166950226
2.0,0.07901738584041595
3.0,0.07640928775072098
4.0,0.07440720498561859
5.0,0.07251810282468796
6.0,0.07097253203392029
7.0,0.06948773562908173
8.0,0.06807496398687363
9.0,0.06682261824607849
10.0,0.06554540246725082
11.0,0.06432197242975235
12.0,0.06320082396268845
13.0,0.06207326427102089
14.0,0.06100710108876228
15.0,0.060033150017261505
16.0,0.059210311621427536
18.0,0.05775291472673416
20.0,0.05658181384205818
22.0,0.05547410249710083
24.0,0.05437010899186134
26.0,0.05355530604720116
28.0,0.05259037762880325
30.0,0.05132700130343437
32.0,0.05002014338970184
36.0,0.04730944707989693
40.0,0.04537448659539223
44.0,0.043803710490465164
48.0,0.04253849759697914
52.0,0.04144025966525078
56.0,0.04002828523516655
60.0,0.03856213390827179
64.0,0.03700410574674606
72.0,0.034308724105358124
80.0,0.03135782480239868
88.0,0.028864797204732895
96.0,0.0262980405241251
104.0,0.02411181852221489
112.0,0.021043574437499046
120.0,0.01791713386774063
128.0,0.016035722568631172
144.0,0.011642863042652607
160.0,0.008890144526958466
176.0,0.008286584168672562
192.0,0.00692801782861352
208.0,0.005508973263204098
224.0,0.005364913493394852
240.0,0.0042910100892186165
256.0,0.005384578835219145
288.0,0.0073044016025960445
320.0,0.006894934456795454
352.0,0.0027779261581599712
384.0,-6.499083974631503e-05
416.0,-0.0014870561426505446
448.0,-0.000839126470964402
480.0,0.0007470865966752172
512.0,0.003237590892240405
576.0,0.005416660103946924
640.0,0.005012032110244036
704.0,0.00105778849683702
768.0,0.0001428243995178491
832.0,0.004420467186719179
896.0,0.008704615756869316
960.0,0.012622594833374023
1024.0,0.009882957674562931
1152.0,-0.001008510822430253
1280.0,-0.001929620048031211
1408.0,-0.0034732043277472258
1536.0,0.0003625609679147601
1664.0,0.0002740430645644665
1792.0,-0.0016688854666426778
1920.0,-0.0047728801146149635
2048.0,-0.0029580555856227875
2304.0,-0.004522386938333511
2560.0,-0.005189619492739439
2816.0,-0.007059686351567507
3072.0,-0.005786824971437454
3328.0,-0.005054502747952938
3584.0,-0.00541768129914999
3840.0,-0.005060521420091391
4096.0,-0.005692314822226763
4608.0,-0.004660308361053467
5120.0,-0.0020429377909749746
5632.0,0.00439282413572073
6144.0,0.009813254699110985
6656.0,0.00809294544160366
7168.0,0.0016795743722468615
7680.0,0.0018864955054596066
8192.0,0.0026353129651397467
9216.0,-0.0034758090041577816
10240.0,-0.0011340571800246835
11264.0,-0.004529531113803387
12288.0,-0.005171532742679119
13312.0,0.0009138446766883135
14336.0,0.0031643901020288467
end
