version,3.0
numOfCh,1
type,point
parent_name,dirty_3dot0-0dot1
ch_type,1_1
kcount,1
numberNandB,1
brightnessNandB,1
carpet pos,0
pc,0
Time (ms),CH1 Auto-Correlation
1.0,0.19407318532466888
2.0,0.19007092714309692
3.0,0.18672612309455872
4.0,0.18375395238399506
5.0,0.18098662793636322
6.0,0.17829369008541107
7.0,0.175905242562294
8.0,0.17372442781925201
9.0,0.17161189019680023
10.0,0.1695639193058014
11.0,0.16741585731506348
12.0,0.16543962061405182
13.0,0.16359132528305054
14.0,0.16184838116168976
15.0,0.16009943187236786
16.0,0.158491313457489
18.0,0.15539242327213287
20.0,0.1519468128681183
22.0,0.14859719574451447
24.0,0.14567266404628754
26.0,0.1432231217622757
28.0,0.1410130113363266
30.0,0.13882021605968475
32.0,0.13646253943443298
36.0,0.13135527074337006
40.0,0.12584982812404633
44.0,0.12089452892541885
48.0,0.11589957773685455
52.0,0.11036072671413422
56.0,0.10538165271282196
60.0,0.10062903165817261
64.0,0.09640432894229889
72.0,0.0886249840259552
80.0,0.08309280872344971
88.0,0.07649960368871689
96.0,0.07106978446245193
104.0,0.06514942646026611
112.0,0.05944716930389404
120.0,0.05250454321503639
128.0,0.048040784895420074
144.0,0.040306542068719864
160.0,0.03436708822846413
176.0,0.030529439449310303
192.0,0.02774125710129738
208.0,0.02453506737947464
224.0,0.0214825589209795
240.0,0.022268254309892654
256.0,0.022163860499858856
288.0,0.025560645386576653
320.0,0.02850663848221302
352.0,0.028939437121152878
384.0,0.020773671567440033
416.0,0.012659708969295025
448.0,0.006529343780130148
480.0,0.008063029497861862
512.0,0.01262087095528841
576.0,0.005266892723739147
640.0,-0.0044491165317595005
704.0,-0.004173506982624531
768.0,-0.00407212320715189
832.0,0.00261778780259192
896.0,0.002060562139376998
960.0,-0.0097652617841959
1024.0,-0.012171450071036816
1152.0,0.005237567238509655
1280.0,0.010361863300204277
1408.0,0.008152313530445099
1536.0,-0.0074693881906569
1664.0,-0.006011645775288343
1792.0,-0.009711632505059242
1920.0,-0.02600410208106041
2048.0,-0.02767733670771122
2304.0,-0.02889673225581646
2560.0,-0.02963968738913536
2816.0,-0.017126908525824547
3072.0,0.016329100355505943
3328.0,0.001434538047760725
3584.0,0.009438609704375267
3840.0,-0.007745555602014065
4096.0,0.013561888597905636
4608.0,0.026894601061940193
5120.0,0.01332944817841053
5632.0,-0.0037242125254124403
6144.0,0.007632805500179529
6656.0,-0.012750093825161457
7168.0,-0.020215513184666634
7680.0,-0.011569008231163025
8192.0,-0.007186628878116608
9216.0,0.0256040021777153
10240.0,-0.003867638995870948
11264.0,-0.02832960896193981
12288.0,-0.018007827922701836
13312.0,0.024851281195878983
14336.0,-0.021752720698714256
end
