version,3.0
numOfCh,1
type,point
parent_name,dirty_3dot0-0dot1
ch_type,1_1
kcount,1
numberNandB,1
brightnessNandB,1
carpet pos,0
pc,0
Time (ms),CH1 Auto-Correlation
1.0,0.057602398097515106
2.0,0.05452204495668411
3.0,0.05205133557319641
4.0,0.050122424960136414
5.0,0.04851461574435234
6.0,0.047050841152668
7.0,0.045888956636190414
8.0,0.04484947770833969
9.0,0.043976131826639175
10.0,0.04296005889773369
11.0,0.042164843529462814
12.0,0.04144706577062607
13.0,0.040678057819604874
14.0,0.03990237042307854
15.0,0.03932001441717148
16.0,0.038713812828063965
18.0,0.03746034577488899
20.0,0.03637629747390747
22.0,0.03552749380469322
24.0,0.034855302423238754
26.0,0.03432145342230797
28.0,0.0337999127805233
30.0,0.03360525891184807
32.0,0.033139243721961975
36.0,0.03216581791639328
40.0,0.030887562781572342
44.0,0.03027370013296604
48.0,0.029967550188302994
52.0,0.029165033251047134
56.0,0.02833854779601097
60.0,0.02705831453204155
64.0,0.025276197120547295
72.0,0.022059228271245956
80.0,0.019958287477493286
88.0,0.018156638368964195
96.0,0.015901444479823112
104.0,0.01452444214373827
112.0,0.013940010219812393
120.0,0.012711222283542156
128.0,0.010612694546580315
144.0,0.008007545955479145
160.0,0.0061178612522780895
176.0,0.00430541904643178
192.0,0.0032939191441982985
208.0,0.0029033420141786337
224.0,0.0023865592665970325
240.0,0.0022696254309266806
256.0,0.0020504933781921864
288.0,0.0022931317798793316
320.0,0.0018484470201656222
352.0,0.000664142076857388
384.0,-0.0009601249475963414
416.0,-0.002195459557697177
448.0,-0.0017113551730290055
480.0,-8.167154010152444e-05
512.0,0.0006697741919197142
576.0,0.0027136087883263826
640.0,0.003911326639354229
704.0,0.0019499044865369797
768.0,-0.0009966655634343624
832.0,-0.0003869535285048187
896.0,0.0002483867865521461
960.0,0.00037072142004035413
1024.0,0.0005075799999758601
1152.0,0.00030720626818947494
1280.0,0.001484310021623969
1408.0,-0.0013522803783416748
1536.0,-0.0020808400586247444
1664.0,-0.0009636326576583087
1792.0,-0.0017483109841123223
1920.0,-0.0011853267205879092
2048.0,-0.0020934862550348043
2304.0,-0.0036080987192690372
2560.0,-0.004026798065751791
2816.0,-0.0012088565854355693
3072.0,-0.0009379720431752503
3328.0,-0.0028615694027394056
3584.0,-0.0032577691599726677
3840.0,-0.0026474411133676767
4096.0,-0.003565008519217372
4608.0,0.0011185898911207914
5120.0,0.0012683585518971086
5632.0,0.0014389193383976817
6144.0,0.0008517884416505694
6656.0,0.0004132014873903245
7168.0,0.001568974694237113
7680.0,-0.00014031038153916597
8192.0,-0.0019743787124753
9216.0,-0.0003767123562283814
10240.0,-0.0012500343145802617
11264.0,-0.00036253262078389525
12288.0,0.0005692712729796767
13312.0,0.0011147178011015058
14336.0,0.00090822484344244
end
