version,3.0
numOfCh,1
type,point
parent_name,dirty_3dot0-0dot1
ch_type,1_1
kcount,1
numberNandB,1
brightnessNandB,1
carpet pos,0
pc,0
Time (ms),CH1 Auto-Correlation
1.0,0.18606726825237274
2.0,0.18230605125427246
3.0,0.1792820692062378
4.0,0.17677409946918488
5.0,0.17458081245422363
6.0,0.17268162965774536
7.0,0.17094206809997559
8.0,0.16933512687683105
9.0,0.1677131950855255
10.0,0.16628408432006836
11.0,0.16483540832996368
12.0,0.16353893280029297
13.0,0.16222228109836578
14.0,0.16097065806388855
15.0,0.15982386469841003
16.0,0.1589118242263794
18.0,0.15731705725193024
20.0,0.15561406314373016
22.0,0.1540786772966385
24.0,0.15279944241046906
26.0,0.15188732743263245
28.0,0.15085449814796448
30.0,0.14946046471595764
32.0,0.14803367853164673
36.0,0.14514407515525818
40.0,0.1422051191329956
44.0,0.140688955783844
48.0,0.13903658092021942
52.0,0.13657814264297485
56.0,0.1337631195783615
60.0,0.13087300956249237
64.0,0.1282123327255249
72.0,0.12337067723274231
80.0,0.11850085109472275
88.0,0.11399097740650177
96.0,0.10976520925760269
104.0,0.10629840195178986
112.0,0.10266739130020142
120.0,0.10031703114509583
128.0,0.09780064225196838
144.0,0.09494448453187943
160.0,0.09417702257633209
176.0,0.09044215083122253
192.0,0.08865201473236084
208.0,0.08710114657878876
224.0,0.08396016061306
240.0,0.08254105597734451
256.0,0.08088888972997665
288.0,0.07541313767433167
320.0,0.0673639327287674
352.0,0.0587555430829525
384.0,0.04761049523949623
416.0,0.038758937269449234
448.0,0.03264126926660538
480.0,0.02857382595539093
512.0,0.02795226499438286
576.0,0.018587397411465645
640.0,0.005869919899851084
704.0,-0.0019460954936221242
768.0,-0.002662419341504574
832.0,0.0003335127839818597
896.0,0.004370132926851511
960.0,0.005438140127807856
1024.0,-0.0003338559181429446
1152.0,-0.000315715151373297
1280.0,0.004100662190467119
1408.0,-0.000302489468595013
1536.0,0.002364756539463997
1664.0,-0.007793373893946409
1792.0,-0.007192335557192564
1920.0,-0.008216066285967827
2048.0,-0.008497104048728943
2304.0,-0.012295366264879704
2560.0,-0.011300822719931602
2816.0,-0.011078051291406155
3072.0,-0.00943378172814846
3328.0,-0.009451523423194885
3584.0,-0.007735781837254763
3840.0,-0.009591746143996716
4096.0,-0.011253041215240955
4608.0,-0.015252785757184029
5120.0,-0.00940822996199131
5632.0,-0.010520029813051224
6144.0,-0.005545207764953375
6656.0,0.028657197952270508
7168.0,0.05663936212658882
7680.0,-0.003632770851254463
8192.0,0.006649880204349756
9216.0,-0.010179953649640083
10240.0,-0.010090251453220844
11264.0,-0.014397596009075642
12288.0,-0.023655330762267113
13312.0,0.0065045482479035854
14336.0,-0.07829080522060394
end
