version,3.0
numOfCh,1
type,point
parent_name,dirty_3dot0-0dot1
ch_type,1_1
kcount,1
numberNandB,1
brightnessNandB,1
carpet pos,0
pc,0
Time (ms),CH1 Auto-Correlation
1.0,0.17607836425304413
2.0,0.17182204127311707
3.0,0.16845285892486572
4.0,0.16564162075519562
5.0,0.16288578510284424
6.0,0.16037209331989288
7.0,0.1579362154006958
8.0,0.15556208789348602
9.0,0.1534392386674881
10.0,0.15147769451141357
11.0,0.14973078668117523
12.0,0.14814795553684235
13.0,0.14665985107421875
14.0,0.1454160064458847
15.0,0.14421094954013824
16.0,0.1430588811635971
18.0,0.14083684980869293
20.0,0.1387530118227005
22.0,0.13638998568058014
24.0,0.1340900957584381
26.0,0.13118211925029755
28.0,0.12804721295833588
30.0,0.12500885128974915
32.0,0.12202633917331696
36.0,0.11672946810722351
40.0,0.11249937117099762
44.0,0.10904532670974731
48.0,0.1059296652674675
52.0,0.10281939059495926
56.0,0.09882009774446487
60.0,0.09540217369794846
64.0,0.09291709959506989
72.0,0.08978231251239777
80.0,0.0856579914689064
88.0,0.08005823940038681
96.0,0.07593360543251038
104.0,0.07189363241195679
112.0,0.06726681441068649
120.0,0.06287193298339844
128.0,0.059617869555950165
144.0,0.055516134947538376
160.0,0.05383723974227905
176.0,0.049097999930381775
192.0,0.04378155618906021
208.0,0.03669904172420502
224.0,0.030484234914183617
240.0,0.024674374610185623
256.0,0.017394252121448517
288.0,0.006052100099623203
320.0,0.0042048050090670586
352.0,0.0010472949361428618
384.0,0.002412879141047597
416.0,0.0035453462041914463
448.0,0.004109974019229412
480.0,0.004255115054547787
512.0,0.004486010409891605
576.0,0.007729571778327227
640.0,0.008825658820569515
704.0,0.004144925624132156
768.0,0.00014024389383848757
832.0,-0.003981573041528463
896.0,-0.005692529957741499
960.0,-0.004011775832623243
1024.0,-0.0034741824492812157
1152.0,-0.005669447593390942
1280.0,-0.008747132495045662
1408.0,-0.0095012616366148
1536.0,-0.007986788637936115
1664.0,-0.005299072712659836
1792.0,-0.005429056007415056
1920.0,-0.006241345312446356
2048.0,-0.007082849275320768
2304.0,-0.006873957812786102
2560.0,-0.010653181932866573
2816.0,-0.006869749631732702
3072.0,-0.010769587010145187
3328.0,-0.013192182406783104
3584.0,-0.013368075713515282
3840.0,-0.010552430525422096
4096.0,-0.009948527440428734
4608.0,0.008126507513225079
5120.0,0.008243833668529987
5632.0,-0.008194788359105587
6144.0,0.02606884576380253
6656.0,0.013508790172636509
7168.0,-0.0051931352354586124
7680.0,-0.012339774519205093
8192.0,-0.014382965862751007
9216.0,0.007758826483041048
10240.0,-0.003448391566053033
11264.0,0.006346981506794691
12288.0,-0.014322463423013687
13312.0,-0.013245152309536934
14336.0,-0.035967521369457245
end
