version,3.0
numOfCh,1
type,point
parent_name,dirty_3dot0-0dot1
ch_type,1_1
kcount,1
numberNandB,1
brightnessNandB,1
carpet pos,0
pc,0
Time (ms),CH1 Auto-Correlation
1.0,0.3801875710487366
2.0,0.3755565881729126
3.0,0.3713853657245636
4.0,0.36741921305656433
5.0,0.3637068569660187
6.0,0.36029374599456787
7.0,0.3570338785648346
8.0,0.3538587689399719
9.0,0.35078665614128113
10.0,0.3479222357273102
11.0,0.3450731039047241
12.0,0.3422504961490631
13.0,0.33951932191848755
14.0,0.3368372619152069
15.0,0.3342558741569519
16.0,0.3317106366157532
18.0,0.32612693309783936
20.0,0.3210088610649109
22.0,0.31566122174263
24.0,0.310159295797348
26.0,0.30499067902565
28.0,0.29992491006851196
30.0,0.29485830664634705
32.0,0.28990665078163147
36.0,0.2803170680999756
40.0,0.27037206292152405
44.0,0.26040440797805786
48.0,0.2512599527835846
52.0,0.24315354228019714
56.0,0.23588532209396362
60.0,0.22812455892562866
64.0,0.21990498900413513
72.0,0.20543918013572693
80.0,0.19371727108955383
88.0,0.1837833821773529
96.0,0.17624348402023315
104.0,0.17157281935214996
112.0,0.1680651605129242
120.0,0.16351541876792908
128.0,0.15953727066516876
144.0,0.1497727632522583
160.0,0.13733656704425812
176.0,0.12400415539741516
192.0,0.1132684051990509
208.0,0.10497215390205383
224.0,0.09889473766088486
240.0,0.09644381701946259
256.0,0.09789928048849106
288.0,0.1142733097076416
320.0,0.13439500331878662
352.0,0.14520707726478577
384.0,0.13399040699005127
416.0,0.11897724866867065
448.0,0.10448002070188522
480.0,0.09019210934638977
512.0,0.08100419491529465
576.0,0.070194773375988
640.0,0.06162245199084282
704.0,0.05299536511301994
768.0,0.03541511669754982
832.0,0.046317096799612045
896.0,0.03883329778909683
960.0,0.029673272743821144
1024.0,0.011702989228069782
1152.0,-0.018128957599401474
1280.0,-0.025248002260923386
1408.0,-0.025411421433091164
1536.0,-0.019232166931033134
1664.0,-0.017440946772694588
1792.0,0.0008335637394338846
1920.0,0.011743063107132912
2048.0,0.0009067890350706875
2304.0,0.05172276869416237
2560.0,0.055930186063051224
2816.0,0.06263314187526703
3072.0,0.039763107895851135
3328.0,0.027420280501246452
3584.0,0.010769366286695004
3840.0,-0.003399668959900737
4096.0,-0.03262234106659889
4608.0,-0.014091795310378075
5120.0,-0.03727409243583679
5632.0,-0.029834747314453125
6144.0,-0.02927381545305252
6656.0,-0.033437807112932205
7168.0,-0.05926801264286041
7680.0,-0.01253639254719019
8192.0,0.007359390612691641
9216.0,-0.04968404397368431
10240.0,-0.05812318995594978
11264.0,0.012863578274846077
12288.0,-0.026750905439257622
13312.0,-0.10066641867160797
14336.0,-0.02987341582775116
end
