version,3.0
numOfCh,1
type,point
parent_name,dirty_3dot0-0dot1
ch_type,1_1
kcount,1
numberNandB,1
brightnessNandB,1
carpet pos,0
pc,0
Time (ms),CH1 Auto-Correlation
1.0,0.22929418087005615
2.0,0.2255007028579712
3.0,0.22217188775539398
4.0,0.21938002109527588
5.0,0.2169812023639679
6.0,0.21478970348834991
7.0,0.21269889175891876
8.0,0.21073603630065918
9.0,0.20886099338531494
10.0,0.2072272002696991
11.0,0.20563973486423492
12.0,0.20406249165534973
13.0,0.202326238155365
14.0,0.2005632370710373
15.0,0.1987532377243042
16.0,0.19717343151569366
18.0,0.19428057968616486
20.0,0.19137562811374664
22.0,0.18880857527256012
24.0,0.18648317456245422
26.0,0.18453246355056763
28.0,0.1824742704629898
30.0,0.18041467666625977
32.0,0.17865097522735596
36.0,0.1759183704853058
40.0,0.17330585420131683
44.0,0.17031580209732056
48.0,0.1675274819135666
52.0,0.16412189602851868
56.0,0.1608281284570694
60.0,0.15821175277233124
64.0,0.15529891848564148
72.0,0.15007874369621277
80.0,0.1439330279827118
88.0,0.13820049166679382
96.0,0.13288451731204987
104.0,0.12812529504299164
112.0,0.12234078347682953
120.0,0.11734525114297867
128.0,0.11198119819164276
144.0,0.10226739197969437
160.0,0.09577726572751999
176.0,0.08923792839050293
192.0,0.07986575365066528
208.0,0.07101810723543167
224.0,0.06490832567214966
240.0,0.05955689400434494
256.0,0.05354759842157364
288.0,0.03032505139708519
320.0,0.012456580065190792
352.0,0.003031577914953232
384.0,-0.002585972659289837
416.0,-0.0019414940616115928
448.0,0.0022209736052900553
480.0,0.004299012012779713
512.0,0.008067594841122627
576.0,0.020594799891114235
640.0,0.03549306094646454
704.0,0.04263624548912048
768.0,0.04662167653441429
832.0,0.04995987191796303
896.0,0.0483076274394989
960.0,0.03287534415721893
1024.0,0.018392998725175858
1152.0,-0.007354468107223511
1280.0,-0.009147555567324162
1408.0,0.00417049415409565
1536.0,0.013048169203102589
1664.0,0.021225374191999435
1792.0,0.009918476454913616
1920.0,0.006825970485806465
2048.0,-0.001417177845723927
2304.0,0.011091946624219418
2560.0,0.0496402271091938
2816.0,0.050265152007341385
3072.0,0.032959483563899994
3328.0,0.0010610133176669478
3584.0,0.0120706707239151
3840.0,0.01695888303220272
4096.0,-0.019462769851088524
4608.0,0.013029382564127445
5120.0,0.012407365255057812
5632.0,0.009593451395630836
6144.0,0.013214812614023685
6656.0,-0.02054631896317005
7168.0,0.004382424056529999
7680.0,-0.020575499162077904
8192.0,-0.02236676961183548
9216.0,-0.023008709773421288
10240.0,-0.04098747670650482
11264.0,-0.05185452476143837
12288.0,-0.045206714421510696
13312.0,-0.07389054447412491
14336.0,-0.09686198830604553
end
