version,3.0
numOfCh,1
type,point
parent_name,dirty_3dot0-0dot1
ch_type,1_1
kcount,1
numberNandB,1
brightnessNandB,1
carpet pos,0
pc,0
Time (ms),CH1 Auto-Correlation
1.0,0.1951206773519516
2.0,0.19098739326000214
3.0,0.18729984760284424
4.0,0.18390315771102905
5.0,0.18074099719524384
6.0,0.1777452975511551
7.0,0.17494945228099823
8.0,0.17246416211128235
9.0,0.17016473412513733
10.0,0.16781963407993317
11.0,0.16559860110282898
12.0,0.16343609988689423
13.0,0.16128741204738617
14.0,0.15922541916370392
15.0,0.15701349079608917
16.0,0.1548791378736496
18.0,0.1507154405117035
20.0,0.14666226506233215
22.0,0.1425451934337616
24.0,0.13881507515907288
26.0,0.13549207150936127
28.0,0.13234670460224152
30.0,0.12954826653003693
32.0,0.12699316442012787
36.0,0.12151214480400085
40.0,0.11646385490894318
44.0,0.11200249940156937
48.0,0.10812809318304062
52.0,0.10499361902475357
56.0,0.10260218381881714
60.0,0.1009729877114296
64.0,0.09994018077850342
72.0,0.09810226410627365
80.0,0.09520050883293152
88.0,0.0914536714553833
96.0,0.08610300719738007
104.0,0.07968629151582718
112.0,0.07410674542188644
120.0,0.07039409875869751
128.0,0.06913293898105621
144.0,0.06538575142621994
160.0,0.06269865483045578
176.0,0.057335734367370605
192.0,0.050296809524297714
208.0,0.04971832409501076
224.0,0.04836424067616463
240.0,0.044213298708200455
256.0,0.036282461136579514
288.0,0.031118370592594147
320.0,0.03139537572860718
352.0,0.026081819087266922
384.0,0.025078291073441505
416.0,0.024327827617526054
448.0,0.01828003115952015
480.0,0.018862543627619743
512.0,0.020564645528793335
576.0,0.02738305926322937
640.0,0.02708740346133709
704.0,0.024250008165836334
768.0,0.020911041647195816
832.0,0.02454770728945732
896.0,0.024676192551851273
960.0,0.01494808029383421
1024.0,0.003138781525194645
1152.0,-0.013635510578751564
1280.0,-0.01407670695334673
1408.0,-0.009783645160496235
1536.0,-0.008805358782410622
1664.0,-0.012207933701574802
1792.0,-0.013210455887019634
1920.0,-0.011095232330262661
2048.0,-0.017336132004857063
2304.0,-0.015859002247452736
2560.0,-0.016199175268411636
2816.0,-0.024449268355965614
3072.0,-0.022063346579670906
3328.0,-0.015072003938257694
3584.0,-0.01594523712992668
3840.0,-0.008907915093004704
4096.0,-0.010615252889692783
4608.0,-0.006480603013187647
5120.0,-0.0020361742936074734
5632.0,0.02413744106888771
6144.0,0.02153688110411167
6656.0,-0.004199425224214792
7168.0,-0.014629133976995945
7680.0,-0.004291360266506672
8192.0,-0.013641116209328175
9216.0,-0.033356674015522
10240.0,-0.004735979251563549
11264.0,0.05143408104777336
12288.0,0.064422108232975
13312.0,-0.01821959763765335
14336.0,-0.04976493865251541
end
