version,3.0
numOfCh,1
type,point
parent_name,dirty_3dot0-0dot1
ch_type,1_1
kcount,1
numberNandB,1
brightnessNandB,1
carpet pos,0
pc,0
Time (ms),CH1 Auto-Correlation
1.0,0.2759069800376892
2.0,0.2719808518886566
3.0,0.2687440812587738
4.0,0.26590415835380554
5.0,0.2631753087043762
6.0,0.26034727692604065
7.0,0.25771981477737427
8.0,0.2552148103713989
9.0,0.25294065475463867
10.0,0.25059816241264343
11.0,0.24830852448940277
12.0,0.24624814093112946
13.0,0.24428360164165497
14.0,0.2422969937324524
15.0,0.24039308726787567
16.0,0.23862987756729126
18.0,0.23515500128269196
20.0,0.23158784210681915
22.0,0.2283560335636139
24.0,0.2251354455947876
26.0,0.22217004001140594
28.0,0.2191847562789917
30.0,0.21633322536945343
32.0,0.21358127892017365
36.0,0.20881131291389465
40.0,0.205280140042305
44.0,0.2021605521440506
48.0,0.19903525710105896
52.0,0.19629496335983276
56.0,0.1936059296131134
60.0,0.19093182682991028
64.0,0.1879478543996811
72.0,0.1817770004272461
80.0,0.17533060908317566
88.0,0.16704554855823517
96.0,0.1598191112279892
104.0,0.15324066579341888
112.0,0.14697788655757904
120.0,0.14180150628089905
128.0,0.13738110661506653
144.0,0.13067084550857544
160.0,0.12552601099014282
176.0,0.12200509011745453
192.0,0.11919177323579788
208.0,0.11538603901863098
224.0,0.11060822010040283
240.0,0.10457748174667358
256.0,0.09881775081157684
288.0,0.09270250797271729
320.0,0.0918801948428154
352.0,0.08772529661655426
384.0,0.08591338247060776
416.0,0.08065556734800339
448.0,0.07175988703966141
480.0,0.06006248667836189
512.0,0.04863835871219635
576.0,0.04291493445634842
640.0,0.0447118915617466
704.0,0.05058068409562111
768.0,0.04728730022907257
832.0,0.04380899295210838
896.0,0.03825146332383156
960.0,0.04061799868941307
1024.0,0.05159830302000046
1152.0,0.03784973546862602
1280.0,0.009969042614102364
1408.0,-0.0033374959602952003
1536.0,-0.004887358285486698
1664.0,-0.005914501380175352
1792.0,-0.0030497373081743717
1920.0,-0.01202197466045618
2048.0,-0.013292208313941956
2304.0,-0.023874487727880478
2560.0,-0.017263289541006088
2816.0,-0.016334839165210724
3072.0,-0.022546999156475067
3328.0,-0.023231228813529015
3584.0,-0.02196669951081276
3840.0,-0.025757668539881706
4096.0,-0.028407352045178413
4608.0,-0.027430081740021706
5120.0,-0.025802994146943092
5632.0,-0.022838259115815163
6144.0,0.004874912556260824
6656.0,0.015790045261383057
7168.0,0.06285036355257034
7680.0,0.05058380216360092
8192.0,0.009351590648293495
9216.0,-0.024304009974002838
10240.0,-0.03390391170978546
11264.0,-0.05416934937238693
12288.0,-0.07213442772626877
13312.0,-0.0626499131321907
14336.0,0.10478102415800095
end
