version,3.0
numOfCh,1
type,point
parent_name,dirty_3dot0-0dot1
ch_type,1_1
kcount,1
numberNandB,1
brightnessNandB,1
carpet pos,0
pc,0
Time (ms),CH1 Auto-Correlation
1.0,0.08618786931037903
2.0,0.08290289342403412
3.0,0.08040021359920502
4.0,0.07837744057178497
5.0,0.07663978636264801
6.0,0.07521133124828339
7.0,0.07387273013591766
8.0,0.07270745187997818
9.0,0.07150604575872421
10.0,0.07033611088991165
11.0,0.0691264346241951
12.0,0.06809970736503601
13.0,0.06699086725711823
14.0,0.06596875935792923
15.0,0.06498004496097565
16.0,0.06397358328104019
18.0,0.06197940558195114
20.0,0.060075417160987854
22.0,0.05810042843222618
24.0,0.056193698197603226
26.0,0.054465971887111664
28.0,0.05280207470059395
30.0,0.0510549396276474
32.0,0.04935239627957344
36.0,0.04646046832203865
40.0,0.04388541728258133
44.0,0.04143458977341652
48.0,0.03882072865962982
52.0,0.036685045808553696
56.0,0.035118862986564636
60.0,0.03358471766114235
64.0,0.03272220119833946
72.0,0.031033862382173538
80.0,0.029759813100099564
88.0,0.02854643389582634
96.0,0.027276592329144478
104.0,0.02608368545770645
112.0,0.025096459314227104
120.0,0.023827172815799713
128.0,0.021741308271884918
144.0,0.017183614894747734
160.0,0.012292489409446716
176.0,0.009913568384945393
192.0,0.009719212539494038
208.0,0.010041635483503342
224.0,0.009434774518013
240.0,0.008429072797298431
256.0,0.008127295412123203
288.0,0.009658834896981716
320.0,0.014985918998718262
352.0,0.01735483482480049
384.0,0.01561037078499794
416.0,0.010227157734334469
448.0,0.01120216865092516
480.0,0.011284156702458858
512.0,0.009279497899115086
576.0,0.0025812722742557526
640.0,0.0006254157633520663
704.0,3.461567030171864e-05
768.0,-0.004034583456814289
832.0,-0.005965907592326403
896.0,-0.005927679594606161
960.0,-0.0036498301196843386
1024.0,-0.0040903654880821705
1152.0,-0.0033964819740504026
1280.0,-0.003966482821851969
1408.0,-0.0007877651951275766
1536.0,-0.0012752799084410071
1664.0,0.0014848151477053761
1792.0,0.004361660685390234
1920.0,0.004614161793142557
2048.0,0.008525073528289795
2304.0,0.011608598753809929
2560.0,0.011996790766716003
2816.0,0.0032656206749379635
3072.0,-0.0009418996633030474
3328.0,-0.004583275411278009
3584.0,-0.0072441259399056435
3840.0,-0.007365657016634941
4096.0,-0.008856615051627159
4608.0,0.0035641640424728394
5120.0,0.0027147994842380285
5632.0,-0.011242132633924484
6144.0,-0.01261946838349104
6656.0,-0.008876238018274307
7168.0,-0.0036239263135939837
7680.0,-0.003644864773377776
8192.0,-0.008713816292583942
9216.0,-0.0004492686712183058
10240.0,0.0012034028768539429
11264.0,0.001871372340247035
12288.0,0.006140621844679117
13312.0,0.004989029839634895
14336.0,0.005556456279009581
end
