version,3.0
numOfCh,1
type,point
parent_name,dirty_3dot0-0dot1
ch_type,1_1
kcount,1
numberNandB,1
brightnessNandB,1
carpet pos,0
pc,0
Time (ms),CH1 Auto-Correlation
1.0,0.12941256165504456
2.0,0.12590910494327545
3.0,0.12311015278100967
4.0,0.12069497257471085
5.0,0.11853518337011337
6.0,0.11644835025072098
7.0,0.11458741873502731
8.0,0.11298377811908722
9.0,0.11147427558898926
10.0,0.11003832519054413
11.0,0.10869869589805603
12.0,0.10716677457094193
13.0,0.10577908158302307
14.0,0.10426944494247437
15.0,0.10292039066553116
16.0,0.1015651747584343
18.0,0.09920871257781982
20.0,0.0971297174692154
22.0,0.09515035152435303
24.0,0.09307833760976791
26.0,0.09110116213560104
28.0,0.08953706175088882
30.0,0.08781388401985168
32.0,0.08612072467803955
36.0,0.08230995386838913
40.0,0.07907140254974365
44.0,0.07660038769245148
48.0,0.07470061630010605
52.0,0.07328880578279495
56.0,0.0721796378493309
60.0,0.07114415615797043
64.0,0.07030744105577469
72.0,0.06972874701023102
80.0,0.06885303556919098
88.0,0.06793556362390518
96.0,0.06519712507724762
104.0,0.06114228814840317
112.0,0.0562836118042469
120.0,0.05228561535477638
128.0,0.048825886100530624
144.0,0.044438522309064865
160.0,0.040565770119428635
176.0,0.04025333747267723
192.0,0.03888658061623573
208.0,0.03824482858181
224.0,0.03920600190758705
240.0,0.03754255175590515
256.0,0.03373878076672554
288.0,0.02799985557794571
320.0,0.0295797698199749
352.0,0.029330693185329437
384.0,0.021596591919660568
416.0,0.014305203221738338
448.0,0.011191139928996563
480.0,0.005336691625416279
512.0,-0.00023404475359711796
576.0,-0.0012367506278678775
640.0,-0.0031548559200018644
704.0,-0.0012084431946277618
768.0,0.0007359527517110109
832.0,0.0031289157923310995
896.0,0.005799891892820597
960.0,0.00841104332357645
1024.0,0.012224783189594746
1152.0,0.01075962744653225
1280.0,0.009600790217518806
1408.0,0.015268009155988693
1536.0,0.009246896021068096
1664.0,0.0034073307178914547
1792.0,-8.409626025240868e-05
1920.0,-0.0030858716927468777
2048.0,-0.007216445170342922
2304.0,-0.006456559989601374
2560.0,-0.004022942390292883
2816.0,-0.0037901357281953096
3072.0,-0.0034114911686629057
3328.0,-0.0026712941471487284
3584.0,-0.004094080533832312
3840.0,-0.009868468157947063
4096.0,-0.012025787495076656
4608.0,-0.009903603233397007
5120.0,-0.009836161509156227
5632.0,-0.01118403673171997
6144.0,-0.010646156035363674
6656.0,-0.01330643892288208
7168.0,-0.0052062445320189
7680.0,-0.0021476016845554113
8192.0,-0.006502576172351837
9216.0,0.0031432814430445433
10240.0,0.004397556185722351
11264.0,0.004228437785059214
12288.0,0.004985456354916096
13312.0,0.005130325444042683
14336.0,0.004194560926407576
end
