version,3.0
numOfCh,1
type,point
parent_name,dirty_3dot0-0dot1
ch_type,1_1
kcount,1
numberNandB,1
brightnessNandB,1
carpet pos,0
pc,0
Time (ms),CH1 Auto-Correlation
1.0,0.11859271675348282
2.0,0.11520450562238693
3.0,0.11242025345563889
4.0,0.11023462563753128
5.0,0.10839983075857162
6.0,0.10655540227890015
7.0,0.10513167083263397
8.0,0.10356953740119934
9.0,0.10203637182712555
10.0,0.10054288059473038
11.0,0.09917077422142029
12.0,0.09781768172979355
13.0,0.09652774780988693
14.0,0.09532781690359116
15.0,0.09431438893079758
16.0,0.09347496181726456
18.0,0.09209087491035461
20.0,0.09048871695995331
22.0,0.08891364932060242
24.0,0.08740583807229996
26.0,0.08601430058479309
28.0,0.08484531193971634
30.0,0.08382318913936615
32.0,0.08285494893789291
36.0,0.08109759539365768
40.0,0.07945267111063004
44.0,0.07784319669008255
48.0,0.07691317051649094
52.0,0.0763179212808609
56.0,0.07538793981075287
60.0,0.0744381919503212
64.0,0.0732298344373703
72.0,0.07260261476039886
80.0,0.0713377296924591
88.0,0.06876212358474731
96.0,0.06568977236747742
104.0,0.06224827468395233
112.0,0.05878512188792229
120.0,0.05526791885495186
128.0,0.05260767042636871
144.0,0.04796653240919113
160.0,0.0428665466606617
176.0,0.040144678205251694
192.0,0.03598831593990326
208.0,0.03128121420741081
224.0,0.026007993146777153
240.0,0.02104923501610756
256.0,0.019321544095873833
288.0,0.016576271504163742
320.0,0.01085313968360424
352.0,0.006094310898333788
384.0,0.004128731321543455
416.0,0.0004853024147450924
448.0,-0.0005034624482505023
480.0,-0.0029380875639617443
512.0,-0.005572084803134203
576.0,-0.006145274732261896
640.0,-0.005149149801582098
704.0,-0.0052641043439507484
768.0,-0.005354196298867464
832.0,-0.007590718101710081
896.0,-0.007684125564992428
960.0,-0.008923662826418877
1024.0,-0.009565186686813831
1152.0,-0.007836752571165562
1280.0,-0.008501056581735611
1408.0,-0.004390255082398653
1536.0,-0.003890129504725337
1664.0,-0.005287004169076681
1792.0,-0.006578859407454729
1920.0,-0.003983041737228632
2048.0,0.004818151239305735
2304.0,0.03795910254120827
2560.0,0.012223825789988041
2816.0,-0.00411094818264246
3072.0,-0.004003106150776148
3328.0,-0.0060681444592773914
3584.0,-0.0019470802508294582
3840.0,-0.0020504880230873823
4096.0,-0.00429987208917737
4608.0,-0.002145474310964346
5120.0,-0.002585764741525054
5632.0,0.001231042668223381
6144.0,-0.004401985555887222
6656.0,-0.003280532779172063
7168.0,-0.001984997186809778
7680.0,0.0032624872401356697
8192.0,-0.007502638269215822
9216.0,-0.0040189106948673725
10240.0,-0.003408453892916441
11264.0,-0.008521155454218388
12288.0,-0.0005010566092096269
13312.0,-0.0069742705672979355
14336.0,-0.001062464900314808
end
