version,3.0
numOfCh,1
type,point
parent_name,dirty_3dot0-0dot1
ch_type,1_1
kcount,1
numberNandB,1
brightnessNandB,1
carpet pos,0
pc,0
Time (ms),CH1 Auto-Correlation
1.0,0.026752356439828873
2.0,0.02383744902908802
3.0,0.02168937958776951
4.0,0.02011694759130478
5.0,0.018890663981437683
6.0,0.017915736883878708
7.0,0.017093399539589882
8.0,0.016357406973838806
9.0,0.015833016484975815
10.0,0.015285534784197807
11.0,0.014705399982631207
12.0,0.014260678552091122
13.0,0.013767656870186329
14.0,0.01337814424186945
15.0,0.013093213550746441
16.0,0.012744813226163387
18.0,0.012028591707348824
20.0,0.011359497904777527
22.0,0.010791165754199028
24.0,0.010242551565170288
26.0,0.00975576788187027
28.0,0.009148423559963703
30.0,0.008630379103124142
32.0,0.00821903720498085
36.0,0.007312898524105549
40.0,0.006782222539186478
44.0,0.00650830240920186
48.0,0.006254209205508232
52.0,0.0056364755146205425
56.0,0.005225849337875843
60.0,0.004591185599565506
64.0,0.0038384662475436926
72.0,0.002913554897531867
80.0,0.002153691602870822
88.0,0.001728756120428443
96.0,0.0012618746841326356
104.0,0.0010663882130756974
112.0,0.0009851594222709537
120.0,0.0009126595105044544
128.0,0.0010684696026146412
144.0,0.000777871289756149
160.0,0.0010824191849678755
176.0,0.0006644894601777196
192.0,0.0003181009669788182
208.0,0.0003350719634909183
224.0,0.0004914059536531568
240.0,0.0006400924758054316
256.0,0.0004936319892294705
288.0,-7.451411511283368e-05
320.0,0.00023642867745365947
352.0,-0.00031213415786623955
384.0,-0.0014387507690116763
416.0,-0.0007972968160174787
448.0,-0.0010267230682075024
480.0,-0.0001232337235705927
512.0,-0.0012642359361052513
576.0,-0.0012214025482535362
640.0,-0.00024990475503727794
704.0,-0.0006555779837071896
768.0,-0.0016096505569294095
832.0,-0.0016354438848793507
896.0,-0.001031933119520545
960.0,-0.0010280826827511191
1024.0,-0.0003721808607224375
1152.0,0.0019695425871759653
1280.0,0.0011824463726952672
1408.0,6.27841436653398e-05
1536.0,0.0006676667253486812
1664.0,0.000658758741337806
1792.0,0.0002639855083543807
1920.0,-0.00030311706359498203
2048.0,-1.6369447621400468e-05
2304.0,-0.0005975295207463205
2560.0,-0.0004520935472100973
2816.0,-9.502481407253072e-05
3072.0,-0.00032555399229750037
3328.0,0.0004270083154551685
3584.0,-0.00016362513997592032
3840.0,0.00026990639162249863
4096.0,-0.0009607613319531083
4608.0,0.00019480500486679375
5120.0,-0.0006074486882425845
5632.0,-0.000659185869153589
6144.0,0.0005608105566352606
6656.0,-0.0005510309711098671
7168.0,7.247277972055599e-05
7680.0,0.0008489488973282278
8192.0,-0.00047336556599475443
9216.0,0.00043308717431500554
10240.0,-0.000482579052913934
11264.0,0.00014792919682804495
12288.0,-0.0004863133653998375
13312.0,-0.0010466836392879486
14336.0,-2.9169565095799044e-05
end
