version,3.0
numOfCh,1
type,point
parent_name,dirty_3dot0-0dot1
ch_type,1_1
kcount,1
numberNandB,1
brightnessNandB,1
carpet pos,0
pc,0
Time (ms),CH1 Auto-Correlation
1.0,0.1419178992509842
2.0,0.13838069140911102
3.0,0.13532787561416626
4.0,0.1326942890882492
5.0,0.13033205270767212
6.0,0.1281973421573639
7.0,0.12617887556552887
8.0,0.1241602823138237
9.0,0.12241724133491516
10.0,0.12076335400342941
11.0,0.11913660168647766
12.0,0.11747930198907852
13.0,0.1159195676445961
14.0,0.11427206546068192
15.0,0.11278482526540756
16.0,0.11138282716274261
18.0,0.10871817916631699
20.0,0.10638318210840225
22.0,0.10402672737836838
24.0,0.1017850786447525
26.0,0.09986476600170135
28.0,0.09802103787660599
30.0,0.09619904309511185
32.0,0.09445428848266602
36.0,0.09143929928541183
40.0,0.08842961490154266
44.0,0.08519793301820755
48.0,0.08184702694416046
52.0,0.07858703285455704
56.0,0.0755196139216423
60.0,0.07290450483560562
64.0,0.07108158618211746
72.0,0.06857319176197052
80.0,0.06634213775396347
88.0,0.06446385383605957
96.0,0.06208774447441101
104.0,0.05979709327220917
112.0,0.05721190571784973
120.0,0.05521590635180473
128.0,0.05362292379140854
144.0,0.050314031541347504
160.0,0.046535469591617584
176.0,0.04315802454948425
192.0,0.04036678373813629
208.0,0.03822954744100571
224.0,0.03591751307249069
240.0,0.035257820039987564
256.0,0.03076455183327198
288.0,0.02448064275085926
320.0,0.02324044704437256
352.0,0.02129211649298668
384.0,0.02073828876018524
416.0,0.021976782009005547
448.0,0.02173444628715515
480.0,0.0183605644851923
512.0,0.017932187765836716
576.0,0.016508037224411964
640.0,0.010945525951683521
704.0,0.003264246741309762
768.0,-0.0002346785186091438
832.0,0.001926135621033609
896.0,0.004872626159340143
960.0,0.004797568544745445
1024.0,-0.00040942884515970945
1152.0,-0.0004247415636200458
1280.0,0.0005956410896033049
1408.0,-0.004230286460369825
1536.0,-0.006075234618037939
1664.0,-0.007617780938744545
1792.0,-0.00011823515524156392
1920.0,-0.010254603810608387
2048.0,-0.02362718991935253
2304.0,-0.03109760954976082
2560.0,-0.013099152594804764
2816.0,-0.005053952801972628
3072.0,0.008966449648141861
3328.0,0.0036623110063374043
3584.0,-0.0035785052459686995
3840.0,0.008128801360726357
4096.0,0.0007870371337048709
4608.0,0.0047430130653083324
5120.0,-0.004931900184601545
5632.0,0.009325427934527397
6144.0,-0.013040146790444851
6656.0,-0.018994919955730438
7168.0,-0.008972499519586563
7680.0,-0.023089928552508354
8192.0,-0.014158950187265873
9216.0,0.007998596876859665
10240.0,0.021444404497742653
11264.0,-0.0012390492483973503
12288.0,-0.004431195091456175
13312.0,-0.0008224457269534469
14336.0,0.00041875516762956977
end
