version,3.0
numOfCh,1
type,point
parent_name,dirty_3dot0-0dot1
ch_type,1_1
kcount,1
numberNandB,1
brightnessNandB,1
carpet pos,0
pc,0
Time (ms),CH1 Auto-Correlation
1.0,0.10584550350904465
2.0,0.10264450311660767
3.0,0.10029419511556625
4.0,0.09840072691440582
5.0,0.09677539765834808
6.0,0.09535018354654312
7.0,0.09397254139184952
8.0,0.0927644670009613
9.0,0.09164522588253021
10.0,0.09049477428197861
11.0,0.08924756199121475
12.0,0.08811625838279724
13.0,0.08704935759305954
14.0,0.08609525114297867
15.0,0.08524096012115479
16.0,0.08453945070505142
18.0,0.08345021307468414
20.0,0.08210048824548721
22.0,0.08079453557729721
24.0,0.07957272976636887
26.0,0.07841094583272934
28.0,0.07724572718143463
30.0,0.07606887072324753
32.0,0.07504897564649582
36.0,0.07291492819786072
40.0,0.0703512653708458
44.0,0.06788808852434158
48.0,0.06528966128826141
52.0,0.06302373856306076
56.0,0.06087607145309448
60.0,0.059160832315683365
64.0,0.05723288282752037
72.0,0.053558990359306335
80.0,0.04974772036075592
88.0,0.04590390995144844
96.0,0.043360281735658646
104.0,0.041851263493299484
112.0,0.039874881505966187
120.0,0.03719402104616165
128.0,0.03430107608437538
144.0,0.031055845320224762
160.0,0.027352796867489815
176.0,0.023669376969337463
192.0,0.020504677668213844
208.0,0.01827712543308735
224.0,0.0150296064093709
240.0,0.011905296705663204
256.0,0.009814861230552197
288.0,0.008141551166772842
320.0,0.006307447329163551
352.0,0.003126569790765643
384.0,0.00028053700225427747
416.0,-0.0009258253267034888
448.0,2.952075192297343e-06
480.0,0.00385520001873374
512.0,0.005608258303254843
576.0,0.0019487064564600587
640.0,0.0017830498982220888
704.0,-0.000379597011487931
768.0,-0.002391207031905651
832.0,-0.0018817071104422212
896.0,-0.0010633106576278806
960.0,3.9159422158263624e-05
1024.0,-0.0015152273699641228
1152.0,0.0023720748722553253
1280.0,0.0008752754074521363
1408.0,0.0041894675232470036
1536.0,0.010604224167764187
1664.0,0.024124665185809135
1792.0,0.018570134416222572
1920.0,0.008712837472558022
2048.0,0.0019168490543961525
2304.0,-0.007225441746413708
2560.0,-0.006677569821476936
2816.0,-0.004431405104696751
3072.0,-0.002039291663095355
3328.0,0.0014187346678227186
3584.0,-0.0034095749724656343
3840.0,-0.003675633342936635
4096.0,-0.002920151222497225
4608.0,-0.0047109718434512615
5120.0,-0.0013815429992973804
5632.0,0.004915568511933088
6144.0,0.018276402726769447
6656.0,-0.010224851779639721
7168.0,-0.004367598798125982
7680.0,0.0011694170534610748
8192.0,-0.009918888099491596
9216.0,-0.0046053482219576836
10240.0,-0.007064281962811947
11264.0,-0.012899854220449924
12288.0,-0.00775112584233284
13312.0,-0.013185413554310799
14336.0,-0.005237414501607418
end
