version,3.0
numOfCh,1
type,point
parent_name,dirty_3dot0-0dot1
ch_type,1_1
kcount,1
numberNandB,1
brightnessNandB,1
carpet pos,0
pc,0
Time (ms),CH1 Auto-Correlation
1.0,0.15958264470100403
2.0,0.15590813755989075
3.0,0.1527424454689026
4.0,0.14987771213054657
5.0,0.14735199511051178
6.0,0.1451314091682434
7.0,0.1431063860654831
8.0,0.14129501581192017
9.0,0.1394275426864624
10.0,0.13769105076789856
11.0,0.13627228140830994
12.0,0.1348382830619812
13.0,0.13341395556926727
14.0,0.1321597844362259
15.0,0.1310054361820221
16.0,0.12983424961566925
18.0,0.12782570719718933
20.0,0.12590549886226654
22.0,0.124081552028656
24.0,0.12240918725728989
26.0,0.12078694999217987
28.0,0.11922486126422882
30.0,0.11756639927625656
32.0,0.1159343495965004
36.0,0.11297743767499924
40.0,0.10973343253135681
44.0,0.10670172423124313
48.0,0.10351623594760895
52.0,0.10007122904062271
56.0,0.09684426337480545
60.0,0.093588687479496
64.0,0.09059222787618637
72.0,0.08484268188476562
80.0,0.0799967497587204
88.0,0.07549423724412918
96.0,0.07032303512096405
104.0,0.06466374546289444
112.0,0.05879127234220505
120.0,0.05425795540213585
128.0,0.049595657736063004
144.0,0.04384075105190277
160.0,0.0383661650121212
176.0,0.03520923852920532
192.0,0.03446691483259201
208.0,0.032001566141843796
224.0,0.028737053275108337
240.0,0.027939341962337494
256.0,0.028592688962817192
288.0,0.030728930607438087
320.0,0.028916344046592712
352.0,0.02852107770740986
384.0,0.03160551190376282
416.0,0.03080787882208824
448.0,0.02949724905192852
480.0,0.02817775309085846
512.0,0.024063216522336006
576.0,0.022914644330739975
640.0,0.023747380822896957
704.0,0.02886093407869339
768.0,0.02273390255868435
832.0,0.01585637405514717
896.0,0.009534482844173908
960.0,0.012132679112255573
1024.0,0.017834914848208427
1152.0,0.010447797365486622
1280.0,0.014394259080290794
1408.0,0.013275005854666233
1536.0,0.0015934465918689966
1664.0,-0.005673989653587341
1792.0,-0.0011862199753522873
1920.0,0.00734297651797533
2048.0,0.01508625503629446
2304.0,-0.003946786746382713
2560.0,-0.011915184557437897
2816.0,-0.019658148288726807
3072.0,-0.02079544961452484
3328.0,-0.020559120923280716
3584.0,-0.018939709290862083
3840.0,-0.001887103426270187
4096.0,-0.005825170781463385
4608.0,-0.013247870840132236
5120.0,0.0019510923884809017
5632.0,0.013364540413022041
6144.0,0.004966239910572767
6656.0,-0.008486216887831688
7168.0,-0.011976289562880993
7680.0,-0.00922091118991375
8192.0,-0.0024375005159527063
9216.0,-0.004360976628959179
10240.0,0.0010150192538276315
11264.0,-0.006018016021698713
12288.0,-0.006568265613168478
13312.0,-0.024788575246930122
14336.0,0.0021718423813581467
end
