version,3.0
numOfCh,1
type,point
parent_name,dirty_3dot0-0dot1
ch_type,1_1
kcount,1
numberNandB,1
brightnessNandB,1
carpet pos,0
pc,0
Time (ms),CH1 Auto-Correlation
1.0,0.28614333271980286
2.0,0.2815719544887543
3.0,0.27738088369369507
4.0,0.2733268141746521
5.0,0.2696583867073059
6.0,0.26615893840789795
7.0,0.2629311680793762
8.0,0.2599326968193054
9.0,0.2569669187068939
10.0,0.2542307674884796
11.0,0.2515217661857605
12.0,0.24887022376060486
13.0,0.24621076881885529
14.0,0.24373376369476318
15.0,0.24128583073616028
16.0,0.2389581799507141
18.0,0.234322652220726
20.0,0.22937314212322235
22.0,0.22480614483356476
24.0,0.22052724659442902
26.0,0.2163330316543579
28.0,0.21187050640583038
30.0,0.2076105922460556
32.0,0.20363359153270721
36.0,0.19640104472637177
40.0,0.18931102752685547
44.0,0.18213549256324768
48.0,0.1757255643606186
52.0,0.1703457236289978
56.0,0.16529224812984467
60.0,0.16061142086982727
64.0,0.1554488241672516
72.0,0.14477628469467163
80.0,0.13617479801177979
88.0,0.1288764625787735
96.0,0.12272211164236069
104.0,0.11701531708240509
112.0,0.11140000075101852
120.0,0.1067526638507843
128.0,0.10201828926801682
144.0,0.09144193679094315
160.0,0.07835390418767929
176.0,0.06697908788919449
192.0,0.05658101662993431
208.0,0.047060996294021606
224.0,0.04270601272583008
240.0,0.0434710867702961
256.0,0.04399549216032028
288.0,0.041518136858940125
320.0,0.0385940857231617
352.0,0.03300637751817703
384.0,0.03413138538599014
416.0,0.031199386343359947
448.0,0.02985900267958641
480.0,0.027554936707019806
512.0,0.02495007961988449
576.0,0.016292981803417206
640.0,-0.0007748007774353027
704.0,-0.018215499818325043
768.0,-0.020436476916074753
832.0,-0.031055431813001633
896.0,-0.03342753276228905
960.0,-0.031955327838659286
1024.0,-0.028762083500623703
1152.0,-0.020543839782476425
1280.0,-0.02068653702735901
1408.0,-0.011782318353652954
1536.0,-0.006390586029738188
1664.0,-0.030978042632341385
1792.0,-0.02024134434759617
1920.0,0.002946067601442337
2048.0,-0.0010366206988692284
2304.0,-0.0250780638307333
2560.0,-0.025608545169234276
2816.0,-0.03660796582698822
3072.0,-0.026835918426513672
3328.0,-0.006255140528082848
3584.0,0.03890327736735344
3840.0,0.043071094900369644
4096.0,0.03191087394952774
4608.0,-0.0055782548151910305
5120.0,0.013385050930082798
5632.0,0.03271101415157318
6144.0,0.004647453781217337
6656.0,-0.019415687769651413
7168.0,-0.003029462182894349
7680.0,0.008101112209260464
8192.0,-0.029139863327145576
9216.0,-0.023734893649816513
10240.0,0.001071699894964695
11264.0,0.04996161907911301
12288.0,-0.03480992466211319
13312.0,-0.030244093388319016
14336.0,-0.008433692157268524
end
