version,3.0
numOfCh,1
type,point
parent_name,dirty_3dot0-0dot1
ch_type,1_1
kcount,1
numberNandB,1
brightnessNandB,1
carpet pos,0
pc,0
Time (ms),CH1 Auto-Correlation
1.0,0.23147372901439667
2.0,0.22799675166606903
3.0,0.2251250147819519
4.0,0.2226533144712448
5.0,0.22049900889396667
6.0,0.21846799552440643
7.0,0.21661719679832458
8.0,0.21496187150478363
9.0,0.21340897679328918
10.0,0.2119346559047699
11.0,0.21043536067008972
12.0,0.20893442630767822
13.0,0.20750412344932556
14.0,0.2060946673154831
15.0,0.20475995540618896
16.0,0.20320536196231842
18.0,0.2002290040254593
20.0,0.1972896009683609
22.0,0.1946229487657547
24.0,0.1918935328722
26.0,0.189358189702034
28.0,0.1868898868560791
30.0,0.1846618354320526
32.0,0.1825372725725174
36.0,0.17842529714107513
40.0,0.17402946949005127
44.0,0.16989120841026306
48.0,0.166349396109581
52.0,0.16358281672000885
56.0,0.16015146672725677
60.0,0.156233012676239
64.0,0.15267647802829742
72.0,0.14545652270317078
80.0,0.1380562037229538
88.0,0.13113459944725037
96.0,0.1253744661808014
104.0,0.12103738635778427
112.0,0.11654260754585266
120.0,0.111026830971241
128.0,0.10530854761600494
144.0,0.09092172980308533
160.0,0.075182244181633
176.0,0.06230040267109871
192.0,0.054067183285951614
208.0,0.04707309231162071
224.0,0.04150581359863281
240.0,0.03695105388760567
256.0,0.03335350379347801
288.0,0.028176093474030495
320.0,0.02574056014418602
352.0,0.029000304639339447
384.0,0.031681619584560394
416.0,0.030161287635564804
448.0,0.02523062191903591
480.0,0.01793527975678444
512.0,0.010920536704361439
576.0,-0.003222222439944744
640.0,-0.009662925265729427
704.0,-0.011172824539244175
768.0,-0.011038742959499359
832.0,-0.008185786195099354
896.0,-0.007093839347362518
960.0,-0.007902473211288452
1024.0,-0.008509724400937557
1152.0,-0.008168812841176987
1280.0,-0.007375464774668217
1408.0,-0.009244631044566631
1536.0,-0.011279759928584099
1664.0,-0.01135962549597025
1792.0,-0.011820334941148758
1920.0,-0.00949967559427023
2048.0,-0.004728108644485474
2304.0,-0.011406656354665756
2560.0,-0.017569556832313538
2816.0,-0.01489646453410387
3072.0,-0.005266273394227028
3328.0,0.05303199961781502
3584.0,-0.008701237849891186
3840.0,-0.010581879876554012
4096.0,-0.016383366659283638
4608.0,-0.014523000456392765
5120.0,-0.015294707380235195
5632.0,0.027982186526060104
6144.0,-0.010934647172689438
6656.0,-0.014384014531970024
7168.0,-0.020530538633465767
7680.0,-0.008418243378400803
8192.0,-0.003946319222450256
9216.0,0.012269227765500546
10240.0,-0.00647210655733943
11264.0,-0.014561144635081291
12288.0,-0.012138371355831623
13312.0,-0.015476240776479244
14336.0,-0.03625030443072319
end
