version,3.0
numOfCh,1
type,point
parent_name,dirty_3dot0-0dot1
ch_type,1_1
kcount,1
numberNandB,1
brightnessNandB,1
carpet pos,0
pc,0
Time (ms),CH1 Auto-Correlation
1.0,0.16545294225215912
2.0,0.16201266646385193
3.0,0.15906549990177155
4.0,0.15637768805027008
5.0,0.15389883518218994
6.0,0.1516806036233902
7.0,0.1497226357460022
8.0,0.1478511244058609
9.0,0.14602960646152496
10.0,0.1441880762577057
11.0,0.1423334777355194
12.0,0.14047279953956604
13.0,0.13870948553085327
14.0,0.1369314193725586
15.0,0.13518783450126648
16.0,0.13353906571865082
18.0,0.13048724830150604
20.0,0.12737974524497986
22.0,0.12457969784736633
24.0,0.12203425168991089
26.0,0.11970055848360062
28.0,0.11746414005756378
30.0,0.1150851622223854
32.0,0.11267682164907455
36.0,0.1080632135272026
40.0,0.1040487140417099
44.0,0.10028599947690964
48.0,0.09647492319345474
52.0,0.09320014715194702
56.0,0.09051919728517532
60.0,0.08826789259910583
64.0,0.08601108193397522
72.0,0.08344592154026031
80.0,0.08248043805360794
88.0,0.08127234131097794
96.0,0.07896780222654343
104.0,0.0767509937286377
112.0,0.0755348652601242
120.0,0.07360749691724777
128.0,0.07050423324108124
144.0,0.06751833856105804
160.0,0.06357769668102264
176.0,0.057702913880348206
192.0,0.05219278112053871
208.0,0.048837851732969284
224.0,0.04543158411979675
240.0,0.044804614037275314
256.0,0.04144284129142761
288.0,0.030071264132857323
320.0,0.028315961360931396
352.0,0.02812567912042141
384.0,0.025470774620771408
416.0,0.023494262248277664
448.0,0.02415531314909458
480.0,0.024792881682515144
512.0,0.019648771733045578
576.0,0.01960780844092369
640.0,0.011800957843661308
704.0,0.008648973889648914
768.0,0.001246770960278809
832.0,0.004985491745173931
896.0,-0.0018062570597976446
960.0,-0.008984711952507496
1024.0,-0.01821858622133732
1152.0,-0.023493211716413498
1280.0,-0.025102680549025536
1408.0,-0.023150427266955376
1536.0,-0.024060925468802452
1664.0,-0.02707768604159355
1792.0,-0.03198999911546707
1920.0,-0.03531397134065628
2048.0,-0.030095648020505905
2304.0,-0.011829971335828304
2560.0,-0.007757461164146662
2816.0,0.019144032150506973
3072.0,0.04169214516878128
3328.0,0.02778293564915657
3584.0,0.011013883166015148
3840.0,0.012011264450848103
4096.0,-0.014040382578969002
4608.0,-0.02457783930003643
5120.0,-0.02533484622836113
5632.0,-0.0017599757993593812
6144.0,0.016451239585876465
6656.0,0.021427825093269348
7168.0,-0.006029906682670116
7680.0,-0.023703068494796753
8192.0,-0.03224889189004898
9216.0,0.00822374876588583
10240.0,0.010600948706269264
11264.0,-0.014511537738144398
12288.0,-0.01594933494925499
13312.0,0.010802354663610458
14336.0,0.023919010534882545
end
