version,3.0
numOfCh,1
type,point
parent_name,dirty_3dot0-0dot1
ch_type,1_1
kcount,1
numberNandB,1
brightnessNandB,1
carpet pos,0
pc,0
Time (ms),CH1 Auto-Correlation
1.0,0.13212651014328003
2.0,0.12895961105823517
3.0,0.12637902796268463
4.0,0.12426316738128662
5.0,0.1223776787519455
6.0,0.12064331769943237
7.0,0.1191396713256836
8.0,0.11783543974161148
9.0,0.11651941388845444
10.0,0.11511421948671341
11.0,0.11363280564546585
12.0,0.11220161616802216
13.0,0.11084218323230743
14.0,0.10959867388010025
15.0,0.10839106887578964
16.0,0.1072528287768364
18.0,0.10509060323238373
20.0,0.10281427949666977
22.0,0.10049086809158325
24.0,0.09814634919166565
26.0,0.09576836973428726
28.0,0.09371230751276016
30.0,0.091989666223526
32.0,0.09011654555797577
36.0,0.08639847487211227
40.0,0.08316151052713394
44.0,0.08005736023187637
48.0,0.07716471701860428
52.0,0.07463180273771286
56.0,0.07278000563383102
60.0,0.07124616950750351
64.0,0.06981664896011353
72.0,0.06776084005832672
80.0,0.06554213166236877
88.0,0.06254098564386368
96.0,0.0587615892291069
104.0,0.05516749620437622
112.0,0.05133992061018944
120.0,0.04678776115179062
128.0,0.041934482753276825
144.0,0.035414550453424454
160.0,0.0325421467423439
176.0,0.033001940697431564
192.0,0.03279915824532509
208.0,0.031847599893808365
224.0,0.030237924307584763
240.0,0.02989296242594719
256.0,0.03101581707596779
288.0,0.03153957426548004
320.0,0.030385389924049377
352.0,0.03320037201046944
384.0,0.035687390714883804
416.0,0.036283235996961594
448.0,0.03456179052591324
480.0,0.027188556268811226
512.0,0.022766295820474625
576.0,0.01639561913907528
640.0,0.015596265904605389
704.0,0.011594614945352077
768.0,0.006327308248728514
832.0,-0.004411820322275162
896.0,-0.008425844833254814
960.0,-0.007026444189250469
1024.0,-0.004306619055569172
1152.0,0.0001131429016822949
1280.0,0.001995530677959323
1408.0,0.0007306443294510245
1536.0,0.000158296141307801
1664.0,0.01292332448065281
1792.0,0.0089561240747571
1920.0,0.007624493911862373
2048.0,0.013148344121873379
2304.0,0.0017446965212002397
2560.0,-0.003982052206993103
2816.0,-0.015638649463653564
3072.0,-0.019242040812969208
3328.0,-0.018507661297917366
3584.0,-0.01765267923474312
3840.0,-0.009229598566889763
4096.0,-0.009642418473958969
4608.0,-0.004101498983800411
5120.0,-0.010303588584065437
5632.0,-0.015227091498672962
6144.0,-0.00975080206990242
6656.0,0.00012177436292404309
7168.0,0.010156030766665936
7680.0,0.0010605351999402046
8192.0,-0.005943717900663614
9216.0,0.008677068166434765
10240.0,-0.009406771510839462
11264.0,-0.020655198022723198
12288.0,-0.006550416816025972
13312.0,0.01021560002118349
14336.0,0.01941189169883728
end
