version,3.0
numOfCh,1
type,point
parent_name,dirty_3dot0-0dot1
ch_type,1_1
kcount,1
numberNandB,1
brightnessNandB,1
carpet pos,0
pc,0
Time (ms),CH1 Auto-Correlation
1.0,0.12190350145101547
2.0,0.11868414282798767
3.0,0.11621877551078796
4.0,0.11411890387535095
5.0,0.1121644452214241
6.0,0.11028281599283218
7.0,0.10842549055814743
8.0,0.10680897533893585
9.0,0.10528755933046341
10.0,0.10382524877786636
11.0,0.10227145254611969
12.0,0.10079971700906754
13.0,0.09943190217018127
14.0,0.09816243499517441
15.0,0.09693972766399384
16.0,0.09569902718067169
18.0,0.09328962117433548
20.0,0.0909537747502327
22.0,0.08866427838802338
24.0,0.08662039786577225
26.0,0.08453390747308731
28.0,0.08246351778507233
30.0,0.08056668937206268
32.0,0.07855217903852463
36.0,0.07468798756599426
40.0,0.07139252126216888
44.0,0.06885209679603577
48.0,0.06677622348070145
52.0,0.06457233428955078
56.0,0.06245660036802292
60.0,0.06038689613342285
64.0,0.058477893471717834
72.0,0.05485440790653229
80.0,0.051887739449739456
88.0,0.049813222140073776
96.0,0.04832109063863754
104.0,0.04714582487940788
112.0,0.04608185216784477
120.0,0.04448997601866722
128.0,0.04329784959554672
144.0,0.041112020611763
160.0,0.037238143384456635
176.0,0.03559987246990204
192.0,0.035236675292253494
208.0,0.034256696701049805
224.0,0.03324337676167488
240.0,0.03343246877193451
256.0,0.03321878984570503
288.0,0.029325738549232483
320.0,0.027568086981773376
352.0,0.02723715826869011
384.0,0.029747920110821724
416.0,0.02886754646897316
448.0,0.022955356165766716
480.0,0.022526821121573448
512.0,0.024306032806634903
576.0,0.019479703158140182
640.0,0.018980329856276512
704.0,0.018337801098823547
768.0,0.014338874258100986
832.0,0.005082797724753618
896.0,0.005154735874384642
960.0,0.006013994105160236
1024.0,0.0005604636971838772
1152.0,-0.0028176074847579002
1280.0,0.002226675860583782
1408.0,0.0011921259574592113
1536.0,-0.004733350593596697
1664.0,-0.0065095433965325356
1792.0,-0.012970320880413055
1920.0,-0.013092651031911373
2048.0,-0.010704259388148785
2304.0,-0.01967027597129345
2560.0,-0.02784738317131996
2816.0,-0.025961458683013916
3072.0,-0.019571011886000633
3328.0,-0.010945301502943039
3584.0,-0.008365683257579803
3840.0,-0.001223596278578043
4096.0,0.005718547385185957
4608.0,0.018979791551828384
5120.0,0.017914049327373505
5632.0,0.01146787591278553
6144.0,0.00819420162588358
6656.0,0.0034314484801143408
7168.0,-0.005945049691945314
7680.0,-0.011878211982548237
8192.0,-0.024425525218248367
9216.0,-0.01488348376005888
10240.0,0.0031133098527789116
11264.0,0.01269424706697464
12288.0,0.004523804411292076
13312.0,-0.028584349900484085
14336.0,0.005198740866035223
end
