version,3.0
numOfCh,1
type,point
parent_name,dirty_3dot0-0dot1
ch_type,1_1
kcount,1
numberNandB,1
brightnessNandB,1
carpet pos,0
pc,0
Time (ms),CH1 Auto-Correlation
1.0,0.05044713616371155
2.0,0.047419290989637375
3.0,0.04510462284088135
4.0,0.043146345764398575
5.0,0.04147041216492653
6.0,0.040091682225465775
7.0,0.038832854479551315
8.0,0.03769134357571602
9.0,0.036632705479860306
10.0,0.03565237671136856
11.0,0.03467531129717827
12.0,0.0336611308157444
13.0,0.03274386748671532
14.0,0.03175849840044975
15.0,0.030762944370508194
16.0,0.029876338317990303
18.0,0.028377994894981384
20.0,0.02702684886753559
22.0,0.025866128504276276
24.0,0.024808943271636963
26.0,0.023626545444130898
28.0,0.022637004032731056
30.0,0.021997755393385887
32.0,0.021357368677854538
36.0,0.020266106352210045
40.0,0.019709130749106407
44.0,0.01945943385362625
48.0,0.019367018714547157
52.0,0.019171450287103653
56.0,0.01894029974937439
60.0,0.018697421997785568
64.0,0.018505945801734924
72.0,0.017726875841617584
80.0,0.01621391996741295
88.0,0.01488663163036108
96.0,0.013626810163259506
104.0,0.012709345668554306
112.0,0.0119671281427145
120.0,0.011171706952154636
128.0,0.010719365440309048
144.0,0.008924433030188084
160.0,0.008186975494027138
176.0,0.007190102245658636
192.0,0.006595113314688206
208.0,0.006663476582616568
224.0,0.006498672533780336
240.0,0.007236096542328596
256.0,0.007424578536301851
288.0,0.0034158718772232533
320.0,0.001693666446954012
352.0,7.162612018873915e-05
384.0,-0.0012951719108968973
416.0,-0.002655815565958619
448.0,-0.0025727658066898584
480.0,-0.0037533340509980917
512.0,-0.00450512208044529
576.0,-0.0018149381503462791
640.0,-0.0017065202118828893
704.0,-0.0013647517189383507
768.0,-0.0010060544591397047
832.0,-0.0012113484553992748
896.0,-0.0014417854836210608
960.0,-0.0019256100058555603
1024.0,-0.0016483800718560815
1152.0,-0.0022831696551293135
1280.0,-0.0010478863259777427
1408.0,0.0033492022193968296
1536.0,0.0025192811153829098
1664.0,0.0036450927145779133
1792.0,0.0009944591438397765
1920.0,-0.001307319849729538
2048.0,-0.0005176100530661643
2304.0,0.0023818686604499817
2560.0,-0.0016476856544613838
2816.0,-0.0032073473557829857
3072.0,-0.0016026709927245975
3328.0,-0.0027135431300848722
3584.0,-0.0021563598420470953
3840.0,0.0013779468135908246
4096.0,0.0009629066335037351
4608.0,0.0003586517705116421
5120.0,-0.004167458042502403
5632.0,0.0003072838007938117
6144.0,0.0018392845522612333
6656.0,-0.0004309987125452608
7168.0,-0.004656186327338219
7680.0,-0.0013018818572163582
8192.0,0.0026165919844061136
9216.0,-0.0011189818615093827
10240.0,0.0008099822443909943
11264.0,0.0004812633851543069
12288.0,0.0006166294915601611
13312.0,-0.0015265581896528602
14336.0,-9.005489118862897e-05
end
