version,3.0
numOfCh,1
type,point
parent_name,dirty_3dot0-0dot1
ch_type,1_1
kcount,1
numberNandB,1
brightnessNandB,1
carpet pos,0
pc,0
Time (ms),CH1 Auto-Correlation
1.0,0.254495233297348
2.0,0.2506434917449951
3.0,0.24742655456066132
4.0,0.24466736614704132
5.0,0.2419852763414383
6.0,0.23945705592632294
7.0,0.23723992705345154
8.0,0.23534004390239716
9.0,0.2334006428718567
10.0,0.23166710138320923
11.0,0.22984755039215088
12.0,0.22811190783977509
13.0,0.22635290026664734
14.0,0.22469256818294525
15.0,0.22299756109714508
16.0,0.2213563472032547
18.0,0.21819768846035004
20.0,0.2153293341398239
22.0,0.2126571089029312
24.0,0.21047914028167725
26.0,0.20832346379756927
28.0,0.2062995731830597
30.0,0.2045583426952362
32.0,0.20276661217212677
36.0,0.1990559995174408
40.0,0.19608135521411896
44.0,0.19364501535892487
48.0,0.1912347972393036
52.0,0.18880949914455414
56.0,0.18651306629180908
60.0,0.18426717817783356
64.0,0.18258529901504517
72.0,0.17920362949371338
80.0,0.17654293775558472
88.0,0.17343392968177795
96.0,0.17028303444385529
104.0,0.1676637977361679
112.0,0.16437095403671265
120.0,0.16003403067588806
128.0,0.15606263279914856
144.0,0.15224899351596832
160.0,0.14795491099357605
176.0,0.14461977779865265
192.0,0.1414525955915451
208.0,0.13693593442440033
224.0,0.1301233321428299
240.0,0.12564586102962494
256.0,0.12471974641084671
288.0,0.12316449731588364
320.0,0.11688140034675598
352.0,0.11738209426403046
384.0,0.10743463039398193
416.0,0.09813003242015839
448.0,0.09225017577409744
480.0,0.08444712311029434
512.0,0.07419051975011826
576.0,0.06041690707206726
640.0,0.05311135575175285
704.0,0.047879043966531754
768.0,0.044015176594257355
832.0,0.03689902275800705
896.0,0.026375941932201385
960.0,0.020325692370533943
1024.0,0.016736041754484177
1152.0,0.02043410763144493
1280.0,0.031020794063806534
1408.0,0.046428024768829346
1536.0,0.05760977789759636
1664.0,0.0706508681178093
1792.0,0.07197809219360352
1920.0,0.059499792754650116
2048.0,0.05961432307958603
2304.0,0.042833950370550156
2560.0,0.031039021909236908
2816.0,0.012641571462154388
3072.0,-0.006233090069144964
3328.0,-0.013465451076626778
3584.0,-0.01874932087957859
3840.0,-0.02357766218483448
4096.0,-0.024005748331546783
4608.0,-0.02172243408858776
5120.0,-0.018510891124606133
5632.0,-0.01844867132604122
6144.0,-0.013313403353095055
6656.0,-0.02547680027782917
7168.0,-0.040221575647592545
7680.0,-0.032771237194538116
8192.0,-0.03595041483640671
9216.0,-0.06115815415978432
10240.0,-0.07314498722553253
11264.0,-0.051183365285396576
12288.0,-0.014590722508728504
13312.0,-0.020652739331126213
14336.0,0.057722631841897964
end
