version,3.0
numOfCh,1
type,point
parent_name,dirty_3dot0-0dot1
ch_type,1_1
kcount,1
numberNandB,1
brightnessNandB,1
carpet pos,0
pc,0
Time (ms),CH1 Auto-Correlation
1.0,0.1505366414785385
2.0,0.1472778618335724
3.0,0.14457285404205322
4.0,0.14228489995002747
5.0,0.14035607874393463
6.0,0.13867205381393433
7.0,0.13709907233715057
8.0,0.13563227653503418
9.0,0.1341719627380371
10.0,0.13276365399360657
11.0,0.13140594959259033
12.0,0.13004179298877716
13.0,0.12892858684062958
14.0,0.12803062796592712
15.0,0.12698239088058472
16.0,0.12608559429645538
18.0,0.12441419810056686
20.0,0.12265782058238983
22.0,0.12093128263950348
24.0,0.11957849562168121
26.0,0.1183551549911499
28.0,0.11703921854496002
30.0,0.11568133533000946
32.0,0.11435729265213013
36.0,0.1118595227599144
40.0,0.10852654278278351
44.0,0.10521069169044495
48.0,0.10092028230428696
52.0,0.09681694209575653
56.0,0.09312732517719269
60.0,0.09002146124839783
64.0,0.08779191970825195
72.0,0.08296483755111694
80.0,0.07631988823413849
88.0,0.06953071057796478
96.0,0.06410149484872818
104.0,0.06014573946595192
112.0,0.05663631856441498
120.0,0.0527462437748909
128.0,0.04976378008723259
144.0,0.046472325921058655
160.0,0.04225911572575569
176.0,0.0388861782848835
192.0,0.03532341122627258
208.0,0.03344805911183357
224.0,0.03254443407058716
240.0,0.029591919854283333
256.0,0.027785513550043106
288.0,0.024869557470083237
320.0,0.01863330788910389
352.0,0.013461248949170113
384.0,0.010602097027003765
416.0,0.010234112851321697
448.0,0.006183176301419735
480.0,0.0036117946729063988
512.0,0.004247923847287893
576.0,0.005985792726278305
640.0,0.0050832307897508144
704.0,0.0010354913538321853
768.0,0.0012456175172701478
832.0,0.002021311316639185
896.0,-0.0015987298684194684
960.0,-0.002002045512199402
1024.0,-0.0010698416735976934
1152.0,-0.002844183938577771
1280.0,-0.005339359864592552
1408.0,-0.0023868270218372345
1536.0,-0.00453996891155839
1664.0,-0.007613650057464838
1792.0,-0.008148247376084328
1920.0,-0.009022577665746212
2048.0,-0.010011621750891209
2304.0,-0.01001773402094841
2560.0,-0.010021226480603218
2816.0,-0.011094489134848118
3072.0,-0.010881801135838032
3328.0,-0.00982750952243805
3584.0,-0.011804127134382725
3840.0,-0.006503516808152199
4096.0,-0.0045385221019387245
4608.0,-0.006251194979995489
5120.0,-0.003194737248122692
5632.0,-0.004166685044765472
6144.0,-0.0029176874086260796
6656.0,0.0001960449299076572
7168.0,0.002891875570639968
7680.0,0.022801002487540245
8192.0,0.0368686318397522
9216.0,-0.005108162295073271
10240.0,-0.01268806867301464
11264.0,-0.016315825283527374
12288.0,-0.0104105519130826
13312.0,0.00789595302194357
14336.0,0.009023304097354412
end
