version,3.0
numOfCh,1
type,point
parent_name,dirty_3dot0-0dot1
ch_type,1_1
kcount,1
numberNandB,1
brightnessNandB,1
carpet pos,0
pc,0
Time (ms),CH1 Auto-Correlation
1.0,0.20089636743068695
2.0,0.19725605845451355
3.0,0.19417715072631836
4.0,0.19163958728313446
5.0,0.18936239182949066
6.0,0.1872783750295639
7.0,0.18535257875919342
8.0,0.18347865343093872
9.0,0.18156041204929352
10.0,0.17959998548030853
11.0,0.17781251668930054
12.0,0.17581535875797272
13.0,0.1737823486328125
14.0,0.17185325920581818
15.0,0.16989748179912567
16.0,0.16791141033172607
18.0,0.1641957014799118
20.0,0.1604980081319809
22.0,0.15674418210983276
24.0,0.15301717817783356
26.0,0.14953994750976562
28.0,0.145889550447464
30.0,0.14255836606025696
32.0,0.13918769359588623
36.0,0.13280566036701202
40.0,0.12663114070892334
44.0,0.12127397954463959
48.0,0.11616824567317963
52.0,0.11154034733772278
56.0,0.10713440924882889
60.0,0.10344192385673523
64.0,0.10053125768899918
72.0,0.09612878412008286
80.0,0.09209983050823212
88.0,0.08764629065990448
96.0,0.08431251347064972
104.0,0.08093085139989853
112.0,0.07900479435920715
120.0,0.07699223607778549
128.0,0.0745164081454277
144.0,0.0680411085486412
160.0,0.061202362179756165
176.0,0.0532384067773819
192.0,0.04809834063053131
208.0,0.045919019728899
224.0,0.04499974846839905
240.0,0.043399930000305176
256.0,0.04073483869433403
288.0,0.031637515872716904
320.0,0.020086044445633888
352.0,0.010661615990102291
384.0,0.006304839160293341
416.0,0.006594582926481962
448.0,0.008281172253191471
480.0,0.006001569330692291
512.0,0.0018382184207439423
576.0,-0.0054587810300290585
640.0,0.008193768560886383
704.0,0.0048005469143390656
768.0,0.010017427615821362
832.0,-0.0010404797503724694
896.0,0.001231358153745532
960.0,-0.00694056274369359
1024.0,-0.012108425609767437
1152.0,-0.002638823352754116
1280.0,0.006120600271970034
1408.0,0.01630122773349285
1536.0,0.018163999542593956
1664.0,0.01874104142189026
1792.0,-0.008112242445349693
1920.0,0.0008018387597985566
2048.0,0.00487725343555212
2304.0,-0.012265137396752834
2560.0,-0.01110193319618702
2816.0,0.007948973216116428
3072.0,0.006271786987781525
3328.0,0.009772992692887783
3584.0,0.018083788454532623
3840.0,0.011816909536719322
4096.0,0.013560272753238678
4608.0,0.001405805815011263
5120.0,-0.01361433882266283
5632.0,-0.020190494135022163
6144.0,-0.0086910929530859
6656.0,0.007617712486535311
7168.0,0.00579457962885499
7680.0,0.0228949673473835
8192.0,0.01187598705291748
9216.0,-0.01439729891717434
10240.0,-0.0213705413043499
11264.0,-0.01474221982061863
12288.0,-0.029893608763813972
13312.0,-0.042161568999290466
14336.0,-0.021889198571443558
end
