version,3.0
numOfCh,1
type,point
parent_name,dirty_3dot0-0dot1
ch_type,1_1
kcount,1
numberNandB,1
brightnessNandB,1
carpet pos,0
pc,0
Time (ms),CH1 Auto-Correlation
1.0,0.24066725373268127
2.0,0.23674499988555908
3.0,0.23339521884918213
4.0,0.2305428683757782
5.0,0.227793887257576
6.0,0.22511695325374603
7.0,0.22270123660564423
8.0,0.22030003368854523
9.0,0.2179732322692871
10.0,0.21564941108226776
11.0,0.21342581510543823
12.0,0.2111554741859436
13.0,0.20879897475242615
14.0,0.20653373003005981
15.0,0.2042400985956192
16.0,0.20185166597366333
18.0,0.19745416939258575
20.0,0.19311338663101196
22.0,0.1889394074678421
24.0,0.18511205911636353
26.0,0.1813470721244812
28.0,0.177515909075737
30.0,0.17351387441158295
32.0,0.169778510928154
36.0,0.1623934954404831
40.0,0.1555006504058838
44.0,0.14945226907730103
48.0,0.14414562284946442
52.0,0.1392848789691925
56.0,0.13513658940792084
60.0,0.131235271692276
64.0,0.1273588389158249
72.0,0.12030377984046936
80.0,0.1144900843501091
88.0,0.10932249575853348
96.0,0.10530295222997665
104.0,0.1008446142077446
112.0,0.09764968603849411
120.0,0.09514155238866806
128.0,0.09282946586608887
144.0,0.08785887062549591
160.0,0.0833221971988678
176.0,0.08095709979534149
192.0,0.0785943940281868
208.0,0.07669588923454285
224.0,0.07387509942054749
240.0,0.07314484566450119
256.0,0.07284826785326004
288.0,0.0754154846072197
320.0,0.06710250675678253
352.0,0.055432744324207306
384.0,0.05291583389043808
416.0,0.05030518025159836
448.0,0.03843328356742859
480.0,0.027537154033780098
512.0,0.024293633177876472
576.0,0.020114103332161903
640.0,0.006817391142249107
704.0,0.005134763661772013
768.0,-0.0011357506737113
832.0,-0.007804420776665211
896.0,-0.0052569410763680935
960.0,-0.010813876055181026
1024.0,-0.010258644819259644
1152.0,-0.008959349244832993
1280.0,-0.027049999684095383
1408.0,-0.03239756077528
1536.0,-0.03361748158931732
1664.0,-0.03885890543460846
1792.0,-0.03574461117386818
1920.0,-0.026624884456396103
2048.0,-0.021395402029156685
2304.0,-0.011836244724690914
2560.0,-0.010443732142448425
2816.0,-0.015498906373977661
3072.0,-0.01122860237956047
3328.0,-0.00010012109851231799
3584.0,0.019452974200248718
3840.0,0.011441417969763279
4096.0,-0.014800206758081913
4608.0,-0.036272574216127396
5120.0,-0.02984040416777134
5632.0,0.005401372443884611
6144.0,0.027215657755732536
6656.0,0.017921434715390205
7168.0,0.008010821416974068
7680.0,-0.01140523236244917
8192.0,-0.0025501311756670475
9216.0,0.04534674063324928
10240.0,-0.03557342663407326
11264.0,-0.04578852280974388
12288.0,0.018392009660601616
13312.0,0.1012914702296257
14336.0,-0.13367046415805817
end
