version,3.0
numOfCh,1
type,point
parent_name,0-cuts
ch_type,1_1
kcount,1
numberNandB,1
brightnessNandB,1
carpet pos,0
pc,0
Time (ms),CH1 Auto-Correlation
1.0,0.09211502224206924
2.0,0.08512873202562332
3.0,0.07926473766565323
4.0,0.07411587983369827
5.0,0.06963285058736801
6.0,0.06544861197471619
7.0,0.0617191456258297
8.0,0.058366358280181885
9.0,0.05515885353088379
10.0,0.05213085934519768
11.0,0.04955822601914406
12.0,0.047273606061935425
13.0,0.04507659003138542
14.0,0.043242197483778
15.0,0.04152166470885277
16.0,0.0397990420460701
18.0,0.03699275478720665
20.0,0.03465164080262184
22.0,0.03274679183959961
24.0,0.03084779903292656
26.0,0.02927396260201931
28.0,0.027853012084960938
30.0,0.026676736772060394
32.0,0.025184432044625282
36.0,0.023134702816605568
40.0,0.02144843339920044
44.0,0.01991141401231289
48.0,0.018612300977110863
52.0,0.016770685091614723
56.0,0.015049923211336136
60.0,0.0140990586951375
64.0,0.013384091667830944
72.0,0.0136040598154068
80.0,0.012546082958579063
88.0,0.012246701866388321
96.0,0.012614917010068893
104.0,0.0103214792907238
112.0,0.008439293131232262
120.0,0.007505101151764393
128.0,0.007647498976439238
144.0,0.007105608470737934
160.0,0.005258715711534023
176.0,0.0045493668876588345
192.0,0.0032536580692976713
208.0,0.0016511210706084967
224.0,0.004225552547723055
240.0,0.006446130573749542
256.0,0.005684429779648781
288.0,0.0029820732306689024
320.0,0.004212327301502228
352.0,0.001698957639746368
384.0,0.002604119013994932
416.0,0.004446827806532383
448.0,-0.001227856962941587
480.0,0.0017388500273227692
512.0,0.00023618314298801124
576.0,-0.0013211629120633006
640.0,0.0019075465388596058
704.0,-0.001383847906254232
768.0,-0.0031314019579440355
832.0,-0.006756294053047895
896.0,-0.005455457605421543
960.0,-0.0040428307838737965
1024.0,-0.006390884052962065
1152.0,-0.0012012006482109427
1280.0,-0.00026175350649282336
1408.0,-0.002114243805408478
1536.0,0.001286358223296702
1664.0,-0.0047165388241410255
1792.0,-0.004775981418788433
1920.0,-0.001036985544487834
2048.0,0.0033108824864029884
2304.0,0.003522931830957532
2560.0,0.0016889972612261772
2816.0,-0.00043258615187369287
3072.0,-0.003636860754340887
3328.0,-0.005574670620262623
3584.0,-0.0033186424989253283
3840.0,-0.0035083885304629803
4096.0,0.0008765140664763749
4608.0,0.0011214574333280325
5120.0,-0.0019082949729636312
5632.0,0.0036475458182394505
6144.0,0.002777403686195612
6656.0,0.0033005294390022755
7168.0,-0.004840599838644266
7680.0,-0.0012176918098703027
8192.0,0.0036795344203710556
9216.0,-0.0048990813083946705
10240.0,0.0016246080631390214
11264.0,-0.0004316354461479932
12288.0,-5.35794097231701e-05
13312.0,0.001171007752418518
14336.0,-0.0038767752703279257
end
