version,3.0
numOfCh,1
type,point
parent_name,0-cuts
ch_type,1_1
kcount,1
numberNandB,1
brightnessNandB,1
carpet pos,0
pc,0
Time (ms),CH1 Auto-Correlation
1.0,0.027511129155755043
2.0,0.025345100089907646
3.0,0.023472880944609642
4.0,0.021920932456851006
5.0,0.020513201132416725
6.0,0.019269749522209167
7.0,0.018176157027482986
8.0,0.017151225358247757
9.0,0.016242606565356255
10.0,0.015442829579114914
11.0,0.014669092372059822
12.0,0.014049760065972805
13.0,0.013451204635202885
14.0,0.01284441351890564
15.0,0.012235697358846664
16.0,0.011733923107385635
18.0,0.010773533955216408
20.0,0.009884737432003021
22.0,0.009064399637281895
24.0,0.008384780026972294
26.0,0.007883545942604542
28.0,0.007351654581725597
30.0,0.0068844398483633995
32.0,0.006557408720254898
36.0,0.0058493358083069324
40.0,0.005115272477269173
44.0,0.004340801853686571
48.0,0.003578857285901904
52.0,0.003044871613383293
56.0,0.00295574520714581
60.0,0.0028626988641917706
64.0,0.0028053775895386934
72.0,0.002423470839858055
80.0,0.001980904722586274
88.0,0.0013852370902895927
96.0,0.0010268596233800054
104.0,0.0009057135321199894
112.0,0.0009532704134471714
120.0,0.0011026565916836262
128.0,0.000707257364410907
144.0,0.0003109958488494158
160.0,0.000739178154617548
176.0,0.0008330057607963681
192.0,0.0008165069157257676
208.0,0.0007964355172589421
224.0,0.0009268649737350643
240.0,0.0012796054361388087
256.0,0.001095467247068882
288.0,0.00013766750635113567
320.0,-2.5576089683454484e-05
352.0,0.00043386599281802773
384.0,0.00040426015038974583
416.0,2.020706597249955e-05
448.0,0.00013825269707012922
480.0,0.0017079694662243128
512.0,0.0003316765942145139
576.0,-0.0006085610948503017
640.0,-0.0002892373304348439
704.0,0.000725821650121361
768.0,0.000684197642840445
832.0,-5.761985812569037e-05
896.0,0.00037040209281258285
960.0,0.0002379759680479765
1024.0,0.0009875487303361297
1152.0,0.0009936861461028457
1280.0,-0.0007905493839643896
1408.0,-0.0012250480940565467
1536.0,0.0007016481831669807
1664.0,0.00024688511621207
1792.0,0.0008947241003625095
1920.0,-0.00014230931992642581
2048.0,0.0012005111202597618
2304.0,-0.000746308418456465
2560.0,-0.0008768785046413541
2816.0,-0.0009479790460318327
3072.0,-6.709271838190034e-05
3328.0,0.00018872477812692523
3584.0,-0.0005255331052467227
3840.0,-9.011654037749395e-05
4096.0,-0.0001493412273703143
4608.0,-0.0004912035656161606
5120.0,-1.980350680241827e-05
5632.0,-0.000249863340286538
6144.0,0.00011923232523258775
6656.0,-0.0003326070145703852
7168.0,-0.00037858463474549353
7680.0,1.6538901036255993e-05
8192.0,-0.000199719681404531
9216.0,-0.0006857210537418723
10240.0,8.47466362756677e-05
11264.0,0.0003159720217809081
12288.0,0.00019078797777183354
13312.0,0.0006674419273622334
14336.0,3.448038114584051e-05
end
