version,3.0
numOfCh,1
type,point
parent_name,0-cuts
ch_type,1_1
kcount,1
numberNandB,1
brightnessNandB,1
carpet pos,0
pc,0
Time (ms),CH1 Auto-Correlation
1.0,0.027052439749240875
2.0,0.024861948564648628
3.0,0.023044168949127197
4.0,0.021382683888077736
5.0,0.019977111369371414
6.0,0.018741561099886894
7.0,0.017749207094311714
8.0,0.01683717593550682
9.0,0.016056187450885773
10.0,0.015346311032772064
11.0,0.01471815723925829
12.0,0.014132259413599968
13.0,0.013633823953568935
14.0,0.013160697184503078
15.0,0.012742988765239716
16.0,0.012352635152637959
18.0,0.01149272732436657
20.0,0.010627764277160168
22.0,0.009867190383374691
24.0,0.00920742005109787
26.0,0.008649230934679508
28.0,0.008141386322677135
30.0,0.007607828825712204
32.0,0.00704266456887126
36.0,0.006109524518251419
40.0,0.005256118718534708
44.0,0.0045508029870688915
48.0,0.004156287759542465
52.0,0.0037627634592354298
56.0,0.0035097021609544754
60.0,0.003376887645572424
64.0,0.0033706792164593935
72.0,0.0027332541067153215
80.0,0.0023727582301944494
88.0,0.0025395469274371862
96.0,0.0020676758140325546
104.0,0.0012959868181496859
112.0,0.0008466884610243142
120.0,0.0006043304456397891
128.0,0.0006916507263667881
144.0,0.0011325400555506349
160.0,0.00085206184303388
176.0,0.0002697124728001654
192.0,0.00042389132431708276
208.0,0.0006660373765043914
224.0,0.0006131259142421186
240.0,0.0006150957779027522
256.0,0.00018573964189272374
288.0,-0.00028204265981912613
320.0,-0.0003168614348396659
352.0,-0.00038493418833240867
384.0,-0.0006614386802539229
416.0,-0.0014756390592083335
448.0,-0.0011607888154685497
480.0,-0.0010175897041335702
512.0,-0.00168653076980263
576.0,-0.0023534405045211315
640.0,-0.0016980011714622378
704.0,-0.0007745874463580549
768.0,0.00029401929350569844
832.0,0.0002582730376161635
896.0,-0.0009311581961810589
960.0,0.0002629339578561485
1024.0,0.001512205577455461
1152.0,1.0951979675155599e-05
1280.0,3.180065323249437e-05
1408.0,-0.0006992327398620546
1536.0,-0.00058904686011374
1664.0,-0.0006722952239215374
1792.0,-0.0002849353477358818
1920.0,-0.00015767390141263604
2048.0,0.0008358839550055563
2304.0,-0.0006992744747549295
2560.0,0.0002993677044287324
2816.0,0.0007853709394112229
3072.0,-0.0009978825692087412
3328.0,-0.0006710350862704217
3584.0,0.0014906293945387006
3840.0,0.000615759170614183
4096.0,-0.00041157042142003775
4608.0,-0.0002874441270250827
5120.0,-0.0002442272671032697
5632.0,0.00025612718309275806
6144.0,2.6204349978797836e-06
6656.0,-0.00011710380931617692
7168.0,-0.0003844182938337326
7680.0,-5.1771814469248056e-05
8192.0,0.00011655463458737358
9216.0,5.4099618864711374e-05
10240.0,4.2707626562332734e-05
11264.0,-5.260207399260253e-05
12288.0,0.00016963345115073025
13312.0,-0.0014625879703089595
14336.0,0.0032534317579120398
end
