version,3.0
numOfCh,1
type,point
parent_name,0-cuts
ch_type,1_1
kcount,1
numberNandB,1
brightnessNandB,1
carpet pos,0
pc,0
Time (ms),CH1 Auto-Correlation
1.0,0.028268003836274147
2.0,0.02615700289607048
3.0,0.024363433942198753
4.0,0.022784169763326645
5.0,0.02139110676944256
6.0,0.020155781880021095
7.0,0.019084971398115158
8.0,0.018110603094100952
9.0,0.01724948175251484
10.0,0.01651258021593094
11.0,0.01580483466386795
12.0,0.015167859382927418
13.0,0.014604023657739162
14.0,0.014071187935769558
15.0,0.013578549027442932
16.0,0.01304966676980257
18.0,0.012035947293043137
20.0,0.011159121990203857
22.0,0.010494979098439217
24.0,0.009923861362040043
26.0,0.009433138184249401
28.0,0.008945448324084282
30.0,0.008478650823235512
32.0,0.008130739443004131
36.0,0.007535465527325869
40.0,0.007193458266556263
44.0,0.006957060191780329
48.0,0.006791061721742153
52.0,0.00659929821267724
56.0,0.006202064920216799
60.0,0.005639710929244757
64.0,0.005280707962810993
72.0,0.005214707460254431
80.0,0.0056162490509450436
88.0,0.0053126937709748745
96.0,0.004737000912427902
104.0,0.0044016228057444096
112.0,0.004212300758808851
120.0,0.004289065953344107
128.0,0.003938511945307255
144.0,0.002906584646552801
160.0,0.002494493033736944
176.0,0.0017349078552797437
192.0,0.001212867209687829
208.0,0.0002354729367652908
224.0,-8.973278454504907e-05
240.0,0.00047021801583468914
256.0,0.0009715835913084447
288.0,-0.00021407162421382964
320.0,-0.0002656981523614377
352.0,-0.00039020596886985004
384.0,-5.129795317770913e-05
416.0,2.0945119103998877e-05
448.0,0.00021198310423642397
480.0,0.0011454783380031586
512.0,0.00040917968726716936
576.0,0.0008023979025892913
640.0,0.0005523759755305946
704.0,4.1331848478876054e-05
768.0,0.0004834245191887021
832.0,0.0005917074158787727
896.0,0.0004258696280885488
960.0,-0.0005900837131775916
1024.0,0.0001219723853864707
1152.0,-0.001546391169540584
1280.0,-0.0006563342176377773
1408.0,-0.0008862479589879513
1536.0,-0.0006752177723683417
1664.0,-0.0001751402160152793
1792.0,0.0006647338159382343
1920.0,-0.000663668499328196
2048.0,-0.0012884356547147036
2304.0,-0.00036678803735412657
2560.0,-0.0008592615486122668
2816.0,-0.0004490686987992376
3072.0,0.0001855283771874383
3328.0,0.0008093506912700832
3584.0,0.0008953162468969822
3840.0,0.00017173236119560897
4096.0,-0.0005641846219077706
4608.0,-0.0006667361594736576
5120.0,-0.0003197231562808156
5632.0,-0.0005941336276009679
6144.0,-0.0007382206968031824
6656.0,0.0008372238953597844
7168.0,1.7766045857570134e-05
7680.0,0.00035130957257933915
8192.0,-0.0009780079126358032
9216.0,-0.0005222178879193962
10240.0,-0.0012524730991572142
11264.0,0.0012703568208962679
12288.0,0.001748319249600172
13312.0,0.0009786769514903426
14336.0,-0.0004359377489890903
end
