version,3.0
numOfCh,1
type,point
parent_name,0-cuts
ch_type,1_1
kcount,1
numberNandB,1
brightnessNandB,1
carpet pos,0
pc,0
Time (ms),CH1 Auto-Correlation
1.0,0.02899693325161934
2.0,0.026907941326498985
3.0,0.02507697604596615
4.0,0.023469028994441032
5.0,0.022052638232707977
6.0,0.02072993852198124
7.0,0.019558405503630638
8.0,0.018513334915041924
9.0,0.017572050914168358
10.0,0.016689224168658257
11.0,0.0159151591360569
12.0,0.01524960994720459
13.0,0.014626824297010899
14.0,0.014034425839781761
15.0,0.013434878550469875
16.0,0.012872080318629742
18.0,0.011893358081579208
20.0,0.011049131862819195
22.0,0.010326899588108063
24.0,0.009761233814060688
26.0,0.009298598393797874
28.0,0.008871374651789665
30.0,0.008505797944962978
32.0,0.008210970088839531
36.0,0.007789880037307739
40.0,0.007191212382167578
44.0,0.0066083874553442
48.0,0.006295400205999613
52.0,0.005908098071813583
56.0,0.005297323688864708
60.0,0.004499360918998718
64.0,0.003905749414116144
72.0,0.00320868450216949
80.0,0.002989195054396987
88.0,0.0029046526178717613
96.0,0.002747252117842436
104.0,0.002795136533677578
112.0,0.0028236815705895424
120.0,0.0022373441606760025
128.0,0.0017214564140886068
144.0,0.0015455152606591582
160.0,0.0013042286736890674
176.0,0.0008919414249248803
192.0,0.0007088231504894793
208.0,0.00021072720119263977
224.0,0.00033144248300231993
240.0,0.0008763331570662558
256.0,0.0008911069598980248
288.0,0.0006905687041580677
320.0,0.0008111883653327823
352.0,0.0015763536794111133
384.0,0.000778610585257411
416.0,0.0006269757868722081
448.0,0.001063060131855309
480.0,0.0004196945810690522
512.0,6.819494592491537e-05
576.0,-7.303500751731917e-05
640.0,0.00038605983718298376
704.0,0.001770942471921444
768.0,0.0016366419149562716
832.0,0.0008130859932862222
896.0,0.001240283832885325
960.0,-0.00017858974752016366
1024.0,0.0005847192951478064
1152.0,6.014422615407966e-05
1280.0,-0.0003210516006220132
1408.0,-0.00042947157635353506
1536.0,0.0013841743348166347
1664.0,0.0012177592143416405
1792.0,0.0009316509240306914
1920.0,0.00010546639532549307
2048.0,-0.0014367764815688133
2304.0,0.0008652767864987254
2560.0,0.0003109983808826655
2816.0,-0.0009699079673737288
3072.0,-0.0012323156697675586
3328.0,0.0006092009134590626
3584.0,-0.0005939454422332346
3840.0,-0.00014631944941356778
4096.0,-0.0005776994512416422
4608.0,-0.0007154765771701932
5120.0,-0.00013302032311912626
5632.0,-0.00039541098522022367
6144.0,-0.0010005603544414043
6656.0,-0.001283137477003038
7168.0,-0.00047254175296984613
7680.0,-0.0008987737237475812
8192.0,-0.0006939108716323972
9216.0,-0.00035666374606080353
10240.0,0.0003047908248845488
11264.0,0.0014882147079333663
12288.0,1.4396778169611935e-05
13312.0,0.0012542414478957653
14336.0,-0.0009241089574061334
end
