version,3.0
numOfCh,1
type,point
parent_name,0-cuts
ch_type,1_1
kcount,1
numberNandB,1
brightnessNandB,1
carpet pos,0
pc,0
Time (ms),CH1 Auto-Correlation
1.0,0.027033353224396706
2.0,0.02489403262734413
3.0,0.02300056628882885
4.0,0.02130516991019249
5.0,0.01979278214275837
6.0,0.01846541091799736
7.0,0.01726534776389599
8.0,0.01615263521671295
9.0,0.01517278142273426
10.0,0.014295651577413082
11.0,0.013476220890879631
12.0,0.012717953883111477
13.0,0.012062957510352135
14.0,0.011396499350667
15.0,0.01080012135207653
16.0,0.010311391204595566
18.0,0.009521483443677425
20.0,0.008860386908054352
22.0,0.008240935392677784
24.0,0.0076808081939816475
26.0,0.007092855870723724
28.0,0.00667133554816246
30.0,0.006370505318045616
32.0,0.005990262608975172
36.0,0.0053169564343988895
40.0,0.004828497767448425
44.0,0.004443258512765169
48.0,0.004282643087208271
52.0,0.004241251852363348
56.0,0.00411380035802722
60.0,0.003923350479453802
64.0,0.0037515382282435894
72.0,0.003637140616774559
80.0,0.0026409165002405643
88.0,0.0019913583528250456
96.0,0.0010790769010782242
104.0,0.001175631070509553
112.0,0.0016361941816285253
120.0,0.001555800554342568
128.0,0.001249176450073719
144.0,0.0010960304643958807
160.0,0.0009750134195201099
176.0,0.0006049139192327857
192.0,0.0009834375232458115
208.0,0.00177511025685817
224.0,0.002234421204775572
240.0,0.0020547572057694197
256.0,0.0021270669531077147
288.0,0.0023953665513545275
320.0,0.0008663362241350114
352.0,0.000578294217120856
384.0,4.4901556975673884e-05
416.0,0.0006315539940260351
448.0,-0.0002287193201482296
480.0,-0.0001585632562637329
512.0,-0.0008124129963107407
576.0,-0.0001308936334680766
640.0,-0.00038892743759788573
704.0,0.00044476971379481256
768.0,0.0003042585158254951
832.0,0.0005957025568932295
896.0,-4.549706864054315e-05
960.0,0.0007270583882927895
1024.0,0.0005338250775821507
1152.0,0.00031527254031971097
1280.0,0.00021380599355325103
1408.0,0.0002160019357688725
1536.0,0.0001615489018149674
1664.0,0.0001321043528150767
1792.0,0.0005815988406538963
1920.0,-0.000895096396561712
2048.0,-0.0011364960810169578
2304.0,0.0005607953644357622
2560.0,0.0006397634278982878
2816.0,0.0006359524559229612
3072.0,0.0024606420192867517
3328.0,0.0014748518588021398
3584.0,-0.00034946363302879035
3840.0,-0.0004781724128406495
4096.0,-0.0005513734649866819
4608.0,-0.0008045276626944542
5120.0,1.2655822274609818e-06
5632.0,0.00013281338033266366
6144.0,0.0006878532003611326
6656.0,-0.0005705392686650157
7168.0,-0.0003005587786901742
7680.0,-0.0011246814392507076
8192.0,-0.0006746880826540291
9216.0,-0.00029321154579520226
10240.0,-0.0009335721842944622
11264.0,-0.0007866528467275202
12288.0,-0.0006558495224453509
13312.0,-0.0007860219338908792
14336.0,-0.0003028292558155954
end
