version,3.0
numOfCh,1
type,point
parent_name,0-cuts
ch_type,1_1
kcount,1
numberNandB,1
brightnessNandB,1
carpet pos,0
pc,0
Time (ms),CH1 Auto-Correlation
1.0,0.026596905663609505
2.0,0.024411296471953392
3.0,0.02254616655409336
4.0,0.020949887111783028
5.0,0.01951848343014717
6.0,0.018292395398020744
7.0,0.017245497554540634
8.0,0.016266701743006706
9.0,0.015364013612270355
10.0,0.014505689032375813
11.0,0.013703863136470318
12.0,0.013000734150409698
13.0,0.012375934980809689
14.0,0.01183759793639183
15.0,0.011360863223671913
16.0,0.010889359749853611
18.0,0.01019297819584608
20.0,0.009579446166753769
22.0,0.009005660191178322
24.0,0.008449625223875046
26.0,0.007980899885296822
28.0,0.00758275156840682
30.0,0.007208898663520813
32.0,0.006829121150076389
36.0,0.006353126373142004
40.0,0.0058419653214514256
44.0,0.0052078766748309135
48.0,0.0045937481336295605
52.0,0.0037896777503192425
56.0,0.003307732054963708
60.0,0.00306591484695673
64.0,0.0029277049470692873
72.0,0.002997716423124075
80.0,0.0029461446683853865
88.0,0.0030702054500579834
96.0,0.0023911460302770138
104.0,0.0009418229456059635
112.0,0.00022603475372307003
120.0,0.00014935544459149241
128.0,-5.136826075613499e-05
144.0,-9.904163744067773e-05
160.0,0.0005799452192150056
176.0,0.0007534070173278451
192.0,0.0004195426299702376
208.0,0.0005548823392018676
224.0,0.000707095954567194
240.0,0.0005349685670807958
256.0,0.0007971494342200458
288.0,0.00104418839327991
320.0,0.0008778632036410272
352.0,0.00012396823149174452
384.0,-0.0006356944213621318
416.0,-0.0011616896372288465
448.0,-0.0010004390496760607
480.0,-0.00026338794850744307
512.0,0.00028618244687095284
576.0,0.0015324132982641459
640.0,1.707706928755215e-06
704.0,0.0003875544643960893
768.0,0.0007842837367206812
832.0,0.0005876325885765254
896.0,8.091757081274409e-06
960.0,-0.0008667444344609976
1024.0,0.00012833080836571753
1152.0,0.0008951826603151858
1280.0,0.0011754371225833893
1408.0,9.422502625966445e-05
1536.0,-0.0013571507297456264
1664.0,-0.0011295992881059647
1792.0,0.0007280741119757295
1920.0,0.000661837519146502
2048.0,0.000805012765340507
2304.0,-1.2907452173749334e-06
2560.0,0.0015758015215396881
2816.0,-0.000806601601652801
3072.0,0.0008687361259944737
3328.0,-0.00042197006405331194
3584.0,-0.00035608839243650436
3840.0,0.0006763811106793582
4096.0,-0.0014429575530812144
4608.0,-0.0008767333929426968
5120.0,-0.00016783940372988582
5632.0,0.00026232298114337027
6144.0,1.2954797057318501e-05
6656.0,-0.00045766305993311107
7168.0,-0.00022232506307773292
7680.0,-0.0007370595121756196
8192.0,-0.0005177583661861718
9216.0,0.0006354363868013024
10240.0,-0.0006958800950087607
11264.0,0.0004567857540678233
12288.0,1.901060386444442e-05
13312.0,-0.0021054816897958517
14336.0,0.0005562298465520144
end
