version,3.0
numOfCh,1
type,point
parent_name,0-cuts
ch_type,1_1
kcount,1
numberNandB,1
brightnessNandB,1
carpet pos,0
pc,0
Time (ms),CH1 Auto-Correlation
1.0,0.0274894330650568
2.0,0.02540818229317665
3.0,0.02367880381643772
4.0,0.02216929942369461
5.0,0.02076585777103901
6.0,0.019534990191459656
7.0,0.01842426136136055
8.0,0.017452266067266464
9.0,0.016600802540779114
10.0,0.015770740807056427
11.0,0.014983169734477997
12.0,0.014293722808361053
13.0,0.013684827834367752
14.0,0.013179553672671318
15.0,0.01271246187388897
16.0,0.012237221002578735
18.0,0.011447593569755554
20.0,0.010746264830231667
22.0,0.01021080743521452
24.0,0.009772414341568947
26.0,0.009425236843526363
28.0,0.009137190878391266
30.0,0.008710798807442188
32.0,0.008291173726320267
36.0,0.007506037130951881
40.0,0.007189719006419182
44.0,0.006958444602787495
48.0,0.006699854042381048
52.0,0.006523088552057743
56.0,0.006268607918173075
60.0,0.005986243486404419
64.0,0.005705252755433321
72.0,0.00498164352029562
80.0,0.004278738051652908
88.0,0.004546391312032938
96.0,0.004300644155591726
104.0,0.0033586241770535707
112.0,0.002831188729032874
120.0,0.002253574086353183
128.0,0.0017383713275194168
144.0,0.0010996864875778556
160.0,0.0005666369688697159
176.0,1.9035589957638877e-06
192.0,-0.0003206386463716626
208.0,-0.00025447504594922066
224.0,-0.0006640508654527366
240.0,-0.00042916045640595257
256.0,-0.0009613576694391668
288.0,-0.0009199299965985119
320.0,-0.001456855097785592
352.0,-0.0011187540367245674
384.0,-0.0015028722118586302
416.0,-0.001717505045235157
448.0,-0.0018028892809525132
480.0,-0.0009170391713269055
512.0,-0.0007025868981145322
576.0,-0.0002083431027131155
640.0,-0.00039569404907524586
704.0,-0.0003441765729803592
768.0,0.00038439384661614895
832.0,8.410000009462237e-05
896.0,0.0008178618154488504
960.0,0.0017677423311397433
1024.0,0.0010172320762649179
1152.0,0.0008996430551633239
1280.0,-0.0003723398258443922
1408.0,-0.00037870509549975395
1536.0,0.00010387749352958053
1664.0,0.0012201701756566763
1792.0,-0.00038997744559310377
1920.0,-0.0010028297547250986
2048.0,-0.0006448235944844782
2304.0,-0.0005019070813432336
2560.0,0.00023414997849613428
2816.0,0.0008580888970755041
3072.0,-0.001340564340353012
3328.0,0.00048378363135270774
3584.0,0.0013906672829762101
3840.0,0.0004193028144072741
4096.0,-0.0010555248009040952
4608.0,-0.00041129792225547135
5120.0,-0.00041254961979575455
5632.0,-1.5734332919237204e-05
6144.0,2.3791075363988057e-05
6656.0,-0.0005819479702040553
7168.0,-0.0007823919877409935
7680.0,0.00010869181278394535
8192.0,-0.0007754716207273304
9216.0,-0.00035334640415385365
10240.0,-0.0003076667198911309
11264.0,-0.00022636610083281994
12288.0,-0.0003662914677988738
13312.0,-2.7207377570448443e-05
14336.0,0.0008952635689638555
end
