version,3.0
numOfCh,1
type,point
parent_name,0-cuts
ch_type,1_1
kcount,1
numberNandB,1
brightnessNandB,1
carpet pos,0
pc,0
Time (ms),CH1 Auto-Correlation
1.0,0.02746361680328846
2.0,0.02528383396565914
3.0,0.02338971197605133
4.0,0.021695224568247795
5.0,0.02023264952003956
6.0,0.018889030441641808
7.0,0.01771126128733158
8.0,0.016650250181555748
9.0,0.01570408046245575
10.0,0.014907174743711948
11.0,0.014162633568048477
12.0,0.01350309606641531
13.0,0.012910403311252594
14.0,0.012346366420388222
15.0,0.011776695027947426
16.0,0.011250544339418411
18.0,0.010416228324174881
20.0,0.009776991792023182
22.0,0.009160411544144154
24.0,0.008648824878036976
26.0,0.00815900694578886
28.0,0.00768979312852025
30.0,0.007206358946859837
32.0,0.006763817742466927
36.0,0.005903962068259716
40.0,0.0052865976467728615
44.0,0.004900416359305382
48.0,0.004532140213996172
52.0,0.004110848996788263
56.0,0.0036865652073174715
60.0,0.0031871176324784756
64.0,0.0031393752433359623
72.0,0.00281442585401237
80.0,0.002120791468769312
88.0,0.001378702698275447
96.0,0.0011255100835114717
104.0,0.00126219866797328
112.0,0.001097072963602841
120.0,0.0013912998838350177
128.0,0.001758349360898137
144.0,0.00210503488779068
160.0,0.0017160446150228381
176.0,0.001604317920282483
192.0,0.0014890278689563274
208.0,0.0010844713542610407
224.0,0.0007623695419169962
240.0,0.0008290450787171721
256.0,0.0009152957354672253
288.0,0.0011159350397065282
320.0,0.002044801600277424
352.0,0.0013362044701352715
384.0,0.00012684715329669416
416.0,-0.0007033248548395932
448.0,-0.00027103416505269706
480.0,-0.000502845156006515
512.0,0.0006062750471755862
576.0,0.0003688176511786878
640.0,-2.124117236235179e-05
704.0,-0.0004912276635877788
768.0,0.0003651905572041869
832.0,-0.00034231774043291807
896.0,-0.0004672581853810698
960.0,-0.0019939341582357883
1024.0,-0.0024059165734797716
1152.0,-0.0016657983651384711
1280.0,-0.0009261384839192033
1408.0,-0.00019500656344462186
1536.0,-0.0009408927871845663
1664.0,0.0004827070515602827
1792.0,0.0005913389031775296
1920.0,-6.768178718630224e-05
2048.0,0.00024569022934883833
2304.0,0.000353270152118057
2560.0,0.00032226720941253006
2816.0,-0.0002440742391627282
3072.0,0.0003286963328719139
3328.0,0.00044844107469543815
3584.0,-0.0006693943287245929
3840.0,0.00027835788205266
4096.0,-0.0006202017539180815
4608.0,-2.6652292945072986e-05
5120.0,-0.0003333813219796866
5632.0,-0.00016641740512568504
6144.0,-0.00038236399996094406
6656.0,-0.00024204043438658118
7168.0,0.0004587877483572811
7680.0,0.0003575436130631715
8192.0,-0.00011290894326521084
9216.0,-9.741348912939429e-05
10240.0,-0.0009250087896361947
11264.0,0.0004889540723524988
12288.0,0.0003534205607138574
13312.0,-0.002693841466680169
14336.0,0.006209747865796089
end
