version,3.0
numOfCh,1
type,point
parent_name,0-cuts
ch_type,1_1
kcount,1
numberNandB,1
brightnessNandB,1
carpet pos,0
pc,0
Time (ms),CH1 Auto-Correlation
1.0,0.08450404554605484
2.0,0.07756857573986053
3.0,0.07161227613687515
4.0,0.06664745509624481
5.0,0.06225111335515976
6.0,0.05826173722743988
7.0,0.05481591820716858
8.0,0.05185700207948685
9.0,0.04915003105998039
10.0,0.04689659923315048
11.0,0.04497048258781433
12.0,0.04304809868335724
13.0,0.04120982065796852
14.0,0.03957933187484741
15.0,0.03795813396573067
16.0,0.03644246608018875
18.0,0.03361818194389343
20.0,0.031041812151670456
22.0,0.028835400938987732
24.0,0.026988467201590538
26.0,0.02510152757167816
28.0,0.02358837239444256
30.0,0.022141192108392715
32.0,0.020952779799699783
36.0,0.019344743341207504
40.0,0.018244680017232895
44.0,0.016682561486959457
48.0,0.015120010823011398
52.0,0.013454006053507328
56.0,0.012629828415811062
60.0,0.012773524969816208
64.0,0.012438749894499779
72.0,0.010372952558100224
80.0,0.008847866207361221
88.0,0.007863959297537804
96.0,0.0069141145795583725
104.0,0.005718964617699385
112.0,0.004259212873876095
120.0,0.0038262095768004656
128.0,0.004896437283605337
144.0,0.006401798687875271
160.0,0.008422504179179668
176.0,0.008693522773683071
192.0,0.008163223043084145
208.0,0.008215490728616714
224.0,0.008220828138291836
240.0,0.0056914412416517735
256.0,0.004676876589655876
288.0,0.005133618600666523
320.0,0.005081841256469488
352.0,0.002955064410343766
384.0,-0.0018636021995916963
416.0,-0.001857475726865232
448.0,-0.001940648420713842
480.0,0.0007386545767076313
512.0,-0.0008441608515568078
576.0,-0.00371045945212245
640.0,-0.00494014099240303
704.0,-0.004903674125671387
768.0,-0.003247990272939205
832.0,-0.004587495233863592
896.0,-0.003760854946449399
960.0,-0.0050082458183169365
1024.0,4.9669000873109326e-05
1152.0,-0.00029291564715094864
1280.0,-0.002285291673615575
1408.0,-0.003992684185504913
1536.0,-0.002825273433700204
1664.0,-0.00024001000565476716
1792.0,-0.0006923327455297112
1920.0,-0.0005481279804371297
2048.0,0.0022735584061592817
2304.0,0.0018945082556456327
2560.0,-0.0018460518913343549
2816.0,-0.0020240305457264185
3072.0,0.00022198469378054142
3328.0,0.0005995725514367223
3584.0,0.000645311432890594
3840.0,-0.0014823218807578087
4096.0,-0.0038760520983487368
4608.0,0.0043557812459766865
5120.0,0.0022826888598501682
5632.0,-0.003597783390432596
6144.0,-0.004613056313246489
6656.0,-0.0018652576254680753
7168.0,0.0029370023403316736
7680.0,-0.0007856557494960725
8192.0,0.002065950073301792
9216.0,6.330435280688107e-05
10240.0,0.0020820433273911476
11264.0,-0.0027498267590999603
12288.0,0.004259464796632528
13312.0,-0.002289824653416872
14336.0,-0.0009845441672950983
end
