version,3.0
numOfCh,1
type,point
parent_name,0-cuts
ch_type,1_1
kcount,1
numberNandB,1
brightnessNandB,1
carpet pos,0
pc,0
Time (ms),CH1 Auto-Correlation
1.0,0.0847170352935791
2.0,0.07801505923271179
3.0,0.07230358570814133
4.0,0.06743425130844116
5.0,0.0631946548819542
6.0,0.059436921030282974
7.0,0.05618537962436676
8.0,0.05308947339653969
9.0,0.05044127628207207
10.0,0.04800424352288246
11.0,0.04583483189344406
12.0,0.04383613169193268
13.0,0.041819848120212555
14.0,0.039924874901771545
15.0,0.03809117153286934
16.0,0.03657742589712143
18.0,0.03403153643012047
20.0,0.031749192625284195
22.0,0.03005477599799633
24.0,0.028833897784352303
26.0,0.027301985770463943
28.0,0.025371603667736053
30.0,0.02397536300122738
32.0,0.02337968908250332
36.0,0.02272344008088112
40.0,0.021544279530644417
44.0,0.02004028670489788
48.0,0.01858212798833847
52.0,0.017270542681217194
56.0,0.016217956319451332
60.0,0.015421397984027863
64.0,0.014798593707382679
72.0,0.011837659403681755
80.0,0.009629218839108944
88.0,0.008537502028048038
96.0,0.008597937412559986
104.0,0.008907496929168701
112.0,0.007836906239390373
120.0,0.005971755366772413
128.0,0.005003384780138731
144.0,0.004695585463196039
160.0,0.002928094705566764
176.0,0.0027748236898332834
192.0,0.0015517720021307468
208.0,0.00036304345121607184
224.0,-0.0010259882546961308
240.0,-0.0017314464785158634
256.0,-0.0010891511337831616
288.0,0.0003107872325927019
320.0,-0.00016688501636963338
352.0,0.0011711855186149478
384.0,0.002253190614283085
416.0,0.0002734656154643744
448.0,0.00011671396350720897
480.0,-0.0018620365299284458
512.0,-0.0006416166434064507
576.0,-0.0035688693169504404
640.0,-0.0012135131983086467
704.0,-0.003476554062217474
768.0,8.488942694384605e-05
832.0,0.0016461432678624988
896.0,-0.0006403019651770592
960.0,-2.5165976694552228e-05
1024.0,0.0013239417457953095
1152.0,-0.0004542280512396246
1280.0,0.002283071167767048
1408.0,0.00031694021890871227
1536.0,0.00024673037114553154
1664.0,-0.003607553895562887
1792.0,-0.002381612081080675
1920.0,7.637847738806158e-05
2048.0,-0.0017313065472990274
2304.0,0.00027668962138704956
2560.0,0.0005954336374998093
2816.0,-0.003004696685820818
3072.0,-0.003220686921849847
3328.0,0.0005916935624554753
3584.0,0.0032303370535373688
3840.0,-0.00038549245800822973
4096.0,-0.0008495430229231715
4608.0,-0.0012423881562426686
5120.0,-0.003449028357863426
5632.0,-0.0011711932020261884
6144.0,-0.0005024755955673754
6656.0,-0.0018172016134485602
7168.0,0.0013289882335811853
7680.0,0.0008652980322949588
8192.0,6.391079659806564e-05
9216.0,0.003097163513302803
10240.0,-0.00030069099739193916
11264.0,-0.0013288211775943637
12288.0,0.0025314423255622387
13312.0,-0.0012372329365462065
14336.0,-0.0022225831635296345
end
