version,3.0
numOfCh,1
type,point
parent_name,0-cuts
ch_type,1_1
kcount,1
numberNandB,1
brightnessNandB,1
carpet pos,0
pc,0
Time (ms),CH1 Auto-Correlation
1.0,0.026973895728588104
2.0,0.024866729974746704
3.0,0.02302204631268978
4.0,0.02150035835802555
5.0,0.02013622410595417
6.0,0.018960140645503998
7.0,0.017859386280179024
8.0,0.016895299777388573
9.0,0.016000112518668175
10.0,0.015152829699218273
11.0,0.014338118955492973
12.0,0.013586769811809063
13.0,0.012923230417072773
14.0,0.012247464619576931
15.0,0.01162656955420971
16.0,0.011075190268456936
18.0,0.010209107771515846
20.0,0.009481476619839668
22.0,0.008794588036835194
24.0,0.008223946206271648
26.0,0.007621751632541418
28.0,0.007034203037619591
30.0,0.006528057157993317
32.0,0.006054396741092205
36.0,0.005242399405688047
40.0,0.004629867617040873
44.0,0.004077750723809004
48.0,0.0035412656143307686
52.0,0.003127284348011017
56.0,0.0027529909275472164
60.0,0.0026019553188234568
64.0,0.002395619871094823
72.0,0.0018529746448621154
80.0,0.0020999759435653687
88.0,0.0026234558317810297
96.0,0.002488443162292242
104.0,0.0020782724022865295
112.0,0.0017457627691328526
120.0,0.0012237542541697621
128.0,0.0009939599549397826
144.0,0.0010961873922497034
160.0,0.0007002157508395612
176.0,0.0011337833711877465
192.0,0.0007012025453150272
208.0,0.0001477563491789624
224.0,7.085237302817404e-05
240.0,0.00044202161370776594
256.0,0.0004995687631890178
288.0,-0.00020548267639242113
320.0,-0.0003228480345569551
352.0,0.00041325564961880445
384.0,0.00023959341342560947
416.0,0.000740463612601161
448.0,0.0006153402500785887
480.0,0.00021936076518613845
512.0,-0.000308580812998116
576.0,0.0012284204130992293
640.0,0.0006655583274550736
704.0,-0.00032627145992591977
768.0,-0.0009114033309742808
832.0,-0.0013346078339964151
896.0,-0.00018424839072395116
960.0,-0.00044565805001184344
1024.0,-0.0002241104084532708
1152.0,0.00022466242080554366
1280.0,-0.0009636296890676022
1408.0,-0.0008944339351728559
1536.0,-0.00025875470601022243
1664.0,0.0004605688445735723
1792.0,-0.00042092797229997814
1920.0,-0.0020910161547362804
2048.0,-0.0013453834690153599
2304.0,0.00030524074099957943
2560.0,0.0001457027974538505
2816.0,0.00034037354635074735
3072.0,-0.00015844956215005368
3328.0,0.0009526634821668267
3584.0,0.0007691425271332264
3840.0,0.0005701992777176201
4096.0,0.000594083743635565
4608.0,-0.00028891433612443507
5120.0,-0.0005475712823681533
5632.0,-0.0008099476690404117
6144.0,-0.00037074583815410733
6656.0,0.0007265610620379448
7168.0,-0.00038215224049054086
7680.0,-0.00042195775313302875
8192.0,-0.00021648452093359083
9216.0,-0.0007282053702510893
10240.0,0.0012035482795909047
11264.0,-0.0008375720935873687
12288.0,-0.00023863330716267228
13312.0,0.0007130007143132389
14336.0,0.0007932644221000373
end
