version,3.0
numOfCh,1
type,point
parent_name,0-cuts
ch_type,1_1
kcount,1
numberNandB,1
brightnessNandB,1
carpet pos,0
pc,0
Time (ms),CH1 Auto-Correlation
1.0,0.02858441323041916
2.0,0.026475122198462486
3.0,0.02459622547030449
4.0,0.022988155484199524
5.0,0.021614382043480873
6.0,0.020328396931290627
7.0,0.019230293110013008
8.0,0.01825045794248581
9.0,0.017342938110232353
10.0,0.016568100079894066
11.0,0.015918036922812462
12.0,0.015287790447473526
13.0,0.014681962318718433
14.0,0.014204559847712517
15.0,0.013678619638085365
16.0,0.013159400783479214
18.0,0.012319328263401985
20.0,0.01166307833045721
22.0,0.010973620228469372
24.0,0.010331042110919952
26.0,0.009669010527431965
28.0,0.008988196961581707
30.0,0.008380331099033356
32.0,0.007888060063123703
36.0,0.006875811144709587
40.0,0.0060625821352005005
44.0,0.005308746825903654
48.0,0.00449354387819767
52.0,0.0038981777615845203
56.0,0.003484695916995406
60.0,0.003205397631973028
64.0,0.0029460780788213015
72.0,0.002890058094635606
80.0,0.003038510214537382
88.0,0.003155154874548316
96.0,0.003299541538581252
104.0,0.0034763754811137915
112.0,0.0034502828493714333
120.0,0.002933856565505266
128.0,0.0025291277561336756
144.0,0.0017403687816113234
160.0,0.0016039175679907203
176.0,0.0018802332924678922
192.0,0.0017103286227211356
208.0,0.0011076473165303469
224.0,0.0001639650872675702
240.0,-0.00040253481711260974
256.0,-0.0004887415561825037
288.0,-0.0003715046914294362
320.0,0.0002195184351876378
352.0,-0.0003638589696493
384.0,-0.00028389712679199874
416.0,-1.3314518582774326e-05
448.0,3.668403223855421e-05
480.0,0.0001409383403370157
512.0,0.0005847499123774469
576.0,0.0013462364440783858
640.0,0.0008258513989858329
704.0,-0.0007468025432899594
768.0,-0.0002526557946112007
832.0,-0.00020974149811081588
896.0,0.00020425896218512207
960.0,0.0010165870189666748
1024.0,-5.851081732544117e-05
1152.0,-7.500628271372989e-05
1280.0,0.0003428579366300255
1408.0,0.0008983400766737759
1536.0,0.0005673814448527992
1664.0,0.0011535865487530828
1792.0,0.0007989882142283022
1920.0,0.0019336473196744919
2048.0,0.0012664305977523327
2304.0,7.309531065402552e-05
2560.0,0.001288942527025938
2816.0,0.0004962170496582985
3072.0,0.0009299604571424425
3328.0,-0.0005256431759335101
3584.0,-8.84893088368699e-05
3840.0,-0.00031839561415836215
4096.0,-0.00023556704400107265
4608.0,0.000783037394285202
5120.0,-0.0011151953367516398
5632.0,0.00030374055495485663
6144.0,-0.0008416403434239328
6656.0,0.0005778199410997331
7168.0,-0.0005819188663735986
7680.0,-0.0009133524144999683
8192.0,-0.0007647603051736951
9216.0,-0.0006571708363480866
10240.0,-0.001506247092038393
11264.0,-0.00034833591780625284
12288.0,-0.001631950493901968
13312.0,-0.0006498625734820962
14336.0,-0.00014114794612396508
end
