version,3.0
numOfCh,1
type,point
parent_name,0-cuts
ch_type,1_1
kcount,1
numberNandB,1
brightnessNandB,1
carpet pos,0
pc,0
Time (ms),CH1 Auto-Correlation
1.0,0.027166670188307762
2.0,0.024988166987895966
3.0,0.023103147745132446
4.0,0.021480750292539597
5.0,0.02013871818780899
6.0,0.01886429451406002
7.0,0.017742976546287537
8.0,0.016762595623731613
9.0,0.015857338905334473
10.0,0.015117722563445568
11.0,0.014462955296039581
12.0,0.013799709267914295
13.0,0.01317545399069786
14.0,0.012613526545464993
15.0,0.012033778242766857
16.0,0.01153186708688736
18.0,0.010620025917887688
20.0,0.009763109497725964
22.0,0.00902088638395071
24.0,0.008439043536782265
26.0,0.007831276394426823
28.0,0.007274317089468241
30.0,0.0068483054637908936
32.0,0.006465605925768614
36.0,0.005643014796078205
40.0,0.004992486909031868
44.0,0.004659256897866726
48.0,0.004341268911957741
52.0,0.0041403742507100105
56.0,0.0038825031369924545
60.0,0.0034546605311334133
64.0,0.003100625704973936
72.0,0.0024854117073118687
80.0,0.00178110774140805
88.0,0.0015970892272889614
96.0,0.0018223414663225412
104.0,0.0013142540119588375
112.0,0.001164602697826922
120.0,0.0012343715643510222
128.0,0.0010730621870607138
144.0,0.0005878126830793917
160.0,0.0007744997856207192
176.0,0.0004687553446274251
192.0,0.0007337654242292047
208.0,0.0006666406407020986
224.0,0.00043987962999381125
240.0,0.00011981908755842596
256.0,-0.0004663604195229709
288.0,-3.708171425387263e-05
320.0,-0.000540556269697845
352.0,-0.002353386953473091
384.0,-0.0022269743494689465
416.0,-0.0022267692256718874
448.0,-0.0015343413688242435
480.0,-0.0015952478861436248
512.0,-0.0017663612961769104
576.0,-0.0008808421553112566
640.0,-0.00041700596921145916
704.0,8.490926848025993e-05
768.0,-0.0007422573398798704
832.0,-0.0011647219071164727
896.0,-0.0011445942800492048
960.0,-0.0011775181628763676
1024.0,0.00018585618818178773
1152.0,7.35919747967273e-05
1280.0,-2.3677282570133684e-06
1408.0,0.00089386006584391
1536.0,0.00134211964905262
1664.0,0.0022274679504334927
1792.0,0.0008756318129599094
1920.0,-0.00024321558885276318
2048.0,-0.001588165294378996
2304.0,-0.0013929654378443956
2560.0,0.0002518607070669532
2816.0,0.0005769492709077895
3072.0,3.568394731701119e-06
3328.0,0.000917625380679965
3584.0,-0.00042668060632422566
3840.0,-0.0010678033577278256
4096.0,-0.0006534094572998583
4608.0,0.0001265375321963802
5120.0,0.00014703602937515825
5632.0,-0.0007311668596230447
6144.0,0.00034868597867898643
6656.0,-0.0001460156199755147
7168.0,2.4585819119238295e-05
7680.0,-0.0002527001197449863
8192.0,0.00010797399590956047
9216.0,-0.0005354656022973359
10240.0,0.0003508555528242141
11264.0,-0.00036784791154786944
12288.0,3.141616252833046e-05
13312.0,-5.865740604349412e-05
14336.0,8.290088590001687e-05
end
