version,3.0
numOfCh,1
type,point
parent_name,0-cuts
ch_type,1_1
kcount,1
numberNandB,1
brightnessNandB,1
carpet pos,0
pc,0
Time (ms),CH1 Auto-Correlation
1.0,0.03716352581977844
2.0,0.03410383686423302
3.0,0.031384143978357315
4.0,0.028991330415010452
5.0,0.026907220482826233
6.0,0.025113191455602646
7.0,0.023482853546738625
8.0,0.022086871787905693
9.0,0.02078399248421192
10.0,0.019662562757730484
11.0,0.018579011783003807
12.0,0.017592255026102066
13.0,0.016728518530726433
14.0,0.01589602790772915
15.0,0.015216376632452011
16.0,0.014523649588227272
18.0,0.013268672861158848
20.0,0.012229342013597488
22.0,0.011361947283148766
24.0,0.010558637790381908
26.0,0.009769937954843044
28.0,0.009031804278492928
30.0,0.00843491405248642
32.0,0.007887475192546844
36.0,0.006721775513142347
40.0,0.006015248131006956
44.0,0.005859890952706337
48.0,0.005434999242424965
52.0,0.005039798561483622
56.0,0.004737840965390205
60.0,0.004166022874414921
64.0,0.003535573137924075
72.0,0.0027041153516620398
80.0,0.0014613638631999493
88.0,0.00010949432908091694
96.0,-0.0003022013115696609
104.0,0.00017428715364076197
112.0,0.0005085098091512918
120.0,0.00018377434753347188
128.0,-0.00012673890159931034
144.0,-0.0009267920977436006
160.0,-0.0006383968866430223
176.0,-8.92851094249636e-05
192.0,0.00036485696909949183
208.0,0.0008101284620352089
224.0,0.001813496113754809
240.0,0.0024162554182112217
256.0,0.002186049474403262
288.0,0.002150018233805895
320.0,0.002470435108989477
352.0,0.001699353102594614
384.0,5.643829717882909e-05
416.0,-0.0018267438281327486
448.0,-0.0014669069787487388
480.0,-0.00040751861524768174
512.0,-0.0013424268690869212
576.0,-0.0010168906301259995
640.0,-0.0009069376392289996
704.0,-0.0003049485385417938
768.0,0.00029891045414842665
832.0,-0.0012194315204396844
896.0,-0.002328766044229269
960.0,-6.859794666524976e-05
1024.0,0.0005257429438643157
1152.0,-0.00022481557971332222
1280.0,-0.0009680240764282644
1408.0,0.00044993316987529397
1536.0,-0.0007724313763901591
1664.0,-0.0001842961646616459
1792.0,0.000549565942492336
1920.0,0.00022760102001484483
2048.0,0.0007109381258487701
2304.0,-0.0008208072395063937
2560.0,-0.0017980056582018733
2816.0,-0.0011349281994625926
3072.0,-0.000358015822712332
3328.0,0.0003630366991274059
3584.0,0.00024466184549964964
3840.0,0.0003260688972659409
4096.0,0.0008798413909971714
4608.0,-0.0005436537321656942
5120.0,0.00027251552091911435
5632.0,-0.001006685895845294
6144.0,0.0014125527814030647
6656.0,-0.0012366469018161297
7168.0,0.0005061461706645787
7680.0,2.3504426280851476e-05
8192.0,0.0006045633344911039
9216.0,-0.0002567786432337016
10240.0,0.0006504065822809935
11264.0,0.0005266016814857721
12288.0,-0.0001392136182403192
13312.0,-0.0011955066584050655
14336.0,-0.0015312759205698967
end
