version,3.0
numOfCh,1
type,point
parent_name,0-cuts
ch_type,1_1
kcount,1
numberNandB,1
brightnessNandB,1
carpet pos,0
pc,0
Time (ms),CH1 Auto-Correlation
1.0,0.0387883335351944
2.0,0.035552654415369034
3.0,0.032760392874479294
4.0,0.03028932958841324
5.0,0.02816051058471203
6.0,0.02627745270729065
7.0,0.02457020804286003
8.0,0.02304081991314888
9.0,0.021661896258592606
10.0,0.020515449345111847
11.0,0.019405322149395943
12.0,0.018479593098163605
13.0,0.017658093944191933
14.0,0.016923151910305023
15.0,0.01622125320136547
16.0,0.01552343089133501
18.0,0.01420416310429573
20.0,0.013126188889145851
22.0,0.012220156379044056
24.0,0.011425674892961979
26.0,0.010891358368098736
28.0,0.010478648357093334
30.0,0.010123404674232006
32.0,0.009835580363869667
36.0,0.00931804534047842
40.0,0.008740037679672241
44.0,0.008447110652923584
48.0,0.007909117266535759
52.0,0.0074950214475393295
56.0,0.007248071953654289
60.0,0.006624838337302208
64.0,0.0060731456615030766
72.0,0.005155724938958883
80.0,0.004513024818152189
88.0,0.0038779235910624266
96.0,0.0029522846452891827
104.0,0.0023337877355515957
112.0,0.0027131044771522284
120.0,0.003302184632048011
128.0,0.0038096702191978693
144.0,0.002849181415513158
160.0,0.002419418655335903
176.0,0.0019042204366996884
192.0,0.002181823132559657
208.0,0.0013514341553673148
224.0,-0.00018023481243290007
240.0,-0.0008586129988543689
256.0,-0.0011751435231417418
288.0,-0.0001706322218524292
320.0,0.00011999184062005952
352.0,0.0007157820509746671
384.0,-0.00076316948980093
416.0,-0.00240502180531621
448.0,-0.0010070044081658125
480.0,-0.0006602731882594526
512.0,0.00024064046738203615
576.0,-5.574949682340957e-05
640.0,-0.0004261574649717659
704.0,0.00046938631567172706
768.0,-0.00013705294986721128
832.0,-0.0007558543584309518
896.0,0.001532096415758133
960.0,0.0008171987719833851
1024.0,0.001142311142757535
1152.0,0.00018218255718238652
1280.0,-0.0018718680366873741
1408.0,-0.0014084792928770185
1536.0,0.0005159758729860187
1664.0,-2.7045514798373915e-05
1792.0,0.0005180090665817261
1920.0,0.00041252022492699325
2048.0,-0.0006503258482553065
2304.0,-0.001007593353278935
2560.0,0.001031518797390163
2816.0,-0.0005268888780847192
3072.0,5.9316811530152336e-05
3328.0,-0.0005910011241212487
3584.0,-0.0005427179276011884
3840.0,-0.0022061734925955534
4096.0,0.0002390511508565396
4608.0,0.0005819715443067253
5120.0,0.0007714220555499196
5632.0,8.739378245081753e-05
6144.0,0.0005753939622081816
6656.0,-0.0006247579585760832
7168.0,-0.001384463394060731
7680.0,-0.00032403095974586904
8192.0,-0.0002419015800114721
9216.0,-0.0016229299362748861
10240.0,0.0011056255316361785
11264.0,0.00040421829908154905
12288.0,0.0004404944775160402
13312.0,0.0005796999321319163
14336.0,-0.0005126811447553337
end
