version,3.0
numOfCh,1
type,point
parent_name,0-cuts
ch_type,1_1
kcount,1
numberNandB,1
brightnessNandB,1
carpet pos,0
pc,0
Time (ms),CH1 Auto-Correlation
1.0,0.08443499356508255
2.0,0.07763205468654633
3.0,0.07204388827085495
4.0,0.06712190061807632
5.0,0.06276122480630875
6.0,0.05892252177000046
7.0,0.05526459589600563
8.0,0.05201636999845505
9.0,0.04923367500305176
10.0,0.04690462350845337
11.0,0.04486972838640213
12.0,0.04291369765996933
13.0,0.041187822818756104
14.0,0.03955965116620064
15.0,0.037843380123376846
16.0,0.0362757183611393
18.0,0.03328149393200874
20.0,0.030944565311074257
22.0,0.028888262808322906
24.0,0.027484169229865074
26.0,0.026149338111281395
28.0,0.0248789694160223
30.0,0.02396756410598755
32.0,0.023112958297133446
36.0,0.021366963163018227
40.0,0.019917510449886322
44.0,0.01838073879480362
48.0,0.016917318105697632
52.0,0.01624882034957409
56.0,0.01652785949409008
60.0,0.016015687957406044
64.0,0.014830979518592358
72.0,0.012529176659882069
80.0,0.00966489128768444
88.0,0.008918573148548603
96.0,0.01013842225074768
104.0,0.010831885039806366
112.0,0.010966632515192032
120.0,0.009681330993771553
128.0,0.0076926639303565025
144.0,0.005662641953676939
160.0,0.004943024832755327
176.0,0.0040175337344408035
192.0,0.002871087286621332
208.0,0.004108915571123362
224.0,0.005112943239510059
240.0,0.0023193135857582092
256.0,-1.1458007975306828e-05
288.0,-0.0009628790430724621
320.0,-0.0014082575216889381
352.0,-0.0006842596339993179
384.0,0.0018493484240025282
416.0,0.0014425425324589014
448.0,0.0003469267103355378
480.0,0.0032135681249201298
512.0,0.002334574004635215
576.0,0.0002518226101528853
640.0,-0.0032690458465367556
704.0,-0.0017999197589233518
768.0,-0.00037913949927315116
832.0,0.0009837844409048557
896.0,0.004969637840986252
960.0,0.004005441442131996
1024.0,0.000706253747921437
1152.0,-0.003006958169862628
1280.0,-0.0018728566356003284
1408.0,-0.0022309261839836836
1536.0,-0.00435416167601943
1664.0,-0.0033482336439192295
1792.0,0.0018619189504534006
1920.0,-0.000736243324354291
2048.0,-0.0009071050444617867
2304.0,-5.7404722610954195e-05
2560.0,-0.000859042804222554
2816.0,-0.00510883005335927
3072.0,0.001237984630279243
3328.0,0.00014612766972277313
3584.0,-0.001442927517928183
3840.0,-0.004185021389275789
4096.0,0.0026433283928781748
4608.0,-0.0019938733894377947
5120.0,0.0009407135075889528
5632.0,-0.0012198559707030654
6144.0,0.0025645378045737743
6656.0,0.00261003733612597
7168.0,0.0014676080318167806
7680.0,-0.00035120354732498527
8192.0,0.0005515982047654688
9216.0,-0.0008860439993441105
10240.0,-0.0028762170113623142
11264.0,-0.0026812765281647444
12288.0,0.0037465558853000402
13312.0,0.0032891342416405678
14336.0,-0.004112361930310726
end
