version,3.0
numOfCh,1
type,point
parent_name,0-cuts
ch_type,1_1
kcount,1
numberNandB,1
brightnessNandB,1
carpet pos,0
pc,0
Time (ms),CH1 Auto-Correlation
1.0,0.040472693741321564
2.0,0.03742167726159096
3.0,0.0347498320043087
4.0,0.03235343098640442
5.0,0.030278518795967102
6.0,0.028553586453199387
7.0,0.026963386684656143
8.0,0.025429675355553627
9.0,0.02404903806746006
10.0,0.022834772244095802
11.0,0.021740365773439407
12.0,0.020719341933727264
13.0,0.01984269544482231
14.0,0.018987493589520454
15.0,0.01820838451385498
16.0,0.01746208220720291
18.0,0.015964899212121964
20.0,0.014625541865825653
22.0,0.01353853102773428
24.0,0.012546136975288391
26.0,0.011642680503427982
28.0,0.01084632147103548
30.0,0.010128466412425041
32.0,0.009515964426100254
36.0,0.008373362943530083
40.0,0.007510815281420946
44.0,0.006418224424123764
48.0,0.0056538572534918785
52.0,0.005061073694378138
56.0,0.004681712482124567
60.0,0.004494884051382542
64.0,0.0045696706511080265
72.0,0.004225356969982386
80.0,0.004349175374954939
88.0,0.004420579876750708
96.0,0.003883581142872572
104.0,0.002937477780506015
112.0,0.0025283857248723507
120.0,0.0022476259618997574
128.0,0.001998002640902996
144.0,0.0031119438353925943
160.0,0.004350531846284866
176.0,0.004994906019419432
192.0,0.004193341359496117
208.0,0.0023782532662153244
224.0,0.001316036214120686
240.0,0.000541822926606983
256.0,-0.0005419241497293115
288.0,-0.0002954429655801505
320.0,-5.790921022708062e-06
352.0,0.0008597535197623074
384.0,7.071674917824566e-05
416.0,0.0017530865734443069
448.0,0.0025360039435327053
480.0,0.0023002775851637125
512.0,0.0030142883770167828
576.0,0.0003112685226369649
640.0,0.0005068226018920541
704.0,-0.0008176027331501245
768.0,-0.0013096568873152137
832.0,-0.00043899554293602705
896.0,0.00014493870548903942
960.0,-0.0001623919524718076
1024.0,0.0007755036349408329
1152.0,-0.0007263216539286077
1280.0,-0.001351102371700108
1408.0,-3.5336004657438025e-05
1536.0,0.0006482258904725313
1664.0,0.0011857758508995175
1792.0,0.0013981105294078588
1920.0,-0.00011377195914974436
2048.0,-0.0004396351578179747
2304.0,0.0007459179614670575
2560.0,-5.4493451898451895e-05
2816.0,0.00014476871001534164
3072.0,0.0007785085472278297
3328.0,-0.0005679324385710061
3584.0,5.233050251263194e-05
3840.0,-1.779332887963392e-05
4096.0,0.0005117653636261821
4608.0,-0.0014856754569336772
5120.0,3.286615537945181e-05
5632.0,0.0014725864166393876
6144.0,-0.0004921589279547334
6656.0,-0.0013721385039389133
7168.0,0.0002515567175578326
7680.0,-0.000550474098417908
8192.0,-0.001218165154568851
9216.0,-0.0019250760087743402
10240.0,0.0012001332361251116
11264.0,-0.0013618024531751871
12288.0,-4.732135857921094e-05
13312.0,0.0016536907060071826
14336.0,-0.0025309622287750244
end
