version,3.0
numOfCh,1
type,point
parent_name,0-cuts
ch_type,1_1
kcount,1
numberNandB,1
brightnessNandB,1
carpet pos,0
pc,0
Time (ms),CH1 Auto-Correlation
1.0,0.027491239830851555
2.0,0.025414709001779556
3.0,0.023622825741767883
4.0,0.022008758038282394
5.0,0.02057918719947338
6.0,0.019319897517561913
7.0,0.018109682947397232
8.0,0.01705520786345005
9.0,0.01606450229883194
10.0,0.015227344818413258
11.0,0.014482473023235798
12.0,0.01373232714831829
13.0,0.013123951852321625
14.0,0.01264093816280365
15.0,0.012215347960591316
16.0,0.011781109496951103
18.0,0.01096922904253006
20.0,0.010227462276816368
22.0,0.00966077484190464
24.0,0.009203990921378136
26.0,0.008846735581755638
28.0,0.008456452749669552
30.0,0.008081885986030102
32.0,0.00769707839936018
36.0,0.007273129653185606
40.0,0.007151016965508461
44.0,0.007008854299783707
48.0,0.006684929132461548
52.0,0.006079379469156265
56.0,0.005688037723302841
60.0,0.005337150301784277
64.0,0.00510925380513072
72.0,0.004542879294604063
80.0,0.004086424130946398
88.0,0.0037304856814444065
96.0,0.0038316985592246056
104.0,0.004102278500795364
112.0,0.0038856735918670893
120.0,0.0031507080420851707
128.0,0.0027151552494615316
144.0,0.003006201470270753
160.0,0.0031215709168463945
176.0,0.002156833652406931
192.0,0.0015340241370722651
208.0,0.001743630156852305
224.0,0.0014140843413770199
240.0,0.001274768845178187
256.0,0.002030703006312251
288.0,0.0023886612616479397
320.0,0.0014708386734127998
352.0,0.0011730006663128734
384.0,0.0015352510381489992
416.0,0.001634293468669057
448.0,0.0012488005449995399
480.0,0.00031688917079009116
512.0,-0.0007817540899850428
576.0,0.0001169184542959556
640.0,0.0005212787655182183
704.0,0.0004902471555396914
768.0,-0.0009447030606679618
832.0,-0.0008502149139530957
896.0,-0.00023066168068908155
960.0,0.00028266446315683424
1024.0,-0.00019464052456896752
1152.0,4.6766475861659274e-05
1280.0,-0.0006519771413877606
1408.0,-0.0002052303752861917
1536.0,-0.000381123973056674
1664.0,0.0001244568411493674
1792.0,0.0009156621526926756
1920.0,-0.0003123385540675372
2048.0,0.0002565697650425136
2304.0,0.000832358724437654
2560.0,0.0005608812207356095
2816.0,0.00037053573760204017
3072.0,0.0004477503534872085
3328.0,7.907832332421094e-05
3584.0,-3.126308729406446e-05
3840.0,-0.0019470463739708066
4096.0,-0.0019586309790611267
4608.0,0.0009621554636396468
5120.0,6.873966049170122e-05
5632.0,5.324653466232121e-05
6144.0,-0.0009367070160806179
6656.0,-0.0006901854067109525
7168.0,-0.0010065841488540173
7680.0,1.8697455743676983e-05
8192.0,0.00029691477539017797
9216.0,6.525335629703477e-05
10240.0,5.1849736337317154e-05
11264.0,-0.0008281985647045076
12288.0,-0.001643287017941475
13312.0,-0.0008851413149386644
14336.0,-0.0006565475487150252
end
