version,3.0
numOfCh,1
type,point
parent_name,0-cuts
ch_type,1_1
kcount,1
numberNandB,1
brightnessNandB,1
carpet pos,0
pc,0
Time (ms),CH1 Auto-Correlation
1.0,0.04699701443314552
2.0,0.04360032081604004
3.0,0.040654752403497696
4.0,0.0379440076649189
5.0,0.03558873385190964
6.0,0.033493950963020325
7.0,0.03163095563650131
8.0,0.030033880844712257
9.0,0.028639405965805054
10.0,0.02744622528553009
11.0,0.02641487494111061
12.0,0.025393741205334663
13.0,0.024437377229332924
14.0,0.023564467206597328
15.0,0.022672653198242188
16.0,0.02188825234770775
18.0,0.02046959102153778
20.0,0.01908269338309765
22.0,0.017587123438715935
24.0,0.016343437135219574
26.0,0.01544834952801466
28.0,0.014557315967977047
30.0,0.01366181205958128
32.0,0.012931193225085735
36.0,0.012251453474164009
40.0,0.011669440194964409
44.0,0.010912768542766571
48.0,0.010419130325317383
52.0,0.00978999026119709
56.0,0.008960384875535965
60.0,0.008420136757194996
64.0,0.00840072613209486
72.0,0.00896220002323389
80.0,0.009020491503179073
88.0,0.008663758635520935
96.0,0.00744668859988451
104.0,0.006648343522101641
112.0,0.006419567856937647
120.0,0.006872003898024559
128.0,0.006331728305667639
144.0,0.006039808504283428
160.0,0.005290465895086527
176.0,0.004237583372741938
192.0,0.004296530038118362
208.0,0.005042911507189274
224.0,0.004769408609718084
240.0,0.004458654206246138
256.0,0.0038819522596895695
288.0,0.00452499371021986
320.0,0.004516666289418936
352.0,0.0036304148379713297
384.0,0.0036214597057551146
416.0,0.002667129272595048
448.0,0.002442027907818556
480.0,0.003132687881588936
512.0,0.003331488696858287
576.0,0.0009448903147131205
640.0,0.0006947407382540405
704.0,0.0007662000716663897
768.0,0.0021045829635113478
832.0,-0.00047384618665091693
896.0,-0.002566649578511715
960.0,-0.0019624996930360794
1024.0,0.0002674894349183887
1152.0,0.0024471995420753956
1280.0,-0.0003377865068614483
1408.0,-0.000167641177540645
1536.0,-0.0008636551792733371
1664.0,-0.0019653288181871176
1792.0,-0.003011339111253619
1920.0,-0.001991674769669771
2048.0,-0.0033165463246405125
2304.0,-0.0034282419364899397
2560.0,-0.0026663849130272865
2816.0,-0.002461452968418598
3072.0,-0.0002208944788435474
3328.0,-0.000250543060246855
3584.0,-0.0001283037126995623
3840.0,-0.001483678468503058
4096.0,-0.0022321001160889864
4608.0,-0.0011988998157903552
5120.0,-0.0005908478633500636
5632.0,-8.749194967094809e-05
6144.0,0.0014436942292377353
6656.0,0.0027614778373390436
7168.0,0.002169407205656171
7680.0,0.0016566128470003605
8192.0,0.00042038189712911844
9216.0,-0.00156642054207623
10240.0,-0.0012409283081069589
11264.0,0.00039715570164844394
12288.0,-0.0005478653474710882
13312.0,0.0016911381389945745
14336.0,0.001164529356174171
end
