version,3.0
numOfCh,1
type,point
parent_name,0-cuts
ch_type,1_1
kcount,1
numberNandB,1
brightnessNandB,1
carpet pos,0
pc,0
Time (ms),CH1 Auto-Correlation
1.0,0.027050485834479332
2.0,0.02491951361298561
3.0,0.023113427683711052
4.0,0.02151135727763176
5.0,0.02014613151550293
6.0,0.018926657736301422
7.0,0.017886226996779442
8.0,0.01697405055165291
9.0,0.01612190529704094
10.0,0.015367366373538971
11.0,0.014643268659710884
12.0,0.014002930372953415
13.0,0.013462556526064873
14.0,0.012962919659912586
15.0,0.01251041516661644
16.0,0.012086505070328712
18.0,0.011271287687122822
20.0,0.010663549415767193
22.0,0.010134287178516388
24.0,0.009688145481050014
26.0,0.009277576580643654
28.0,0.008930080570280552
30.0,0.008515244349837303
32.0,0.008017373271286488
36.0,0.007102040573954582
40.0,0.00667203264310956
44.0,0.006488236598670483
48.0,0.006136678159236908
52.0,0.005521378014236689
56.0,0.0047733597457408905
60.0,0.004293678794056177
64.0,0.0037240968085825443
72.0,0.0028711145278066397
80.0,0.0029519046656787395
88.0,0.0034332091454416513
96.0,0.002633966039866209
104.0,0.0015797556843608618
112.0,0.001077406108379364
120.0,0.0013291863724589348
128.0,0.001360876951366663
144.0,0.0013296926626935601
160.0,0.0012085812631994486
176.0,0.0015372398775070906
192.0,0.0017542409477755427
208.0,0.0019897036254405975
224.0,0.002523214090615511
240.0,0.002562212524935603
256.0,0.0020060366950929165
288.0,0.0018723908578976989
320.0,0.0008289690595120192
352.0,0.0008801395888440311
384.0,0.0010308906203135848
416.0,0.001428561401553452
448.0,0.000995777896605432
480.0,-6.78566939313896e-05
512.0,-0.0004688929475378245
576.0,-0.0008610639488324523
640.0,-0.000380150304408744
704.0,-0.00046645646216347814
768.0,0.0006435499526560307
832.0,0.0010803233599290252
896.0,-0.0006962049519643188
960.0,-0.0006444611353799701
1024.0,-0.0004672062350437045
1152.0,-1.8215996533399448e-05
1280.0,0.00027027371106669307
1408.0,-0.0007904372178018093
1536.0,-2.4933164240792394e-05
1664.0,-0.0005892381886951625
1792.0,-0.0016272672219201922
1920.0,-0.0015514654805883765
2048.0,-0.0014602704904973507
2304.0,-0.0014502144185826182
2560.0,-0.0011327245738357306
2816.0,-0.00015964597696438432
3072.0,0.0008907509036362171
3328.0,0.001580017269589007
3584.0,-0.00037724568392150104
3840.0,-0.0012886608019471169
4096.0,0.0003094124549534172
4608.0,0.00031055923318490386
5120.0,-0.0009657019400037825
5632.0,-0.0006509412196464837
6144.0,0.001215572003275156
6656.0,-7.116111373761669e-05
7168.0,-0.0006139907636679709
7680.0,0.0009612992871552706
8192.0,-0.0024902475997805595
9216.0,0.0010254009393975139
10240.0,0.0017463858239352703
11264.0,-0.0009489147923886776
12288.0,-0.0009524347842670977
13312.0,0.0031980290077626705
14336.0,-0.0026828304398804903
end
