version,3.0
numOfCh,1
type,point
parent_name,0-cuts
ch_type,1_1
kcount,1
numberNandB,1
brightnessNandB,1
carpet pos,0
pc,0
Time (ms),CH1 Auto-Correlation
1.0,0.02769378200173378
2.0,0.025540100410580635
3.0,0.023635921999812126
4.0,0.02197021059691906
5.0,0.020551515743136406
6.0,0.01931094564497471
7.0,0.0182492695748806
8.0,0.017316102981567383
9.0,0.016504529863595963
10.0,0.01572725549340248
11.0,0.015053315088152885
12.0,0.014442233368754387
13.0,0.013938125222921371
14.0,0.013443230651319027
15.0,0.012911730445921421
16.0,0.012455679476261139
18.0,0.011656146496534348
20.0,0.010712471790611744
22.0,0.009936499409377575
24.0,0.009295710362493992
26.0,0.008681846782565117
28.0,0.008041361346840858
30.0,0.007451301906257868
32.0,0.00702251261100173
36.0,0.006251489743590355
40.0,0.005705204792320728
44.0,0.004996507428586483
48.0,0.004434257745742798
52.0,0.003942524082958698
56.0,0.003477641148492694
60.0,0.0033571349922567606
64.0,0.003239350626245141
72.0,0.0027266640681773424
80.0,0.0023610619828104973
88.0,0.002385272877290845
96.0,0.002648008521646261
104.0,0.0030035567469894886
112.0,0.0029781304765492678
120.0,0.0022271384950727224
128.0,0.0015556561993435025
144.0,0.0012298669898882508
160.0,0.001319295377470553
176.0,0.002446578349918127
192.0,0.0025474943686276674
208.0,0.001782468636520207
224.0,0.0014810631982982159
240.0,0.0012494479306042194
256.0,0.0009880211437121034
288.0,0.0009355914662592113
320.0,-0.00022708011965733021
352.0,-0.000933973933570087
384.0,-0.000625120010226965
416.0,-0.0013869998510926962
448.0,-0.001742755644954741
480.0,0.0002014937053900212
512.0,0.0002270720578962937
576.0,-0.0004068502166774124
640.0,-5.3956890042172745e-05
704.0,-0.00042349594878032804
768.0,0.0006373607902787626
832.0,-3.1582338124280795e-05
896.0,-0.00012147689994890243
960.0,9.241978114005178e-05
1024.0,0.00032303837360814214
1152.0,0.0006963761989027262
1280.0,0.0005300675984472036
1408.0,-0.0008061673142947257
1536.0,-0.0015016085235401988
1664.0,-0.001393249025568366
1792.0,-0.0002318110055057332
1920.0,0.0012329138116911054
2048.0,-0.0005555411335080862
2304.0,-0.0007380182505585253
2560.0,-0.0006647427217103541
2816.0,8.799762872513384e-05
3072.0,0.0005319778574630618
3328.0,7.55309738451615e-05
3584.0,0.0013728579506278038
3840.0,0.0010809804080054164
4096.0,0.00016459518519695848
4608.0,-0.0003637891495600343
5120.0,-0.0008179057622328401
5632.0,0.00044829040416516364
6144.0,-0.00098042085301131
6656.0,0.0007541956147179008
7168.0,0.0006294860504567623
7680.0,-0.0003022315795533359
8192.0,-0.0012028513010591269
9216.0,-0.00010746115731308237
10240.0,0.00015493332466576248
11264.0,-0.0010128157446160913
12288.0,-0.0015569092938676476
13312.0,0.0005794998141936958
14336.0,0.002827791729941964
end
