version,3.0
numOfCh,1
type,point
parent_name,0-cuts
ch_type,1_1
kcount,1
numberNandB,1
brightnessNandB,1
carpet pos,0
pc,0
Time (ms),CH1 Auto-Correlation
1.0,0.04071670398116112
2.0,0.03762221708893776
3.0,0.03491780906915665
4.0,0.032540712505578995
5.0,0.03029562346637249
6.0,0.028395984321832657
7.0,0.026689942926168442
8.0,0.025235367938876152
9.0,0.02386593446135521
10.0,0.02267851121723652
11.0,0.021608376875519753
12.0,0.020608438178896904
13.0,0.019649969413876534
14.0,0.018801262602210045
15.0,0.018008874729275703
16.0,0.01726512610912323
18.0,0.015809403732419014
20.0,0.0144705381244421
22.0,0.013331395573914051
24.0,0.012406711466610432
26.0,0.011573701165616512
28.0,0.010899242013692856
30.0,0.01030962634831667
32.0,0.009905832819640636
36.0,0.009167223237454891
40.0,0.008271978236734867
44.0,0.007280863355845213
48.0,0.0063318233005702496
52.0,0.005663426127284765
56.0,0.005104292184114456
60.0,0.004685178864747286
64.0,0.0038105258718132973
72.0,0.002178953494876623
80.0,0.0013074057642370462
88.0,0.0012424407759681344
96.0,0.0015510623343288898
104.0,0.0015411932254210114
112.0,0.00023948978923726827
120.0,-0.0003902797761838883
128.0,8.887314470484853e-05
144.0,7.08425504853949e-05
160.0,0.0004480880161281675
176.0,0.00013324012979865074
192.0,-0.0013072617584839463
208.0,-0.002210569567978382
224.0,-0.0026515440549701452
240.0,-0.0029047424905002117
256.0,-0.004007253330200911
288.0,-0.0023208551574498415
320.0,-0.0021539879962801933
352.0,-0.0012175109004601836
384.0,0.0003246199921704829
416.0,0.0014198124408721924
448.0,0.0012992840493097901
480.0,-0.0003266609273850918
512.0,-2.5971365175792016e-05
576.0,0.0002730669511947781
640.0,0.0016091286670416594
704.0,-0.0014893928309902549
768.0,0.001357372268103063
832.0,0.0026587124448269606
896.0,0.0005154190002940595
960.0,-0.001720756758004427
1024.0,-0.0008063031709752977
1152.0,-0.0013534724712371826
1280.0,0.0006110827089287341
1408.0,0.0005091838538646698
1536.0,0.0008582372101955116
1664.0,0.0006678295321762562
1792.0,4.811941471416503e-05
1920.0,0.0004467109974939376
2048.0,0.0015117882285267115
2304.0,-0.0006222285446710885
2560.0,0.0014951330376788974
2816.0,-0.0017820154316723347
3072.0,0.0004973791656084359
3328.0,-0.0006382464780472219
3584.0,-0.0009417737019248307
3840.0,-0.0004975097253918648
4096.0,0.000591263931710273
4608.0,-0.0008379906648769975
5120.0,-0.00017832560115493834
5632.0,-0.0008916578372009099
6144.0,-0.0001751528325257823
6656.0,-0.0008968886104412377
7168.0,0.00014253008703235537
7680.0,-0.00012737976794596761
8192.0,0.0007274486706592143
9216.0,0.0005706091178581119
10240.0,0.0006103673367761075
11264.0,0.0003127021773252636
12288.0,-0.00023554827203042805
13312.0,-0.0005618463619612157
14336.0,-0.0008724814979359508
end
