version,3.0
numOfCh,1
type,point
parent_name,fe81d_0dot2-0dot01
ch_type,1_1
kcount,1
numberNandB,1
brightnessNandB,1
carpet pos,0
pc,0
Time (ms),CH1 Auto-Correlation
1.0,0.03676915541291237
2.0,0.036227867007255554
3.0,0.03571721911430359
4.0,0.03523600846529007
5.0,0.03477563336491585
6.0,0.03432079777121544
7.0,0.03387551009654999
8.0,0.033442799001932144
9.0,0.0330389142036438
10.0,0.032646529376506805
11.0,0.03227420151233673
12.0,0.03190839663147926
13.0,0.031566742807626724
14.0,0.031226158142089844
15.0,0.03089830093085766
16.0,0.030582290142774582
18.0,0.029945814982056618
20.0,0.02930278517305851
22.0,0.028712337836623192
24.0,0.028166573494672775
26.0,0.02763327583670616
28.0,0.027107544243335724
30.0,0.026593061164021492
32.0,0.026106135919690132
36.0,0.025130482390522957
40.0,0.024177836254239082
44.0,0.023244468495249748
48.0,0.022345824167132378
52.0,0.021533312276005745
56.0,0.020802471786737442
60.0,0.020177526399493217
64.0,0.019673433154821396
72.0,0.01863403618335724
80.0,0.017606761306524277
88.0,0.01656723953783512
96.0,0.015538442879915237
104.0,0.01475570723414421
112.0,0.014176253229379654
120.0,0.013825159519910812
128.0,0.013603456318378448
144.0,0.013107197359204292
160.0,0.012609576806426048
176.0,0.012340054847300053
192.0,0.011932485736906528
208.0,0.011401718482375145
224.0,0.01101453322917223
240.0,0.010704255662858486
256.0,0.010281058959662914
288.0,0.009323962032794952
320.0,0.008809090591967106
352.0,0.008619878441095352
384.0,0.007797949947416782
416.0,0.005292481742799282
448.0,0.003675631945952773
480.0,0.002271195175126195
512.0,0.0020746970549225807
576.0,0.0024663361255079508
640.0,0.002210934180766344
704.0,-0.0006706935819238424
768.0,-0.0037504585925489664
832.0,-0.002297998173162341
896.0,0.0004541169910226017
960.0,0.000138584291562438
1024.0,-0.0012160995975136757
1152.0,0.0009199201012961566
1280.0,0.0018844716250896454
1408.0,-0.0033195747528225183
1536.0,-0.0010273116640746593
1664.0,-0.0039244769141077995
1792.0,-0.0012292793253436685
1920.0,-0.0009826846653595567
2048.0,0.0010291354265064
2304.0,0.004492062143981457
2560.0,0.0022882467601448298
2816.0,-0.0005157009582035244
3072.0,-5.107251854497008e-05
3328.0,0.00015139307652134448
3584.0,-0.005126566160470247
3840.0,-0.009594176895916462
4096.0,-0.006434329319745302
4608.0,1.3697310350835323e-05
5120.0,-0.007833602838218212
5632.0,-0.0007048379629850388
6144.0,-0.008355644531548023
6656.0,-0.006170046981424093
7168.0,-0.0015143869677558541
7680.0,0.009051098488271236
8192.0,0.006214508321136236
end
