version,3.0
numOfCh,1
type,point
parent_name,fe81d_0dot2-0dot01
ch_type,1_1
kcount,1
numberNandB,1
brightnessNandB,1
carpet pos,0
pc,0
Time (ms),CH1 Auto-Correlation
1.0,0.03376740962266922
2.0,0.033212002366781235
3.0,0.032672394067049026
4.0,0.03216307610273361
5.0,0.03167293593287468
6.0,0.031183628365397453
7.0,0.030706580728292465
8.0,0.03024618700146675
9.0,0.029800858348608017
10.0,0.02935967780649662
11.0,0.028937960043549538
12.0,0.028534581884741783
13.0,0.028153659775853157
14.0,0.02778836339712143
15.0,0.027443116530776024
16.0,0.02712445892393589
18.0,0.026516243815422058
20.0,0.025951826944947243
22.0,0.025412913411855698
24.0,0.02487441524863243
26.0,0.02431030571460724
28.0,0.023744352161884308
30.0,0.02321341633796692
32.0,0.02270495519042015
36.0,0.021731654182076454
40.0,0.02083677053451538
44.0,0.019984416663646698
48.0,0.019243711605668068
52.0,0.01857709139585495
56.0,0.01793704554438591
60.0,0.0172951128333807
64.0,0.016680404543876648
72.0,0.015427942387759686
80.0,0.014405944384634495
88.0,0.013360371813178062
96.0,0.012330107390880585
104.0,0.011314809322357178
112.0,0.010494247078895569
120.0,0.009928791783750057
128.0,0.009667275473475456
144.0,0.009307576343417168
160.0,0.008829371072351933
176.0,0.008343199267983437
192.0,0.007991062477231026
208.0,0.007134246174246073
224.0,0.006120188627392054
240.0,0.005488038994371891
256.0,0.005330677609890699
288.0,0.005463852547109127
320.0,0.005389512982219458
352.0,0.005199964623898268
384.0,0.00512530654668808
416.0,0.00468512112274766
448.0,0.004663450177758932
480.0,0.004639110527932644
512.0,0.0038858666084706783
576.0,0.0017412808956578374
640.0,-0.00020480308739934117
704.0,0.0005805017426609993
768.0,0.0010424654465168715
832.0,0.0021338292863219976
896.0,0.002469619270414114
960.0,0.002091951435431838
1024.0,0.0015209020348265767
1152.0,-5.039069219492376e-05
1280.0,0.0007658385438844562
1408.0,0.0026901839300990105
1536.0,0.001274165348149836
1664.0,-0.00017185023170895875
1792.0,-0.002544703194871545
1920.0,-0.003993464633822441
2048.0,-0.0031035523861646652
2304.0,-0.0006910829688422382
2560.0,-0.0008021202520467341
2816.0,-0.00041695937397889793
3072.0,0.0038117454387247562
3328.0,0.002888489980250597
3584.0,0.004942369647324085
3840.0,0.003031174885109067
4096.0,0.0010552044259384274
4608.0,0.002179106930270791
5120.0,-0.0024344436824321747
5632.0,0.001393843675032258
6144.0,5.21490910614375e-05
6656.0,-0.0016306658508256078
7168.0,-0.0020113016944378614
7680.0,-0.004578346386551857
8192.0,-0.003958523739129305
end
