version,3.0
numOfCh,1
type,point
parent_name,fe81d_0dot2-0dot01
ch_type,1_1
kcount,1
numberNandB,1
brightnessNandB,1
carpet pos,0
pc,0
Time (ms),CH1 Auto-Correlation
1.0,0.028219593688845634
2.0,0.027670636773109436
3.0,0.027152590453624725
4.0,0.026650909334421158
5.0,0.026160500943660736
6.0,0.025672363117337227
7.0,0.025192515924572945
8.0,0.024731410667300224
9.0,0.024280598387122154
10.0,0.023842500522732735
11.0,0.023410558700561523
12.0,0.02300470508635044
13.0,0.022626176476478577
14.0,0.022254694253206253
15.0,0.021881727501749992
16.0,0.021512940526008606
18.0,0.020812008529901505
20.0,0.02015387825667858
22.0,0.01954621449112892
24.0,0.01902018114924431
26.0,0.0184819046407938
28.0,0.017943279817700386
30.0,0.017438586801290512
32.0,0.016955064609646797
36.0,0.016072284430265427
40.0,0.015298900194466114
44.0,0.014584721066057682
48.0,0.013946129009127617
52.0,0.013329663313925266
56.0,0.012757346965372562
60.0,0.012245194055140018
64.0,0.01180952787399292
72.0,0.011088351719081402
80.0,0.010416406206786633
88.0,0.00971965491771698
96.0,0.009084867313504219
104.0,0.008365833200514317
112.0,0.007653551641851664
120.0,0.007247424218803644
128.0,0.007021749392151833
144.0,0.006454956717789173
160.0,0.0058419350534677505
176.0,0.005848390515893698
192.0,0.0058063664473593235
208.0,0.005958677269518375
224.0,0.0060005588456988335
240.0,0.005592928268015385
256.0,0.005379915237426758
288.0,0.005607087165117264
320.0,0.004809755366295576
352.0,0.003972617443650961
384.0,0.0036466759629547596
416.0,0.0039387778379023075
448.0,0.003895202651619911
480.0,0.003666538977995515
512.0,0.0037397213745862246
576.0,0.002437679097056389
640.0,0.0015605614753440022
704.0,0.0008411261369474232
768.0,0.00031554841552861035
832.0,-4.1363808122696355e-05
896.0,-0.0009754110942594707
960.0,-0.0014907553559169173
1024.0,-0.0033172653056681156
1152.0,-0.0018372507765889168
1280.0,-0.0031276110094040632
1408.0,-0.004281018860638142
1536.0,-0.0021040434949100018
1664.0,-0.0015285499393939972
1792.0,-0.0010082739172503352
1920.0,-0.00021958087745588273
2048.0,0.0014724228531122208
2304.0,0.0011451243190094829
2560.0,0.0011220842134207487
2816.0,0.0010481573408469558
3072.0,-0.0002696594747249037
3328.0,-0.0010990697192028165
3584.0,-0.0013919711345806718
3840.0,0.0007874246803112328
4096.0,0.001810976187698543
4608.0,-0.0005994210951030254
5120.0,-0.0033148692455142736
5632.0,-0.001679750974290073
6144.0,-0.0009857112308964133
6656.0,-0.0004060281498823315
7168.0,-0.0020590343046933413
7680.0,-0.0033307524863630533
8192.0,-0.0006688231369480491
end
