version,3.0
numOfCh,1
type,point
parent_name,fe81d_0dot2-0dot01
ch_type,1_1
kcount,1
numberNandB,1
brightnessNandB,1
carpet pos,0
pc,0
Time (ms),CH1 Auto-Correlation
1.0,0.03206908702850342
2.0,0.03147513046860695
3.0,0.03089551441371441
4.0,0.030330177396535873
5.0,0.029753154143691063
6.0,0.029196428135037422
7.0,0.028647594153881073
8.0,0.028104549273848534
9.0,0.027564385905861855
10.0,0.027052870020270348
11.0,0.026569979265332222
12.0,0.02609412372112274
13.0,0.02562897838652134
14.0,0.02519623376429081
15.0,0.024767130613327026
16.0,0.02435745857656002
18.0,0.02357165515422821
20.0,0.02279822900891304
22.0,0.022042682394385338
24.0,0.021319858729839325
26.0,0.020652849227190018
28.0,0.020045267418026924
30.0,0.019507402554154396
32.0,0.01905331015586853
36.0,0.01823860965669155
40.0,0.017451927065849304
44.0,0.016666987910866737
48.0,0.01600627973675728
52.0,0.01546619925647974
56.0,0.015015878714621067
60.0,0.01456646341830492
64.0,0.014035630971193314
72.0,0.012878075242042542
80.0,0.011691639199852943
88.0,0.010542092844843864
96.0,0.00944887101650238
104.0,0.008588561788201332
112.0,0.00798854697495699
120.0,0.007540200836956501
128.0,0.007183236535638571
144.0,0.007078721188008785
160.0,0.00669097900390625
176.0,0.006283081602305174
192.0,0.005643519572913647
208.0,0.005352166946977377
224.0,0.005295931827276945
240.0,0.005249927751719952
256.0,0.005048754625022411
288.0,0.004765352234244347
320.0,0.005422815214842558
352.0,0.005811670795083046
384.0,0.0048850299790501595
416.0,0.004649039823561907
448.0,0.003887892933562398
480.0,0.0031558815389871597
512.0,0.000740538933314383
576.0,0.00012280704686418176
640.0,0.00042166293133050203
704.0,0.00012536635040305555
768.0,-0.0003171911521349102
832.0,-0.0021059399005025625
896.0,-0.0033594518899917603
960.0,-0.0029620425775647163
1024.0,-0.0022637296933680773
1152.0,-0.0005885273567400873
1280.0,-0.001198883866891265
1408.0,-0.0030198702588677406
1536.0,-0.002758591901510954
1664.0,-0.00016732088988646865
1792.0,0.0009307989967055619
1920.0,-0.0001737869461067021
2048.0,0.0012937403516843915
2304.0,0.004653743468225002
2560.0,0.0036139804869890213
2816.0,0.0007554561016149819
3072.0,-0.002084207721054554
3328.0,-0.0014360557543113828
3584.0,-0.0022158855572342873
3840.0,-0.0018308872822672129
4096.0,-0.001037315814755857
4608.0,0.004085365682840347
5120.0,0.0040528359822928905
5632.0,-0.0029098629020154476
6144.0,-0.004413745366036892
6656.0,-4.287197589292191e-05
7168.0,0.0013609390007331967
7680.0,-0.0007094956235960126
8192.0,-0.002867307746782899
end
