version,3.0
numOfCh,1
type,point
parent_name,fe81d_0dot2-0dot01
ch_type,1_1
kcount,1
numberNandB,1
brightnessNandB,1
carpet pos,0
pc,0
Time (ms),CH1 Auto-Correlation
1.0,0.035919345915317535
2.0,0.03532066568732262
3.0,0.034750115126371384
4.0,0.03421545773744583
5.0,0.03368877246975899
6.0,0.033157315105199814
7.0,0.03261742740869522
8.0,0.03209216892719269
9.0,0.03158758208155632
10.0,0.031094875186681747
11.0,0.030626408755779266
12.0,0.030171293765306473
13.0,0.02971009910106659
14.0,0.02927522361278534
15.0,0.028858788311481476
16.0,0.028454918414354324
18.0,0.02762659825384617
20.0,0.026832371950149536
22.0,0.026052342727780342
24.0,0.025306420400738716
26.0,0.024653581902384758
28.0,0.024084320291876793
30.0,0.02356008253991604
32.0,0.023112177848815918
36.0,0.022289389744400978
40.0,0.02150135114789009
44.0,0.020739151164889336
48.0,0.020074691623449326
52.0,0.01952590048313141
56.0,0.01905508153140545
60.0,0.018613014370203018
64.0,0.018283385783433914
72.0,0.017786933109164238
80.0,0.017417829483747482
88.0,0.016899989917874336
96.0,0.016209155321121216
104.0,0.015561503358185291
112.0,0.015101202763617039
120.0,0.014651825651526451
128.0,0.01396558154374361
144.0,0.012440930120646954
160.0,0.011378593742847443
176.0,0.010662917047739029
192.0,0.009775955229997635
208.0,0.00891672633588314
224.0,0.007647623773664236
240.0,0.0062365164048969746
256.0,0.004951764363795519
288.0,0.0034271690528839827
320.0,0.001930691534653306
352.0,0.0014850067673251033
384.0,0.0006180513300932944
416.0,0.00019578357751015574
448.0,-0.000570954114664346
480.0,-0.0002793704916257411
512.0,-0.00046889763325452805
576.0,-0.0022353825625032187
640.0,-0.0009754501515999436
704.0,-0.0012125401990488172
768.0,-0.0018572333501651883
832.0,-0.0011563420994207263
896.0,0.00041978436638601124
960.0,0.00038816494634374976
1024.0,0.0015923313330858946
1152.0,0.0031739792320877314
1280.0,0.003956412896513939
1408.0,0.002119240816682577
1536.0,-0.0013626525178551674
1664.0,-0.005001051351428032
1792.0,-0.005650203209370375
1920.0,-0.004640782251954079
2048.0,-0.003070152597501874
2304.0,-0.00023076515935827047
2560.0,0.004079025704413652
2816.0,0.0005180576699785888
3072.0,-0.005307330749928951
3328.0,-0.002429082291200757
3584.0,0.002686131512746215
3840.0,0.004161771386861801
4096.0,-0.0022608996368944645
4608.0,-0.004419238772243261
5120.0,-0.001875115791335702
5632.0,-0.008297831751406193
6144.0,-0.0012035166146233678
6656.0,-0.0030357209034264088
7168.0,0.006726753432303667
7680.0,0.008219609968364239
8192.0,-0.006282983347773552
end
