version,3.0
numOfCh,1
type,point
parent_name,fe81d_0dot2-0dot01
ch_type,1_1
kcount,1
numberNandB,1
brightnessNandB,1
carpet pos,0
pc,0
Time (ms),CH1 Auto-Correlation
1.0,0.03966289013624191
2.0,0.039010535925626755
3.0,0.03836578503251076
4.0,0.03773176670074463
5.0,0.03713369369506836
6.0,0.03656129166483879
7.0,0.036021098494529724
8.0,0.035508111119270325
9.0,0.03497876971960068
10.0,0.03446551412343979
11.0,0.03399212658405304
12.0,0.03352474421262741
13.0,0.033107057213783264
14.0,0.032695792615413666
15.0,0.032288141548633575
16.0,0.031902264803647995
18.0,0.031106997281312943
20.0,0.030370619148015976
22.0,0.029678409919142723
24.0,0.02900153025984764
26.0,0.02838417887687683
28.0,0.027811367064714432
30.0,0.02724646031856537
32.0,0.026681484654545784
36.0,0.02557620406150818
40.0,0.024548601359128952
44.0,0.023757148534059525
48.0,0.023124756291508675
52.0,0.022478951141238213
56.0,0.021714964881539345
60.0,0.020960358902812004
64.0,0.0202033631503582
72.0,0.018856750801205635
80.0,0.017869597300887108
88.0,0.017192047089338303
96.0,0.016655880957841873
104.0,0.016151612624526024
112.0,0.015479802154004574
120.0,0.01477694883942604
128.0,0.013874097727239132
144.0,0.012481441721320152
160.0,0.012326435185968876
176.0,0.01260507944971323
192.0,0.012798720970749855
208.0,0.01250332873314619
224.0,0.01143123209476471
240.0,0.01057220995426178
256.0,0.009832467883825302
288.0,0.008266600780189037
320.0,0.007669682614505291
352.0,0.007542498409748077
384.0,0.008132664486765862
416.0,0.009431041777133942
448.0,0.008668395690619946
480.0,0.007185295224189758
512.0,0.004850832279771566
576.0,0.00322156073525548
640.0,0.0022677418310195208
704.0,0.0004939045757055283
768.0,0.0021318758372217417
832.0,0.00502017792314291
896.0,0.005516757722944021
960.0,0.004506554454565048
1024.0,0.003202261636033654
1152.0,0.00027993772528134286
1280.0,0.001372024416923523
1408.0,0.008701077662408352
1536.0,0.00878546480089426
1664.0,0.010562386363744736
1792.0,0.011487388983368874
1920.0,0.011014400981366634
2048.0,0.006564880255609751
2304.0,0.0037593161687254906
2560.0,-0.002719431184232235
2816.0,-0.008697076700627804
3072.0,-0.005835936404764652
3328.0,0.0008338664774782956
3584.0,-0.003741242690011859
3840.0,-0.004419023171067238
4096.0,-0.0043090833351016045
end
