version,3.0
numOfCh,1
type,point
parent_name,fe81d_0dot2-0dot01
ch_type,1_1
kcount,1
numberNandB,1
brightnessNandB,1
carpet pos,0
pc,0
Time (ms),CH1 Auto-Correlation
1.0,0.03125791996717453
2.0,0.0306676235049963
3.0,0.030089547857642174
4.0,0.029523931443691254
5.0,0.028964651748538017
6.0,0.02842656522989273
7.0,0.027899496257305145
8.0,0.027402618899941444
9.0,0.026924515143036842
10.0,0.02644343674182892
11.0,0.02595873363316059
12.0,0.02547232247889042
13.0,0.025007907301187515
14.0,0.024570632725954056
15.0,0.02412356808781624
16.0,0.023694392293691635
18.0,0.022865401580929756
20.0,0.022095995023846626
22.0,0.021392501890659332
24.0,0.02071632817387581
26.0,0.02004457265138626
28.0,0.019389646127820015
30.0,0.018752068281173706
32.0,0.018161753192543983
36.0,0.017045410349965096
40.0,0.016000187024474144
44.0,0.015085268765687943
48.0,0.014300399459898472
52.0,0.01358554232865572
56.0,0.01292431727051735
60.0,0.012354896403849125
64.0,0.011836483143270016
72.0,0.01086464710533619
80.0,0.009871161542832851
88.0,0.009061546996235847
96.0,0.008408835157752037
104.0,0.00787738524377346
112.0,0.007316027767956257
120.0,0.006816711742430925
128.0,0.00616067461669445
144.0,0.0052062696777284145
160.0,0.004966587293893099
176.0,0.005320078693330288
192.0,0.006097852718085051
208.0,0.006203812547028065
224.0,0.005875207018107176
240.0,0.005326630547642708
256.0,0.004783370066434145
288.0,0.0036079140845686197
320.0,0.0032120514661073685
352.0,0.002636359538882971
384.0,0.0016051148995757103
416.0,0.000791854050476104
448.0,0.00048452173359692097
480.0,0.0006466644699685276
512.0,0.0008995166863314807
576.0,0.0009947390062734485
640.0,0.00046577700413763523
704.0,0.001346589415334165
768.0,0.001305763958953321
832.0,0.0006170354317873716
896.0,-0.0002567429910413921
960.0,0.00019080926722381264
1024.0,0.00037396623520180583
1152.0,0.001777704688720405
1280.0,0.0023008170537650585
1408.0,0.0015565837966278195
1536.0,0.0012895955005660653
1664.0,0.0008140553254634142
1792.0,-1.3136099369148724e-05
1920.0,0.0005993282538838685
2048.0,0.0015292682219296694
2304.0,1.129061547544552e-05
2560.0,0.00013495716848410666
2816.0,-0.0006704378756694496
3072.0,-0.0010126085253432393
3328.0,-0.00040279951645061374
3584.0,-0.0018911301158368587
3840.0,-0.002054329961538315
4096.0,-0.000605951005127281
4608.0,-0.001974110957235098
5120.0,-0.0007955902838148177
5632.0,-0.003069245722144842
6144.0,0.0011590318754315376
6656.0,-0.0010408848756924272
7168.0,0.0006956402212381363
7680.0,-0.0028663575649261475
8192.0,-0.0006521465838886797
end
