version,3.0
numOfCh,1
type,point
parent_name,fe81d_0dot2-0dot01
ch_type,1_1
kcount,1
numberNandB,1
brightnessNandB,1
carpet pos,0
pc,0
Time (ms),CH1 Auto-Correlation
1.0,0.02767162397503853
2.0,0.027111859992146492
3.0,0.026569854468107224
4.0,0.02604544907808304
5.0,0.025534844025969505
6.0,0.025044167414307594
7.0,0.024596216157078743
8.0,0.024161620065569878
9.0,0.023742804303765297
10.0,0.023327453061938286
11.0,0.02293587662279606
12.0,0.02254534885287285
13.0,0.022172363474965096
14.0,0.021805882453918457
15.0,0.021433787420392036
16.0,0.021068774163722992
18.0,0.020406436175107956
20.0,0.019779833033680916
22.0,0.019178315997123718
24.0,0.01858813688158989
26.0,0.018022919073700905
28.0,0.017504164949059486
30.0,0.01699112355709076
32.0,0.0164959616959095
36.0,0.015536703169345856
40.0,0.01466126274317503
44.0,0.013902338221669197
48.0,0.013192858546972275
52.0,0.012519031763076782
56.0,0.011816003359854221
60.0,0.011098950169980526
64.0,0.010392828844487667
72.0,0.008988085202872753
80.0,0.007669215090572834
88.0,0.006547872442752123
96.0,0.005778286140412092
104.0,0.005084522068500519
112.0,0.004501216113567352
120.0,0.004034280311316252
128.0,0.0037061625625938177
144.0,0.0033359010703861713
160.0,0.003314496949315071
176.0,0.0031176346819847822
192.0,0.0029946258291602135
208.0,0.002851832425221801
224.0,0.0025575701147317886
240.0,0.0023622766602784395
256.0,0.002033267868682742
288.0,0.0014097895473241806
320.0,0.0007484943489544094
352.0,0.0005142939044162631
384.0,0.0004037944891024381
416.0,-0.00020811731519643217
448.0,-0.0002843877882696688
480.0,0.00031938913161866367
512.0,0.0008222124888561666
576.0,0.0021181334741413593
640.0,0.0011585195316001773
704.0,0.0008281457703560591
768.0,0.0022545133251696825
832.0,0.004120109137147665
896.0,0.004281464498490095
960.0,0.0024038676638156176
1024.0,0.000713392102625221
1152.0,0.0007602288387715816
1280.0,0.00030323912505991757
1408.0,-1.7963579011848196e-05
1536.0,-3.2898224162636325e-05
1664.0,0.001596786198206246
1792.0,0.001547117019072175
1920.0,-0.0011925391154363751
2048.0,-0.0025401231832802296
2304.0,-0.0014155531534925103
2560.0,-0.0009507291833870113
2816.0,-0.001048458507284522
3072.0,-0.002938280813395977
3328.0,-0.00046008513891138136
3584.0,-0.0014526871964335442
3840.0,0.0005455369246192276
4096.0,0.001730280346237123
4608.0,0.000757063739001751
5120.0,-0.0009124962380155921
5632.0,-0.0003026770136784762
6144.0,-0.0017973670037463307
6656.0,-0.0013650248292833567
7168.0,-0.0013508558040484786
7680.0,-0.001274951035156846
8192.0,-0.0004800254828296602
end
