version,3.0
numOfCh,1
type,point
parent_name,fe81d_0dot2-0dot01
ch_type,1_1
kcount,1
numberNandB,1
brightnessNandB,1
carpet pos,0
pc,0
Time (ms),CH1 Auto-Correlation
1.0,0.02841838449239731
2.0,0.027870845049619675
3.0,0.027360407635569572
4.0,0.02687705308198929
5.0,0.026415379717946053
6.0,0.025983503088355064
7.0,0.02558489516377449
8.0,0.025190288200974464
9.0,0.024807607755064964
10.0,0.02442271262407303
11.0,0.02406040020287037
12.0,0.023726290091872215
13.0,0.02339968830347061
14.0,0.02308580093085766
15.0,0.022784482687711716
16.0,0.022488847374916077
18.0,0.021927447989583015
20.0,0.021412968635559082
22.0,0.02092311531305313
24.0,0.020474351942539215
26.0,0.020048700273036957
28.0,0.0196133553981781
30.0,0.019209232181310654
32.0,0.01881268061697483
36.0,0.0180873591452837
40.0,0.017408475279808044
44.0,0.016715284436941147
48.0,0.01593698002398014
52.0,0.01508069597184658
56.0,0.014193227514624596
60.0,0.013436096720397472
64.0,0.012778456322848797
72.0,0.011520898900926113
80.0,0.010469072498381138
88.0,0.009729016572237015
96.0,0.009009686298668385
104.0,0.008416750468313694
112.0,0.008051933720707893
120.0,0.007837627083063126
128.0,0.007774077355861664
144.0,0.007422132883220911
160.0,0.006856370251625776
176.0,0.006232036277651787
192.0,0.0054002064280211926
208.0,0.004676551558077335
224.0,0.004297614097595215
240.0,0.004022062290459871
256.0,0.0036487027537077665
288.0,0.002803967334330082
320.0,0.0020425778347998857
352.0,0.0016010924009606242
384.0,0.0013966087717562914
416.0,0.001541624777019024
448.0,0.0014621905284002423
480.0,0.002378534758463502
512.0,0.0024931638035923243
576.0,-5.485455767484382e-05
640.0,-0.0001743124012136832
704.0,0.0010357869323343039
768.0,-3.759909304790199e-05
832.0,-0.0012593318242579699
896.0,-0.0023486088030040264
960.0,-0.0023410955909639597
1024.0,-0.0027834416832774878
1152.0,-0.003448700299486518
1280.0,-0.00379827874712646
1408.0,-6.338287221296923e-06
1536.0,0.001737833023071289
1664.0,0.0010162120452150702
1792.0,-0.0010699051199480891
1920.0,-0.0017956944648176432
2048.0,-0.0007968787103891373
2304.0,-0.00011250683746766299
2560.0,0.0016992115415632725
2816.0,0.0006527728983201087
3072.0,0.001383600290864706
3328.0,0.002442176453769207
3584.0,-0.0019140162039548159
3840.0,-0.0016631529433652759
4096.0,0.00033744776737876236
4608.0,-0.0044716051779687405
5120.0,-0.0010724241146817803
5632.0,0.006805290933698416
6144.0,-0.00016958432388491929
6656.0,-0.002906792564317584
7168.0,-0.0022145418915897608
7680.0,-0.0036584599874913692
8192.0,-0.0014903540723025799
end
