version,3.0
numOfCh,1
type,point
parent_name,fe81d_0dot2-0dot01
ch_type,1_1
kcount,1
numberNandB,1
brightnessNandB,1
carpet pos,0
pc,0
Time (ms),CH1 Auto-Correlation
1.0,0.032757122069597244
2.0,0.03219270333647728
3.0,0.03164704144001007
4.0,0.03111877851188183
5.0,0.030606860294938087
6.0,0.03011779673397541
7.0,0.029644107446074486
8.0,0.02917000651359558
9.0,0.028723718598484993
10.0,0.028299860656261444
11.0,0.027875198051333427
12.0,0.027483303099870682
13.0,0.027107426896691322
14.0,0.026762275025248528
15.0,0.0264241062104702
16.0,0.026111973449587822
18.0,0.025489715859293938
20.0,0.024872487410902977
22.0,0.024296356365084648
24.0,0.02376255765557289
26.0,0.023249009624123573
28.0,0.022781332954764366
30.0,0.022339675575494766
32.0,0.021911783143877983
36.0,0.021025385707616806
40.0,0.02015453577041626
44.0,0.01939135044813156
48.0,0.01885666698217392
52.0,0.018369078636169434
56.0,0.01783173531293869
60.0,0.01726132072508335
64.0,0.01673036813735962
72.0,0.015653839334845543
80.0,0.014842696487903595
88.0,0.01429000124335289
96.0,0.013869036920368671
104.0,0.013181667774915695
112.0,0.012214128859341145
120.0,0.011282585561275482
128.0,0.010426935739815235
144.0,0.009000913240015507
160.0,0.008370449766516685
176.0,0.008086414076387882
192.0,0.007729831617325544
208.0,0.006893681362271309
224.0,0.005439735949039459
240.0,0.004134741611778736
256.0,0.0035321011673659086
288.0,0.0035294031258672476
320.0,0.0031492917332798243
352.0,0.0030069935601204634
384.0,0.0021354337222874165
416.0,0.0014727935194969177
448.0,0.001559247961267829
480.0,0.002186455065384507
512.0,0.0024974201805889606
576.0,0.0043738954700529575
640.0,0.004577598534524441
704.0,0.0041619399562478065
768.0,0.0036438493989408016
832.0,0.003040201961994171
896.0,0.0012199213961139321
960.0,-0.0007744428585283458
1024.0,-0.0013857379090040922
1152.0,-0.001650537713430822
1280.0,0.00018786957662086934
1408.0,-0.001087163807824254
1536.0,-0.0019149987492710352
1664.0,-0.0034279809333384037
1792.0,-0.0033039425034075975
1920.0,-0.0030795058701187372
2048.0,-0.004675976932048798
2304.0,-0.003958585672080517
2560.0,-0.002557754749432206
2816.0,-0.0029236881528049707
3072.0,-0.0035446463152766228
3328.0,-0.004041728563606739
3584.0,-0.001678914180956781
3840.0,-0.000967028783634305
4096.0,-0.0046342951245605946
4608.0,-0.002239698776975274
5120.0,9.912463428918272e-05
5632.0,0.0038067372515797615
6144.0,0.0012269028229638934
6656.0,0.005391878541558981
7168.0,0.007806053850799799
7680.0,0.002133790636435151
8192.0,-0.0038352010305970907
end
