version,3.0
numOfCh,1
type,point
parent_name,fe81d_0dot2-0dot01
ch_type,1_1
kcount,1
numberNandB,1
brightnessNandB,1
carpet pos,0
pc,0
Time (ms),CH1 Auto-Correlation
1.0,0.031114209443330765
2.0,0.030541973188519478
3.0,0.0299886055290699
4.0,0.02944471687078476
5.0,0.02892121858894825
6.0,0.02840176224708557
7.0,0.02790033631026745
8.0,0.027404015883803368
9.0,0.02691934071481228
10.0,0.0264569278806448
11.0,0.026019752025604248
12.0,0.02560575306415558
13.0,0.025225766003131866
14.0,0.024866407737135887
15.0,0.02450404316186905
16.0,0.024155450984835625
18.0,0.02350880205631256
20.0,0.02286684140563011
22.0,0.022246554493904114
24.0,0.02167510986328125
26.0,0.021128227934241295
28.0,0.02061324380338192
30.0,0.020126506686210632
32.0,0.019650321453809738
36.0,0.01870431751012802
40.0,0.017794916406273842
44.0,0.016905343160033226
48.0,0.016153482720255852
52.0,0.015466943383216858
56.0,0.014785955660045147
60.0,0.014012990519404411
64.0,0.013253118842840195
72.0,0.01225084438920021
80.0,0.011680237017571926
88.0,0.011199221946299076
96.0,0.010696500539779663
104.0,0.010168502107262611
112.0,0.00984704215079546
120.0,0.009662080556154251
128.0,0.009445462375879288
144.0,0.008605802431702614
160.0,0.008004126138985157
176.0,0.007160147186368704
192.0,0.00637974264100194
208.0,0.005789969582110643
224.0,0.005243832711130381
240.0,0.004888229537755251
256.0,0.004779871553182602
288.0,0.004495920613408089
320.0,0.0035360981710255146
352.0,0.002393025439232588
384.0,0.0012574130669236183
416.0,0.0006261857924982905
448.0,-0.00012312103353906423
480.0,-0.0006272656028158963
512.0,-0.0010827566729858518
576.0,-0.0015748138539493084
640.0,-0.001199871301651001
704.0,-0.003022370394319296
768.0,-0.0010131848976016045
832.0,0.00011658392759272829
896.0,0.0009990065591409802
960.0,7.763251778669655e-05
1024.0,0.000354894669726491
1152.0,-0.0005640783347189426
1280.0,-0.0018352350452914834
1408.0,-0.0011629770742729306
1536.0,-0.0003183187509421259
1664.0,0.0011291750706732273
1792.0,0.0016159949591383338
1920.0,0.001245939638465643
2048.0,0.001244487357325852
2304.0,0.0026545263826847076
2560.0,0.0014588150661438704
2816.0,0.0001412834390066564
3072.0,0.0013355582486838102
3328.0,0.0003586570965126157
3584.0,-0.002044429536908865
3840.0,-0.0002571070799604058
4096.0,0.003866710001602769
4608.0,-0.0014117737300693989
5120.0,-0.0003564431390259415
5632.0,-0.0013569926377385855
6144.0,0.00036679659388028085
6656.0,0.004270871169865131
7168.0,-0.002824267605319619
7680.0,-0.0007551778107881546
8192.0,0.0018199868500232697
9216.0,-0.003785352688282728
10240.0,-0.00018581825133878738
11264.0,-0.0037192068994045258
12288.0,-0.004372311290353537
13312.0,-0.0009395360248163342
14336.0,-0.0027111435774713755
end
