version,3.0
numOfCh,1
type,point
parent_name,fe81d_0dot2-0dot01
ch_type,1_1
kcount,1
numberNandB,1
brightnessNandB,1
carpet pos,0
pc,0
Time (ms),CH1 Auto-Correlation
1.0,0.03670406714081764
2.0,0.03612074255943298
3.0,0.03556887432932854
4.0,0.035059861838817596
5.0,0.03457735478878021
6.0,0.034112196415662766
7.0,0.033662762492895126
8.0,0.03324282541871071
9.0,0.032847024500370026
10.0,0.032436832785606384
11.0,0.03204896301031113
12.0,0.03169522434473038
13.0,0.031324662268161774
14.0,0.030977120622992516
15.0,0.030646679922938347
16.0,0.03032098338007927
18.0,0.029664786532521248
20.0,0.02905477210879326
22.0,0.028429264202713966
24.0,0.027815263718366623
26.0,0.027225151658058167
28.0,0.02665761485695839
30.0,0.026085298508405685
32.0,0.02554439939558506
36.0,0.024468177929520607
40.0,0.02346705086529255
44.0,0.022538164630532265
48.0,0.021763430908322334
52.0,0.02109115943312645
56.0,0.02045166678726673
60.0,0.019810887053608894
64.0,0.01919599622488022
72.0,0.018501579761505127
80.0,0.017768079414963722
88.0,0.017161108553409576
96.0,0.016765816137194633
104.0,0.016465552151203156
112.0,0.015840619802474976
120.0,0.015396510250866413
128.0,0.015082412399351597
144.0,0.014604482799768448
160.0,0.0144241563975811
176.0,0.01425984501838684
192.0,0.01398957334458828
208.0,0.013783669099211693
224.0,0.012871652841567993
240.0,0.011771604418754578
256.0,0.010791790671646595
288.0,0.009900365024805069
320.0,0.00934736430644989
352.0,0.008276318199932575
384.0,0.007992196828126907
416.0,0.008055761456489563
448.0,0.006998058874160051
480.0,0.005526205524802208
512.0,0.004411463160067797
576.0,0.0039124577306210995
640.0,0.003637167392298579
704.0,0.00537475012242794
768.0,0.004114311188459396
832.0,0.0030403314158320427
896.0,0.002050371142104268
960.0,0.0017073425697162747
1024.0,0.0023448611609637737
1152.0,0.0013574670301750302
1280.0,0.0002475420187693089
1408.0,-0.002301732776686549
1536.0,-0.0033107001800090075
1664.0,7.970302976900712e-05
1792.0,0.002382611855864525
1920.0,0.0035814899019896984
2048.0,0.006361179985105991
2304.0,0.0019044497748836875
2560.0,0.001047233585268259
2816.0,-0.0006872189114801586
3072.0,-0.002164265839383006
3328.0,-0.0029294281266629696
3584.0,-0.00661719823256135
3840.0,-0.004280242137610912
4096.0,-0.0014015757478773594
4608.0,-0.004319306928664446
5120.0,-0.007516608107835054
5632.0,-0.006066529080271721
6144.0,9.368541213916615e-05
6656.0,0.0035788794048130512
7168.0,-0.01237668376415968
7680.0,-0.029634248465299606
8192.0,-0.014743182808160782
end
