version,3.0
numOfCh,1
type,point
parent_name,fe81d_0dot2-0dot01
ch_type,1_1
kcount,1
numberNandB,1
brightnessNandB,1
carpet pos,0
pc,0
Time (ms),CH1 Auto-Correlation
1.0,0.024892864748835564
2.0,0.024314630776643753
3.0,0.023737354204058647
4.0,0.023186832666397095
5.0,0.022658472880721092
6.0,0.0221409909427166
7.0,0.021653182804584503
8.0,0.021190814673900604
9.0,0.02075142227113247
10.0,0.02034727670252323
11.0,0.01996617577970028
12.0,0.019597306847572327
13.0,0.019252721220254898
14.0,0.018912537023425102
15.0,0.018596364185214043
16.0,0.018289320170879364
18.0,0.017693666741251945
20.0,0.017111897468566895
22.0,0.016548700630664825
24.0,0.01600237376987934
26.0,0.015453914180397987
28.0,0.01492799911648035
30.0,0.01443609781563282
32.0,0.013963844627141953
36.0,0.013079890981316566
40.0,0.012346100062131882
44.0,0.0117300134152174
48.0,0.011138003319501877
52.0,0.010542103089392185
56.0,0.010003769770264626
60.0,0.009570764377713203
64.0,0.009197531268000603
72.0,0.008548639714717865
80.0,0.008051485754549503
88.0,0.007413254585117102
96.0,0.006738852243870497
104.0,0.006101398728787899
112.0,0.005539801903069019
120.0,0.00524859968572855
128.0,0.004968282766640186
144.0,0.0047341338358819485
160.0,0.004758022725582123
176.0,0.004205775447189808
192.0,0.003693732898682356
208.0,0.0030900491401553154
224.0,0.0023172334767878056
240.0,0.0015335901407524943
256.0,0.001120502594858408
288.0,0.0008889034506864846
320.0,0.00036929507041350007
352.0,4.097525743418373e-05
384.0,-0.0009637382463552058
416.0,-0.001311806496232748
448.0,-0.0014088288880884647
480.0,-0.0014402904780581594
512.0,-0.0007950733997859061
576.0,-0.0014252346009016037
640.0,-0.000951634137891233
704.0,-0.0003128944372292608
768.0,-0.0011708305682986975
832.0,-9.162659807770979e-06
896.0,0.00010345843475079164
960.0,-0.0006341937696561217
1024.0,0.0003793543146457523
1152.0,0.0016111779259517789
1280.0,0.00214608246460557
1408.0,0.003305036574602127
1536.0,0.001260364893823862
1664.0,0.000615837809164077
1792.0,-0.0002790878643281758
1920.0,0.00011268124944763258
2048.0,0.00013717483670916408
2304.0,0.000531533092726022
2560.0,0.00022178019571583718
2816.0,0.003144493093714118
3072.0,0.002873613964766264
3328.0,-0.0007122036186046898
3584.0,-0.0014990061754360795
3840.0,2.6859976060222834e-05
4096.0,0.0017537050880491734
4608.0,0.0008115653763525188
5120.0,-0.0016860783798620105
5632.0,-0.001069908612407744
6144.0,0.0014605345204472542
6656.0,-0.0021316236816346645
7168.0,-0.0006964528001844883
7680.0,-0.0035163918510079384
8192.0,-0.000651345239020884
end
