version,3.0
numOfCh,1
type,point
parent_name,fe81d_0dot2-0dot01
ch_type,1_1
kcount,1
numberNandB,1
brightnessNandB,1
carpet pos,0
pc,0
Time (ms),CH1 Auto-Correlation
1.0,0.039960626512765884
2.0,0.03942257538437843
3.0,0.038918636739254
4.0,0.038412563502788544
5.0,0.03792388737201691
6.0,0.03744300454854965
7.0,0.03698184713721275
8.0,0.03653302788734436
9.0,0.03609832003712654
10.0,0.03566708788275719
11.0,0.035248156636953354
12.0,0.034831248223781586
13.0,0.034432485699653625
14.0,0.034066010266542435
15.0,0.03371715918183327
16.0,0.03336741030216217
18.0,0.032731566578149796
20.0,0.03213632479310036
22.0,0.031567420810461044
24.0,0.031027810648083687
26.0,0.030516788363456726
28.0,0.0300441924482584
30.0,0.029583962634205818
32.0,0.029153471812605858
36.0,0.028415875509381294
40.0,0.027706360444426537
44.0,0.02700893208384514
48.0,0.02632090449333191
52.0,0.02571505680680275
56.0,0.025152157992124557
60.0,0.024570658802986145
64.0,0.024005889892578125
72.0,0.022811371833086014
80.0,0.021522827446460724
88.0,0.020468419417738914
96.0,0.019716426730155945
104.0,0.01917334459722042
112.0,0.018692107871174812
120.0,0.01838362030684948
128.0,0.01830608956515789
144.0,0.018278708681464195
160.0,0.018197327852249146
176.0,0.017814792692661285
192.0,0.017374785616993904
208.0,0.016929712146520615
224.0,0.01610460691154003
240.0,0.01504824124276638
256.0,0.013840108178555965
288.0,0.011894903145730495
320.0,0.010596935637295246
352.0,0.00993882305920124
384.0,0.008825692348182201
416.0,0.008198099210858345
448.0,0.007789463736116886
480.0,0.006972620729357004
512.0,0.006663371808826923
576.0,0.006493623834103346
640.0,0.0056085423566401005
704.0,0.00478943157941103
768.0,0.0033721954096108675
832.0,0.004068492446094751
896.0,0.002924898872151971
960.0,0.0010986491106450558
1024.0,0.0019035020377486944
1152.0,0.0027358834631741047
1280.0,0.0022972594015300274
1408.0,0.0012124613858759403
1536.0,-0.0018262136727571487
1664.0,-0.00389682175591588
1792.0,-0.004175099078565836
1920.0,-0.004875923506915569
2048.0,-0.0048697409220039845
2304.0,-0.007501209154725075
2560.0,-0.008161723613739014
2816.0,-0.006670111324638128
3072.0,-0.0007594515336677432
3328.0,0.00279636075720191
3584.0,0.002158536808565259
3840.0,0.0036487984471023083
4096.0,0.00509973568841815
4608.0,0.005693439859896898
5120.0,9.38898156164214e-05
5632.0,-0.0019290554337203503
6144.0,-0.006536327768117189
6656.0,-0.003945601172745228
7168.0,-0.00817864015698433
7680.0,-0.0025498669128865004
8192.0,-0.010111290030181408
end
