version,3.0
numOfCh,1
type,point
parent_name,fe81d_0dot2-0dot01
ch_type,1_1
kcount,1
numberNandB,1
brightnessNandB,1
carpet pos,0
pc,0
Time (ms),CH1 Auto-Correlation
1.0,0.03728509694337845
2.0,0.0367259718477726
3.0,0.03617994487285614
4.0,0.035649944096803665
5.0,0.03512942045927048
6.0,0.034616243094205856
7.0,0.03413248434662819
8.0,0.03366151079535484
9.0,0.03320745378732681
10.0,0.032763201743364334
11.0,0.03232888504862785
12.0,0.03189654275774956
13.0,0.03148183226585388
14.0,0.031081661581993103
15.0,0.03071489743888378
16.0,0.030367689207196236
18.0,0.02971215546131134
20.0,0.02908257395029068
22.0,0.028462454676628113
24.0,0.027880003675818443
26.0,0.02732173353433609
28.0,0.02675660327076912
30.0,0.026197370141744614
32.0,0.025653311982750893
36.0,0.024730294942855835
40.0,0.02394910156726837
44.0,0.02325640618801117
48.0,0.022583717480301857
52.0,0.021953769028186798
56.0,0.021405991166830063
60.0,0.020812254399061203
64.0,0.020176507532596588
72.0,0.01888117752969265
80.0,0.017687154933810234
88.0,0.01675524190068245
96.0,0.015986502170562744
104.0,0.015575552359223366
112.0,0.015166658908128738
120.0,0.014656085520982742
128.0,0.014012668281793594
144.0,0.012732526287436485
160.0,0.012123104184865952
176.0,0.011685221455991268
192.0,0.01164450403302908
208.0,0.01170363649725914
224.0,0.011979646049439907
240.0,0.012195544317364693
256.0,0.012058624997735023
288.0,0.011453601531684399
320.0,0.010464733466506004
352.0,0.009402341209352016
384.0,0.008189519867300987
416.0,0.007682380732148886
448.0,0.007299847435206175
480.0,0.00722860312089324
512.0,0.007600564509630203
576.0,0.006702282465994358
640.0,0.005541387014091015
704.0,0.0031289635226130486
768.0,0.0010319241555407643
832.0,0.0018542142352089286
896.0,0.0032793020363897085
960.0,0.0022008633241057396
1024.0,0.0013337302953004837
1152.0,0.0026929089799523354
1280.0,0.003298831405118108
1408.0,0.003468490205705166
1536.0,0.00046392198419198394
1664.0,0.00031422398751601577
1792.0,0.0003572919813450426
1920.0,0.0006015775725245476
2048.0,-0.0001568975712871179
2304.0,0.0002964463783428073
2560.0,-0.00034161473740823567
2816.0,-0.002893218770623207
3072.0,-0.0049904631450772285
3328.0,-0.004451021086424589
3584.0,-0.003956303931772709
3840.0,-0.00156128266826272
4096.0,-0.0017663361504673958
4608.0,-0.003066843841224909
5120.0,-0.001561793265864253
5632.0,6.79453369230032e-05
6144.0,-0.0025025613140314817
6656.0,-0.0028491439297795296
7168.0,-0.004700395744293928
7680.0,-0.00569792790338397
8192.0,-0.0009144767536781728
end
