version,3.0
numOfCh,1
type,point
parent_name,fe81d_0dot2-0dot01
ch_type,1_1
kcount,1
numberNandB,1
brightnessNandB,1
carpet pos,0
pc,0
Time (ms),CH1 Auto-Correlation
1.0,0.03793908655643463
2.0,0.0373806431889534
3.0,0.03683701530098915
4.0,0.03629910573363304
5.0,0.03577393293380737
6.0,0.03525666892528534
7.0,0.034759581089019775
8.0,0.034271858632564545
9.0,0.03378526121377945
10.0,0.03330472111701965
11.0,0.03283414617180824
12.0,0.032377418130636215
13.0,0.03193847835063934
14.0,0.03150542080402374
15.0,0.031084803864359856
16.0,0.030663788318634033
18.0,0.029863087460398674
20.0,0.029117198660969734
22.0,0.028395922854542732
24.0,0.02767244726419449
26.0,0.027012186124920845
28.0,0.0263681560754776
30.0,0.025738000869750977
32.0,0.025136170908808708
36.0,0.024089690297842026
40.0,0.023134831339120865
44.0,0.02221613936126232
48.0,0.021421149373054504
52.0,0.02078121528029442
56.0,0.020243462175130844
60.0,0.01974613405764103
64.0,0.019383028149604797
72.0,0.018748827278614044
80.0,0.017989307641983032
88.0,0.017442937940359116
96.0,0.017124313861131668
104.0,0.01699003390967846
112.0,0.016852738335728645
120.0,0.016493331640958786
128.0,0.01612856797873974
144.0,0.014994248747825623
160.0,0.013838794082403183
176.0,0.012982293032109737
192.0,0.01219970267266035
208.0,0.011581453494727612
224.0,0.010630154050886631
240.0,0.010192538611590862
256.0,0.010094634257256985
288.0,0.008922942914068699
320.0,0.007221776060760021
352.0,0.006033667828887701
384.0,0.005524298641830683
416.0,0.004628767725080252
448.0,0.0043122791685163975
480.0,0.003110914956778288
512.0,0.000935023243073374
576.0,-0.0017523175338283181
640.0,-0.0033785859122872353
704.0,-0.0038093531038612127
768.0,-0.005450129974633455
832.0,-0.0073774573393166065
896.0,-0.008248484693467617
960.0,-0.006640331819653511
1024.0,-0.005698723718523979
1152.0,-0.0037521126214414835
1280.0,-0.002269143471494317
1408.0,-0.000921873259358108
1536.0,0.003981674090027809
1664.0,0.0084172822535038
1792.0,0.008627775125205517
1920.0,0.007359920535236597
2048.0,0.008513006381690502
2304.0,0.006892545148730278
2560.0,0.0028240580577403307
2816.0,-0.001995554193854332
3072.0,-0.008308150805532932
3328.0,-0.00528706656768918
3584.0,-0.0003913066175300628
3840.0,0.006966670975089073
4096.0,0.011811032891273499
4608.0,-0.0018095894483849406
5120.0,-0.008661811240017414
5632.0,-0.0015128147788345814
6144.0,0.004641497507691383
6656.0,-0.0037461223546415567
7168.0,-0.009807649999856949
7680.0,-0.003035469213500619
8192.0,0.0017597557744011283
end
