version,3.0
numOfCh,1
type,point
parent_name,fe81d_0dot2-0dot01
ch_type,1_1
kcount,1
numberNandB,1
brightnessNandB,1
carpet pos,0
pc,0
Time (ms),CH1 Auto-Correlation
1.0,0.045305028557777405
2.0,0.04471282660961151
3.0,0.04412522912025452
4.0,0.04355062544345856
5.0,0.042997632175683975
6.0,0.04247739911079407
7.0,0.041976578533649445
8.0,0.04149463400244713
9.0,0.04102708771824837
10.0,0.040573373436927795
11.0,0.040130287408828735
12.0,0.03969038277864456
13.0,0.0392630435526371
14.0,0.03884223476052284
15.0,0.03843483328819275
16.0,0.0380474217236042
18.0,0.03732098639011383
20.0,0.036600589752197266
22.0,0.03587639331817627
24.0,0.035190559923648834
26.0,0.03451592102646828
28.0,0.03391551598906517
30.0,0.033332012593746185
32.0,0.03274823725223541
36.0,0.03170543909072876
40.0,0.03068609908223152
44.0,0.029805906116962433
48.0,0.028947237879037857
52.0,0.028137756511569023
56.0,0.027305161580443382
60.0,0.026615122333168983
64.0,0.026095474138855934
72.0,0.025026990100741386
80.0,0.024011099711060524
88.0,0.023191269487142563
96.0,0.022177407518029213
104.0,0.021092994138598442
112.0,0.020106324926018715
120.0,0.019251255318522453
128.0,0.018453065305948257
144.0,0.016423864290118217
160.0,0.014806516468524933
176.0,0.013212600722908974
192.0,0.011283209547400475
208.0,0.009250730276107788
224.0,0.007835972122848034
240.0,0.006368476431816816
256.0,0.004949800204485655
288.0,0.0034178358037024736
320.0,0.003722274675965309
352.0,0.0044248360209167
384.0,0.004116491414606571
416.0,0.00433324184268713
448.0,0.005145615432411432
480.0,0.005711021833121777
512.0,0.00666201114654541
576.0,0.0067003462463617325
640.0,0.007349745370447636
704.0,0.004406874068081379
768.0,0.001963124144822359
832.0,0.0012605962110683322
896.0,-0.00047148438170552254
960.0,-0.0014210597146302462
1024.0,-0.002596020931378007
1152.0,-0.003095465013757348
1280.0,-0.00030484292074106634
1408.0,-4.014095975435339e-05
1536.0,-0.005176889710128307
1664.0,-0.00631870049983263
1792.0,-0.004982957150787115
1920.0,-0.0018859250703826547
2048.0,-0.0024792973417788744
2304.0,-0.005895934998989105
2560.0,0.0011236645514145494
2816.0,-0.001595117850229144
3072.0,-0.007784171961247921
3328.0,0.00020291772671043873
3584.0,-0.004266600124537945
3840.0,4.8494370275875553e-05
4096.0,0.0046729338355362415
4608.0,0.0029628905467689037
5120.0,0.0014032531762495637
5632.0,0.00602999422699213
6144.0,-0.0036750328727066517
6656.0,-0.009670071303844452
7168.0,0.0033552064560353756
7680.0,0.006921874359250069
8192.0,0.010144420899450779
end
