version,3.0
numOfCh,1
type,point
parent_name,fe81d_0dot2-0dot01
ch_type,1_1
kcount,1
numberNandB,1
brightnessNandB,1
carpet pos,0
pc,0
Time (ms),CH1 Auto-Correlation
1.0,0.04741135984659195
2.0,0.04677370935678482
3.0,0.046152450144290924
4.0,0.04556388780474663
5.0,0.044989705085754395
6.0,0.04445388540625572
7.0,0.04394030570983887
8.0,0.04345697537064552
9.0,0.04300931096076965
10.0,0.04257533699274063
11.0,0.042147617787122726
12.0,0.041715919971466064
13.0,0.041297003626823425
14.0,0.0409097857773304
15.0,0.040525246411561966
16.0,0.04013217240571976
18.0,0.039427172392606735
20.0,0.038760073482990265
22.0,0.03807782009243965
24.0,0.03743014857172966
26.0,0.03679794818162918
28.0,0.03617267310619354
30.0,0.03552927449345589
32.0,0.034885529428720474
36.0,0.03368346020579338
40.0,0.03268390893936157
44.0,0.03180951252579689
48.0,0.031080294400453568
52.0,0.03037867322564125
56.0,0.029739907011389732
60.0,0.029133670032024384
64.0,0.02858353964984417
72.0,0.02760867401957512
80.0,0.02680121548473835
88.0,0.026125825941562653
96.0,0.02564934827387333
104.0,0.02518915943801403
112.0,0.024581044912338257
120.0,0.02382381446659565
128.0,0.02317892573773861
144.0,0.022143099457025528
160.0,0.020953213796019554
176.0,0.019514653831720352
192.0,0.018421918153762817
208.0,0.0177520290017128
224.0,0.016993630677461624
240.0,0.01611780934035778
256.0,0.015153040178120136
288.0,0.013043142855167389
320.0,0.011601828970015049
352.0,0.010011511854827404
384.0,0.00880336482077837
416.0,0.008098939433693886
448.0,0.007391409017145634
480.0,0.007054578047245741
512.0,0.005958499386906624
576.0,0.006672966759651899
640.0,0.0063619473949074745
704.0,0.004522021394222975
768.0,0.0033961599692702293
832.0,0.0028854261618107557
896.0,0.003493037074804306
960.0,0.004393942654132843
1024.0,0.0038885080721229315
1152.0,0.005103041417896748
1280.0,0.005231836810708046
1408.0,0.0058612399734556675
1536.0,0.0051971436478197575
1664.0,0.0043030050583183765
1792.0,0.0035451471339911222
1920.0,0.0037411567755043507
2048.0,0.0033548257779330015
2304.0,-0.004676119424402714
2560.0,-0.006965936161577702
2816.0,-0.009636363945901394
3072.0,-0.0034527021925896406
3328.0,-0.0017378071788698435
3584.0,-0.0056473384611308575
3840.0,-0.003968153614550829
4096.0,-0.006714706774801016
4608.0,-0.00740147614851594
5120.0,0.0019129824358969927
5632.0,0.007339048199355602
6144.0,0.004444862715899944
6656.0,0.005768842063844204
7168.0,0.006551701575517654
7680.0,0.0005486972513608634
8192.0,-0.0018640123307704926
end
