version,3.0
numOfCh,1
type,point
parent_name,fe81d_0dot2-0dot01
ch_type,1_1
kcount,1
numberNandB,1
brightnessNandB,1
carpet pos,0
pc,0
Time (ms),CH1 Auto-Correlation
1.0,0.037764452397823334
2.0,0.03717700019478798
3.0,0.036624401807785034
4.0,0.03610098361968994
5.0,0.03558074310421944
6.0,0.03506818041205406
7.0,0.03455599024891853
8.0,0.03406399488449097
9.0,0.03358059749007225
10.0,0.033115535974502563
11.0,0.032641831785440445
12.0,0.03219776228070259
13.0,0.03176689147949219
14.0,0.03136204928159714
15.0,0.030973907560110092
16.0,0.03062327392399311
18.0,0.029964961111545563
20.0,0.02934972010552883
22.0,0.0287469532340765
24.0,0.028166433796286583
26.0,0.02762189880013466
28.0,0.027079759165644646
30.0,0.026568731293082237
32.0,0.02604585699737072
36.0,0.02506825141608715
40.0,0.024098437279462814
44.0,0.02313607931137085
48.0,0.022281251847743988
52.0,0.02150927670300007
56.0,0.0208616703748703
60.0,0.02013496123254299
64.0,0.019402679055929184
72.0,0.01840079575777054
80.0,0.01755884476006031
88.0,0.016955194994807243
96.0,0.016519661992788315
104.0,0.01600712351500988
112.0,0.01571541465818882
120.0,0.015554927289485931
128.0,0.01520236860960722
144.0,0.014276891946792603
160.0,0.013677378185093403
176.0,0.01354804914444685
192.0,0.01323177944868803
208.0,0.012972571887075901
224.0,0.01285021286457777
240.0,0.012277713976800442
256.0,0.011556599289178848
288.0,0.010091857984662056
320.0,0.008421704173088074
352.0,0.006873550824820995
384.0,0.006095572840422392
416.0,0.006011500023305416
448.0,0.005178411025553942
480.0,0.003916720859706402
512.0,0.002812632592394948
576.0,-0.001685175928287208
640.0,-0.002276185667142272
704.0,-0.000931096263229847
768.0,0.0008988237241283059
832.0,-0.001962700393050909
896.0,-0.0038075402844697237
960.0,-0.003939043264836073
1024.0,-0.004952354822307825
1152.0,-0.0028374120593070984
1280.0,-0.0038524987176060677
1408.0,-0.004168663173913956
1536.0,-0.0028940923511981964
1664.0,-0.00292060524225235
1792.0,-0.003957886248826981
1920.0,-0.00021435365488287061
2048.0,-0.0009213794837705791
2304.0,0.0013558600330725312
2560.0,0.0024451855570077896
2816.0,0.002534207422286272
3072.0,-0.0028745990712195635
3328.0,-0.004454645328223705
3584.0,-0.002297949744388461
3840.0,-0.00310425809584558
4096.0,-0.004208041355013847
4608.0,0.0032991282641887665
5120.0,0.004977412987500429
5632.0,-2.340401624678634e-05
6144.0,-0.0019839040469378233
6656.0,0.002506511751562357
7168.0,0.004048286471515894
7680.0,-0.0006679604412056506
8192.0,-0.011502910405397415
end
