version,3.0
numOfCh,1
type,point
parent_name,fe81d_0dot2-0dot01
ch_type,1_1
kcount,1
numberNandB,1
brightnessNandB,1
carpet pos,0
pc,0
Time (ms),CH1 Auto-Correlation
1.0,0.058349285274744034
2.0,0.05753377079963684
3.0,0.056744735687971115
4.0,0.055983640253543854
5.0,0.05520075187087059
6.0,0.05443201959133148
7.0,0.053668711334466934
8.0,0.05289839953184128
9.0,0.052156493067741394
10.0,0.05142012983560562
11.0,0.05071810260415077
12.0,0.049999039620161057
13.0,0.04932960122823715
14.0,0.048702362924814224
15.0,0.04809628054499626
16.0,0.04751592129468918
18.0,0.04636470973491669
20.0,0.04524167254567146
22.0,0.044149599969387054
24.0,0.04309578984975815
26.0,0.0420844629406929
28.0,0.04107746109366417
30.0,0.04000556468963623
32.0,0.03890623897314072
36.0,0.03695422410964966
40.0,0.03525310754776001
44.0,0.03380240127444267
48.0,0.032667260617017746
52.0,0.031652722507715225
56.0,0.030606644228100777
60.0,0.02950597181916237
64.0,0.028400808572769165
72.0,0.02596849761903286
80.0,0.02440362051129341
88.0,0.022789746522903442
96.0,0.0207219235599041
104.0,0.018887709826231003
112.0,0.01667737029492855
120.0,0.01483008824288845
128.0,0.013846180401742458
144.0,0.012996924109756947
160.0,0.012743414379656315
176.0,0.012467929162085056
192.0,0.012282749637961388
208.0,0.012106078676879406
224.0,0.012533673085272312
240.0,0.012810182757675648
256.0,0.012423204258084297
288.0,0.01179322600364685
320.0,0.01250510010868311
352.0,0.011903513222932816
384.0,0.010793095454573631
416.0,0.009095067158341408
448.0,0.006469714920967817
480.0,0.0036109965294599533
512.0,0.003287632716819644
576.0,0.003516899887472391
640.0,0.0014163696905598044
704.0,-0.003754740348085761
768.0,-0.00518914544954896
832.0,-0.002287033712491393
896.0,-0.0019143943209201097
960.0,-0.002978583797812462
1024.0,-0.0010877831373363733
1152.0,0.0021283200476318598
1280.0,0.0008016071515157819
1408.0,0.000468742597149685
1536.0,0.0006536487489938736
1664.0,-0.0029065762646496296
1792.0,0.00010963774548145011
1920.0,-0.0028279763646423817
2048.0,-0.00371065316721797
2304.0,-0.00040260684909299016
2560.0,-0.00020704518829006702
2816.0,0.004462765995413065
3072.0,0.0025193318724632263
3328.0,0.0004494537424761802
3584.0,-0.0034728541504591703
3840.0,-0.005853735376149416
4096.0,-0.0022277566604316235
4608.0,0.001854676054790616
5120.0,0.002049253089353442
5632.0,0.0012318339431658387
6144.0,0.0004859074833802879
6656.0,-0.0033643802162259817
7168.0,-0.00487132603302598
7680.0,-0.003705283161252737
8192.0,-0.005130286328494549
end
