version,3.0
numOfCh,1
type,point
parent_name,fe81d_0dot2-0dot01
ch_type,1_1
kcount,1
numberNandB,1
brightnessNandB,1
carpet pos,0
pc,0
Time (ms),CH1 Auto-Correlation
1.0,0.03305172920227051
2.0,0.03244856745004654
3.0,0.031877510249614716
4.0,0.03130558133125305
5.0,0.030751772224903107
6.0,0.03020981326699257
7.0,0.029678115621209145
8.0,0.029177850112318993
9.0,0.028677156195044518
10.0,0.028180189430713654
11.0,0.027696600183844566
12.0,0.027240779250860214
13.0,0.026784449815750122
14.0,0.026341497898101807
15.0,0.025922724977135658
16.0,0.02550518326461315
18.0,0.024703217670321465
20.0,0.023912837728857994
22.0,0.023172395303845406
24.0,0.022432571277022362
26.0,0.021731089800596237
28.0,0.021081767976284027
30.0,0.020468218252062798
32.0,0.019884275272488594
36.0,0.01881634071469307
40.0,0.017855798825621605
44.0,0.0170992910861969
48.0,0.016536470502614975
52.0,0.01606515608727932
56.0,0.015517829917371273
60.0,0.014930865727365017
64.0,0.014409004710614681
72.0,0.013312654569745064
80.0,0.01219132635742426
88.0,0.011127921752631664
96.0,0.010244563221931458
104.0,0.009904688224196434
112.0,0.009928464889526367
120.0,0.010128894820809364
128.0,0.010505007579922676
144.0,0.010537154972553253
160.0,0.01011568307876587
176.0,0.009700269438326359
192.0,0.009556299075484276
208.0,0.00910106860101223
224.0,0.008249249309301376
240.0,0.007641502656042576
256.0,0.007247210014611483
288.0,0.006536254193633795
320.0,0.006128361448645592
352.0,0.0054793572053313255
384.0,0.005648321937769651
416.0,0.00426268158480525
448.0,0.003923429176211357
480.0,0.0038414450827986
512.0,0.003278012154623866
576.0,0.002731330692768097
640.0,0.0023550710175186396
704.0,0.0018274385947734118
768.0,0.0015225884271785617
832.0,0.0022888933308422565
896.0,0.002841116162016988
960.0,0.00015872450603637844
1024.0,-0.002429522108286619
1152.0,-0.00203281850554049
1280.0,-0.0025600087828934193
1408.0,-0.002588442759588361
1536.0,-0.0029952179174870253
1664.0,-0.003978794440627098
1792.0,-0.004366325214505196
1920.0,-0.004598283674567938
2048.0,-0.0033108294010162354
2304.0,-0.003608457278460264
2560.0,-0.00025114434538409114
2816.0,0.0005056619993411005
3072.0,-0.0010468176333233714
3328.0,0.00032028977875597775
3584.0,0.0004944769898429513
3840.0,-0.002043928951025009
4096.0,-0.0005294779548421502
4608.0,-0.0011988687328994274
5120.0,-0.004811445251107216
5632.0,-0.003540795762091875
6144.0,-0.0006436664843931794
6656.0,0.002687137108296156
7168.0,0.0041448380798101425
7680.0,0.004326469264924526
8192.0,0.0016245223814621568
end
