version,3.0
numOfCh,1
type,point
parent_name,fe81d_0dot2-0dot01
ch_type,1_1
kcount,1
numberNandB,1
brightnessNandB,1
carpet pos,0
pc,0
Time (ms),CH1 Auto-Correlation
1.0,0.040421269834041595
2.0,0.039800066500902176
3.0,0.03919912874698639
4.0,0.038631342351436615
5.0,0.03808155655860901
6.0,0.03754575178027153
7.0,0.03702846169471741
8.0,0.03652895241975784
9.0,0.036037374287843704
10.0,0.035564959049224854
11.0,0.035093747079372406
12.0,0.034650254994630814
13.0,0.03421620652079582
14.0,0.03379794955253601
15.0,0.033387407660484314
16.0,0.032965950667858124
18.0,0.032164935022592545
20.0,0.03137451410293579
22.0,0.0306134931743145
24.0,0.02987777441740036
26.0,0.02918112277984619
28.0,0.028530703857541084
30.0,0.027934223413467407
32.0,0.02733794040977955
36.0,0.026322055608034134
40.0,0.025364918634295464
44.0,0.024444127455353737
48.0,0.02365962415933609
52.0,0.02298385091125965
56.0,0.022384708747267723
60.0,0.0217472855001688
64.0,0.021179916337132454
72.0,0.020017290487885475
80.0,0.018804850056767464
88.0,0.017594927921891212
96.0,0.01650959439575672
104.0,0.015614957548677921
112.0,0.014924093149602413
120.0,0.014475889503955841
128.0,0.014249209314584732
144.0,0.013625415973365307
160.0,0.01279857475310564
176.0,0.01217770203948021
192.0,0.011841781437397003
208.0,0.011930632404983044
224.0,0.011975467205047607
240.0,0.011809058487415314
256.0,0.011692596599459648
288.0,0.010673954151570797
320.0,0.009127819910645485
352.0,0.007507593370974064
384.0,0.006978947203606367
416.0,0.0059192287735641
448.0,0.00493099307641387
480.0,0.0029457779601216316
512.0,0.001413565594702959
576.0,-0.0006124647916294634
640.0,-0.0014004537370055914
704.0,-0.000870347663294524
768.0,-0.001089092344045639
832.0,-0.002091511618345976
896.0,-0.002000587061047554
960.0,-0.0015877308323979378
1024.0,-0.0013172092149034142
1152.0,-0.003345918608829379
1280.0,-0.004353698808699846
1408.0,-0.0030525517649948597
1536.0,-0.0035246736370027065
1664.0,-0.002398156328126788
1792.0,0.0008165399194695055
1920.0,0.003244339022785425
2048.0,0.0024615784641355276
2304.0,0.0031321931164711714
2560.0,0.0016507095424458385
2816.0,0.0020783506333827972
3072.0,-0.00016502273501828313
3328.0,0.005196608603000641
3584.0,0.006494834553450346
3840.0,0.0031026494689285755
4096.0,-0.004338467959314585
4608.0,-0.005183739122003317
5120.0,-0.00201412127353251
5632.0,-0.001107962103560567
6144.0,0.0027930419892072678
6656.0,0.0024576098658144474
7168.0,-0.002231568330898881
7680.0,-0.011355847120285034
8192.0,-0.009050067514181137
end
