version,3.0
numOfCh,1
type,point
parent_name,fe81d_0dot2-0dot01
ch_type,1_1
kcount,1
numberNandB,1
brightnessNandB,1
carpet pos,0
pc,0
Time (ms),CH1 Auto-Correlation
1.0,0.07251782715320587
2.0,0.07071027159690857
3.0,0.0688830018043518
4.0,0.06705735623836517
5.0,0.06537929177284241
6.0,0.06374822556972504
7.0,0.06214429438114166
8.0,0.06060003116726875
9.0,0.05907170847058296
10.0,0.057600948959589005
11.0,0.0561387874186039
12.0,0.05469128489494324
13.0,0.053235702216625214
14.0,0.05176090821623802
15.0,0.05022415891289711
16.0,0.04878675192594528
18.0,0.045928191393613815
20.0,0.04309152066707611
22.0,0.04049080237746239
24.0,0.03798474371433258
26.0,0.03536590188741684
28.0,0.03268683701753616
30.0,0.029863152652978897
32.0,0.026845784857869148
36.0,0.02344597689807415
40.0,0.022569485008716583
44.0,0.021600620821118355
48.0,0.020696789026260376
52.0,0.01992248184978962
56.0,0.019028296694159508
60.0,0.018091099336743355
64.0,0.01715341955423355
72.0,0.015564465895295143
80.0,0.014774983748793602
88.0,0.014329081401228905
96.0,0.014237836934626102
104.0,0.014218710362911224
112.0,0.01409042440354824
120.0,0.013943848200142384
128.0,0.013334506191313267
144.0,0.012509056366980076
160.0,0.011388888582587242
176.0,0.008688683621585369
192.0,0.007780520245432854
208.0,0.007710016332566738
224.0,0.007352599874138832
240.0,0.00795920379459858
256.0,0.009377740323543549
288.0,0.00947759859263897
320.0,0.008139151148498058
352.0,0.005840371362864971
384.0,0.004212790168821812
416.0,0.005642998032271862
448.0,0.007775840815156698
480.0,0.007540188729763031
512.0,0.007515464443713427
576.0,0.005339234601706266
640.0,0.0026493303012102842
704.0,5.83335458941292e-05
768.0,0.00027677646721713245
832.0,0.0015341913094744086
896.0,0.0021202382631599903
960.0,-0.0006284457049332559
1024.0,-0.0006981868646107614
1152.0,0.0006143708014860749
1280.0,0.003705511335283518
1408.0,0.004906498361378908
1536.0,0.003088861471042037
1664.0,0.0015030627837404609
1792.0,-0.0005950720515102148
1920.0,-0.00023519106616731733
2048.0,-0.0015902721788734198
2304.0,-0.00021614132856484503
2560.0,-0.0013364728074520826
2816.0,-0.0014786524698138237
3072.0,-0.0026148559991270304
3328.0,0.0002811573212966323
3584.0,0.000145272133522667
3840.0,0.00225086510181427
4096.0,-0.005564579274505377
4608.0,-0.0074139367789030075
5120.0,-0.006253624800592661
5632.0,-0.005616709124296904
6144.0,-0.0012225062819197774
6656.0,0.0027069956995546818
7168.0,0.003753631841391325
7680.0,0.0013866802910342813
8192.0,0.0020183376036584377
end
