version,3.0
numOfCh,1
type,point
parent_name,fe81d_0dot2-0dot01
ch_type,1_1
kcount,1
numberNandB,1
brightnessNandB,1
carpet pos,0
pc,0
Time (ms),CH1 Auto-Correlation
1.0,0.028136035427451134
2.0,0.027533797547221184
3.0,0.026955552399158478
4.0,0.026394203305244446
5.0,0.025841133669018745
6.0,0.02530031092464924
7.0,0.02477303333580494
8.0,0.02426873706281185
9.0,0.023800266906619072
10.0,0.023348934948444366
11.0,0.022921664640307426
12.0,0.022514263167977333
13.0,0.022127710282802582
14.0,0.021740416064858437
15.0,0.021371636539697647
16.0,0.021000582724809647
18.0,0.020276539027690887
20.0,0.019586598500609398
22.0,0.01891668513417244
24.0,0.018271686509251595
26.0,0.017675746232271194
28.0,0.017086748033761978
30.0,0.016513919457793236
32.0,0.015967268496751785
36.0,0.014868094585835934
40.0,0.013835587538778782
44.0,0.012849634513258934
48.0,0.011997205205261707
52.0,0.011223840527236462
56.0,0.010507150553166866
60.0,0.009816102683544159
64.0,0.0091607216745615
72.0,0.008157863281667233
80.0,0.00728664780035615
88.0,0.006623364053666592
96.0,0.006052244920283556
104.0,0.005514317657798529
112.0,0.004971105605363846
120.0,0.004521721974015236
128.0,0.0041941567324101925
144.0,0.002729153260588646
160.0,0.0011398551287129521
176.0,-0.00010287948680343106
192.0,-0.0010311886435374618
208.0,-0.001331988605670631
224.0,-0.0015330910682678223
240.0,-0.0018648680998012424
256.0,-0.001964207971468568
288.0,-0.0014996783575043082
320.0,-0.0019250159384682775
352.0,-0.0018403336871415377
384.0,-0.0007807135116308928
416.0,0.0010472636204212904
448.0,0.0037338968832045794
480.0,0.004421435762196779
512.0,0.004167688079178333
576.0,0.001745956833474338
640.0,-4.685521707870066e-05
704.0,0.0006105447537265718
768.0,-0.00045711497659794986
832.0,-0.0005478812381625175
896.0,0.0001230546913575381
960.0,0.0004972480819560587
1024.0,0.00015837998944334686
1152.0,-0.0015744635602459311
1280.0,-9.641044744057581e-05
1408.0,-0.00035090468009002507
1536.0,9.631161083234474e-05
1664.0,5.4864005505805835e-05
1792.0,0.0007167119183577597
1920.0,0.0006441177101805806
2048.0,-1.360849455522839e-05
2304.0,-0.0029956453945487738
2560.0,-0.0016803443431854248
2816.0,-0.0017620227299630642
3072.0,-0.001648008357733488
3328.0,-0.0009965235367417336
3584.0,0.0013372305547818542
3840.0,0.00034085832885466516
4096.0,0.0021218182519078255
4608.0,0.0017999426927417517
5120.0,0.0015942337922751904
5632.0,0.000948405999224633
6144.0,-0.0006702677928842604
6656.0,-0.001532803988084197
7168.0,-0.004033790435642004
7680.0,-0.0009740840177983046
8192.0,0.0004680785641539842
end
