version,3.0
numOfCh,1
type,point
parent_name,fe81d_0dot2-0dot01
ch_type,1_1
kcount,1
numberNandB,1
brightnessNandB,1
carpet pos,0
pc,0
Time (ms),CH1 Auto-Correlation
1.0,0.033369746059179306
2.0,0.032779596745967865
3.0,0.03219807520508766
4.0,0.03165285289287567
5.0,0.031127674505114555
6.0,0.030594995245337486
7.0,0.030054403468966484
8.0,0.029517309740185738
9.0,0.029008744284510612
10.0,0.028547776862978935
11.0,0.02809886448085308
12.0,0.027659619227051735
13.0,0.027230143547058105
14.0,0.026803525164723396
15.0,0.026369458064436913
16.0,0.02593419887125492
18.0,0.02511356584727764
20.0,0.024327309802174568
22.0,0.023565445095300674
24.0,0.02281949855387211
26.0,0.022113807499408722
28.0,0.021412132307887077
30.0,0.020697202533483505
32.0,0.019987517967820168
36.0,0.01878036931157112
40.0,0.017624156549572945
44.0,0.016574649140238762
48.0,0.015613144263625145
52.0,0.014680188149213791
56.0,0.013786450028419495
60.0,0.012932215817272663
64.0,0.01221584714949131
72.0,0.010788890533149242
80.0,0.009394112974405289
88.0,0.008339074440300465
96.0,0.00755024328827858
104.0,0.0069994498044252396
112.0,0.006387281697243452
120.0,0.0058136628940701485
128.0,0.005189158022403717
144.0,0.003894103690981865
160.0,0.003087913151830435
176.0,0.00197191652841866
192.0,0.0002607505884952843
208.0,-0.0008759322809055448
224.0,-0.0019071430433541536
240.0,-0.0024005735758692026
256.0,-0.0025847996585071087
288.0,-0.001867035054601729
320.0,-0.0007786789210513234
352.0,-0.00044596599764190614
384.0,0.0005221294704824686
416.0,0.0017144491430372
448.0,0.0036994186230003834
480.0,0.004600604996085167
512.0,0.00566474674269557
576.0,0.005842667538672686
640.0,0.0029913908801972866
704.0,-0.0013553594471886754
768.0,-0.002146223559975624
832.0,0.0012711581075564027
896.0,0.002265122951939702
960.0,0.002282988978549838
1024.0,0.0013700518757104874
1152.0,-0.0007005986990407109
1280.0,-0.0031100036576390266
1408.0,0.0012258450733497739
1536.0,0.0009997824672609568
1664.0,-0.0019034661818295717
1792.0,-0.002568364841863513
1920.0,0.0011076127411797643
2048.0,0.00024087351630441844
2304.0,-0.0023783997166901827
2560.0,-0.002333578886464238
2816.0,-0.0006073719123378396
3072.0,-0.003863850375637412
3328.0,0.0019031066913157701
3584.0,-0.0007409740355797112
3840.0,0.0030950105283409357
4096.0,-0.0009423918090760708
4608.0,0.0015338761731982231
5120.0,0.0009620650089345872
5632.0,0.0013576402561739087
6144.0,-0.0025143937673419714
6656.0,-0.0058293417096138
7168.0,-0.0008468932355754077
7680.0,4.331185118644498e-05
8192.0,-0.005499465856701136
end
