version,3.0
numOfCh,1
type,point
parent_name,fe81d_0dot2-0dot01
ch_type,1_1
kcount,1
numberNandB,1
brightnessNandB,1
carpet pos,0
pc,0
Time (ms),CH1 Auto-Correlation
1.0,0.04639007896184921
2.0,0.04578372463583946
3.0,0.04518862068653107
4.0,0.044610586017370224
5.0,0.04404330253601074
6.0,0.04350372776389122
7.0,0.043002139776945114
8.0,0.042514994740486145
9.0,0.04206416755914688
10.0,0.041617367416620255
11.0,0.04116927087306976
12.0,0.04074660688638687
13.0,0.04034147039055824
14.0,0.039929140359163284
15.0,0.03952214494347572
16.0,0.039134662598371506
18.0,0.038394633680582047
20.0,0.03769920766353607
22.0,0.03704685717821121
24.0,0.036414362490177155
26.0,0.035838689655065536
28.0,0.035288549959659576
30.0,0.03472795709967613
32.0,0.034144237637519836
36.0,0.033084820955991745
40.0,0.03224363923072815
44.0,0.03145778551697731
48.0,0.030710961669683456
52.0,0.030062910169363022
56.0,0.02943316660821438
60.0,0.028761472553014755
64.0,0.028048209846019745
72.0,0.0264647975564003
80.0,0.02497202344238758
88.0,0.02368319220840931
96.0,0.02264411747455597
104.0,0.02175687439739704
112.0,0.02084301970899105
120.0,0.019779255613684654
128.0,0.018836554139852524
144.0,0.01770896464586258
160.0,0.01666480489075184
176.0,0.015470722690224648
192.0,0.01431253831833601
208.0,0.013692369684576988
224.0,0.013158578425645828
240.0,0.01292574405670166
256.0,0.012898996472358704
288.0,0.012822441756725311
320.0,0.012718817219138145
352.0,0.01123054325580597
384.0,0.008912668563425541
416.0,0.006901910528540611
448.0,0.006344305817037821
480.0,0.006263028364628553
512.0,0.005195129197090864
576.0,0.0029414896853268147
640.0,-0.000572111748624593
704.0,-0.005622481927275658
768.0,-0.0075475978665053844
832.0,-0.007011029403656721
896.0,-0.010096711106598377
960.0,-0.011626962572336197
1024.0,-0.012100433930754662
1152.0,-0.008920535445213318
1280.0,-0.00854109413921833
1408.0,-0.0062218462117016315
1536.0,-0.0034360685385763645
1664.0,0.0027421482373028994
1792.0,0.003365542273968458
1920.0,0.003603820689022541
2048.0,0.0027547678910195827
2304.0,-0.004338560625910759
2560.0,-0.005126549396663904
2816.0,-0.0099453991279006
3072.0,-0.011420659720897675
3328.0,-0.002129160799086094
3584.0,0.0007599019445478916
3840.0,0.01026107370853424
4096.0,0.005893796216696501
4608.0,-0.005771709606051445
5120.0,0.0008232347317971289
5632.0,0.009355705231428146
6144.0,0.006654875818639994
6656.0,-0.001722289132885635
7168.0,-0.005002390127629042
7680.0,-0.0017277916194871068
8192.0,-0.0004197948728688061
end
