version,3.0
numOfCh,1
type,point
parent_name,fe81d_0dot2-0dot01
ch_type,1_1
kcount,1
numberNandB,1
brightnessNandB,1
carpet pos,0
pc,0
Time (ms),CH1 Auto-Correlation
1.0,0.032224345952272415
2.0,0.03166293352842331
3.0,0.031125104054808617
4.0,0.030597418546676636
5.0,0.03008139505982399
6.0,0.02959039807319641
7.0,0.029109366238117218
8.0,0.028645286336541176
9.0,0.02818845584988594
10.0,0.027749352157115936
11.0,0.02730713039636612
12.0,0.026863059028983116
13.0,0.02644539065659046
14.0,0.026045389473438263
15.0,0.025660255923867226
16.0,0.02529195323586464
18.0,0.024588419124484062
20.0,0.02392142079770565
22.0,0.023276694118976593
24.0,0.022616809234023094
26.0,0.021985886618494987
28.0,0.021407099440693855
30.0,0.020820824429392815
32.0,0.02026277594268322
36.0,0.01924872398376465
40.0,0.01831868290901184
44.0,0.01740816980600357
48.0,0.016500741243362427
52.0,0.015596908517181873
56.0,0.014780985191464424
60.0,0.013969449326395988
64.0,0.013215819373726845
72.0,0.012064999900758266
80.0,0.011201432906091213
88.0,0.010379196144640446
96.0,0.009497670456767082
104.0,0.008658449165523052
112.0,0.007920469157397747
120.0,0.007302613463252783
128.0,0.00676726084202528
144.0,0.006132124923169613
160.0,0.005712485406547785
176.0,0.004914537072181702
192.0,0.003948636818677187
208.0,0.003372066654264927
224.0,0.002579839201644063
240.0,0.0018570012180134654
256.0,0.0011619864962995052
288.0,-0.0006805260782130063
320.0,-0.0013449559919536114
352.0,-0.0009143662755377591
384.0,-0.0004654489748645574
416.0,-0.0008572391234338284
448.0,-0.000726441154256463
480.0,-0.00032929080771282315
512.0,0.00048109565977938473
576.0,0.0015743999974802136
640.0,0.003160937689244747
704.0,0.004800133407115936
768.0,0.004193271975964308
832.0,0.0019666629377752542
896.0,0.0009677257621660829
960.0,0.00024444563314318657
1024.0,-0.001756108831614256
1152.0,0.00137615529820323
1280.0,0.0011758392211049795
1408.0,-0.0005164751200936735
1536.0,0.0005083816358819604
1664.0,-0.0005768959526903927
1792.0,-0.001871334621682763
1920.0,-4.054173768963665e-05
2048.0,0.0006955678691156209
2304.0,-0.0005251108086667955
2560.0,0.001032837200909853
2816.0,0.0016082820948213339
3072.0,-6.816394488851074e-06
3328.0,0.001306306105107069
3584.0,0.0027001441922038794
3840.0,0.0010687914909794927
4096.0,-0.003176614176481962
4608.0,-0.0022504336666315794
5120.0,-0.0034523317590355873
5632.0,-0.0023481796961277723
6144.0,-0.00030020673875696957
6656.0,0.0007123280665837228
7168.0,-0.0018688748823478818
7680.0,-0.002483898075297475
8192.0,-0.00329287420026958
end
