version,3.0
numOfCh,1
type,point
parent_name,fe81d_0dot2-0dot01
ch_type,1_1
kcount,1
numberNandB,1
brightnessNandB,1
carpet pos,0
pc,0
Time (ms),CH1 Auto-Correlation
1.0,0.029103394597768784
2.0,0.028552670031785965
3.0,0.028005635365843773
4.0,0.02749130129814148
5.0,0.026996904984116554
6.0,0.026505567133426666
7.0,0.026032662019133568
8.0,0.025575216859579086
9.0,0.025124987587332726
10.0,0.024704355746507645
11.0,0.024297388270497322
12.0,0.02389657497406006
13.0,0.023514579981565475
14.0,0.023151744157075882
15.0,0.022800292819738388
16.0,0.022455619648098946
18.0,0.02178509347140789
20.0,0.021126259118318558
22.0,0.02050628326833248
24.0,0.019924378022551537
26.0,0.019380265846848488
28.0,0.018856897950172424
30.0,0.01833142340183258
32.0,0.01781039498746395
36.0,0.016884811222553253
40.0,0.016014527529478073
44.0,0.015186161734163761
48.0,0.014444472268223763
52.0,0.013790037482976913
56.0,0.013193495571613312
60.0,0.012670916505157948
64.0,0.012197468429803848
72.0,0.011642505414783955
80.0,0.011329932138323784
88.0,0.010857323184609413
96.0,0.010362192057073116
104.0,0.009892884641885757
112.0,0.009278683923184872
120.0,0.008735178038477898
128.0,0.008184860460460186
144.0,0.00763429282233119
160.0,0.007440345827490091
176.0,0.007166738156229258
192.0,0.006489121820777655
208.0,0.00586466072127223
224.0,0.005202670115977526
240.0,0.004798625595867634
256.0,0.004987152758985758
288.0,0.0057255481369793415
320.0,0.0057619535364210606
352.0,0.004922203253954649
384.0,0.005087806843221188
416.0,0.005555123556405306
448.0,0.005767995957285166
480.0,0.005181183572858572
512.0,0.005187748000025749
576.0,0.005674578715115786
640.0,0.00437461631372571
704.0,0.0033983539324253798
768.0,0.0025953431613743305
832.0,0.0006840448477305472
896.0,-0.0015754062915220857
960.0,-0.0025572306476533413
1024.0,-0.002177151385694742
1152.0,-0.001316445181146264
1280.0,-0.0009436817490495741
1408.0,1.700393477221951e-05
1536.0,-0.0027346310671418905
1664.0,-0.00388679513707757
1792.0,-0.0027873823419213295
1920.0,-0.002567865652963519
2048.0,-0.0028838308062404394
2304.0,-0.005461461376398802
2560.0,-0.002594352001324296
2816.0,-0.004310405347496271
3072.0,-0.002365648979321122
3328.0,-0.001876786001957953
3584.0,-0.0030658021569252014
3840.0,-8.140538557199761e-05
4096.0,-0.0018716345075517893
4608.0,-0.0002493592619430274
5120.0,0.0027442509308457375
5632.0,0.003045321675017476
6144.0,0.0013353622052818537
6656.0,-0.0030942289158701897
7168.0,-0.002967958338558674
7680.0,0.002209218218922615
8192.0,0.0013830420793965459
end
