version,3.0
numOfCh,1
type,point
parent_name,fe81d_0dot2-0dot01
ch_type,1_1
kcount,1
numberNandB,1
brightnessNandB,1
carpet pos,0
pc,0
Time (ms),CH1 Auto-Correlation
1.0,0.033943060785532
2.0,0.03333602473139763
3.0,0.0327485091984272
4.0,0.03218197822570801
5.0,0.031621817499399185
6.0,0.031074823811650276
7.0,0.03052896074950695
8.0,0.02999993786215782
9.0,0.029493043199181557
10.0,0.029013488441705704
11.0,0.028533119708299637
12.0,0.028067510575056076
13.0,0.02760758250951767
14.0,0.027177542448043823
15.0,0.0267863217741251
16.0,0.026385925710201263
18.0,0.025648804381489754
20.0,0.024965140968561172
22.0,0.024336760863661766
24.0,0.02377624437212944
26.0,0.023294318467378616
28.0,0.022870872169733047
30.0,0.022472497075796127
32.0,0.02209387719631195
36.0,0.021342338994145393
40.0,0.020635848864912987
44.0,0.01998007856309414
48.0,0.019380945712327957
52.0,0.01875457353889942
56.0,0.018074892461299896
60.0,0.017362024635076523
64.0,0.016652511432766914
72.0,0.015570739284157753
80.0,0.01483338512480259
88.0,0.014025282114744186
96.0,0.013370882719755173
104.0,0.012761618010699749
112.0,0.012123038060963154
120.0,0.011375992558896542
128.0,0.01071575004607439
144.0,0.009030180983245373
160.0,0.007195718120783567
176.0,0.005823377054184675
192.0,0.005404576659202576
208.0,0.005328603088855743
224.0,0.005466337315738201
240.0,0.005876572802662849
256.0,0.0064698574133217335
288.0,0.0066260723397135735
320.0,0.00556302210316062
352.0,0.00461571803316474
384.0,0.004353696014732122
416.0,0.002463109092786908
448.0,0.0005880123353563249
480.0,-0.0004197382659185678
512.0,-0.0007797179860062897
576.0,0.0007166372379288077
640.0,0.0014483783161267638
704.0,0.0011413345346227288
768.0,-0.00030228434479795396
832.0,-0.0016647675074636936
896.0,-0.0021700230427086353
960.0,-0.0037657662760466337
1024.0,-0.005611406173557043
1152.0,-0.007005801424384117
1280.0,-0.003733083140105009
1408.0,-0.005571846850216389
1536.0,-0.003898121416568756
1664.0,0.0014254574198275805
1792.0,0.00028585962718352675
1920.0,0.0023403342347592115
2048.0,0.002957246033474803
2304.0,0.00019029977556783706
2560.0,0.0006409737979993224
2816.0,-0.00194894103333354
3072.0,-0.003741852007806301
3328.0,-0.0017275946447625756
3584.0,0.001855763723142445
3840.0,0.0030124851036816835
4096.0,-0.0003992904385086149
4608.0,-0.006250276695936918
5120.0,-0.0027175976429134607
5632.0,0.003626453224569559
6144.0,0.006048891693353653
6656.0,-0.008128548040986061
7168.0,0.005094978958368301
end
