version,3.0
numOfCh,1
type,point
parent_name,fe81d_0dot2-0dot01
ch_type,1_1
kcount,1
numberNandB,1
brightnessNandB,1
carpet pos,0
pc,0
Time (ms),CH1 Auto-Correlation
1.0,0.030610138550400734
2.0,0.030055029317736626
3.0,0.029511310160160065
4.0,0.028979063034057617
5.0,0.028455087915062904
6.0,0.02796611376106739
7.0,0.027497638016939163
8.0,0.02703772857785225
9.0,0.026605209335684776
10.0,0.026189010590314865
11.0,0.02578839659690857
12.0,0.025395167991518974
13.0,0.02500292658805847
14.0,0.024630088359117508
15.0,0.024258380755782127
16.0,0.023900197818875313
18.0,0.023157302290201187
20.0,0.022422993555665016
22.0,0.021738819777965546
24.0,0.021121138706803322
26.0,0.020568598061800003
28.0,0.020065423101186752
30.0,0.01959393173456192
32.0,0.019161032512784004
36.0,0.01830519549548626
40.0,0.017484888434410095
44.0,0.01665731891989708
48.0,0.01583385281264782
52.0,0.015070426277816296
56.0,0.014393270015716553
60.0,0.013772302307188511
64.0,0.0131454486399889
72.0,0.011949161067605019
80.0,0.011046581901609898
88.0,0.010517990216612816
96.0,0.009986436925828457
104.0,0.00948373693972826
112.0,0.008991795592010021
120.0,0.008625169284641743
128.0,0.008302045054733753
144.0,0.007389043923467398
160.0,0.006590729113668203
176.0,0.006130566820502281
192.0,0.005810048431158066
208.0,0.005582433193922043
224.0,0.005040865391492844
240.0,0.004937612451612949
256.0,0.0047646816819906235
288.0,0.003947057761251926
320.0,0.004021282307803631
352.0,0.00437504705041647
384.0,0.004687269683927298
416.0,0.004243000410497189
448.0,0.0025925138033926487
480.0,0.00106373883318156
512.0,-0.0010292652295902371
576.0,-0.0005626577767543495
640.0,0.00080268265446648
704.0,0.0007959583308547735
768.0,0.000414354435633868
832.0,0.0010039443150162697
896.0,0.0004230043268762529
960.0,-0.0013003619387745857
1024.0,-0.0023586221504956484
1152.0,-0.0028546652756631374
1280.0,-0.0029453104361891747
1408.0,-0.0021347342990338802
1536.0,-0.00043530494440346956
1664.0,-0.00044209600309841335
1792.0,0.0005550587084144354
1920.0,0.00017004671099130064
2048.0,-0.0011224116897210479
2304.0,-0.0014877538196742535
2560.0,-0.0006144995568320155
2816.0,-0.0006917016580700874
3072.0,-0.002221520757302642
3328.0,-0.0016890800325199962
3584.0,0.0004483020748011768
3840.0,-0.0003362169663887471
4096.0,0.00035926737473346293
4608.0,-0.0011966666206717491
5120.0,-0.0007289936766028404
5632.0,-0.0007445955998264253
6144.0,-0.001772237359546125
6656.0,0.0004108473367523402
7168.0,0.005898302420973778
7680.0,0.0017609508940950036
8192.0,-0.0014275837456807494
end
