version,3.0
numOfCh,1
type,point
parent_name,fe81d_0dot2-0dot01
ch_type,1_1
kcount,1
numberNandB,1
brightnessNandB,1
carpet pos,0
pc,0
Time (ms),CH1 Auto-Correlation
1.0,0.5898748636245728
2.0,0.5860170722007751
3.0,0.5823781490325928
4.0,0.5787562727928162
5.0,0.5753145813941956
6.0,0.5719772577285767
7.0,0.5689284801483154
8.0,0.5659193992614746
9.0,0.5628847479820251
10.0,0.5596921443939209
11.0,0.5564080476760864
12.0,0.5530953407287598
13.0,0.5498683452606201
14.0,0.5466566681861877
15.0,0.5433220267295837
16.0,0.5401262640953064
18.0,0.5337363481521606
20.0,0.5270925164222717
22.0,0.5202680230140686
24.0,0.513491690158844
26.0,0.506313681602478
28.0,0.49903544783592224
30.0,0.49176549911499023
32.0,0.4847121834754944
36.0,0.4686654210090637
40.0,0.4529819190502167
44.0,0.4374275505542755
48.0,0.4226796627044678
52.0,0.4089941084384918
56.0,0.39632129669189453
60.0,0.3835112154483795
64.0,0.37050893902778625
72.0,0.34442436695098877
80.0,0.31805601716041565
88.0,0.2933703660964966
96.0,0.27070239186286926
104.0,0.24707134068012238
112.0,0.22386737167835236
120.0,0.20073606073856354
128.0,0.18027441203594208
144.0,0.1394650936126709
160.0,0.09643157571554184
176.0,0.06071194261312485
192.0,0.03177827596664429
208.0,0.0308525487780571
224.0,0.03271659091114998
240.0,0.037827227264642715
256.0,0.0413106232881546
288.0,0.03963248059153557
320.0,0.05733497440814972
352.0,0.10383947938680649
384.0,0.14651402831077576
416.0,0.18133096396923065
448.0,0.2024574726819992
480.0,0.21064642071723938
512.0,0.19187471270561218
576.0,0.0943421721458435
640.0,0.019898872822523117
704.0,0.02015586756169796
768.0,0.021636072546243668
832.0,0.022585982456803322
896.0,0.004613600671291351
960.0,-0.019301967695355415
1024.0,-0.02402891032397747
1152.0,-0.017367517575621605
1280.0,-0.02742958813905716
1408.0,-0.03047848865389824
1536.0,-0.012785299681127071
1664.0,-0.029735611751675606
1792.0,-0.0490056537091732
1920.0,-0.035631317645311356
2048.0,-0.059848181903362274
end
