version,3.0
numOfCh,1
type,point
parent_name,fe81d_0dot2-0dot01
ch_type,1_1
kcount,1
numberNandB,1
brightnessNandB,1
carpet pos,0
pc,0
Time (ms),CH1 Auto-Correlation
1.0,0.026975343003869057
2.0,0.026368483901023865
3.0,0.025792310014367104
4.0,0.025241855531930923
5.0,0.02470487728714943
6.0,0.02417110651731491
7.0,0.02365715615451336
8.0,0.023130742833018303
9.0,0.02264854870736599
10.0,0.02216607704758644
11.0,0.021660437807440758
12.0,0.02115575410425663
13.0,0.020654091611504555
14.0,0.02017732709646225
15.0,0.019736947491765022
16.0,0.01928483508527279
18.0,0.018436413258314133
20.0,0.01767817512154579
22.0,0.01698399893939495
24.0,0.016331911087036133
26.0,0.015728946775197983
28.0,0.015158595517277718
30.0,0.014633174054324627
32.0,0.014135938137769699
36.0,0.013093673624098301
40.0,0.012150822207331657
44.0,0.011417447589337826
48.0,0.010795554146170616
52.0,0.010227924212813377
56.0,0.009800532832741737
60.0,0.009409426711499691
64.0,0.009005364030599594
72.0,0.008076250553131104
80.0,0.007579897064715624
88.0,0.0072516463696956635
96.0,0.006957364268600941
104.0,0.006457172799855471
112.0,0.005928817205131054
120.0,0.005301636643707752
128.0,0.004685652907937765
144.0,0.004445081576704979
160.0,0.004219443071633577
176.0,0.004055867902934551
192.0,0.003711435943841934
208.0,0.0026397157926112413
224.0,0.0016107124974951148
240.0,0.0014080164255574346
256.0,0.0018814310897141695
288.0,0.003343143966048956
320.0,0.004083095118403435
352.0,0.0018856137758120894
384.0,0.0001594540080986917
416.0,-0.00029555984656326473
448.0,0.0004956711200065911
480.0,0.00017318650498054922
512.0,-0.0007856050506234169
576.0,-0.00236376840621233
640.0,-0.0015920798759907484
704.0,-0.002500860020518303
768.0,-0.0019396445713937283
832.0,-0.002976792398840189
896.0,-0.003604458412155509
960.0,-0.0034480630420148373
1024.0,-0.0015657254261896014
1152.0,-0.0003347921301610768
1280.0,0.00023427055566571653
1408.0,0.0017712470144033432
1536.0,0.0009656519396230578
1664.0,0.0010110258590430021
1792.0,0.0003692731843329966
1920.0,-0.0009862943552434444
2048.0,-0.0007280980935320258
2304.0,-0.0019014141289517283
2560.0,-0.0023022254463285208
2816.0,-0.0014361577341333032
3072.0,-0.0021607144735753536
3328.0,-0.003004208207130432
3584.0,-0.0014249506639316678
3840.0,-0.0009742465917952359
4096.0,0.0026823903899639845
end
