version,3.0
numOfCh,1
type,point
parent_name,fe81d_0dot2-0dot01
ch_type,1_1
kcount,1
numberNandB,1
brightnessNandB,1
carpet pos,0
pc,0
Time (ms),CH1 Auto-Correlation
1.0,0.03352581337094307
2.0,0.0329609215259552
3.0,0.032410524785518646
4.0,0.03187888115644455
5.0,0.031375642865896225
6.0,0.03090355359017849
7.0,0.030436256900429726
8.0,0.02996513992547989
9.0,0.029498713091015816
10.0,0.02904636412858963
11.0,0.02862454019486904
12.0,0.028219016268849373
13.0,0.027815628796815872
14.0,0.02741006761789322
15.0,0.027010401710867882
16.0,0.026640577241778374
18.0,0.025910798460245132
20.0,0.02523850090801716
22.0,0.024616846814751625
24.0,0.02403261885046959
26.0,0.023454220965504646
28.0,0.022907190024852753
30.0,0.022388577461242676
32.0,0.021897999569773674
36.0,0.020957790315151215
40.0,0.020101217553019524
44.0,0.019422495737671852
48.0,0.018943654373288155
52.0,0.018596597015857697
56.0,0.018320711329579353
60.0,0.018052509054541588
64.0,0.017823683097958565
72.0,0.017296187579631805
80.0,0.016647102311253548
88.0,0.01580512709915638
96.0,0.014706696383655071
104.0,0.013751212507486343
112.0,0.013286163099110126
120.0,0.012904099188745022
128.0,0.012593679130077362
144.0,0.012061678804457188
160.0,0.01162682194262743
176.0,0.011189587414264679
192.0,0.011005101725459099
208.0,0.01039929874241352
224.0,0.009697334840893745
240.0,0.009318992495536804
256.0,0.009396862238645554
288.0,0.00820770114660263
320.0,0.0066566672176122665
352.0,0.005157679319381714
384.0,0.0029682249296456575
416.0,0.0015499640721827745
448.0,0.0012553355190902948
480.0,0.0016826963983476162
512.0,0.0016498909099027514
576.0,0.0024808752350509167
640.0,0.002809288213029504
704.0,0.0014574701199308038
768.0,0.0013585498090833426
832.0,0.002149841282516718
896.0,0.0021184624638408422
960.0,0.0011193533428013325
1024.0,0.00043431244557723403
1152.0,0.0025270984042435884
1280.0,0.004426613450050354
1408.0,0.003600920084863901
1536.0,0.0029397602193057537
1664.0,0.0016762857558205724
1792.0,0.0013913547154515982
1920.0,0.002574780723080039
2048.0,0.0016437077429145575
2304.0,0.003523200983181596
2560.0,0.002731122775003314
2816.0,0.004217058420181274
3072.0,0.002404367085546255
3328.0,-0.002970287809148431
3584.0,-0.0008804710814729333
3840.0,-0.0024780414532870054
4096.0,-0.002667327644303441
4608.0,-0.0075183589942753315
5120.0,-0.003919082693755627
5632.0,-0.004654491785913706
6144.0,-0.004948808811604977
6656.0,-0.0034593099262565374
7168.0,-0.0051452466286718845
7680.0,-0.0070275780744850636
8192.0,-0.002405754057690501
end
