version,3.0
numOfCh,1
type,point
parent_name,34766_0dot4-0dot1
ch_type,1_1
kcount,1
numberNandB,1
brightnessNandB,1
carpet pos,0
pc,0
Time (ms),CH1 Auto-Correlation
1.0,0.0281908567994833
2.0,0.027080994099378586
3.0,0.02602124959230423
4.0,0.025010600686073303
5.0,0.024065162986516953
6.0,0.02319990284740925
7.0,0.022429464384913445
8.0,0.021678587421774864
9.0,0.021036474034190178
10.0,0.020392831414937973
11.0,0.01977520063519478
12.0,0.01917414180934429
13.0,0.01859203539788723
14.0,0.01806427352130413
15.0,0.017555102705955505
16.0,0.01706104539334774
18.0,0.016117841005325317
20.0,0.015239369124174118
22.0,0.014437256380915642
24.0,0.013717414811253548
26.0,0.013100169599056244
28.0,0.012491456232964993
30.0,0.0119175398722291
32.0,0.011417610570788383
36.0,0.010632689110934734
40.0,0.009900637902319431
44.0,0.00909227691590786
48.0,0.008305901661515236
52.0,0.0075816810131073
56.0,0.006915753241628408
60.0,0.006445826031267643
64.0,0.006151131819933653
72.0,0.0056058079935610294
80.0,0.0051771183498203754
88.0,0.00453025009483099
96.0,0.004189925733953714
104.0,0.003719125408679247
112.0,0.0032681531738489866
120.0,0.002935083582997322
128.0,0.0027191394474357367
144.0,0.0026974661741405725
160.0,0.002746530808508396
176.0,0.002076870296150446
192.0,0.001779152313247323
208.0,0.0012667789123952389
224.0,0.0010598830413073301
240.0,0.0008176177507266402
256.0,0.0004120179219171405
288.0,-0.0001487928384449333
320.0,-0.000718400813639164
352.0,-0.0016574406763538718
384.0,-0.002790536731481552
416.0,-0.0017922157421708107
448.0,-0.0010754429968073964
480.0,-0.00018486172484699637
512.0,0.0002928190224338323
576.0,-0.0002918379905167967
640.0,-0.0005296939052641392
704.0,0.000791393977124244
768.0,0.001460445113480091
832.0,0.0006852949154563248
896.0,-0.0008393362513743341
960.0,-0.0003110473626293242
1024.0,-0.001233319635502994
1152.0,-0.0010670543415471911
1280.0,0.00014728045789524913
1408.0,-0.0006830926868133247
1536.0,-0.000641639984678477
1664.0,0.0006591000710614026
1792.0,-0.00019993183377664536
1920.0,0.00022649431775789708
2048.0,0.00018381253175903112
2304.0,0.0006409253692254424
2560.0,0.0010384861379861832
2816.0,-0.0007261530845426023
3072.0,-0.0020342012867331505
3328.0,-0.0007888518157415092
3584.0,-0.00030985657940618694
3840.0,0.0008426874410361052
4096.0,0.001691255602054298
4608.0,-0.00024453262449242175
5120.0,0.0015619227197021246
5632.0,-0.00055209721904248
6144.0,-0.0003013554378412664
6656.0,-0.0016334627289324999
7168.0,-0.0001931285805767402
7680.0,0.0001384388597216457
8192.0,-0.0032026402186602354
end
