version,3.0
numOfCh,1
type,point
parent_name,34766_0dot4-0dot1
ch_type,1_1
kcount,1
numberNandB,1
brightnessNandB,1
carpet pos,0
pc,0
Time (ms),CH1 Auto-Correlation
1.0,0.04916182532906532
2.0,0.047822095453739166
3.0,0.046544186770915985
4.0,0.045345958322286606
5.0,0.044193897396326065
6.0,0.04308397322893143
7.0,0.04199940711259842
8.0,0.04095166549086571
9.0,0.03991961106657982
10.0,0.038979124277830124
11.0,0.038153328001499176
12.0,0.037437740713357925
13.0,0.036768361926078796
14.0,0.036130134016275406
15.0,0.03552127256989479
16.0,0.034970324486494064
18.0,0.03393998742103577
20.0,0.03288941830396652
22.0,0.031858254224061966
24.0,0.030914509668946266
26.0,0.03006395511329174
28.0,0.029167018830776215
30.0,0.028184423223137856
32.0,0.027203498408198357
36.0,0.025668170303106308
40.0,0.02443164587020874
44.0,0.023277126252651215
48.0,0.02244059182703495
52.0,0.02175983414053917
56.0,0.02119612507522106
60.0,0.020541714504361153
64.0,0.019838053733110428
72.0,0.019432801753282547
80.0,0.01874067261815071
88.0,0.01793549954891205
96.0,0.017328940331935883
104.0,0.01635088585317135
112.0,0.014647883363068104
120.0,0.013182628899812698
128.0,0.012011316604912281
144.0,0.010325217619538307
160.0,0.009487819857895374
176.0,0.009566087275743484
192.0,0.009733076207339764
208.0,0.009709492325782776
224.0,0.009866184554994106
240.0,0.01035566907376051
256.0,0.00946065504103899
288.0,0.010141031816601753
320.0,0.01060217060148716
352.0,0.008831224404275417
384.0,0.009514269419014454
416.0,0.009902791120111942
448.0,0.00948890671133995
480.0,0.009652948006987572
512.0,0.010020613670349121
576.0,0.008591264486312866
640.0,0.006812406238168478
704.0,0.0047864592634141445
768.0,0.0055824886076152325
832.0,0.006998634897172451
896.0,0.005911603569984436
960.0,0.0062051499262452126
1024.0,0.007297559641301632
1152.0,0.002793555147945881
1280.0,-0.0008062761044129729
1408.0,0.0004759511211887002
1536.0,-0.0010717608965933323
1664.0,-0.0026895077899098396
1792.0,-0.003950232639908791
1920.0,-0.0015221255598589778
2048.0,-0.0031981186475604773
2304.0,-0.005858768709003925
2560.0,-0.0020390283316373825
2816.0,0.0007675543893128633
3072.0,0.0008784447563812137
3328.0,-0.002528898185119033
3584.0,-0.00034104654332622886
3840.0,-0.0014895983040332794
4096.0,-0.0009245621622540057
4608.0,0.0009133971179835498
5120.0,-0.0005680389585904777
5632.0,0.0008872926700860262
6144.0,0.002082822611555457
6656.0,0.0029990272596478462
7168.0,0.0009260662482120097
7680.0,0.0036423036362975836
8192.0,-0.0006403501029126346
end
