version,3.0
numOfCh,1
type,point
parent_name,34766_0dot4-0dot1
ch_type,1_1
kcount,1
numberNandB,1
brightnessNandB,1
carpet pos,0
pc,0
Time (ms),CH1 Auto-Correlation
1.0,0.0373510904610157
2.0,0.036145731806755066
3.0,0.035058919340372086
4.0,0.03398673236370087
5.0,0.03296876698732376
6.0,0.03202875703573227
7.0,0.031113700941205025
8.0,0.030292820185422897
9.0,0.029507188126444817
10.0,0.028731821104884148
11.0,0.02800089865922928
12.0,0.02726469747722149
13.0,0.026611221954226494
14.0,0.02599409781396389
15.0,0.02541167475283146
16.0,0.024849331006407738
18.0,0.02389945089817047
20.0,0.022984221577644348
22.0,0.02210056222975254
24.0,0.021290531381964684
26.0,0.020467625930905342
28.0,0.019672678783535957
30.0,0.01888325624167919
32.0,0.01806911639869213
36.0,0.016794927418231964
40.0,0.015658577904105186
44.0,0.014512775465846062
48.0,0.013400306925177574
52.0,0.012243466451764107
56.0,0.011283821426331997
60.0,0.010591880418360233
64.0,0.010203590616583824
72.0,0.009552973322570324
80.0,0.008512877859175205
88.0,0.007594860624521971
96.0,0.006664679851382971
104.0,0.005628232378512621
112.0,0.004791696555912495
120.0,0.00426397193223238
128.0,0.0038988888263702393
144.0,0.003330755978822708
160.0,0.0027726241387426853
176.0,0.002729791449382901
192.0,0.0028543341904878616
208.0,0.00280561251565814
224.0,0.0024662672076374292
240.0,0.002352828625589609
256.0,0.00255799014121294
288.0,0.002564104739576578
320.0,0.0017851170850917697
352.0,0.00010522404045332223
384.0,-0.0005572799127548933
416.0,0.000906332628801465
448.0,0.0015518583822995424
480.0,0.001883357879705727
512.0,0.0016028358368203044
576.0,-0.0008854661718942225
640.0,-0.0033363066613674164
704.0,-0.0008397747878916562
768.0,0.001429366529919207
832.0,-0.0008631676319055259
896.0,-0.002313572447746992
960.0,-0.002265706192702055
1024.0,-0.0020726113580167294
1152.0,-0.0020852810703217983
1280.0,-0.0007605598657391965
1408.0,-0.0007372492691501975
1536.0,-0.00039897701935842633
1664.0,-0.0017100470140576363
1792.0,0.0024622417986392975
1920.0,-0.0009201820357702672
2048.0,-0.0015781044494360685
2304.0,-0.0033902646973729134
2560.0,-0.001235812553204596
2816.0,-0.0002461924741510302
3072.0,0.0003647143312264234
3328.0,0.0008120367419905961
3584.0,0.000999576528556645
3840.0,0.0006116590811870992
4096.0,-0.0010052944999188185
4608.0,0.0005626289057545364
5120.0,-0.00024023996957112104
5632.0,-0.0008520065457560122
6144.0,0.0013679619878530502
6656.0,0.0006389961345121264
7168.0,0.0025245987344533205
7680.0,4.7174929932225496e-05
8192.0,-0.00022117455955594778
end
