version,3.0
numOfCh,1
type,point
parent_name,34766_0dot4-0dot1
ch_type,1_1
kcount,1
numberNandB,1
brightnessNandB,1
carpet pos,0
pc,0
Time (ms),CH1 Auto-Correlation
1.0,0.030802829191088676
2.0,0.029721468687057495
3.0,0.028728900477290154
4.0,0.027814406901597977
5.0,0.02693844400346279
6.0,0.026114456355571747
7.0,0.025335952639579773
8.0,0.02458852529525757
9.0,0.023892013356089592
10.0,0.023249581456184387
11.0,0.02263905107975006
12.0,0.022045733407139778
13.0,0.021479802206158638
14.0,0.020931607112288475
15.0,0.02042008377611637
16.0,0.019929859787225723
18.0,0.01903649792075157
20.0,0.018289465457201004
22.0,0.01760701648890972
24.0,0.016940947622060776
26.0,0.016357840970158577
28.0,0.01583779975771904
30.0,0.015393484383821487
32.0,0.014980033971369267
36.0,0.014214325696229935
40.0,0.01345777977257967
44.0,0.012647298164665699
48.0,0.011831137351691723
52.0,0.011188051663339138
56.0,0.01071228925138712
60.0,0.010374707169830799
64.0,0.00997891090810299
72.0,0.009191400371491909
80.0,0.008402088657021523
88.0,0.007811574265360832
96.0,0.007369636557996273
104.0,0.007374958600848913
112.0,0.007327207364141941
120.0,0.007116932421922684
128.0,0.00682426430284977
144.0,0.005838977638632059
160.0,0.004696285352110863
176.0,0.003903367556631565
192.0,0.0029061201494187117
208.0,0.001844357349909842
224.0,0.0012321153189986944
240.0,0.001308909268118441
256.0,0.001164433779194951
288.0,-0.0003940971218980849
320.0,-0.0020282373297959566
352.0,-0.002766901860013604
384.0,-0.0022335359826684
416.0,-0.002001318149268627
448.0,-0.002852058969438076
480.0,-0.00389656238257885
512.0,-0.0036715117748826742
576.0,-0.001534881186671555
640.0,-0.0007350897649303079
704.0,-0.0012645346578210592
768.0,-0.0011721911141648889
832.0,-0.001159189734607935
896.0,-0.0010141722159460187
960.0,-0.0006357091479003429
1024.0,-0.0005509228212758899
1152.0,0.0004906266694888473
1280.0,0.0009113955311477184
1408.0,0.001068341312929988
1536.0,0.0010082570370286703
1664.0,4.897618782706559e-05
1792.0,-0.0019046894740313292
1920.0,-0.0022969855926930904
2048.0,-0.0022458957973867655
2304.0,0.0016737189143896103
2560.0,0.0025426908396184444
2816.0,0.001277272473089397
3072.0,-0.003513759933412075
3328.0,-0.0011529088951647282
3584.0,0.004167144186794758
3840.0,0.00011229899246245623
4096.0,-0.0017883408581838012
4608.0,-0.0017642035381868482
5120.0,-0.00013233064964879304
5632.0,-0.00018438231199979782
6144.0,-0.00034393143141642213
6656.0,0.0010200755205005407
7168.0,0.0020673798862844706
7680.0,-0.0006248787394724786
8192.0,-0.0025427988730371
end
