version,3.0
numOfCh,1
type,point
parent_name,34766_0dot4-0dot1
ch_type,1_1
kcount,1
numberNandB,1
brightnessNandB,1
carpet pos,0
pc,0
Time (ms),CH1 Auto-Correlation
1.0,0.028626373037695885
2.0,0.027546925470232964
3.0,0.02655768394470215
4.0,0.025643372908234596
5.0,0.024766400456428528
6.0,0.023913778364658356
7.0,0.02312743291258812
8.0,0.02241024747490883
9.0,0.021711274981498718
10.0,0.021063581109046936
11.0,0.020452652126550674
12.0,0.019876232370734215
13.0,0.019333267584443092
14.0,0.018825631588697433
15.0,0.01831771433353424
16.0,0.017842460423707962
18.0,0.016986992210149765
20.0,0.016231726855039597
22.0,0.015522492118179798
24.0,0.014866567216813564
26.0,0.014224832877516747
28.0,0.01364077627658844
30.0,0.013147879391908646
32.0,0.01267968863248825
36.0,0.012020789086818695
40.0,0.011418646201491356
44.0,0.010746445506811142
48.0,0.010011686012148857
52.0,0.009247329086065292
56.0,0.00843682698905468
60.0,0.007624465506523848
64.0,0.006901288405060768
72.0,0.005670924670994282
80.0,0.0045175408013165
88.0,0.003396284068003297
96.0,0.0023963218554854393
104.0,0.001754282508045435
112.0,0.00142063875682652
120.0,0.0011777294566854835
128.0,0.0010052925208583474
144.0,0.0008097562240436673
160.0,0.0007395218126475811
176.0,0.000934995012357831
192.0,0.0012470752699300647
208.0,0.0011479109525680542
224.0,0.0008519868715666234
240.0,0.0006609484553337097
256.0,0.0001389578392263502
288.0,0.0003268886648584157
320.0,1.7620817743591033e-05
352.0,0.0007566305575892329
384.0,0.0006227662088349462
416.0,-0.00023289061209652573
448.0,-0.00020315540314186364
480.0,-0.0002387605927651748
512.0,0.0002198097063228488
576.0,0.0011165863834321499
640.0,0.00014993702643550932
704.0,-0.000600603234488517
768.0,-0.0003924746997654438
832.0,0.00012164343934273347
896.0,-0.00012881560542155057
960.0,-0.0007206163718365133
1024.0,-0.0006217517075128853
1152.0,-0.0017378864577040076
1280.0,-0.00016949504788499326
1408.0,-0.0019557334017008543
1536.0,-0.0019324079621583223
1664.0,-0.0013054668670520186
1792.0,-0.002010988537222147
1920.0,-0.003399785840883851
2048.0,-0.002031212905421853
2304.0,-0.0008497021626681089
2560.0,0.0016270389314740896
2816.0,0.0024608371313661337
3072.0,0.0006872364319860935
3328.0,0.0013406499056145549
3584.0,0.0013342523016035557
3840.0,0.000880962295923382
4096.0,-0.00038045490509830415
4608.0,-0.0022908311802893877
5120.0,-0.0006020897417329252
5632.0,-0.0008819865761324763
6144.0,0.0005425161216408014
6656.0,0.0019110499415546656
7168.0,-0.00046327972086146474
7680.0,-0.0005680782487615943
8192.0,-0.0021369459573179483
end
