version,3.0
numOfCh,1
type,point
parent_name,34766_0dot4-0dot1
ch_type,1_1
kcount,1
numberNandB,1
brightnessNandB,1
carpet pos,0
pc,0
Time (ms),CH1 Auto-Correlation
1.0,0.042821090668439865
2.0,0.04143748804926872
3.0,0.040107376873493195
4.0,0.03888384625315666
5.0,0.037710580974817276
6.0,0.03657045215368271
7.0,0.035485006868839264
8.0,0.0344000868499279
9.0,0.03340502828359604
10.0,0.03254444897174835
11.0,0.03174765408039093
12.0,0.031065383926033974
13.0,0.030429160222411156
14.0,0.02983669936656952
15.0,0.029244564473628998
16.0,0.02863728627562523
18.0,0.02740110643208027
20.0,0.026201151311397552
22.0,0.02514488436281681
24.0,0.024289926514029503
26.0,0.02352703921496868
28.0,0.022847335785627365
30.0,0.02232421562075615
32.0,0.021744100376963615
36.0,0.020420866087079048
40.0,0.01908820867538452
44.0,0.018025362864136696
48.0,0.017281390726566315
52.0,0.016719842329621315
56.0,0.016347523778676987
60.0,0.016102595254778862
64.0,0.015626031905412674
72.0,0.014201668091118336
80.0,0.013001436367630959
88.0,0.012239658273756504
96.0,0.01183271687477827
104.0,0.011534685268998146
112.0,0.011155081912875175
120.0,0.010428667068481445
128.0,0.009980942122638226
144.0,0.009429821744561195
160.0,0.007964052259922028
176.0,0.0074067870154976845
192.0,0.006003532093018293
208.0,0.005532958544790745
224.0,0.0042639244347810745
240.0,0.004332337062805891
256.0,0.0037778890691697598
288.0,0.0023056520149111748
320.0,0.0017961551202461123
352.0,0.0015443569282069802
384.0,0.0022398538421839476
416.0,0.0015738877700641751
448.0,1.2102251275791787e-05
480.0,-0.000796360254753381
512.0,-0.001555201830342412
576.0,-0.002235101070255041
640.0,-0.000915980024728924
704.0,0.00035915058106184006
768.0,-0.00163743004668504
832.0,0.0010929334675893188
896.0,0.0024326660204678774
960.0,0.002405945910140872
1024.0,0.003140352899208665
1152.0,-0.001224384643137455
1280.0,-0.001363885123282671
1408.0,-0.001649938290938735
1536.0,-0.0016966132679954171
1664.0,-0.0007462500943802297
1792.0,0.00226244586519897
1920.0,0.0040890127420425415
2048.0,-0.0008565986063331366
2304.0,-0.002406618557870388
2560.0,-0.0010076977778226137
2816.0,0.0007516596815548837
3072.0,0.0011416701599955559
3328.0,-0.0017196466214954853
3584.0,-5.578564741881564e-05
3840.0,0.0009256756748072803
4096.0,-0.0022604619152843952
4608.0,-0.002831139136105776
5120.0,0.0006451031658798456
5632.0,3.421789006097242e-05
6144.0,-0.003901225049048662
6656.0,-0.00029565373552031815
7168.0,-0.0005304919322952628
7680.0,-0.0009977160952985287
8192.0,0.002069507259875536
end
