version,3.0
numOfCh,1
type,point
parent_name,34766_0dot4-0dot1
ch_type,1_1
kcount,1
numberNandB,1
brightnessNandB,1
carpet pos,0
pc,0
Time (ms),CH1 Auto-Correlation
1.0,0.06718051433563232
2.0,0.065314881503582
3.0,0.06374967843294144
4.0,0.06241330876946449
5.0,0.061067357659339905
6.0,0.05965742841362953
7.0,0.05824098736047745
8.0,0.05681903660297394
9.0,0.05549947917461395
10.0,0.0542922280728817
11.0,0.05323479324579239
12.0,0.052277494221925735
13.0,0.051341064274311066
14.0,0.050357937812805176
15.0,0.04933299496769905
16.0,0.04830573871731758
18.0,0.04671671614050865
20.0,0.04497353732585907
22.0,0.04301021248102188
24.0,0.04113881662487984
26.0,0.03942207619547844
28.0,0.03772898390889168
30.0,0.036106716841459274
32.0,0.034627340734004974
36.0,0.031080493703484535
40.0,0.027217460796236992
44.0,0.023720361292362213
48.0,0.021185187622904778
52.0,0.01889539696276188
56.0,0.01686849258840084
60.0,0.015184856951236725
64.0,0.013921428471803665
72.0,0.01183370128273964
80.0,0.011365239508450031
88.0,0.011090314015746117
96.0,0.01099000871181488
104.0,0.011113082990050316
112.0,0.011129504069685936
120.0,0.010903106071054935
128.0,0.010225513949990273
144.0,0.009265614673495293
160.0,0.006824512965977192
176.0,0.004877837374806404
192.0,0.0040662698447704315
208.0,0.0028509183321148157
224.0,0.0020174498204141855
240.0,0.001979038817808032
256.0,0.0028907256200909615
288.0,0.0007315372349694371
320.0,-0.0009575803414918482
352.0,-0.0013339726720005274
384.0,-0.001339545357041061
416.0,0.0005318528856150806
448.0,0.003333387663587928
480.0,0.0028535122983157635
512.0,0.0015370020410045981
576.0,-0.0022029776591807604
640.0,-0.0015566990477964282
704.0,-0.0018315792549401522
768.0,-0.001418343628756702
832.0,-0.0013359939912334085
896.0,-0.0017536251107230783
960.0,-0.0020076485816389322
1024.0,-0.0033842623233795166
1152.0,0.00045375412446446717
1280.0,0.0005988170742057264
1408.0,-0.0015417016111314297
1536.0,0.0003565694496501237
1664.0,0.001918947440572083
1792.0,0.003397570224478841
1920.0,0.004954602103680372
2048.0,0.0012211563298478723
2304.0,-0.0010682009160518646
2560.0,-4.3119711335748434e-05
2816.0,-0.001099935732781887
3072.0,0.00016556736954953521
3328.0,0.0013935357565060258
3584.0,0.0004844082868658006
3840.0,-1.5344367056968622e-05
4096.0,-0.0021914539393037558
4608.0,0.0005256548756733537
5120.0,0.0035139243118464947
5632.0,-0.0026623064186424017
6144.0,0.00046981536434032023
6656.0,0.0007592833717353642
7168.0,0.002155802445486188
7680.0,-0.004249192774295807
8192.0,-0.00020701134053524584
end
