version,3.0
numOfCh,1
type,point
parent_name,34766_0dot4-0dot1
ch_type,1_1
kcount,1
numberNandB,1
brightnessNandB,1
carpet pos,0
pc,0
Time (ms),CH1 Auto-Correlation
1.0,0.030365746468305588
2.0,0.02933274582028389
3.0,0.02838422916829586
4.0,0.027529731392860413
5.0,0.026772959157824516
6.0,0.026002895087003708
7.0,0.02531544864177704
8.0,0.024664942175149918
9.0,0.024047324433922768
10.0,0.023443683981895447
11.0,0.022900588810443878
12.0,0.0223869439214468
13.0,0.021869288757443428
14.0,0.021359695121645927
15.0,0.020879406481981277
16.0,0.0204336978495121
18.0,0.01955871842801571
20.0,0.018741635605692863
22.0,0.01789993792772293
24.0,0.01708688959479332
26.0,0.01628836616873741
28.0,0.015537827275693417
30.0,0.014815260656177998
32.0,0.014138191938400269
36.0,0.012958113104104996
40.0,0.012150870636105537
44.0,0.011526414193212986
48.0,0.010988364927470684
52.0,0.010584945790469646
56.0,0.010213209316134453
60.0,0.009953486733138561
64.0,0.009760008193552494
72.0,0.009629866108298302
80.0,0.009293805807828903
88.0,0.008951700292527676
96.0,0.00848973635584116
104.0,0.00792515929788351
112.0,0.007761452812701464
120.0,0.007587985135614872
128.0,0.007603709120303392
144.0,0.007860652171075344
160.0,0.007303186226636171
176.0,0.005979515612125397
192.0,0.004757000599056482
208.0,0.0047111669555306435
224.0,0.004842720925807953
240.0,0.004324678331613541
256.0,0.003574572503566742
288.0,0.003731032367795706
320.0,0.00446678139269352
352.0,0.003350216196849942
384.0,0.0028305535670369864
416.0,0.002061391482129693
448.0,0.002760750474408269
480.0,0.003534708172082901
512.0,0.0028385533951222897
576.0,0.003542096121236682
640.0,0.0031324897427111864
704.0,0.0018888479098677635
768.0,0.0026549706235527992
832.0,0.0012290646554902196
896.0,0.002213249448686838
960.0,0.0011888837907463312
1024.0,0.00029838350019417703
1152.0,0.0015967783983796835
1280.0,0.001536443829536438
1408.0,0.0008936576778069139
1536.0,-5.167203562450595e-05
1664.0,-0.0004335512639954686
1792.0,-0.0007843925268389285
1920.0,6.097336517996155e-05
2048.0,0.0010844595963135362
2304.0,-0.0018577969167381525
2560.0,-0.002544594230130315
2816.0,-0.003190212417393923
3072.0,9.102709009312093e-05
3328.0,0.0005682692863047123
3584.0,-0.00036715774331241846
3840.0,-0.0017933968920260668
4096.0,-0.003560959594324231
4608.0,0.0002984817838296294
5120.0,0.0007031678687781096
5632.0,0.0001992250618059188
6144.0,-0.0038746241480112076
6656.0,-0.0017318041063845158
7168.0,-0.005231818184256554
7680.0,-0.005711326375603676
8192.0,-0.00449721422046423
end
