version,3.0
numOfCh,1
type,point
parent_name,34766_0dot4-0dot1
ch_type,1_1
kcount,1
numberNandB,1
brightnessNandB,1
carpet pos,0
pc,0
Time (ms),CH1 Auto-Correlation
1.0,0.029091885313391685
2.0,0.028016384690999985
3.0,0.027016114443540573
4.0,0.02608400769531727
5.0,0.025214772671461105
6.0,0.02441391721367836
7.0,0.02364269644021988
8.0,0.02288896031677723
9.0,0.0221721101552248
10.0,0.021477587521076202
11.0,0.020805396139621735
12.0,0.020173856988549232
13.0,0.019579796120524406
14.0,0.01899496279656887
15.0,0.018442217260599136
16.0,0.017937712371349335
18.0,0.01700778678059578
20.0,0.016197558492422104
22.0,0.015451737679541111
24.0,0.014746233820915222
26.0,0.01416522916406393
28.0,0.013636021874845028
30.0,0.013165954500436783
32.0,0.01272773277014494
36.0,0.011841407045722008
40.0,0.011144610121846199
44.0,0.010592727921903133
48.0,0.010046908631920815
52.0,0.009661129675805569
56.0,0.009310191497206688
60.0,0.009002107195556164
64.0,0.008764438331127167
72.0,0.008474159985780716
80.0,0.008257882669568062
88.0,0.00800531916320324
96.0,0.007732902187854052
104.0,0.007216302677989006
112.0,0.006291982252150774
120.0,0.005240465980023146
128.0,0.004728317726403475
144.0,0.004242022056132555
160.0,0.00390901044011116
176.0,0.004039750900119543
192.0,0.003979203756898642
208.0,0.0033367204014211893
224.0,0.002836138941347599
240.0,0.0032496596686542034
256.0,0.0036857500672340393
288.0,0.004102298989892006
320.0,0.003871794091537595
352.0,0.002854273421689868
384.0,0.0017462038667872548
416.0,0.0003372765495441854
448.0,-0.00021424675651360303
480.0,-0.001063178526237607
512.0,-0.0016286169411614537
576.0,-0.0021764454431831837
640.0,-0.0016422632616013288
704.0,-0.0014893922489136457
768.0,-0.0006337397499009967
832.0,-0.0015771921025589108
896.0,-0.002706762170419097
960.0,-0.0017510887701064348
1024.0,-0.0015023439191281796
1152.0,0.00033978428109548986
1280.0,0.0005996242980472744
1408.0,-0.00023461389355361462
1536.0,0.0003152554854750633
1664.0,-0.00017269857926294208
1792.0,0.00016455893637612462
1920.0,0.001588620012626052
2048.0,0.00023001358204055578
2304.0,-0.00045108451740816236
2560.0,-0.0021592651028186083
2816.0,-0.0009478030842728913
3072.0,-0.0009481454035267234
3328.0,-0.00021272660524118692
3584.0,-0.0009505567140877247
3840.0,-0.0030743589159101248
4096.0,-0.0030380794778466225
4608.0,0.00028331438079476357
5120.0,5.132826117915101e-06
5632.0,-0.0006238366477191448
6144.0,0.0004149791784584522
6656.0,0.0011198308784514666
7168.0,5.2934301493223757e-05
7680.0,0.0021945082116872072
8192.0,0.00242199981585145
end
