version,3.0
numOfCh,1
type,point
parent_name,34766_0dot4-0dot1
ch_type,1_1
kcount,1
numberNandB,1
brightnessNandB,1
carpet pos,0
pc,0
Time (ms),CH1 Auto-Correlation
1.0,0.035075873136520386
2.0,0.033901382237672806
3.0,0.032800301909446716
4.0,0.0317181833088398
5.0,0.030680397525429726
6.0,0.02970092184841633
7.0,0.028788235038518906
8.0,0.027944939211010933
9.0,0.02714948169887066
10.0,0.026405496522784233
11.0,0.025694651529192924
12.0,0.025024954229593277
13.0,0.024369720369577408
14.0,0.023737361654639244
15.0,0.023139629513025284
16.0,0.02257533371448517
18.0,0.021515563130378723
20.0,0.02051771804690361
22.0,0.019567346200346947
24.0,0.018629975616931915
26.0,0.01777040772140026
28.0,0.017005154862999916
30.0,0.016297275200486183
32.0,0.01575331762433052
36.0,0.01472505647689104
40.0,0.013686674647033215
44.0,0.012804272584617138
48.0,0.012176768854260445
52.0,0.011755282990634441
56.0,0.01140219159424305
60.0,0.011152452789247036
64.0,0.0110089760273695
72.0,0.010290728881955147
80.0,0.009269698522984982
88.0,0.008401580154895782
96.0,0.007922875694930553
104.0,0.007376348599791527
112.0,0.007027158979326487
120.0,0.006786511745303869
128.0,0.006456412374973297
144.0,0.005453140940517187
160.0,0.004562839865684509
176.0,0.00411872798576951
192.0,0.0034550584387034178
208.0,0.003040835028514266
224.0,0.0031430565286427736
240.0,0.0037644309923052788
256.0,0.00274236430414021
288.0,0.0010831308318302035
320.0,0.0013228559400886297
352.0,0.00032288662623614073
384.0,7.928584091132507e-05
416.0,-0.0016805699560791254
448.0,-0.0019343941239640117
480.0,-0.0017307308735325933
512.0,-0.0023308878298848867
576.0,-0.0026640191208571196
640.0,-0.0018074153922498226
704.0,-0.0016822043107822537
768.0,-0.0007429458200931549
832.0,-0.0012635561870411038
896.0,0.00021085195476189256
960.0,-0.0005219887825660408
1024.0,-0.0001580462558194995
1152.0,-0.000779798487201333
1280.0,0.0003517533768899739
1408.0,0.00023288092052098364
1536.0,-0.0029197868425399065
1664.0,-0.000674898037686944
1792.0,-0.0008641246240586042
1920.0,0.00015809726028237492
2048.0,0.0007372069521807134
2304.0,0.0021275104954838753
2560.0,0.0012442934093996882
2816.0,-0.0023740718606859446
3072.0,-0.0004817013395950198
3328.0,-0.001165216788649559
3584.0,-0.0009638588526286185
3840.0,0.0005212179967202246
4096.0,7.063741213642061e-05
4608.0,7.63674543122761e-05
5120.0,-0.001179420854896307
5632.0,-0.0024335153866559267
6144.0,0.001144805341027677
6656.0,0.0006268208962865174
7168.0,-0.0009289478766731918
7680.0,-7.669821570743807e-06
8192.0,-0.0024683659430593252
end
