version,3.0
numOfCh,1
type,point
parent_name,34766_0dot4-0dot1
ch_type,1_1
kcount,1
numberNandB,1
brightnessNandB,1
carpet pos,0
pc,0
Time (ms),CH1 Auto-Correlation
1.0,0.03625001385807991
2.0,0.03514654189348221
3.0,0.034082602709531784
4.0,0.033075425773859024
5.0,0.032101284712553024
6.0,0.031172264367341995
7.0,0.03031957522034645
8.0,0.02952290140092373
9.0,0.02874261699616909
10.0,0.027996359393000603
11.0,0.027288859710097313
12.0,0.02662150003015995
13.0,0.02598022110760212
14.0,0.02536165714263916
15.0,0.024777192622423172
16.0,0.02422604337334633
18.0,0.02315906621515751
20.0,0.022272717207670212
22.0,0.021490080282092094
24.0,0.02074378728866577
26.0,0.020046912133693695
28.0,0.01935465820133686
30.0,0.01870223693549633
32.0,0.0180793609470129
36.0,0.016962522640824318
40.0,0.01587716117501259
44.0,0.014843869023025036
48.0,0.013934152200818062
52.0,0.013185095973312855
56.0,0.012724881060421467
60.0,0.012284521944820881
64.0,0.011863618157804012
72.0,0.010785146616399288
80.0,0.010027270764112473
88.0,0.00960289966315031
96.0,0.009266745299100876
104.0,0.008840049616992474
112.0,0.008614870719611645
120.0,0.008382308296859264
128.0,0.008056243881583214
144.0,0.006913181394338608
160.0,0.005762927699834108
176.0,0.0038396373856812716
192.0,0.0024517718702554703
208.0,0.0022868544328957796
224.0,0.0026156476233154535
240.0,0.0020716474391520023
256.0,0.0014475105563178658
288.0,0.001062751398421824
320.0,0.0006666230037808418
352.0,-0.0016622383845970035
384.0,-0.0016295440727844834
416.0,-0.0006949531380087137
448.0,-0.00017769119585864246
480.0,0.00013055349700152874
512.0,-0.001159398932941258
576.0,-0.001078890054486692
640.0,-0.0011682705953717232
704.0,-0.00239865412004292
768.0,-0.002761536044999957
832.0,-0.0025168410502374172
896.0,-0.0031472225673496723
960.0,-0.0033713600132614374
1024.0,-0.003901010612025857
1152.0,-0.001890984596684575
1280.0,-0.003367056604474783
1408.0,-0.003670935519039631
1536.0,-0.00011836659541586414
1664.0,0.002316162921488285
1792.0,0.001145261456258595
1920.0,-0.0005559956771321595
2048.0,0.0006708341534249485
2304.0,0.0012913269456475973
2560.0,-0.0004102544626221061
2816.0,0.0003876960836350918
3072.0,0.0001510637521278113
3328.0,-0.0016839754534885287
3584.0,-0.002091351430863142
3840.0,0.002057395875453949
4096.0,0.0002635441196616739
4608.0,-3.2247953640762717e-05
5120.0,-0.0008192271925508976
5632.0,0.0005353710730560124
6144.0,0.0008288732497021556
6656.0,0.00022043690842110664
7168.0,0.00020065560238435864
7680.0,-0.001951689482666552
8192.0,-0.00047148027806542814
end
