version,3.0
numOfCh,1
type,point
parent_name,34766_0dot4-0dot1
ch_type,1_1
kcount,1
numberNandB,1
brightnessNandB,1
carpet pos,0
pc,0
Time (ms),CH1 Auto-Correlation
1.0,0.029375115409493446
2.0,0.028299184516072273
3.0,0.027281412854790688
4.0,0.02636036090552807
5.0,0.025483934208750725
6.0,0.024606887251138687
7.0,0.023809557780623436
8.0,0.02306567318737507
9.0,0.02234387770295143
10.0,0.021664859727025032
11.0,0.021033059805631638
12.0,0.020441031083464622
13.0,0.019879119470715523
14.0,0.019358014687895775
15.0,0.018873678520321846
16.0,0.018406515941023827
18.0,0.01754179038107395
20.0,0.01670331507921219
22.0,0.01593327708542347
24.0,0.01522012334316969
26.0,0.014641125686466694
28.0,0.014059877023100853
30.0,0.013479752466082573
32.0,0.012945877388119698
36.0,0.01204190868884325
40.0,0.011111178435385227
44.0,0.010380107909440994
48.0,0.009784970432519913
52.0,0.009197473526000977
56.0,0.008493619970977306
60.0,0.007837650366127491
64.0,0.007375185843557119
72.0,0.0065039657056331635
80.0,0.005816570483148098
88.0,0.005232529249042273
96.0,0.0048916940577328205
104.0,0.004995850846171379
112.0,0.005063342861831188
120.0,0.004866538103669882
128.0,0.004584792535752058
144.0,0.004176483955234289
160.0,0.0036952996160835028
176.0,0.003300173906609416
192.0,0.0025927505921572447
208.0,0.0017358458135277033
224.0,0.0014055782230570912
240.0,0.0018590358085930347
256.0,0.00240720110014081
288.0,0.003290383145213127
320.0,0.0027708460111171007
352.0,0.0019013575511053205
384.0,0.0021811737678945065
416.0,0.002160826697945595
448.0,0.0026032691821455956
480.0,0.00187637098133564
512.0,0.0010906994575634599
576.0,0.0016325669130310416
640.0,0.0012164145009592175
704.0,0.0011144964955747128
768.0,0.0019474697764962912
832.0,0.0017833212623372674
896.0,0.0005313361180014908
960.0,-4.662532955990173e-05
1024.0,-8.767246617935598e-05
1152.0,9.55573414103128e-05
1280.0,0.00014065334107726812
1408.0,-0.000895544420927763
1536.0,-0.001731901429593563
1664.0,-0.0031004773918539286
1792.0,-0.002371411770582199
1920.0,-0.0026570092886686325
2048.0,-0.0021863640286028385
2304.0,-0.0013577527133747935
2560.0,-0.0006859563291072845
2816.0,0.001093240105547011
3072.0,-3.4915363357868046e-05
3328.0,0.0006230702274478972
3584.0,0.0018788861343637109
3840.0,-0.00042605726048350334
4096.0,0.0004421956546138972
4608.0,-0.0010018551256507635
5120.0,-0.0007505016983486712
5632.0,0.0005481913685798645
6144.0,3.597930117393844e-05
6656.0,0.0003724528942257166
7168.0,-0.002512612845748663
7680.0,-0.0027798509690910578
8192.0,-0.0023083214182406664
end
