version,3.0
numOfCh,1
type,point
parent_name,34766_0dot4-0dot1
ch_type,1_1
kcount,1
numberNandB,1
brightnessNandB,1
carpet pos,0
pc,0
Time (ms),CH1 Auto-Correlation
1.0,0.02842029184103012
2.0,0.027435533702373505
3.0,0.026508131995797157
4.0,0.025631386786699295
5.0,0.024822218343615532
6.0,0.024030912667512894
7.0,0.02329750917851925
8.0,0.02260027639567852
9.0,0.021950412541627884
10.0,0.021355507895350456
11.0,0.02079634740948677
12.0,0.02025630511343479
13.0,0.019738152623176575
14.0,0.019236396998167038
15.0,0.01874062605202198
16.0,0.018287915736436844
18.0,0.017394352704286575
20.0,0.016529500484466553
22.0,0.01572813279926777
24.0,0.014996073208749294
26.0,0.014309382997453213
28.0,0.013678512535989285
30.0,0.013085728511214256
32.0,0.012551468797028065
36.0,0.01163855753839016
40.0,0.010761283338069916
44.0,0.010026568546891212
48.0,0.009460319764912128
52.0,0.00885119941085577
56.0,0.00832090713083744
60.0,0.007845756597816944
64.0,0.007467593532055616
72.0,0.006866680458188057
80.0,0.006166256498545408
88.0,0.005346466321498156
96.0,0.004699524492025375
104.0,0.003907150123268366
112.0,0.003114297054708004
120.0,0.0029680391307920218
128.0,0.0028602525126188993
144.0,0.0018902651499956846
160.0,0.0009988262318074703
176.0,0.000578122737351805
192.0,0.00043350266059860587
208.0,0.00025340853608213365
224.0,0.0007905947859399021
240.0,0.0015355079667642713
256.0,0.0017501809634268284
288.0,0.0010370650561526418
320.0,0.0006766493315808475
352.0,-2.3453905669157393e-05
384.0,-0.00045916836825199425
416.0,0.00023078249068930745
448.0,-6.058713552192785e-05
480.0,-5.309060270519694e-06
512.0,-0.00029622536385431886
576.0,-0.0008947152527980506
640.0,-0.001564769889228046
704.0,-9.707044227980077e-05
768.0,0.000599908409640193
832.0,0.00048746459651738405
896.0,-0.00019207379955332726
960.0,-0.0001817359880078584
1024.0,-0.0017731625121086836
1152.0,-0.0010534547036513686
1280.0,0.0007780680316500366
1408.0,-0.001342298579402268
1536.0,0.000291758420644328
1664.0,-0.0001741223968565464
1792.0,0.000100676879810635
1920.0,-0.0017545848386362195
2048.0,-0.003351273015141487
2304.0,-0.0014809772837907076
2560.0,0.0009753953781910241
2816.0,-0.00012015615357086062
3072.0,-0.00012753123883157969
3328.0,0.00027177282026968896
3584.0,0.0012382318964228034
3840.0,0.0006206193356774747
4096.0,0.00034167684498243034
4608.0,-0.0005682918126694858
5120.0,0.0002738548209890723
5632.0,-0.0002731863351073116
6144.0,1.5602445273543708e-05
6656.0,0.0010010391706600785
7168.0,-0.0010943554807454348
7680.0,-0.0010347436182200909
8192.0,-0.0006214489694684744
end
