version,3.0
numOfCh,1
type,point
parent_name,34766_0dot4-0dot1
ch_type,1_1
kcount,1
numberNandB,1
brightnessNandB,1
carpet pos,0
pc,0
Time (ms),CH1 Auto-Correlation
1.0,0.03439869359135628
2.0,0.03317159041762352
3.0,0.032059404999017715
4.0,0.03102746792137623
5.0,0.030077101662755013
6.0,0.02923944965004921
7.0,0.028438329696655273
8.0,0.02763492427766323
9.0,0.026934677734971046
10.0,0.026311339810490608
11.0,0.02573416568338871
12.0,0.025149092078208923
13.0,0.02461027167737484
14.0,0.024071713909506798
15.0,0.023525970056653023
16.0,0.023007076233625412
18.0,0.022090952843427658
20.0,0.02127433754503727
22.0,0.02056145668029785
24.0,0.020000535994768143
26.0,0.01937895081937313
28.0,0.018786147236824036
30.0,0.018121521919965744
32.0,0.017502298578619957
36.0,0.016575539484620094
40.0,0.015798240900039673
44.0,0.014928770251572132
48.0,0.014432712458074093
52.0,0.013928976841270924
56.0,0.013397089205682278
60.0,0.012898261658847332
64.0,0.012405327521264553
72.0,0.011476200073957443
80.0,0.01024681143462658
88.0,0.00928798969835043
96.0,0.008742081932723522
104.0,0.008362960070371628
112.0,0.00792602263391018
120.0,0.007474915590137243
128.0,0.0069897593930363655
144.0,0.006543059833347797
160.0,0.005757697857916355
176.0,0.004667534492909908
192.0,0.0038409342523664236
208.0,0.003740475047379732
224.0,0.004072453826665878
240.0,0.003396060550585389
256.0,0.0026323820929974318
288.0,0.0029913808684796095
320.0,0.002909274073317647
352.0,0.0024878440890461206
384.0,0.002318785060197115
416.0,0.0017762072384357452
448.0,0.00199755746871233
480.0,0.000951818423345685
512.0,-0.00021119452139828354
576.0,-0.0023357209283858538
640.0,-0.001631293329410255
704.0,-0.001965367468073964
768.0,-0.0015372134512290359
832.0,-0.0007968436693772674
896.0,0.0007200504769571126
960.0,-0.00013922822836320847
1024.0,-0.0007382756448350847
1152.0,-0.001588597777299583
1280.0,-0.0024116693530231714
1408.0,0.0008436724892817438
1536.0,0.001449995907023549
1664.0,-0.0011638267897069454
1792.0,-0.002419200725853443
1920.0,-0.002052748342975974
2048.0,-0.0033726447727531195
2304.0,-0.004107768647372723
2560.0,-0.0018477793782949448
2816.0,3.831143112620339e-05
3072.0,0.0043654609471559525
3328.0,0.0033272807486355305
3584.0,-0.000829687574878335
3840.0,-0.0007078531780280173
4096.0,0.002802856033667922
4608.0,-0.0012645459501072764
5120.0,-0.004449849016964436
5632.0,-0.000266153336269781
6144.0,-0.0007251396891660988
6656.0,-4.990329034626484e-05
7168.0,0.003221362829208374
7680.0,-0.0007603341364301741
8192.0,-0.0016517830081284046
end
