version,3.0
numOfCh,1
type,point
parent_name,34766_0dot4-0dot1
ch_type,1_1
kcount,1
numberNandB,1
brightnessNandB,1
carpet pos,0
pc,0
Time (ms),CH1 Auto-Correlation
1.0,0.03145589679479599
2.0,0.030374325811862946
3.0,0.029354048892855644
4.0,0.028368251398205757
5.0,0.02743597887456417
6.0,0.026532208546996117
7.0,0.02567840740084648
8.0,0.02488137222826481
9.0,0.02415720373392105
10.0,0.023465661332011223
11.0,0.022791502997279167
12.0,0.022169234231114388
13.0,0.021568942815065384
14.0,0.02098473161458969
15.0,0.020430127158761024
16.0,0.01988143101334572
18.0,0.018869351595640182
20.0,0.017947854474186897
22.0,0.01717318966984749
24.0,0.01651746965944767
26.0,0.0159185491502285
28.0,0.015415617264807224
30.0,0.014926672913134098
32.0,0.01445189118385315
36.0,0.013399758376181126
40.0,0.01245577447116375
44.0,0.011766488663852215
48.0,0.011323744431138039
52.0,0.010812298394739628
56.0,0.010286915116012096
60.0,0.009908935986459255
64.0,0.009679176844656467
72.0,0.008997402153909206
80.0,0.00827524159103632
88.0,0.007287017535418272
96.0,0.006566748488694429
104.0,0.005947726778686047
112.0,0.005598993971943855
120.0,0.005196288228034973
128.0,0.004995751194655895
144.0,0.004888544790446758
160.0,0.005107943434268236
176.0,0.0057662841863930225
192.0,0.006287211552262306
208.0,0.006315975915640593
224.0,0.005903604440391064
240.0,0.004987113177776337
256.0,0.00508052809163928
288.0,0.004509324673563242
320.0,0.0035062795504927635
352.0,0.002709877910092473
384.0,0.0021452137734740973
416.0,0.0018315166234970093
448.0,0.001304391655139625
480.0,0.0011186487972736359
512.0,0.00093459413619712
576.0,0.0013182784896343946
640.0,0.0007358138100244105
704.0,5.453417998069199e-06
768.0,0.0006568701937794685
832.0,0.0013147566933184862
896.0,0.0006101913168095052
960.0,0.001037765759974718
1024.0,0.00105364341288805
1152.0,0.000904122251085937
1280.0,-0.0003509141970425844
1408.0,-0.001042113988660276
1536.0,-0.002518222201615572
1664.0,-0.0018474564421921968
1792.0,-0.002160083968192339
1920.0,-0.0007013112190179527
2048.0,-0.0007399168098345399
2304.0,-0.0010682527208700776
2560.0,2.9662927772733383e-05
2816.0,0.0002740951313171536
3072.0,0.0019808481447398663
3328.0,0.001427480485290289
3584.0,0.00240340200252831
3840.0,-0.0016752047231420875
4096.0,-0.0008814864559099078
4608.0,0.0024256990291178226
5120.0,-0.001435655984096229
5632.0,-0.0003008329658769071
6144.0,-0.00254192971624434
6656.0,7.301032019313425e-05
7168.0,-0.002592434175312519
7680.0,0.002293497323989868
8192.0,3.742122862604447e-05
end
