version,3.0
numOfCh,1
type,point
parent_name,34766_0dot4-0dot1
ch_type,1_1
kcount,1
numberNandB,1
brightnessNandB,1
carpet pos,0
pc,0
Time (ms),CH1 Auto-Correlation
1.0,0.03128502890467644
2.0,0.030254682525992393
3.0,0.029299873858690262
4.0,0.028400691226124763
5.0,0.02755453623831272
6.0,0.026736153289675713
7.0,0.025921883061528206
8.0,0.02514585107564926
9.0,0.024411335587501526
10.0,0.02372359298169613
11.0,0.023079274222254753
12.0,0.022473368793725967
13.0,0.021892083808779716
14.0,0.021321412175893784
15.0,0.02076706290245056
16.0,0.020250927656888962
18.0,0.019302578642964363
20.0,0.018403710797429085
22.0,0.017595022916793823
24.0,0.016873275861144066
26.0,0.016224900260567665
28.0,0.015602798201143742
30.0,0.015005399473011494
32.0,0.014494323171675205
36.0,0.01362941600382328
40.0,0.012780902907252312
44.0,0.012006878852844238
48.0,0.011238297447562218
52.0,0.01052223052829504
56.0,0.009860660880804062
60.0,0.009206831455230713
64.0,0.008639052510261536
72.0,0.007905848324298859
80.0,0.007430143654346466
88.0,0.007077856920659542
96.0,0.00661061517894268
104.0,0.0057442025281488895
112.0,0.005230670794844627
120.0,0.004863367415964603
128.0,0.004482748452574015
144.0,0.0037295459769666195
160.0,0.003981015179306269
176.0,0.004805294796824455
192.0,0.005040263291448355
208.0,0.00512979831546545
224.0,0.005155213642865419
240.0,0.005119022447615862
256.0,0.004749416373670101
288.0,0.002569735748693347
320.0,0.002005805494263768
352.0,0.001618631067685783
384.0,0.00034412997774779797
416.0,-0.0010674376972019672
448.0,-0.0009264989639632404
480.0,-0.0008343154331669211
512.0,-0.000474370492156595
576.0,-0.0017238067230209708
640.0,-0.0010300088906660676
704.0,-0.001065641175955534
768.0,-0.0012183226644992828
832.0,-0.0008316819439642131
896.0,0.0011356972390785813
960.0,0.001273393165320158
1024.0,0.0001276209659408778
1152.0,0.000373358023352921
1280.0,0.0014229546068236232
1408.0,-0.001080311369150877
1536.0,-4.4709318899549544e-05
1664.0,-0.0003586285747587681
1792.0,-5.879719537915662e-05
1920.0,0.000537162646651268
2048.0,-0.0011217546416446567
2304.0,-0.0017989124171435833
2560.0,-0.0002265871298732236
2816.0,-0.0004940996295772493
3072.0,-0.0022302353754639626
3328.0,-0.0016436796868219972
3584.0,-0.001479719183407724
3840.0,-0.0011684668716043234
4096.0,-0.003959059715270996
4608.0,-0.0006615582969971001
5120.0,-0.0008970890776254237
5632.0,-0.0004800209426321089
6144.0,0.0028147923294454813
6656.0,0.0014614870306104422
7168.0,0.0014710973482578993
7680.0,0.0013705866876989603
8192.0,-0.0010872834827750921
end
