version,3.0
numOfCh,1
type,point
parent_name,34766_0dot4-0dot1
ch_type,1_1
kcount,1
numberNandB,1
brightnessNandB,1
carpet pos,0
pc,0
Time (ms),CH1 Auto-Correlation
1.0,0.0343029759824276
2.0,0.033199917525053024
3.0,0.03212978318333626
4.0,0.031083501875400543
5.0,0.03012664243578911
6.0,0.029243817552924156
7.0,0.02841980755329132
8.0,0.02765735238790512
9.0,0.0268888920545578
10.0,0.026176942512392998
11.0,0.025507904589176178
12.0,0.024869386106729507
13.0,0.024281593039631844
14.0,0.023717597126960754
15.0,0.023185286670923233
16.0,0.02265225723385811
18.0,0.021695679053664207
20.0,0.02077844738960266
22.0,0.01996275782585144
24.0,0.019263029098510742
26.0,0.01864539459347725
28.0,0.018071956932544708
30.0,0.017586851492524147
32.0,0.01714756153523922
36.0,0.016351157799363136
40.0,0.01557912491261959
44.0,0.014805462211370468
48.0,0.014004694297909737
52.0,0.013177817687392235
56.0,0.012379312887787819
60.0,0.011602201499044895
64.0,0.01101652067154646
72.0,0.010206883773207664
80.0,0.009460262022912502
88.0,0.008582538925111294
96.0,0.007911451160907745
104.0,0.007706556469202042
112.0,0.007113638799637556
120.0,0.006381186190992594
128.0,0.005400133319199085
144.0,0.004866512026637793
160.0,0.004368723835796118
176.0,0.0036824948620051146
192.0,0.0033801556564867496
208.0,0.0030980180017650127
224.0,0.003249340457841754
240.0,0.0035919365473091602
256.0,0.0033680752385407686
288.0,0.002421038458123803
320.0,0.001298880553804338
352.0,0.0023776451125741005
384.0,0.0035223104059696198
416.0,0.004846757277846336
448.0,0.005150799639523029
480.0,0.004483838565647602
512.0,0.003634931053966284
576.0,0.0018647550605237484
640.0,0.002263849601149559
704.0,0.0007701797876507044
768.0,-0.00044659411651082337
832.0,-0.0005804534303024411
896.0,0.0008254955755546689
960.0,0.0015919259749352932
1024.0,0.0019307701149955392
1152.0,0.0012470923829823732
1280.0,-0.00010537996422499418
1408.0,0.0012664656387642026
1536.0,0.0016280915588140488
1664.0,0.0004814402782358229
1792.0,-2.872440563805867e-05
1920.0,-0.0011090824846178293
2048.0,-0.0007033537258394063
2304.0,-0.0005508753820322454
2560.0,-0.0001642954593989998
2816.0,-0.0016343898605555296
3072.0,0.0008347032126039267
3328.0,5.1857590733561665e-05
3584.0,0.001567712053656578
3840.0,-0.0009904424659907818
4096.0,-0.002130836946889758
4608.0,5.715097358915955e-05
5120.0,-0.0007487776456400752
5632.0,-0.00023663078900426626
6144.0,-0.001995213096961379
6656.0,-0.0034370042849332094
7168.0,-0.004894006997346878
7680.0,-0.0025847197975963354
8192.0,-0.0007676661480218172
end
