version,3.0
numOfCh,1
type,point
parent_name,34766_0dot4-0dot1
ch_type,1_1
kcount,1
numberNandB,1
brightnessNandB,1
carpet pos,0
pc,0
Time (ms),CH1 Auto-Correlation
1.0,0.0343940295279026
2.0,0.033274319022893906
3.0,0.03218388929963112
4.0,0.03119228407740593
5.0,0.03029387816786766
6.0,0.029430316761136055
7.0,0.02861149236559868
8.0,0.02785075269639492
9.0,0.027138380333781242
10.0,0.026460887864232063
11.0,0.0258261077105999
12.0,0.025195831432938576
13.0,0.024548325687646866
14.0,0.023953188210725784
15.0,0.02342674694955349
16.0,0.022919651120901108
18.0,0.02196035347878933
20.0,0.021097222343087196
22.0,0.02025272138416767
24.0,0.019405512139201164
26.0,0.018554285168647766
28.0,0.017774228006601334
30.0,0.017050111666321754
32.0,0.01642528362572193
36.0,0.015364659950137138
40.0,0.014510742388665676
44.0,0.0138741135597229
48.0,0.013332887552678585
52.0,0.01271310169249773
56.0,0.011992352083325386
60.0,0.011384394019842148
64.0,0.01078610960394144
72.0,0.009737330488860607
80.0,0.008556889370083809
88.0,0.00787778478115797
96.0,0.007611485663801432
104.0,0.00740208150818944
112.0,0.0071566142141819
120.0,0.007416767068207264
128.0,0.007569178938865662
144.0,0.007180745713412762
160.0,0.007066739723086357
176.0,0.007021500263363123
192.0,0.00728429201990366
208.0,0.007336714770644903
224.0,0.006881123408675194
240.0,0.006459653843194246
256.0,0.006613065954297781
288.0,0.005404672119766474
320.0,0.004483744967728853
352.0,0.00393966818228364
384.0,0.003461731132119894
416.0,0.0023606414906680584
448.0,0.0014595028478652239
480.0,0.0009210701682604849
512.0,-0.0002248574746772647
576.0,0.001571526168845594
640.0,-0.00038462330121546984
704.0,-0.0018576605943962932
768.0,-0.0024646762758493423
832.0,-0.0019144045654684305
896.0,-0.002721998142078519
960.0,-0.0030490581411868334
1024.0,-0.0022451565600931644
1152.0,0.0012517188442870975
1280.0,0.00014694783021695912
1408.0,0.003046404104679823
1536.0,0.002289189025759697
1664.0,0.004595751874148846
1792.0,0.002679588505998254
1920.0,0.0015902360901236534
2048.0,0.0003144395595882088
2304.0,-0.0011711857514455914
2560.0,0.00017442466923967004
2816.0,0.00026107393205165863
3072.0,-0.0013843794586136937
3328.0,-0.0005996681284159422
3584.0,-0.002780711743980646
3840.0,-0.0022088871337473392
4096.0,-0.002039829269051552
4608.0,-0.001682253903709352
5120.0,-0.002245810115709901
5632.0,-0.006941573228687048
6144.0,-0.0015728267608210444
6656.0,-0.0009231565054506063
7168.0,-0.004533909261226654
7680.0,-0.003935716114938259
8192.0,0.0024933714885264635
end
