version,3.0
numOfCh,1
type,point
parent_name,34766_0dot4-0dot1
ch_type,1_1
kcount,1
numberNandB,1
brightnessNandB,1
carpet pos,0
pc,0
Time (ms),CH1 Auto-Correlation
1.0,0.037316109985113144
2.0,0.035515349358320236
3.0,0.03394128009676933
4.0,0.03274247795343399
5.0,0.03170496225357056
6.0,0.030729789286851883
7.0,0.029601091518998146
8.0,0.028528744354844093
9.0,0.027834169566631317
10.0,0.02719048224389553
11.0,0.02649887464940548
12.0,0.025858622044324875
13.0,0.025288989767432213
14.0,0.024766603484749794
15.0,0.02429983764886856
16.0,0.023861248046159744
18.0,0.022813860327005386
20.0,0.02204151265323162
22.0,0.02125856839120388
24.0,0.02053682878613472
26.0,0.019934723153710365
28.0,0.01941898837685585
30.0,0.018956050276756287
32.0,0.0184548981487751
36.0,0.017092876136302948
40.0,0.01630808413028717
44.0,0.015549544245004654
48.0,0.014469288289546967
52.0,0.013694016262888908
56.0,0.013222475536167622
60.0,0.012601134367287159
64.0,0.011866388842463493
72.0,0.010613896884024143
80.0,0.0099374083802104
88.0,0.009466894902288914
96.0,0.009055282920598984
104.0,0.008601831272244453
112.0,0.00842156633734703
120.0,0.008377835154533386
128.0,0.00828530639410019
144.0,0.007669299840927124
160.0,0.007103851530700922
176.0,0.006367806810885668
192.0,0.005293281748890877
208.0,0.0035568280145525932
224.0,0.002297810046002269
240.0,0.001977614825591445
256.0,0.0022081248462200165
288.0,0.002560230903327465
320.0,0.00209513190202415
352.0,0.002180613111704588
384.0,0.002249421551823616
416.0,0.002375248586758971
448.0,0.0027418022509664297
480.0,0.0026306346990168095
512.0,0.0025881947949528694
576.0,0.0019805515184998512
640.0,0.003792338538914919
704.0,0.0036231072153896093
768.0,0.0024234128650277853
832.0,0.003305203979834914
896.0,0.0019827643409371376
960.0,-6.279444642132148e-05
1024.0,0.0022820455487817526
1152.0,0.0006754127680324018
1280.0,0.002186959609389305
1408.0,0.0009311100002378225
1536.0,-0.00034256893559359014
1664.0,-0.0001713906676741317
1792.0,-0.0005580760189332068
1920.0,-0.0009872912196442485
2048.0,-0.001121694571338594
2304.0,0.002228210214525461
2560.0,0.0008440619567409158
2816.0,0.0003788999456446618
3072.0,0.00027783893165178597
3328.0,-0.0018652565777301788
3584.0,-0.002085484331473708
3840.0,-0.0025770762003958225
4096.0,-0.0015093336114659905
4608.0,-0.0017635609256103635
5120.0,-0.0018862559227272868
5632.0,-0.0016853066626936197
6144.0,-0.003174982964992523
6656.0,-0.0016758012352511287
7168.0,6.224224489415064e-05
7680.0,-0.00025853858096525073
8192.0,-0.0013369133230298758
end
