version,3.0
numOfCh,1
type,point
parent_name,34766_0dot4-0dot1
ch_type,1_1
kcount,1
numberNandB,1
brightnessNandB,1
carpet pos,0
pc,0
Time (ms),CH1 Auto-Correlation
1.0,0.03648757562041283
2.0,0.0353829525411129
3.0,0.03435355797410011
4.0,0.03337300941348076
5.0,0.032454609870910645
6.0,0.031589604914188385
7.0,0.03073563240468502
8.0,0.029940392822027206
9.0,0.02918996475636959
10.0,0.028491338714957237
11.0,0.027849197387695312
12.0,0.027256211265921593
13.0,0.026653237640857697
14.0,0.02605714276432991
15.0,0.025476114824414253
16.0,0.024938438087701797
18.0,0.023944612592458725
20.0,0.023029349744319916
22.0,0.022203149273991585
24.0,0.02138240821659565
26.0,0.020564837381243706
28.0,0.019889023154973984
30.0,0.019250743091106415
32.0,0.018734168261289597
36.0,0.01783997379243374
40.0,0.01701599732041359
44.0,0.0163723211735487
48.0,0.015793217346072197
52.0,0.015142498537898064
56.0,0.014534952118992805
60.0,0.013970188796520233
64.0,0.013475408777594566
72.0,0.012699403800070286
80.0,0.011799057014286518
88.0,0.01079677976667881
96.0,0.009778854437172413
104.0,0.008718513883650303
112.0,0.007622967008501291
120.0,0.006878060754388571
128.0,0.006355077028274536
144.0,0.005010649561882019
160.0,0.004093297757208347
176.0,0.0036563591565936804
192.0,0.002948974957689643
208.0,0.0023705014027655125
224.0,0.0016353282844647765
240.0,0.0016680030385032296
256.0,0.0018877586117014289
288.0,0.0011350996792316437
320.0,0.0010779963340610266
352.0,0.0016219888348132372
384.0,0.0026871664449572563
416.0,0.0016108800191432238
448.0,0.0016234407667070627
480.0,0.0013923944206908345
512.0,0.0015447254991158843
576.0,-2.4480121282977052e-05
640.0,0.00024339610536117107
704.0,0.0008818541537038982
768.0,0.001964923460036516
832.0,0.0018169245449826121
896.0,0.003731067758053541
960.0,0.0019132441375404596
1024.0,-0.0008964845328591764
1152.0,-0.0034031125251203775
1280.0,-0.002587118186056614
1408.0,-0.0009659595671109855
1536.0,9.873219823930413e-05
1664.0,-0.0015946076018735766
1792.0,-0.0018652001162990928
1920.0,0.0004667726461775601
2048.0,0.00032005549292080104
2304.0,-0.0002974205417558551
2560.0,-0.0007103781099431217
2816.0,0.00042443632264621556
3072.0,-0.0008096696110442281
3328.0,0.0003453936369623989
3584.0,0.0008082754793576896
3840.0,0.0011960433330386877
4096.0,0.0020515623036772013
4608.0,0.00037570486892946064
5120.0,-0.0001465187524445355
5632.0,0.0006522376788780093
6144.0,0.0013971677981317043
6656.0,-0.002549896715208888
7168.0,-0.0028017882723361254
7680.0,-0.004555468913167715
8192.0,-0.0013566710986196995
end
