version,3.0
numOfCh,1
type,point
parent_name,34766_0dot4-0dot1
ch_type,1_1
kcount,1
numberNandB,1
brightnessNandB,1
carpet pos,0
pc,0
Time (ms),CH1 Auto-Correlation
1.0,0.031068196520209312
2.0,0.03001040779054165
3.0,0.0289999321103096
4.0,0.028072334825992584
5.0,0.027179015800356865
6.0,0.026385892182588577
7.0,0.025619572028517723
8.0,0.024900460615754128
9.0,0.024200262501835823
10.0,0.023484179750084877
11.0,0.022815518081188202
12.0,0.02217862196266651
13.0,0.021591592580080032
14.0,0.02103838138282299
15.0,0.02052687667310238
16.0,0.02003740705549717
18.0,0.01912711001932621
20.0,0.01821543648838997
22.0,0.017387650907039642
24.0,0.016580840572714806
26.0,0.01588231883943081
28.0,0.015242764726281166
30.0,0.014622783288359642
32.0,0.013997765257954597
36.0,0.012688515707850456
40.0,0.011583704501390457
44.0,0.010760410688817501
48.0,0.010144452564418316
52.0,0.00971487071365118
56.0,0.009236907586455345
60.0,0.008716636337339878
64.0,0.008165002800524235
72.0,0.006935151293873787
80.0,0.005603560246527195
88.0,0.004415969830006361
96.0,0.003487513866275549
104.0,0.002987106330692768
112.0,0.0024833925999701023
120.0,0.0022744545713067055
128.0,0.00218334817327559
144.0,0.0018795909127220511
160.0,0.00118179467972368
176.0,0.00030255145975388587
192.0,-0.0002786876866593957
208.0,-6.458148618548876e-06
224.0,0.0005726320086978376
240.0,0.0008234675042331219
256.0,0.0004168534651398659
288.0,0.0017400322249159217
320.0,0.0008983736042864621
352.0,0.00038863392546772957
384.0,-0.00012099032028345391
416.0,3.22804189636372e-05
448.0,0.0009490901720710099
480.0,0.000527800468262285
512.0,0.0015230814460664988
576.0,-0.0012598502216860652
640.0,-0.002722868463024497
704.0,-0.0026823964435607195
768.0,-0.0032279621809720993
832.0,-0.0022876837756484747
896.0,-7.657043170183897e-05
960.0,-0.0007089145365171134
1024.0,-0.0014733698917552829
1152.0,-0.0013485566014423966
1280.0,-0.0011906479485332966
1408.0,-0.003222433850169182
1536.0,-0.00214244588278234
1664.0,0.0002337542682653293
1792.0,-0.00032191441277973354
1920.0,-0.0014958139508962631
2048.0,-0.0002919296966865659
2304.0,0.00016288460756186396
2560.0,0.0022832206450402737
2816.0,0.002308927709236741
3072.0,0.0013183074770495296
3328.0,0.0005075487424619496
3584.0,-0.0004445306258276105
3840.0,-0.0005363678792491555
4096.0,-0.0022739549167454243
4608.0,-0.00035111623583361506
5120.0,0.00034560367930680513
5632.0,0.0011169040808454156
6144.0,0.0007939215283840895
6656.0,-0.0003272868925705552
7168.0,-0.002257603919133544
7680.0,-0.00031397989368997514
8192.0,0.0018862910801544785
end
