version,3.0
numOfCh,1
type,point
parent_name,34766_0dot4-0dot1
ch_type,1_1
kcount,1
numberNandB,1
brightnessNandB,1
carpet pos,0
pc,0
Time (ms),CH1 Auto-Correlation
1.0,0.03004923090338707
2.0,0.028988098725676537
3.0,0.027988463640213013
4.0,0.02703077904880047
5.0,0.02615230903029442
6.0,0.025311658158898354
7.0,0.024503305554389954
8.0,0.023748423904180527
9.0,0.02301991730928421
10.0,0.022325552999973297
11.0,0.02171150967478752
12.0,0.021096481010317802
13.0,0.020518885925412178
14.0,0.019998636096715927
15.0,0.019480859860777855
16.0,0.018971450626850128
18.0,0.01812518760561943
20.0,0.01733681559562683
22.0,0.016652090474963188
24.0,0.01612349972128868
26.0,0.01568784937262535
28.0,0.015233342535793781
30.0,0.014796271920204163
32.0,0.014384676702320576
36.0,0.013640769757330418
40.0,0.012998090125620365
44.0,0.012500530108809471
48.0,0.012048427946865559
52.0,0.011508956551551819
56.0,0.01112559624016285
60.0,0.01075277104973793
64.0,0.010350177064538002
72.0,0.009500868618488312
80.0,0.009042185731232166
88.0,0.008523698896169662
96.0,0.00821425300091505
104.0,0.007894190959632397
112.0,0.0072907693684101105
120.0,0.00659647723659873
128.0,0.005911802873015404
144.0,0.005678004119545221
160.0,0.005404191557317972
176.0,0.004948700312525034
192.0,0.004364012740552425
208.0,0.003302590921521187
224.0,0.0021946898195892572
240.0,0.0018903225427493453
256.0,0.001655160915106535
288.0,0.001808288972824812
320.0,0.0019524488598108292
352.0,0.002235383726656437
384.0,0.00230225408449769
416.0,0.0014928823802620173
448.0,0.0015832845820114017
480.0,0.00251211691647768
512.0,0.0030630824621766806
576.0,0.002436647191643715
640.0,0.0008860529633238912
704.0,0.0005486788577400148
768.0,0.0009420251008123159
832.0,0.0006502902251668274
896.0,0.0015775717329233885
960.0,0.0010169679298996925
1024.0,0.0003284050908405334
1152.0,0.0024059945717453957
1280.0,0.0018616400193423033
1408.0,-0.0009529184899292886
1536.0,-0.0032159213442355394
1664.0,-0.000987179926596582
1792.0,0.00044909308780916035
1920.0,0.0006870884681120515
2048.0,0.0015104830963537097
2304.0,-0.0023539739195257425
2560.0,-0.0036188384983688593
2816.0,-0.0022744499146938324
3072.0,0.0004016214224975556
3328.0,-7.473921868950129e-05
3584.0,-0.0018506814958527684
3840.0,0.0015939426375553012
4096.0,0.0007412431878037751
4608.0,-0.0003481176681816578
5120.0,0.002259850734844804
5632.0,0.0002881842665374279
6144.0,0.0010096064070239663
6656.0,-6.75770643283613e-05
7168.0,-0.0013199708191677928
7680.0,-0.004408559296280146
8192.0,-0.0027922075241804123
end
