version,3.0
numOfCh,1
type,point
parent_name,34766_0dot4-0dot1
ch_type,1_1
kcount,1
numberNandB,1
brightnessNandB,1
carpet pos,0
pc,0
Time (ms),CH1 Auto-Correlation
1.0,0.05653025954961777
2.0,0.0548262782394886
3.0,0.053180623799562454
4.0,0.05163518711924553
5.0,0.050200529396533966
6.0,0.04883967712521553
7.0,0.047438088804483414
8.0,0.046197470277547836
9.0,0.04485165700316429
10.0,0.04358188435435295
11.0,0.04239732027053833
12.0,0.04123698174953461
13.0,0.04012247547507286
14.0,0.03894486278295517
15.0,0.03779347240924835
16.0,0.03669038042426109
18.0,0.034060075879096985
20.0,0.03200528398156166
22.0,0.030030718073248863
24.0,0.028106559067964554
26.0,0.026361722499132156
28.0,0.024735042825341225
30.0,0.023111052811145782
32.0,0.02189820446074009
36.0,0.020203689113259315
40.0,0.018765613436698914
44.0,0.01731952652335167
48.0,0.01597660966217518
52.0,0.014828616753220558
56.0,0.013964935205876827
60.0,0.013279233127832413
64.0,0.012378868646919727
72.0,0.011156453751027584
80.0,0.010018904693424702
88.0,0.009265882894396782
96.0,0.008983084000647068
104.0,0.008520957082509995
112.0,0.007947140373289585
120.0,0.007120111957192421
128.0,0.006664329208433628
144.0,0.005888845771551132
160.0,0.006367940921336412
176.0,0.005705566611140966
192.0,0.003470555180683732
208.0,0.0011252730619162321
224.0,0.00017075052892323583
240.0,0.0006909110234118998
256.0,0.00231434335000813
288.0,0.004197770729660988
320.0,0.005538249853998423
352.0,0.0034170649014413357
384.0,0.0007790297968313098
416.0,0.0010751131922006607
448.0,-0.00015206863463390619
480.0,0.001556795439682901
512.0,0.0030289446003735065
576.0,0.0018332968465983868
640.0,0.0015438926639035344
704.0,0.0007830524700693786
768.0,0.0018956776475533843
832.0,0.003581724828109145
896.0,0.0037120741326361895
960.0,0.003527864348143339
1024.0,0.002788998419418931
1152.0,0.0022782660089433193
1280.0,0.003613345790654421
1408.0,0.0036524662282317877
1536.0,0.003797373967245221
1664.0,0.0023065833374857903
1792.0,0.0006053571123629808
1920.0,0.00030135503038764
2048.0,0.0021188550163060427
2304.0,0.0011997184483334422
2560.0,0.003104157280176878
2816.0,0.002393318573012948
3072.0,-0.0018269248539581895
3328.0,0.0010450659319758415
3584.0,0.003078403417021036
3840.0,-0.0005309926345944405
4096.0,-0.0035078800283372402
4608.0,0.0008404186810366809
5120.0,-0.0007414605934172869
5632.0,0.0001822130143409595
6144.0,-0.0015043809544295073
6656.0,-0.001437872415408492
7168.0,-5.0016828026855364e-05
7680.0,-0.0013977832859382033
8192.0,-0.0013427839148789644
end
