version,3.0
numOfCh,1
type,point
parent_name,34766_0dot4-0dot1
ch_type,1_1
kcount,1
numberNandB,1
brightnessNandB,1
carpet pos,0
pc,0
Time (ms),CH1 Auto-Correlation
1.0,0.031879521906375885
2.0,0.03080230951309204
3.0,0.02978506311774254
4.0,0.028783440589904785
5.0,0.02784150280058384
6.0,0.026949968189001083
7.0,0.02610846795141697
8.0,0.025319838896393776
9.0,0.02457023784518242
10.0,0.023844994604587555
11.0,0.023158028721809387
12.0,0.022486774250864983
13.0,0.021868886426091194
14.0,0.021270861849188805
15.0,0.02068966254591942
16.0,0.0201326385140419
18.0,0.019059477373957634
20.0,0.018020514398813248
22.0,0.017075732350349426
24.0,0.01623973622918129
26.0,0.015451354905962944
28.0,0.014714459888637066
30.0,0.014056934975087643
32.0,0.013487620279192924
36.0,0.012423588894307613
40.0,0.01160066295415163
44.0,0.010882729664444923
48.0,0.010349356569349766
52.0,0.009871996939182281
56.0,0.009381980635225773
60.0,0.008864271454513073
64.0,0.008347313851118088
72.0,0.007350986357778311
80.0,0.006498620845377445
88.0,0.005823924671858549
96.0,0.005358701106160879
104.0,0.005111191421747208
112.0,0.004520554095506668
120.0,0.004043227061629295
128.0,0.0033902155701071024
144.0,0.0025230543687939644
160.0,0.002288171788677573
176.0,0.002101086312904954
192.0,0.0015903556486591697
208.0,0.0013517352053895593
224.0,0.001660013571381569
240.0,0.0027688073460012674
256.0,0.002754622371867299
288.0,0.0032309251837432384
320.0,0.003071920247748494
352.0,0.002645824570208788
384.0,0.002564147813245654
416.0,0.002867548493668437
448.0,0.0038684995379298925
480.0,0.005087118595838547
512.0,0.0058526103384792805
576.0,0.003683720948174596
640.0,0.0008614921243861318
704.0,0.0021484538447111845
768.0,0.0027234479784965515
832.0,0.0027678983751684427
896.0,0.0005496107041835785
960.0,-0.0011055367067456245
1024.0,-0.000555674487259239
1152.0,0.0014409867580980062
1280.0,0.0016283412696793675
1408.0,0.00027918120031245053
1536.0,-0.0011497887317091227
1664.0,0.0008186288760043681
1792.0,-0.00036373300827108324
1920.0,0.0002460320829413831
2048.0,-0.0006776190712116659
2304.0,0.00014061661204323173
2560.0,-0.000567167007829994
2816.0,-0.0003439338179305196
3072.0,0.00022241227270569652
3328.0,0.00025333891971968114
3584.0,0.0006138544413261116
3840.0,0.0008984686573967338
4096.0,-0.0005581941804848611
4608.0,-0.0017903137486428022
5120.0,-0.0013616923242807388
5632.0,-0.00012161696940893307
6144.0,-0.0016148675931617618
6656.0,-0.001801222562789917
7168.0,-0.0006532239494845271
7680.0,-0.0005637206486426294
8192.0,-0.0019310653442516923
end
