version,3.0
numOfCh,1
type,point
parent_name,34766_0dot4-0dot1
ch_type,1_1
kcount,1
numberNandB,1
brightnessNandB,1
carpet pos,0
pc,0
Time (ms),CH1 Auto-Correlation
1.0,0.031573474407196045
2.0,0.030422598123550415
3.0,0.029326003044843674
4.0,0.028300130739808083
5.0,0.027336429804563522
6.0,0.02642732672393322
7.0,0.025557108223438263
8.0,0.024691978469491005
9.0,0.023895682767033577
10.0,0.023176230490207672
11.0,0.022507131099700928
12.0,0.021879632025957108
13.0,0.021321339532732964
14.0,0.02077295258641243
15.0,0.02027687057852745
16.0,0.019805993884801865
18.0,0.018900437280535698
20.0,0.018095634877681732
22.0,0.017353825271129608
24.0,0.01664048247039318
26.0,0.016006184741854668
28.0,0.015395727939903736
30.0,0.014770758338272572
32.0,0.014174972660839558
36.0,0.013026946224272251
40.0,0.011908717453479767
44.0,0.010959941893815994
48.0,0.0103659862652421
52.0,0.009929153136909008
56.0,0.00945691205561161
60.0,0.008831254206597805
64.0,0.008127915672957897
72.0,0.007060520350933075
80.0,0.0068424781784415245
88.0,0.0063140131533145905
96.0,0.005511709023267031
104.0,0.004904886707663536
112.0,0.004519040230661631
120.0,0.003787263063713908
128.0,0.003325158031657338
144.0,0.0029365806840360165
160.0,0.002095726551488042
176.0,0.0017062011174857616
192.0,0.0015179406618699431
208.0,0.0013072792207822204
224.0,0.0016079513588920236
240.0,0.0021177788730710745
256.0,0.0025666223373264074
288.0,0.0031993079464882612
320.0,0.0029564646538347006
352.0,0.0018046974437311292
384.0,0.0007201915723271668
416.0,0.001253677299246192
448.0,0.0020389303099364042
480.0,0.0019859608728438616
512.0,0.0018854151712730527
576.0,0.0005865687853656709
640.0,0.0013487280812114477
704.0,0.000566824630368501
768.0,-0.00048680120380595326
832.0,-0.0009489189251326025
896.0,0.0009251434239558876
960.0,0.000908991729374975
1024.0,-0.00024039304116740823
1152.0,-0.0004084115207660943
1280.0,-0.0018757341895252466
1408.0,0.0007571584428660572
1536.0,0.0009731421596370637
1664.0,-0.0009515383862890303
1792.0,-0.0005485035944730043
1920.0,-0.0009019836434163153
2048.0,-0.0005286978557705879
2304.0,-0.0021724863909184933
2560.0,-0.00022801118029747158
2816.0,0.00027222043718211353
3072.0,0.0012324671261012554
3328.0,0.00029545638244599104
3584.0,0.0005801680963486433
3840.0,0.000635806005448103
4096.0,0.001822580466978252
4608.0,0.0005296315066516399
5120.0,-0.0016037585446611047
5632.0,-0.003641965100541711
6144.0,-0.0033049427438527346
6656.0,0.0006881487206555903
7168.0,-0.0004297373234294355
7680.0,-0.0009444602765142918
8192.0,6.176385068101808e-05
end
