version,3.0
numOfCh,1
type,point
parent_name,19e3e_0dot08-1dot0
ch_type,1_1
kcount,1
numberNandB,1
brightnessNandB,1
carpet pos,0
pc,0
Time (ms),CH1 Auto-Correlation
1.0,0.02741282619535923
2.0,0.027176659554243088
3.0,0.02696421556174755
4.0,0.026754403486847878
5.0,0.0265447199344635
6.0,0.026345979422330856
7.0,0.026158325374126434
8.0,0.025974826887249947
9.0,0.025794975459575653
10.0,0.025619689375162125
11.0,0.025455152615904808
12.0,0.02530183643102646
13.0,0.025148632004857063
14.0,0.02500247396528721
15.0,0.024857014417648315
16.0,0.024708451703190804
18.0,0.02443281002342701
20.0,0.024161269888281822
22.0,0.023899303749203682
24.0,0.023637302219867706
26.0,0.02337511256337166
28.0,0.023121975362300873
30.0,0.02288268506526947
32.0,0.022665532305836678
36.0,0.022235151380300522
40.0,0.021824179217219353
44.0,0.021451745182275772
48.0,0.021081984043121338
52.0,0.02070319652557373
56.0,0.02035295031964779
60.0,0.02001941204071045
64.0,0.019703393802046776
72.0,0.018946850672364235
80.0,0.01819341816008091
88.0,0.01752779632806778
96.0,0.016898293048143387
104.0,0.01633746363222599
112.0,0.015771983191370964
120.0,0.015199934132397175
128.0,0.014672355726361275
144.0,0.013903183862566948
160.0,0.013151794672012329
176.0,0.012311643920838833
192.0,0.011644301004707813
208.0,0.010817181318998337
224.0,0.00977806095033884
240.0,0.00879435520619154
256.0,0.008034879341721535
288.0,0.006936287507414818
320.0,0.005881850142031908
352.0,0.005146947223693132
384.0,0.0044928668066859245
416.0,0.0045036193914711475
448.0,0.0045471107587218285
480.0,0.0044771949760615826
512.0,0.004503068048506975
576.0,0.004211236722767353
640.0,0.0038987125735729933
704.0,0.003045495133846998
768.0,0.002739501418545842
832.0,0.0021023943554610014
896.0,0.0016680987318977714
960.0,0.0023104373831301928
1024.0,0.0028062262572348118
1152.0,0.0032108379527926445
1280.0,0.0017583067528903484
1408.0,-0.00017650716472417116
1536.0,-0.0013035231968387961
1664.0,-0.0032763455528765917
1792.0,-0.002683041850104928
1920.0,-0.001292943605221808
2048.0,-0.0009530320530757308
2304.0,0.0006604622467420995
2560.0,0.0024188936222344637
2816.0,0.0012416749959811568
3072.0,-0.0005018067895434797
3328.0,0.00026345602236688137
3584.0,0.0005235571297816932
3840.0,-0.002394699025899172
4096.0,-0.0036421827971935272
4608.0,-0.0026563878636807203
5120.0,-0.0004677457036450505
5632.0,-0.0010117084020748734
6144.0,0.0014729395043104887
6656.0,0.0007435170118696988
7168.0,-0.0026179596316069365
7680.0,0.00013350590597838163
8192.0,-0.004626099485903978
end
