version,3.0
numOfCh,1
type,point
parent_name,19e3e_0dot08-1dot0
ch_type,1_1
kcount,1
numberNandB,1
brightnessNandB,1
carpet pos,0
pc,0
Time (ms),CH1 Auto-Correlation
1.0,0.0229194313287735
2.0,0.022730987519025803
3.0,0.02254171296954155
4.0,0.022355107590556145
5.0,0.022171935066580772
6.0,0.021984629333019257
7.0,0.02180173620581627
8.0,0.021627509966492653
9.0,0.021450968459248543
10.0,0.021274158731102943
11.0,0.021103572100400925
12.0,0.020940693095326424
13.0,0.020778421312570572
14.0,0.020622199401259422
15.0,0.02046055719256401
16.0,0.020302841439843178
18.0,0.019987965002655983
20.0,0.01967499405145645
22.0,0.019374841824173927
24.0,0.019074177369475365
26.0,0.01877184771001339
28.0,0.018484005704522133
30.0,0.018218470737338066
32.0,0.017966633662581444
36.0,0.017503445968031883
40.0,0.017055224627256393
44.0,0.016636060550808907
48.0,0.016251467168331146
52.0,0.015875717625021935
56.0,0.015481089241802692
60.0,0.015081753022968769
64.0,0.014708228409290314
72.0,0.013966578990221024
80.0,0.013241522945463657
88.0,0.01261098962277174
96.0,0.012072484940290451
104.0,0.011680900119245052
112.0,0.011313565075397491
120.0,0.010883240029215813
128.0,0.0104658342897892
144.0,0.009757106192409992
160.0,0.009404120035469532
176.0,0.009144309908151627
192.0,0.008965549059212208
208.0,0.008768986910581589
224.0,0.008728534914553165
240.0,0.008631034754216671
256.0,0.008440288715064526
288.0,0.00821530632674694
320.0,0.007838939316570759
352.0,0.007326082792133093
384.0,0.006386573426425457
416.0,0.005741247907280922
448.0,0.005373448599129915
480.0,0.0048659853637218475
512.0,0.004690321162343025
576.0,0.003900133538991213
640.0,0.002531563164666295
704.0,0.0008864905685186386
768.0,0.0014270484680309892
832.0,0.0006400803686119616
896.0,-0.0004072362498845905
960.0,-0.0004920818610116839
1024.0,-0.0007631770567968488
1152.0,-0.0004160260723438114
1280.0,-0.0011040732497349381
1408.0,-0.0009408002952113748
1536.0,-0.0013884678483009338
1664.0,-0.0005556401447393
1792.0,-0.0011010152520611882
1920.0,0.0004943055682815611
2048.0,-0.0005374058964662254
2304.0,-0.0018549059750512242
2560.0,-0.0021730614826083183
2816.0,-0.0007177522056736052
3072.0,-0.0005499263643287122
3328.0,-0.000518252607434988
3584.0,0.00010849073441931978
3840.0,0.00011331355199217796
4096.0,0.0017262351466342807
4608.0,0.0017352395225316286
5120.0,-0.002635631710290909
5632.0,-0.0045304372906684875
6144.0,-0.004361988976597786
6656.0,-0.0028882184997200966
7168.0,-0.001996296225115657
7680.0,0.0006377719109877944
8192.0,-0.00032538449158892035
end
