version,3.0
numOfCh,1
type,point
parent_name,19e3e_0dot08-1dot0
ch_type,1_1
kcount,1
numberNandB,1
brightnessNandB,1
carpet pos,0
pc,0
Time (ms),CH1 Auto-Correlation
1.0,0.023166058585047722
2.0,0.02296653389930725
3.0,0.022774657234549522
4.0,0.022597912698984146
5.0,0.02242235839366913
6.0,0.02225298248231411
7.0,0.022083289921283722
8.0,0.021918199956417084
9.0,0.021753376349806786
10.0,0.02159683220088482
11.0,0.021441031247377396
12.0,0.0212837103754282
13.0,0.021129870787262917
14.0,0.02097512222826481
15.0,0.020821066573262215
16.0,0.020667733624577522
18.0,0.020371422171592712
20.0,0.02008023113012314
22.0,0.019797181710600853
24.0,0.019532542675733566
26.0,0.0192741509526968
28.0,0.019021032378077507
30.0,0.018776796758174896
32.0,0.018526500090956688
36.0,0.018062489107251167
40.0,0.01764371618628502
44.0,0.017252188175916672
48.0,0.01686348021030426
52.0,0.016478361561894417
56.0,0.01610875129699707
60.0,0.015741273760795593
64.0,0.015383576974272728
72.0,0.01465719472616911
80.0,0.013925321400165558
88.0,0.013225973583757877
96.0,0.012573925778269768
104.0,0.011946311220526695
112.0,0.011352837085723877
120.0,0.01074693538248539
128.0,0.010189753957092762
144.0,0.009191920049488544
160.0,0.008341855369508266
176.0,0.007526498753577471
192.0,0.006746217608451843
208.0,0.0062124463729560375
224.0,0.0057402378879487514
240.0,0.005372878164052963
256.0,0.0050681945867836475
288.0,0.00439729867503047
320.0,0.003775219200178981
352.0,0.0030979658477008343
384.0,0.0022124797105789185
416.0,0.0015389187028631568
448.0,0.0007676465320400894
480.0,-0.00024875227245502174
512.0,-0.0005171214579604566
576.0,-0.0013968738494440913
640.0,-0.0032509188167750835
704.0,-0.004199865739792585
768.0,-0.003431947436183691
832.0,-0.002040610881522298
896.0,-0.001567149069160223
960.0,-0.0006013523088768125
1024.0,-0.0002169576910091564
1152.0,-0.00024239439517259598
1280.0,-0.00042571130325086415
1408.0,-0.00036035850644111633
1536.0,-0.00038128378218971193
1664.0,-0.0006491856183856726
1792.0,-0.002639651531353593
1920.0,-0.0029119604732841253
2048.0,-0.00405544089153409
2304.0,-0.0017383869271725416
2560.0,0.0002973075897898525
2816.0,0.0009377138921990991
3072.0,0.0016169645823538303
3328.0,-0.0023546244483441114
3584.0,-0.003274110145866871
3840.0,-0.002982398960739374
4096.0,0.0013495608000084758
4608.0,-0.00212297635152936
5120.0,0.002000320004299283
5632.0,0.002589989686384797
6144.0,0.0004058020713273436
6656.0,0.0020730237010866404
7168.0,-0.0019430594984441996
7680.0,-0.004207403864711523
8192.0,0.0009744359413161874
end
