version,3.0
numOfCh,1
type,point
parent_name,19e3e_0dot08-1dot0
ch_type,1_1
kcount,1
numberNandB,1
brightnessNandB,1
carpet pos,0
pc,0
Time (ms),CH1 Auto-Correlation
1.0,0.02486359514296055
2.0,0.02461191825568676
3.0,0.02438688836991787
4.0,0.024165743961930275
5.0,0.023962369188666344
6.0,0.023784486576914787
7.0,0.02359333075582981
8.0,0.023411836475133896
9.0,0.02322438172996044
10.0,0.023037098348140717
11.0,0.022856103256344795
12.0,0.022681625559926033
13.0,0.022508172318339348
14.0,0.0223423782736063
15.0,0.022176358848810196
16.0,0.02199275977909565
18.0,0.021642114967107773
20.0,0.02131362073123455
22.0,0.02101880870759487
24.0,0.020726988092064857
26.0,0.020439645275473595
28.0,0.020149335265159607
30.0,0.01985791325569153
32.0,0.01955956220626831
36.0,0.018991732969880104
40.0,0.018467813730239868
44.0,0.017985045909881592
48.0,0.017541438341140747
52.0,0.01713458262383938
56.0,0.016760367900133133
60.0,0.016405014321208
64.0,0.016061795875430107
72.0,0.015419342555105686
80.0,0.014759090729057789
88.0,0.014061875641345978
96.0,0.01338589284569025
104.0,0.012770643457770348
112.0,0.012244459241628647
120.0,0.01173357293009758
128.0,0.01118827611207962
144.0,0.010186160914599895
160.0,0.009576124139130116
176.0,0.009226464666426182
192.0,0.009070129133760929
208.0,0.008976367302238941
224.0,0.008858890272676945
240.0,0.008668845519423485
256.0,0.008354215882718563
288.0,0.007704624440521002
320.0,0.0069100260734558105
352.0,0.006212469190359116
384.0,0.005890883505344391
416.0,0.005787454079836607
448.0,0.005629008635878563
480.0,0.0054054269567132
512.0,0.005856802687048912
576.0,0.00580621138215065
640.0,0.0061793276108801365
704.0,0.006155403796583414
768.0,0.005848078057169914
832.0,0.005674559623003006
896.0,0.0062990859150886536
960.0,0.007029224652796984
1024.0,0.006861945614218712
1152.0,0.005693652201443911
1280.0,0.003842858364805579
1408.0,0.002496133791282773
1536.0,0.004492109641432762
1664.0,0.006307107396423817
1792.0,0.007362683769315481
1920.0,0.006332529243081808
2048.0,0.00730645889416337
2304.0,0.002458964241668582
2560.0,0.0030202181078493595
2816.0,0.0053031607531011105
3072.0,0.0031949160620570183
3328.0,0.002709677442908287
3584.0,0.00336987036280334
3840.0,0.003047542879357934
4096.0,0.0004577379149850458
4608.0,-0.001259978162124753
5120.0,-0.002158480929210782
5632.0,-0.0021130957175046206
6144.0,-0.0026094955392181873
6656.0,-0.006878234911710024
7168.0,-0.0033295697066932917
7680.0,-0.00519472686573863
8192.0,-0.006802618969231844
end
