version,3.0
numOfCh,1
type,point
parent_name,19e3e_0dot08-1dot0
ch_type,1_1
kcount,1
numberNandB,1
brightnessNandB,1
carpet pos,0
pc,0
Time (ms),CH1 Auto-Correlation
1.0,0.021839633584022522
2.0,0.02163833938539028
3.0,0.021453382447361946
4.0,0.021273359656333923
5.0,0.02109539322555065
6.0,0.020923670381307602
7.0,0.02075260318815708
8.0,0.020585056394338608
9.0,0.020434502512216568
10.0,0.02028316631913185
11.0,0.020133042708039284
12.0,0.019986094906926155
13.0,0.01984296552836895
14.0,0.01969723589718342
15.0,0.01955357939004898
16.0,0.019409751519560814
18.0,0.019132133573293686
20.0,0.018867412582039833
22.0,0.01860378123819828
24.0,0.01834220439195633
26.0,0.01808997616171837
28.0,0.017850451171398163
30.0,0.01761484146118164
32.0,0.017386430874466896
36.0,0.016963819041848183
40.0,0.016596252098679543
44.0,0.016267022117972374
48.0,0.01595073565840721
52.0,0.015639470890164375
56.0,0.015309256501495838
60.0,0.014956971630454063
64.0,0.014592345803976059
72.0,0.013891083188354969
80.0,0.013247963972389698
88.0,0.012697299011051655
96.0,0.012187226675450802
104.0,0.011674483306705952
112.0,0.011153168976306915
120.0,0.010623290203511715
128.0,0.01012511271983385
144.0,0.009189916774630547
160.0,0.008250858634710312
176.0,0.0073085506446659565
192.0,0.006380558013916016
208.0,0.005693416111171246
224.0,0.005035466980189085
240.0,0.0044701313599944115
256.0,0.00406933156773448
288.0,0.00329742138274014
320.0,0.0023716387804597616
352.0,0.0012235987232998013
384.0,0.00015387157327495515
416.0,-0.001155976322479546
448.0,-0.002306564711034298
480.0,-0.002788461744785309
512.0,-0.003023054450750351
576.0,-0.003360146190971136
640.0,-0.004016992636024952
704.0,-0.0036065932363271713
768.0,-0.0029178012628108263
832.0,-0.0026601289864629507
896.0,-0.0024260522332042456
960.0,-0.0025345655158162117
1024.0,-0.002565493807196617
1152.0,-0.0021998919546604156
1280.0,-0.002420153934508562
1408.0,-0.00271890708245337
1536.0,-0.002866673981770873
1664.0,-0.0027399398386478424
1792.0,-0.0015785485738888383
1920.0,0.0006187731632962823
2048.0,0.0026739235036075115
2304.0,0.004376979544758797
2560.0,0.0009262555977329612
2816.0,0.000353912910213694
3072.0,-0.0014165685279294848
3328.0,-0.0028244182467460632
3584.0,-0.0031137531623244286
3840.0,-0.0008069783798418939
4096.0,-2.1721589291701093e-05
4608.0,0.002612220821902156
5120.0,-0.001692419871687889
5632.0,-0.002979389624670148
6144.0,0.0018288117134943604
6656.0,0.002713470021262765
7168.0,0.002660815604031086
7680.0,-2.4767479771981016e-05
8192.0,-0.0025940602645277977
end
