version,3.0
numOfCh,1
type,point
parent_name,19e3e_0dot08-1dot0
ch_type,1_1
kcount,1
numberNandB,1
brightnessNandB,1
carpet pos,0
pc,0
Time (ms),CH1 Auto-Correlation
1.0,0.024790016934275627
2.0,0.02459433488547802
3.0,0.024405427277088165
4.0,0.024229466915130615
5.0,0.024049099534749985
6.0,0.02386830747127533
7.0,0.0236897524446249
8.0,0.023507285863161087
9.0,0.02333228662610054
10.0,0.0231704693287611
11.0,0.023012466728687286
12.0,0.02284947596490383
13.0,0.022689102217555046
14.0,0.022535694763064384
15.0,0.022383591160178185
16.0,0.022233737632632256
18.0,0.021929152309894562
20.0,0.021630307659506798
22.0,0.02133428491652012
24.0,0.021046960726380348
26.0,0.02076035365462303
28.0,0.020483238622546196
30.0,0.020209901034832
32.0,0.019955158233642578
36.0,0.019456207752227783
40.0,0.018988123163580894
44.0,0.018543004989624023
48.0,0.018094804137945175
52.0,0.01766953617334366
56.0,0.01728782057762146
60.0,0.016985658556222916
64.0,0.016713755205273628
72.0,0.016136834397912025
80.0,0.015530403703451157
88.0,0.015006470493972301
96.0,0.014516058377921581
104.0,0.014138154685497284
112.0,0.013721791096031666
120.0,0.013263060711324215
128.0,0.012829217128455639
144.0,0.011899959295988083
160.0,0.011095413006842136
176.0,0.010506094433367252
192.0,0.010016091167926788
208.0,0.009563804604113102
224.0,0.00904760044068098
240.0,0.008463789708912373
256.0,0.008002212271094322
288.0,0.007597389630973339
320.0,0.007056130096316338
352.0,0.006434642244130373
384.0,0.006546365562826395
416.0,0.007179221138358116
448.0,0.007560753729194403
480.0,0.007451561279594898
512.0,0.0070968810468912125
576.0,0.005398732144385576
640.0,0.0038463729433715343
704.0,0.003220563055947423
768.0,0.0034096776507794857
832.0,0.0038361679762601852
896.0,0.003540454898029566
960.0,0.003557501593604684
1024.0,0.003438444808125496
1152.0,0.0025776138063520193
1280.0,0.0020868564024567604
1408.0,0.0023770444095134735
1536.0,0.00230066804215312
1664.0,0.003200143575668335
1792.0,0.0022007026709616184
1920.0,0.0018281379016116261
2048.0,0.0008368905982933939
2304.0,0.0010452460264787078
2560.0,0.001106467330828309
2816.0,0.0024134241975843906
3072.0,0.003080871654674411
3328.0,0.004563546273857355
3584.0,0.004729955457150936
3840.0,0.0035096611827611923
4096.0,0.0011853203177452087
4608.0,0.000491916318424046
5120.0,0.002775986446067691
5632.0,0.0011092908680438995
6144.0,0.0007939303759485483
6656.0,-0.0002524291630834341
7168.0,-0.00513181509450078
7680.0,-0.004696227610111237
8192.0,-0.0018715059850364923
end
