version,3.0
numOfCh,1
type,point
parent_name,19e3e_0dot08-1dot0
ch_type,1_1
kcount,1
numberNandB,1
brightnessNandB,1
carpet pos,0
pc,0
Time (ms),CH1 Auto-Correlation
1.0,0.01623683050274849
2.0,0.016038337722420692
3.0,0.015843242406845093
4.0,0.015658166259527206
5.0,0.015477795153856277
6.0,0.015295060351490974
7.0,0.015115341171622276
8.0,0.014936440624296665
9.0,0.014754533767700195
10.0,0.014581390656530857
11.0,0.014412718825042248
12.0,0.01424742303788662
13.0,0.01409060601145029
14.0,0.013933773152530193
15.0,0.013787836767733097
16.0,0.013643473386764526
18.0,0.013362905010581017
20.0,0.013081002049148083
22.0,0.012808877974748611
24.0,0.012555026449263096
26.0,0.012315033935010433
28.0,0.01207608263939619
30.0,0.011856162920594215
32.0,0.01165326964110136
36.0,0.011248228140175343
40.0,0.010858641937375069
44.0,0.010431271977722645
48.0,0.010006409138441086
52.0,0.00960671715438366
56.0,0.00924647320061922
60.0,0.008963461965322495
64.0,0.008686255663633347
72.0,0.008140839636325836
80.0,0.007668742444366217
88.0,0.0072050029411911964
96.0,0.006712309550493956
104.0,0.006317067425698042
112.0,0.006029779557138681
120.0,0.005761615466326475
128.0,0.005499694962054491
144.0,0.004853603430092335
160.0,0.0044609238393604755
176.0,0.004189911764115095
192.0,0.004127025604248047
208.0,0.0037903604097664356
224.0,0.003446479793637991
240.0,0.003131258301436901
256.0,0.0027954564429819584
288.0,0.002185090444982052
320.0,0.0016600937815383077
352.0,0.0014656021958217025
384.0,0.0010928838746622205
416.0,0.0008264832431450486
448.0,0.00032416966860182583
480.0,-0.000551590695977211
512.0,-0.0013310277136042714
576.0,-0.002218219917267561
640.0,-0.002496424363926053
704.0,-0.0027800153475254774
768.0,-0.003301984863355756
832.0,-0.0033362649846822023
896.0,-0.002995485905557871
960.0,-0.0028917582239955664
1024.0,-0.002718804869800806
1152.0,-0.0015884876484051347
1280.0,-0.0009656123584136367
1408.0,-0.0005508079775609076
1536.0,5.3909243433736265e-05
1664.0,-0.000658191682305187
1792.0,-0.00029346701921895146
1920.0,0.001684891409240663
2048.0,0.0011845061089843512
2304.0,-2.6260220693075098e-05
2560.0,0.00017391928122378886
2816.0,-0.0008903046837076545
3072.0,-7.97723769210279e-05
3328.0,-4.620297841029242e-05
3584.0,-0.000154950306750834
3840.0,-0.0009443614399060607
4096.0,-0.000298378145089373
4608.0,0.0013432519044727087
5120.0,0.0008090381743386388
5632.0,-0.001854493049904704
6144.0,0.00030900179990567267
6656.0,0.0012491194065660238
7168.0,-0.0014451849274337292
7680.0,-0.0013916591415181756
8192.0,0.0009491085656918585
end
