version,3.0
numOfCh,1
type,point
parent_name,19e3e_0dot08-1dot0
ch_type,1_1
kcount,1
numberNandB,1
brightnessNandB,1
carpet pos,0
pc,0
Time (ms),CH1 Auto-Correlation
1.0,0.021650172770023346
2.0,0.0214176494628191
3.0,0.02120172791182995
4.0,0.020999882370233536
5.0,0.02080710045993328
6.0,0.020624656230211258
7.0,0.02044791541993618
8.0,0.020283708348870277
9.0,0.02011975646018982
10.0,0.01995996944606304
11.0,0.01979951187968254
12.0,0.019646888598799706
13.0,0.01950029283761978
14.0,0.01936338096857071
15.0,0.01922784186899662
16.0,0.01908857747912407
18.0,0.018821313977241516
20.0,0.018556997179985046
22.0,0.01830941252410412
24.0,0.018071943894028664
26.0,0.01784009486436844
28.0,0.017620401456952095
30.0,0.017410041764378548
32.0,0.01720767468214035
36.0,0.016818666830658913
40.0,0.016438636928796768
44.0,0.016075270250439644
48.0,0.015731684863567352
52.0,0.01540329772979021
56.0,0.015085190534591675
60.0,0.014742809347808361
64.0,0.014402695931494236
72.0,0.013822118751704693
80.0,0.0133462343364954
88.0,0.012842178344726562
96.0,0.01235052291303873
104.0,0.01190318912267685
112.0,0.011489198543131351
120.0,0.011082401499152184
128.0,0.010717151686549187
144.0,0.010193418711423874
160.0,0.009834673255681992
176.0,0.009520139545202255
192.0,0.009282343089580536
208.0,0.009009981527924538
224.0,0.008770722895860672
240.0,0.008587216027081013
256.0,0.008488130755722523
288.0,0.008774548768997192
320.0,0.008963597007095814
352.0,0.008814954198896885
384.0,0.008602486923336983
416.0,0.008352125063538551
448.0,0.007859478704631329
480.0,0.007012373302131891
512.0,0.006354023236781359
576.0,0.004692964721471071
640.0,0.0034179380163550377
704.0,0.002770793391391635
768.0,0.0027339893858879805
832.0,0.0025812468957155943
896.0,0.002476760419085622
960.0,0.0018935997504740953
1024.0,0.0008300211629830301
1152.0,-0.002463126089423895
1280.0,-0.0031361537985503674
1408.0,-0.003282569581642747
1536.0,-0.0058189029805362225
1664.0,-0.00563885597512126
1792.0,-0.004494713619351387
1920.0,-0.005075025372207165
2048.0,-0.005910998210310936
2304.0,-0.003748756367713213
2560.0,-0.0014365344541147351
2816.0,0.0008537975954823196
3072.0,-0.0001770378148648888
3328.0,-0.0006429244531318545
3584.0,-0.0005729678669013083
3840.0,-0.0011892809998244047
4096.0,-0.0023544831201434135
4608.0,-0.0018084170296788216
5120.0,-0.0013013010611757636
5632.0,-0.0020077961962670088
6144.0,0.00035894411848858
6656.0,0.0008847189019434154
7168.0,0.0019890563562512398
7680.0,0.0018586866790428758
8192.0,-0.0028044653590768576
end
