version,3.0
numOfCh,1
type,point
parent_name,19e3e_0dot08-1dot0
ch_type,1_1
kcount,1
numberNandB,1
brightnessNandB,1
carpet pos,0
pc,0
Time (ms),CH1 Auto-Correlation
1.0,0.018090274184942245
2.0,0.01783851720392704
3.0,0.01762804388999939
4.0,0.017436830326914787
5.0,0.017253389582037926
6.0,0.017062250524759293
7.0,0.016880277544260025
8.0,0.01669877953827381
9.0,0.01653382182121277
10.0,0.01637338288128376
11.0,0.01622195541858673
12.0,0.0160670205950737
13.0,0.015907512977719307
14.0,0.015750432386994362
15.0,0.01559479907155037
16.0,0.015453597530722618
18.0,0.015165516175329685
20.0,0.014904255047440529
22.0,0.014636593870818615
24.0,0.014398003928363323
26.0,0.014155020006000996
28.0,0.013917199335992336
30.0,0.01368732936680317
32.0,0.013459623791277409
36.0,0.013023342937231064
40.0,0.012641148641705513
44.0,0.012243388220667839
48.0,0.011844723485410213
52.0,0.011468864977359772
56.0,0.011100471951067448
60.0,0.010758871212601662
64.0,0.010444177314639091
72.0,0.009839813224971294
80.0,0.009310314431786537
88.0,0.008840752765536308
96.0,0.008433930575847626
104.0,0.008039787411689758
112.0,0.007657723501324654
120.0,0.0072914185002446175
128.0,0.006986649241298437
144.0,0.006531510502099991
160.0,0.006256989669054747
176.0,0.006089337170124054
192.0,0.0059665776789188385
208.0,0.005879682023078203
224.0,0.005730642005801201
240.0,0.0053052958101034164
256.0,0.0046846866607666016
288.0,0.003906404599547386
320.0,0.003575975075364113
352.0,0.0032764936331659555
384.0,0.0028277335222810507
416.0,0.002483030315488577
448.0,0.0022263687569648027
480.0,0.0018661852227523923
512.0,0.0014418979408219457
576.0,0.0015132171101868153
640.0,0.0015667567495256662
704.0,0.0008370219147764146
768.0,0.000205803124117665
832.0,-0.00045884575229138136
896.0,-0.0010632147314026952
960.0,-0.0012121191248297691
1024.0,-0.0017994774971157312
1152.0,-0.001566212740726769
1280.0,-0.001051926170475781
1408.0,-0.0005016522482037544
1536.0,0.00034265610156580806
1664.0,0.0007368660299107432
1792.0,0.0005772794247604907
1920.0,0.0008447429863736033
2048.0,0.0014676100108772516
2304.0,-0.0005113728693686426
2560.0,-0.0008430365705862641
2816.0,-0.00024380812828894705
3072.0,-0.00014453401672653854
3328.0,0.0018548468360677361
3584.0,0.0020553728099912405
3840.0,-0.00036466916208155453
4096.0,-0.000888328708242625
4608.0,-0.0023174467496573925
5120.0,-0.001104156137444079
5632.0,0.001165215391665697
6144.0,0.0012939877342432737
6656.0,0.002047956455498934
7168.0,0.0021090409718453884
7680.0,-0.0013489858247339725
8192.0,-0.003949818201363087
end
