version,3.0
numOfCh,1
type,point
parent_name,19e3e_0dot08-1dot0
ch_type,1_1
kcount,1
numberNandB,1
brightnessNandB,1
carpet pos,0
pc,0
Time (ms),CH1 Auto-Correlation
1.0,0.02317168191075325
2.0,0.022937137633562088
3.0,0.02271004021167755
4.0,0.022522833198308945
5.0,0.022338198497891426
6.0,0.022160764783620834
7.0,0.021983204409480095
8.0,0.021818649023771286
9.0,0.021654317155480385
10.0,0.021489474922418594
11.0,0.0213327556848526
12.0,0.021176010370254517
13.0,0.021031439304351807
14.0,0.02089017443358898
15.0,0.020751964300870895
16.0,0.020617609843611717
18.0,0.020342927426099777
20.0,0.02007312886416912
22.0,0.01981430873274803
24.0,0.01957162842154503
26.0,0.019323373213410378
28.0,0.019085204228758812
30.0,0.018855223432183266
32.0,0.018622057512402534
36.0,0.018199261277914047
40.0,0.01780768483877182
44.0,0.01743139885365963
48.0,0.017077187076210976
52.0,0.016691064462065697
56.0,0.01632639579474926
60.0,0.015972258523106575
64.0,0.015664134174585342
72.0,0.015062476508319378
80.0,0.01454921904951334
88.0,0.014041232876479626
96.0,0.013638900592923164
104.0,0.013334074057638645
112.0,0.013046275824308395
120.0,0.01273161917924881
128.0,0.012323480099439621
144.0,0.011397982947528362
160.0,0.010461798869073391
176.0,0.009746703319251537
192.0,0.009117009118199348
208.0,0.008466066792607307
224.0,0.00803387351334095
240.0,0.007733991369605064
256.0,0.007451285142451525
288.0,0.007016280200332403
320.0,0.006874343380331993
352.0,0.006655934266746044
384.0,0.006382392719388008
416.0,0.006097948178648949
448.0,0.005552611779421568
480.0,0.00437152199447155
512.0,0.0033715679310262203
576.0,0.002049834933131933
640.0,0.0011683632619678974
704.0,0.0010842559859156609
768.0,0.000855965365190059
832.0,0.0008019278757274151
896.0,0.0013591406168416142
960.0,0.002070195972919464
1024.0,0.00322788767516613
1152.0,0.00375669845379889
1280.0,0.0024374451022595167
1408.0,0.0021788431331515312
1536.0,0.0018481733277440071
1664.0,-0.00038430263521149755
1792.0,-0.0018688690615817904
1920.0,-0.0029433765448629856
2048.0,-0.0030623150523751974
2304.0,-0.002304770750924945
2560.0,-0.0027808016166090965
2816.0,-0.003629931015893817
3072.0,-0.0019633062183856964
3328.0,-0.0001983622059924528
3584.0,-0.002535328734666109
3840.0,-0.004161420743912458
4096.0,-0.006750982254743576
4608.0,-0.0012134684948250651
5120.0,0.00012806695303879678
5632.0,0.0011785614769905806
6144.0,0.002518713241443038
6656.0,0.0011358204064890742
7168.0,0.0009264356340281665
7680.0,0.004609252791851759
8192.0,0.003824810963124037
end
