version,3.0
numOfCh,1
type,point
parent_name,19e3e_0dot08-1dot0
ch_type,1_1
kcount,1
numberNandB,1
brightnessNandB,1
carpet pos,0
pc,0
Time (ms),CH1 Auto-Correlation
1.0,0.02137020044028759
2.0,0.02116503193974495
3.0,0.020967068150639534
4.0,0.020784299820661545
5.0,0.020593538880348206
6.0,0.020412230864167213
7.0,0.020230809226632118
8.0,0.02005622163414955
9.0,0.01988563872873783
10.0,0.019714277237653732
11.0,0.019542794674634933
12.0,0.019377566874027252
13.0,0.01921010948717594
14.0,0.01904323324561119
15.0,0.018868599086999893
16.0,0.01869993843138218
18.0,0.018368631601333618
20.0,0.018047090619802475
22.0,0.017752761021256447
24.0,0.017469771206378937
26.0,0.0171883013099432
28.0,0.016917359083890915
30.0,0.01664336398243904
32.0,0.01638418808579445
36.0,0.015913160517811775
40.0,0.015475726686418056
44.0,0.015042255632579327
48.0,0.014623837545514107
52.0,0.014236113987863064
56.0,0.01390423346310854
60.0,0.01359027810394764
64.0,0.013293571770191193
72.0,0.012757950462400913
80.0,0.01226070523262024
88.0,0.011779551394283772
96.0,0.011314226314425468
104.0,0.010982043109834194
112.0,0.010720244608819485
120.0,0.010410957038402557
128.0,0.009999309666454792
144.0,0.009134753607213497
160.0,0.00837764609605074
176.0,0.00772771704941988
192.0,0.007277298253029585
208.0,0.006940706167370081
224.0,0.00648850854486227
240.0,0.005817116238176823
256.0,0.005179247353225946
288.0,0.004203825257718563
320.0,0.0031738781835883856
352.0,0.0025867691729217768
384.0,0.0020490894094109535
416.0,0.0011546731693670154
448.0,0.00020012720779050142
480.0,-0.00011851427552755922
512.0,-0.00015772198094055057
576.0,-9.249610593542457e-05
640.0,1.2342456102487631e-05
704.0,-0.000981803284958005
768.0,-0.0012929396471008658
832.0,-0.0011147267650812864
896.0,-0.0008369548595510423
960.0,-0.00041857908945530653
1024.0,-0.00019962576334364712
1152.0,-0.0002455559151712805
1280.0,-0.0003178766346536577
1408.0,-0.0004935808829031885
1536.0,-0.001073658000677824
1664.0,-0.002211580518633127
1792.0,-0.002757958136498928
1920.0,-0.0025493046268820763
2048.0,-0.0013704090379178524
2304.0,-0.001674534403719008
2560.0,9.547175432089716e-05
2816.0,0.0015599388862028718
3072.0,0.003046067664399743
3328.0,0.0021981981117278337
3584.0,0.002281883964315057
3840.0,0.0006507702637463808
4096.0,-0.0003717193321790546
4608.0,-0.0037821405567228794
5120.0,-0.0035185138694941998
5632.0,3.967599695897661e-05
6144.0,-0.0003849835484288633
6656.0,0.0011714338324964046
7168.0,0.001997065730392933
7680.0,-0.0015184772200882435
8192.0,-0.0032270580995827913
end
