version,3.0
numOfCh,1
type,point
parent_name,19e3e_0dot08-1dot0
ch_type,1_1
kcount,1
numberNandB,1
brightnessNandB,1
carpet pos,0
pc,0
Time (ms),CH1 Auto-Correlation
1.0,0.01604173704981804
2.0,0.01580614596605301
3.0,0.015587489120662212
4.0,0.015383166261017323
5.0,0.015179131180047989
6.0,0.014989343471825123
7.0,0.014796100556850433
8.0,0.014618195593357086
9.0,0.014435308054089546
10.0,0.014242608100175858
11.0,0.014060217887163162
12.0,0.013868088833987713
13.0,0.013680119067430496
14.0,0.013501351699233055
15.0,0.013323293998837471
16.0,0.013143884018063545
18.0,0.01280212216079235
20.0,0.012447956018149853
22.0,0.012106153182685375
24.0,0.011772691272199154
26.0,0.011455362662672997
28.0,0.011150814592838287
30.0,0.010851667262613773
32.0,0.010576327331364155
36.0,0.010115574114024639
40.0,0.00970161147415638
44.0,0.009314273484051228
48.0,0.00895033497363329
52.0,0.008602287620306015
56.0,0.008266174234449863
60.0,0.007930845022201538
64.0,0.007609474938362837
72.0,0.007052390370517969
80.0,0.006543061230331659
88.0,0.006130159366875887
96.0,0.0057922773994505405
104.0,0.005485428497195244
112.0,0.0051988051272928715
120.0,0.004951718263328075
128.0,0.004626937676221132
144.0,0.003888327395543456
160.0,0.003240280319005251
176.0,0.0028457557782530785
192.0,0.002811130601912737
208.0,0.0026367013342678547
224.0,0.0020481590181589127
240.0,0.0014531046617776155
256.0,0.001100717461667955
288.0,0.0009042273159138858
320.0,0.0007427869131788611
352.0,0.00022114921011961997
384.0,-0.00031922486959956586
416.0,-0.0005067695747129619
448.0,-0.00044180406257510185
480.0,-0.0005974193336442113
512.0,-0.0007928819395601749
576.0,-0.0011663244804367423
640.0,-0.0011941823177039623
704.0,-0.001466662622988224
768.0,-0.0022568912245333195
832.0,-0.0014920320827513933
896.0,-0.0001337856228929013
960.0,-0.00030029015033505857
1024.0,0.0005533459479920566
1152.0,0.0010778580326586962
1280.0,0.0007534289616160095
1408.0,-0.00024015418603084981
1536.0,-0.000989740714430809
1664.0,-0.0009310616878792644
1792.0,-0.0003316803777124733
1920.0,-0.0012377506354823709
2048.0,-0.0008857878274284303
2304.0,0.000434068962931633
2560.0,-0.0004133008769713342
2816.0,-0.0011923915008082986
3072.0,-0.0016902192728593946
3328.0,-0.0005678794695995748
3584.0,0.00036866540904156864
3840.0,-0.0011745118536055088
4096.0,-0.0011277019511908293
4608.0,0.0007922958466224372
5120.0,0.00012033570965286344
5632.0,0.0015322541585192084
6144.0,0.001440888037905097
6656.0,0.0005838297074660659
7168.0,-0.0012960375752300024
7680.0,-0.0002204022166552022
8192.0,-0.001334739034064114
end
