version,3.0
numOfCh,1
type,point
parent_name,19e3e_0dot08-1dot0
ch_type,1_1
kcount,1
numberNandB,1
brightnessNandB,1
carpet pos,0
pc,0
Time (ms),CH1 Auto-Correlation
1.0,0.018331274390220642
2.0,0.018110208213329315
3.0,0.017908552661538124
4.0,0.01771666295826435
5.0,0.017529744654893875
6.0,0.01735134981572628
7.0,0.01717040315270424
8.0,0.016987288370728493
9.0,0.016812320798635483
10.0,0.016639137640595436
11.0,0.016471724957227707
12.0,0.016298562288284302
13.0,0.016128359362483025
14.0,0.015958130359649658
15.0,0.015791501849889755
16.0,0.015625542029738426
18.0,0.015305670909583569
20.0,0.014996704645454884
22.0,0.014700045809149742
24.0,0.014409524388611317
26.0,0.014132616110146046
28.0,0.013873719610273838
30.0,0.013624843209981918
32.0,0.013384087942540646
36.0,0.012946717441082
40.0,0.012522706761956215
44.0,0.01209824625402689
48.0,0.011694586835801601
52.0,0.011360534466803074
56.0,0.011090300977230072
60.0,0.010822245851159096
64.0,0.01056629791855812
72.0,0.010103349573910236
80.0,0.009657038375735283
88.0,0.009249145165085793
96.0,0.008857281878590584
104.0,0.008459012024104595
112.0,0.008026739582419395
120.0,0.007629393134266138
128.0,0.0073284562677145
144.0,0.006926432251930237
160.0,0.006393159739673138
176.0,0.005915533751249313
192.0,0.005620810203254223
208.0,0.005314629524946213
224.0,0.004960028454661369
240.0,0.004567394498735666
256.0,0.004346915986388922
288.0,0.004151937086135149
320.0,0.0035309134982526302
352.0,0.002780454931780696
384.0,0.0020517385564744473
416.0,0.0018174044089391828
448.0,0.0016073070000857115
480.0,0.0011124826269224286
512.0,0.0012846490135416389
576.0,0.001930217375047505
640.0,0.0031504372600466013
704.0,0.002829627599567175
768.0,0.0020180821884423494
832.0,0.0010758587159216404
896.0,0.00019302514556329697
960.0,0.00021297454077284783
1024.0,-0.0008285493240691721
1152.0,-0.000756792607717216
1280.0,6.036550257704221e-05
1408.0,-0.0009462713496759534
1536.0,-0.001963048940524459
1664.0,-0.0019368260400369763
1792.0,-0.0010474894661456347
1920.0,0.0008509703329764307
2048.0,0.0017415034817531705
2304.0,-0.0016935099847614765
2560.0,-0.0015871343202888966
2816.0,-0.0011044192360714078
3072.0,-0.005163867492228746
3328.0,-0.003982649650424719
3584.0,-0.0034883012995123863
3840.0,-0.0027274813037365675
4096.0,0.00032459181966260076
4608.0,0.0005510745104402304
5120.0,0.0017111104680225253
5632.0,0.0014118116814643145
6144.0,0.0010312659433111548
6656.0,0.003024840261787176
7168.0,0.0026357267051935196
7680.0,0.0005119338165968657
8192.0,-0.0017614695243537426
end
