version,3.0
numOfCh,1
type,point
parent_name,19e3e_0dot08-1dot0
ch_type,1_1
kcount,1
numberNandB,1
brightnessNandB,1
carpet pos,0
pc,0
Time (ms),CH1 Auto-Correlation
1.0,0.016247006133198738
2.0,0.016065506264567375
3.0,0.015890346840023994
4.0,0.01572040468454361
5.0,0.01555266696959734
6.0,0.015383749268949032
7.0,0.015217076055705547
8.0,0.015059505589306355
9.0,0.01490094792097807
10.0,0.014746265485882759
11.0,0.014596163295209408
12.0,0.014446133747696877
13.0,0.014297173358500004
14.0,0.014153446070849895
15.0,0.01401194091886282
16.0,0.013873224146664143
18.0,0.013601748272776604
20.0,0.013334081508219242
22.0,0.013074462302029133
24.0,0.012812485918402672
26.0,0.012556827627122402
28.0,0.012310625053942204
30.0,0.012075447477400303
32.0,0.01186547614634037
36.0,0.011483379639685154
40.0,0.011092455126345158
44.0,0.010705004446208477
48.0,0.010340793058276176
52.0,0.009990861639380455
56.0,0.009683717973530293
60.0,0.009409422054886818
64.0,0.00913278479129076
72.0,0.008590640500187874
80.0,0.008118961937725544
88.0,0.007718556560575962
96.0,0.007358064875006676
104.0,0.007052035070955753
112.0,0.00678276689723134
120.0,0.006481085438281298
128.0,0.006249377969652414
144.0,0.005665637087076902
160.0,0.005193402525037527
176.0,0.004984356462955475
192.0,0.0048552341759204865
208.0,0.004753179848194122
224.0,0.004718049429357052
240.0,0.004641283303499222
256.0,0.004421293269842863
288.0,0.004105010535567999
320.0,0.004274084232747555
352.0,0.003998450934886932
384.0,0.0035082295071333647
416.0,0.0033716519828885794
448.0,0.0030703849624842405
480.0,0.002659776946529746
512.0,0.002178761875256896
576.0,0.0011929972097277641
640.0,0.0005886974395252764
704.0,0.0005835177726112306
768.0,0.0005745369708165526
832.0,0.0001599526294739917
896.0,-0.00022683775750920177
960.0,-0.0007169279269874096
1024.0,-0.0006669223075732589
1152.0,-0.00040065377834253013
1280.0,0.0006797685055062175
1408.0,0.0001470833522034809
1536.0,0.0003053133259527385
1664.0,0.0007370900129899383
1792.0,-0.0011827877024188638
1920.0,-0.0014516657683998346
2048.0,-0.00041441243956796825
2304.0,0.0016099647618830204
2560.0,0.003164664376527071
2816.0,0.003122329479083419
3072.0,0.001323733595199883
3328.0,-0.00022071129933465272
3584.0,-0.0006231185398064554
3840.0,0.0014111048076301813
4096.0,0.00040294515201821923
4608.0,0.0006397455581463873
5120.0,0.0005849841400049627
5632.0,-0.0010873702121898532
6144.0,-0.003230014583095908
6656.0,-0.0032527903094887733
7168.0,-0.0005777206970378757
7680.0,0.0013870297698304057
8192.0,-0.00015960147720761597
end
