version,3.0
numOfCh,1
type,point
parent_name,19e3e_0dot08-1dot0
ch_type,1_1
kcount,1
numberNandB,1
brightnessNandB,1
carpet pos,0
pc,0
Time (ms),CH1 Auto-Correlation
1.0,0.020923253148794174
2.0,0.020687052980065346
3.0,0.020478134974837303
4.0,0.020271487534046173
5.0,0.020073018968105316
6.0,0.019876431673765182
7.0,0.019696643576025963
8.0,0.019509440287947655
9.0,0.019313452765345573
10.0,0.019134750589728355
11.0,0.018962139263749123
12.0,0.018784813582897186
13.0,0.018606387078762054
14.0,0.01842985861003399
15.0,0.018262134864926338
16.0,0.018093040212988853
18.0,0.017783822491765022
20.0,0.0174858421087265
22.0,0.017176860943436623
24.0,0.016881732270121574
26.0,0.01661071367561817
28.0,0.01635613478720188
30.0,0.01611775904893875
32.0,0.015888256952166557
36.0,0.015407608821988106
40.0,0.014929777011275291
44.0,0.014481463469564915
48.0,0.014067229814827442
52.0,0.01364971324801445
56.0,0.013235754333436489
60.0,0.012809906154870987
64.0,0.01237686350941658
72.0,0.01152352336794138
80.0,0.010773394256830215
88.0,0.010121720843017101
96.0,0.009504291228950024
104.0,0.008826419711112976
112.0,0.008123788982629776
120.0,0.007398255169391632
128.0,0.006725805811583996
144.0,0.005653345491737127
160.0,0.004893006291240454
176.0,0.004350732546299696
192.0,0.003796918550506234
208.0,0.003421155968680978
224.0,0.0030021429993212223
240.0,0.0024807017762213945
256.0,0.0020705920178443193
288.0,0.0016799597069621086
320.0,0.0015482633607462049
352.0,0.0014744779327884316
384.0,0.0008665731875225902
416.0,-5.6257646065205336e-05
448.0,-0.000337064266204834
480.0,-0.0004455177113413811
512.0,-0.0007122582173906267
576.0,-0.0006529728416353464
640.0,-9.771823533810675e-05
704.0,0.0008268458768725395
768.0,0.0007985755219124258
832.0,0.00045927640167064965
896.0,-0.00035490584559738636
960.0,-0.000914447009563446
1024.0,-0.0005962898139841855
1152.0,-0.0005256332224234939
1280.0,-0.0003357153036631644
1408.0,-0.0005034969071857631
1536.0,-0.00045281200436875224
1664.0,-0.0015291257295757532
1792.0,-0.00026129293837584555
1920.0,0.0014477648073807359
2048.0,-0.00021200499031692743
2304.0,-0.0012326401192694902
2560.0,-3.216088589397259e-05
2816.0,-9.327050793217495e-05
3072.0,-0.0030877997633069754
3328.0,-6.726595893269405e-05
3584.0,0.00039953572559170425
3840.0,0.0016316318651661277
4096.0,0.0006122185732237995
4608.0,0.002051726682111621
5120.0,-0.00239850883372128
5632.0,-0.0010854023275896907
6144.0,-8.492502820445225e-05
6656.0,0.0011111465282738209
7168.0,-0.0016554432222619653
7680.0,0.0017836858751252294
8192.0,-0.0020484300330281258
end
