version,3.0
numOfCh,1
type,point
parent_name,19e3e_0dot08-1dot0
ch_type,1_1
kcount,1
numberNandB,1
brightnessNandB,1
carpet pos,0
pc,0
Time (ms),CH1 Auto-Correlation
1.0,0.018282487988471985
2.0,0.018088122829794884
3.0,0.017902083694934845
4.0,0.017718447372317314
5.0,0.017533859238028526
6.0,0.017356684431433678
7.0,0.017186768352985382
8.0,0.017023075371980667
9.0,0.016859043389558792
10.0,0.016696613281965256
11.0,0.01653284765779972
12.0,0.016370689496397972
13.0,0.016215147450566292
14.0,0.016059860587120056
15.0,0.015909744426608086
16.0,0.01576746441423893
18.0,0.015492675825953484
20.0,0.015213283710181713
22.0,0.014939063228666782
24.0,0.014681704342365265
26.0,0.014436825178563595
28.0,0.014203290455043316
30.0,0.013978092931210995
32.0,0.013757925480604172
36.0,0.01332872174680233
40.0,0.01291007548570633
44.0,0.012506350874900818
48.0,0.012138293124735355
52.0,0.01180946733802557
56.0,0.011494592763483524
60.0,0.011198309250175953
64.0,0.010904948227107525
72.0,0.010390356183052063
80.0,0.00995172280818224
88.0,0.009555970318615437
96.0,0.009198732674121857
104.0,0.00884483102709055
112.0,0.008506831713020802
120.0,0.008176242001354694
128.0,0.007840621285140514
144.0,0.007143301423639059
160.0,0.006516265217214823
176.0,0.005930682644248009
192.0,0.005452731158584356
208.0,0.004962871316820383
224.0,0.0043771592900156975
240.0,0.003924881108105183
256.0,0.0034791245125234127
288.0,0.0030329013243317604
320.0,0.002745826728641987
352.0,0.0019161010859534144
384.0,0.0012786180013790727
416.0,0.0009391437633894384
448.0,0.00037575149326585233
480.0,-0.0003611822030507028
512.0,-0.0008608896750956774
576.0,-0.0006075644632801414
640.0,-0.00047543676919303834
704.0,-0.0006952938856557012
768.0,-0.0006406891625374556
832.0,-0.000755345681682229
896.0,-0.0003615462628658861
960.0,-0.0005556960240937769
1024.0,-6.50977817713283e-05
1152.0,0.0012564884964376688
1280.0,0.0017584307352080941
1408.0,0.0017307365778833628
1536.0,0.0009361085249111056
1664.0,-0.0006157004390843213
1792.0,-0.002392733236774802
1920.0,-0.002037731697782874
2048.0,-0.0011000361992046237
2304.0,-0.0007327473722398281
2560.0,0.0014035666827112436
2816.0,0.0010663438588380814
3072.0,-0.003964895848184824
3328.0,-0.006045983172953129
3584.0,-0.0017790202982723713
3840.0,0.0013720081187784672
4096.0,6.525030767079443e-05
4608.0,-0.001797797391191125
5120.0,-0.0004677808319684118
5632.0,-0.0019716748502105474
6144.0,-0.0012952816905453801
6656.0,0.0027893492951989174
7168.0,-0.0012829964980483055
7680.0,-0.00024310950539074838
8192.0,0.0013004154898226261
end
