version,3.0
numOfCh,1
type,point
parent_name,19e3e_0dot08-1dot0
ch_type,1_1
kcount,1
numberNandB,1
brightnessNandB,1
carpet pos,0
pc,0
Time (ms),CH1 Auto-Correlation
1.0,0.02410745993256569
2.0,0.023905402049422264
3.0,0.023710399866104126
4.0,0.023517541587352753
5.0,0.02333388477563858
6.0,0.02315388433635235
7.0,0.02297777123749256
8.0,0.022804681211709976
9.0,0.022630972787737846
10.0,0.022462032735347748
11.0,0.022290322929620743
12.0,0.022119134664535522
13.0,0.021948277950286865
14.0,0.02178318053483963
15.0,0.021612679585814476
16.0,0.021442605182528496
18.0,0.02111460082232952
20.0,0.02079339697957039
22.0,0.020478978753089905
24.0,0.02017383649945259
26.0,0.01987397111952305
28.0,0.01958707720041275
30.0,0.019307849928736687
32.0,0.019039615988731384
36.0,0.01851748675107956
40.0,0.01801474764943123
44.0,0.017549820244312286
48.0,0.017100131139159203
52.0,0.016644755378365517
56.0,0.01621338352560997
60.0,0.015801535919308662
64.0,0.015419169329106808
72.0,0.01475721225142479
80.0,0.014187865890562534
88.0,0.013638675212860107
96.0,0.01311424933373928
104.0,0.012652356177568436
112.0,0.012292086146771908
120.0,0.012006840668618679
128.0,0.011761302128434181
144.0,0.011345687322318554
160.0,0.010935718193650246
176.0,0.010400785133242607
192.0,0.01006762683391571
208.0,0.009830642491579056
224.0,0.009609228000044823
240.0,0.009304934181272984
256.0,0.008815950714051723
288.0,0.007866252213716507
320.0,0.006940636318176985
352.0,0.006482440046966076
384.0,0.006285338196903467
416.0,0.0057976930402219296
448.0,0.005205315537750721
480.0,0.005023136734962463
512.0,0.004667444620281458
576.0,0.003574264934286475
640.0,0.002427178667858243
704.0,0.002176717622205615
768.0,0.0014766193926334381
832.0,0.0009118925081565976
896.0,0.0009247757261618972
960.0,0.0021973643451929092
1024.0,0.003268512198701501
1152.0,0.001515500945970416
1280.0,0.000418290524976328
1408.0,-0.00048733167932368815
1536.0,-0.001795715419575572
1664.0,-0.0017090887995436788
1792.0,-0.0030450064223259687
1920.0,-0.004968611989170313
2048.0,-0.004940214101225138
2304.0,-0.0052225845865905285
2560.0,-0.004838080145418644
2816.0,-0.004647537134587765
3072.0,-0.005197037477046251
3328.0,-0.0034732006024569273
3584.0,-0.0013385624624788761
3840.0,0.00012429953494574875
4096.0,-0.003648598212748766
4608.0,-0.002883433597162366
5120.0,-0.0002358921483391896
5632.0,0.00011976383393630385
6144.0,0.0038369246758520603
6656.0,0.006504342425614595
7168.0,0.005323898047208786
7680.0,0.003708835691213608
8192.0,0.00085469800978899
end
