version,3.0
numOfCh,1
type,point
parent_name,19e3e_0dot08-1dot0
ch_type,1_1
kcount,1
numberNandB,1
brightnessNandB,1
carpet pos,0
pc,0
Time (ms),CH1 Auto-Correlation
1.0,0.029827440157532692
2.0,0.029628250747919083
3.0,0.029435552656650543
4.0,0.029249388724565506
5.0,0.029067883267998695
6.0,0.028880774974822998
7.0,0.028693394735455513
8.0,0.028512271121144295
9.0,0.028334761038422585
10.0,0.02816462330520153
11.0,0.02799595333635807
12.0,0.027830395847558975
13.0,0.02766459621489048
14.0,0.02749703824520111
15.0,0.027334140613675117
16.0,0.027176175266504288
18.0,0.026865851134061813
20.0,0.02656468190252781
22.0,0.026266563683748245
24.0,0.02596539631485939
26.0,0.025667956098914146
28.0,0.025359082967042923
30.0,0.025060294196009636
32.0,0.024753432720899582
36.0,0.024174239486455917
40.0,0.023631324991583824
44.0,0.02312997728586197
48.0,0.022643616423010826
52.0,0.02218187414109707
56.0,0.021738877519965172
60.0,0.021298866719007492
64.0,0.020877936854958534
72.0,0.020107124000787735
80.0,0.019456805661320686
88.0,0.01897837594151497
96.0,0.018565235659480095
104.0,0.018158096820116043
112.0,0.017743032425642014
120.0,0.01731155999004841
128.0,0.01691758818924427
144.0,0.015929721295833588
160.0,0.01488122995942831
176.0,0.013813231140375137
192.0,0.01315175462514162
208.0,0.012631748802959919
224.0,0.012171968817710876
240.0,0.011604520492255688
256.0,0.011111220344901085
288.0,0.010688229463994503
320.0,0.010521523654460907
352.0,0.010286452248692513
384.0,0.009433484636247158
416.0,0.008458917960524559
448.0,0.007384751457720995
480.0,0.006590794771909714
512.0,0.006129435263574123
576.0,0.004937727935612202
640.0,0.00418829033151269
704.0,0.003929378464818001
768.0,0.0032734177075326443
832.0,0.0022420058958232403
896.0,0.0003203164378646761
960.0,-0.00142585055436939
1024.0,-0.002986058359965682
1152.0,-0.004520711489021778
1280.0,-0.005397027358412743
1408.0,-0.0057545071467757225
1536.0,-0.0042814533226192
1664.0,-0.002596908947452903
1792.0,-0.003723056521266699
1920.0,-0.0037618628703057766
2048.0,-0.0018542740726843476
2304.0,-0.003032992361113429
2560.0,-0.004224575590342283
2816.0,-0.004319789353758097
3072.0,-0.000923170184250921
3328.0,0.002057225676253438
3584.0,0.0034480656031519175
3840.0,0.007611603941768408
4096.0,0.0067964717745780945
4608.0,-0.001372434082441032
5120.0,-0.005753997713327408
5632.0,-0.008543284609913826
6144.0,-0.0049469065852463245
6656.0,-0.0010974928736686707
7168.0,0.0016793932300060987
7680.0,0.002705866936594248
8192.0,0.005109983030706644
end
