version,3.0
numOfCh,1
type,point
parent_name,dirty_1dot0-1dot0
ch_type,1_1
kcount,1
numberNandB,1
brightnessNandB,1
carpet pos,0
pc,0
Time (ms),CH1 Auto-Correlation
1.0,0.1718856394290924
2.0,0.15804556012153625
3.0,0.14581970870494843
4.0,0.13525569438934326
5.0,0.12545844912528992
6.0,0.11677587032318115
7.0,0.10824652016162872
8.0,0.10083270072937012
9.0,0.09433797746896744
10.0,0.0892123356461525
11.0,0.08375755697488785
12.0,0.07873230427503586
13.0,0.07491234689950943
14.0,0.07182034850120544
15.0,0.069039486348629
16.0,0.06598139554262161
18.0,0.06056999787688255
20.0,0.056048955768346786
22.0,0.05188611149787903
24.0,0.04909295216202736
26.0,0.046723295003175735
28.0,0.04342890903353691
30.0,0.0402899868786335
32.0,0.038306813687086105
36.0,0.0358097180724144
40.0,0.03665786609053612
44.0,0.03549734875559807
48.0,0.031037474051117897
52.0,0.027032028883695602
56.0,0.02385486289858818
60.0,0.021917762234807014
64.0,0.019181469455361366
72.0,0.013488533906638622
80.0,0.007604027632623911
88.0,0.006947845686227083
96.0,0.003088846569880843
104.0,-0.002126542152836919
112.0,-0.003316338174045086
120.0,-0.004322232212871313
128.0,-0.006952935829758644
144.0,-0.006456759758293629
160.0,-0.006745095364749432
176.0,-0.003245531115680933
192.0,-0.005444261711090803
208.0,-0.003901180112734437
224.0,-0.00015881480067037046
240.0,-0.0030121721792966127
256.0,-0.0024628147948533297
288.0,-0.0027403857093304396
320.0,-0.0032841558568179607
352.0,-0.005186648573726416
384.0,-0.00786000955849886
416.0,-0.004534738138318062
448.0,-0.003254939801990986
480.0,-0.0030370440799742937
512.0,0.0009797154925763607
576.0,-0.0034469934180378914
640.0,-2.5967265173676424e-05
704.0,0.003240696620196104
768.0,0.002160619245842099
832.0,-0.0037944670766592026
896.0,-0.010553361847996712
960.0,-0.007944010198116302
1024.0,-0.0004763689066749066
1152.0,0.012202954851090908
1280.0,-0.0013240185799077153
1408.0,-0.007702731993049383
1536.0,-0.004265645053237677
1664.0,0.00811154954135418
1792.0,0.012360308319330215
1920.0,-0.00689020985737443
2048.0,-0.002912042196840048
2304.0,0.0006890195654705167
2560.0,0.004801569040864706
2816.0,-0.002798397559672594
3072.0,-0.003313046181574464
3328.0,-0.005456728860735893
3584.0,-0.002284146612510085
3840.0,0.0009240019717253745
4096.0,-5.626081474474631e-05
4608.0,0.00037737167440354824
5120.0,-0.0012611850397661328
5632.0,-0.00024050482898019254
6144.0,-0.001111467368900776
6656.0,-0.0010128353023901582
7168.0,-0.0008796326583251357
7680.0,-0.0014801000943407416
8192.0,-0.00029742441256530583
9216.0,-0.0004738910065498203
10240.0,0.004640884697437286
11264.0,-0.0028860101010650396
12288.0,0.004553596023470163
13312.0,-0.004492544569075108
14336.0,0.0016772797098383307
end
