version,3.0
numOfCh,1
type,point
parent_name,dirty_1dot0-1dot0
ch_type,1_1
kcount,1
numberNandB,1
brightnessNandB,1
carpet pos,0
pc,0
Time (ms),CH1 Auto-Correlation
1.0,0.13818344473838806
2.0,0.1266944855451584
3.0,0.11745845526456833
4.0,0.10866132378578186
5.0,0.10095059126615524
6.0,0.0940040871500969
7.0,0.08865322172641754
8.0,0.08445082604885101
9.0,0.08066233992576599
10.0,0.07750514149665833
11.0,0.07368404418230057
12.0,0.07093104720115662
13.0,0.06816946715116501
14.0,0.06535713374614716
15.0,0.0622454471886158
16.0,0.059723395854234695
18.0,0.05612986162304878
20.0,0.05382993817329407
22.0,0.0522502139210701
24.0,0.05097239837050438
26.0,0.05056292936205864
28.0,0.04967782273888588
30.0,0.04779958352446556
32.0,0.044305961579084396
36.0,0.038787588477134705
40.0,0.03523724898695946
44.0,0.032825812697410583
48.0,0.029340045526623726
52.0,0.028413597494363785
56.0,0.026490002870559692
60.0,0.024570966139435768
64.0,0.022025879472494125
72.0,0.017210207879543304
80.0,0.015196137130260468
88.0,0.013099410571157932
96.0,0.012978029437363148
104.0,0.011453545652329922
112.0,0.010494778864085674
120.0,0.010212318040430546
128.0,0.009941275231540203
144.0,0.017074113711714745
160.0,0.013031373731791973
176.0,0.011038978584110737
192.0,0.00783742405474186
208.0,0.005784906446933746
224.0,0.009541058912873268
240.0,0.010463325306773186
256.0,0.009527908638119698
288.0,0.009842297993600368
320.0,0.008653481490910053
352.0,0.008280763402581215
384.0,0.007066601421684027
416.0,0.008753743954002857
448.0,0.0065869237296283245
480.0,0.004722782876342535
512.0,-0.00045393058098852634
576.0,0.0013502066722139716
640.0,0.0023926820140331984
704.0,0.0040159341879189014
768.0,0.0002038744423771277
832.0,-5.571522342506796e-05
896.0,-0.00446890015155077
960.0,-0.0022242406848818064
1024.0,0.0007658593822270632
1152.0,-0.0002442853001412004
1280.0,0.001983167603611946
1408.0,-4.862989590037614e-05
1536.0,0.005780739244073629
1664.0,-0.0030656037852168083
1792.0,0.0019982391968369484
1920.0,0.009928115643560886
2048.0,-0.006690040696412325
2304.0,0.013185062445700169
2560.0,-0.00037582655204460025
2816.0,0.008029603399336338
3072.0,0.005012021865695715
3328.0,-0.004292594268918037
3584.0,-0.005889221094548702
3840.0,-0.0038951269816607237
4096.0,-0.0015922996681183577
4608.0,0.005900406278669834
5120.0,0.004945108667016029
5632.0,-0.009844070300459862
6144.0,-0.0041694012470543385
6656.0,0.0018843295983970165
7168.0,-0.0048447404988110065
7680.0,0.002266981638967991
8192.0,-0.0029947638977319
9216.0,-0.0014161227736622095
10240.0,-0.007725964300334454
11264.0,-0.010069192387163639
12288.0,-0.00041727989446371794
13312.0,-0.0038565509021282196
14336.0,0.005394428037106991
end
