version,3.0
numOfCh,1
type,point
parent_name,dirty_1dot0-1dot0
ch_type,1_1
kcount,1
numberNandB,1
brightnessNandB,1
carpet pos,0
pc,0
Time (ms),CH1 Auto-Correlation
1.0,0.32022443413734436
2.0,0.29949986934661865
3.0,0.27814099192619324
4.0,0.2603468894958496
5.0,0.24307265877723694
6.0,0.22859743237495422
7.0,0.2156400829553604
8.0,0.20356479287147522
9.0,0.19302985072135925
10.0,0.18396085500717163
11.0,0.17655189335346222
12.0,0.1708165407180786
13.0,0.16538281738758087
14.0,0.15988953411579132
15.0,0.15645460784435272
16.0,0.15266816318035126
18.0,0.1466383934020996
20.0,0.14006417989730835
22.0,0.13394954800605774
24.0,0.12818118929862976
26.0,0.12519678473472595
28.0,0.12146686017513275
30.0,0.11530830711126328
32.0,0.10926847904920578
36.0,0.09528261423110962
40.0,0.08399538695812225
44.0,0.07497196644544601
48.0,0.06703741103410721
52.0,0.0617288276553154
56.0,0.05400751158595085
60.0,0.048859499394893646
64.0,0.0456991121172905
72.0,0.039358459413051605
80.0,0.03702626749873161
88.0,0.033613815903663635
96.0,0.02624889276921749
104.0,0.022513465955853462
112.0,0.023438934236764908
120.0,0.019588936120271683
128.0,0.0132144158706069
144.0,0.012299398891627789
160.0,0.006038337014615536
176.0,0.0018073663813993335
192.0,-0.002017411170527339
208.0,0.0018680000212043524
224.0,0.0008824606775306165
240.0,0.000518964312504977
256.0,-0.0019996140617877245
288.0,0.00924663431942463
320.0,0.006470738910138607
352.0,-0.00031733670039102435
384.0,-0.0053222221322357655
416.0,-0.004653105046600103
448.0,-0.006192592438310385
480.0,-0.007133507169783115
512.0,-0.0061115785501897335
576.0,-0.008129987865686417
640.0,-0.020130818709731102
704.0,-0.01629757322371006
768.0,-0.006634347606450319
832.0,0.02034788951277733
896.0,0.02300274185836315
960.0,0.02258441410958767
1024.0,0.022330736741423607
1152.0,0.009140431880950928
1280.0,0.005404895171523094
1408.0,-0.004919728729873896
1536.0,-0.0041246493346989155
1664.0,-0.00891943834722042
1792.0,-0.0017508839955553412
1920.0,0.007824466563761234
2048.0,0.01555382739752531
2304.0,0.008719825185835361
2560.0,-0.004791990853846073
2816.0,0.009836049750447273
3072.0,0.004338432569056749
3328.0,-0.00801489595323801
3584.0,0.0036378297954797745
3840.0,0.006999509874731302
4096.0,0.001259813318029046
4608.0,-0.0025852820836007595
5120.0,0.01438444759696722
5632.0,-0.0007968404679559171
6144.0,0.0005284540820866823
6656.0,-0.00992906466126442
7168.0,-0.0033060340210795403
7680.0,-0.01071000937372446
8192.0,-0.014947573654353619
9216.0,-0.002446367871016264
10240.0,-0.006994755007326603
11264.0,-0.013207283802330494
12288.0,-0.0012491761008277535
13312.0,-0.017239179462194443
14336.0,0.011219586245715618
end
