version,3.0
numOfCh,1
type,point
parent_name,dirty_1dot0-1dot0
ch_type,1_1
kcount,1
numberNandB,1
brightnessNandB,1
carpet pos,0
pc,0
Time (ms),CH1 Auto-Correlation
1.0,0.08053001016378403
2.0,0.0728980079293251
3.0,0.06681134551763535
4.0,0.061362091451883316
5.0,0.05622798949480057
6.0,0.05159008502960205
7.0,0.047859787940979004
8.0,0.04490329697728157
9.0,0.04217727854847908
10.0,0.03959113359451294
11.0,0.03728347644209862
12.0,0.03485282510519028
13.0,0.03282976895570755
14.0,0.030714208260178566
15.0,0.02832855097949505
16.0,0.02629883587360382
18.0,0.023250637575984
20.0,0.020342718809843063
22.0,0.018547041341662407
24.0,0.016716422513127327
26.0,0.015573451295495033
28.0,0.01443400513380766
30.0,0.013152999803423882
32.0,0.012276376597583294
36.0,0.011782429181039333
40.0,0.010321076028048992
44.0,0.008083156310021877
48.0,0.00712567986920476
52.0,0.006323960144072771
56.0,0.005897273775190115
60.0,0.005523504223674536
64.0,0.005988863296806812
72.0,0.006965346168726683
80.0,0.006554110441356897
88.0,0.006197747774422169
96.0,0.005317448638379574
104.0,0.0039771548472344875
112.0,0.0027545185294002295
120.0,0.0008796084439381957
128.0,0.0003655030741356313
144.0,0.002335443627089262
160.0,0.001934124855324626
176.0,0.0004829028039239347
192.0,1.0639993888617028e-05
208.0,0.0008338338229805231
224.0,-0.0016267430037260056
240.0,-0.003092315047979355
256.0,-0.002753644483163953
288.0,-0.0023038776125758886
320.0,-0.0008960989653132856
352.0,-0.001720365253277123
384.0,7.831046241335571e-05
416.0,-0.000925230560824275
448.0,-0.002617444610223174
480.0,-0.0005960635608062148
512.0,0.0009934976696968079
576.0,0.000733672350179404
640.0,0.0009831252973526716
704.0,0.0012190657434985042
768.0,-0.00010069676500279456
832.0,0.00013801887689623982
896.0,0.001977830193936825
960.0,-0.0015432313084602356
1024.0,9.957022120943293e-05
1152.0,-0.0035268343053758144
1280.0,-0.0032692665699869394
1408.0,-0.000580848369281739
1536.0,0.0006027557537890971
1664.0,-0.0017747191013768315
1792.0,-0.0021298108622431755
1920.0,0.001388081000186503
2048.0,0.00533211138099432
2304.0,0.001637306995689869
2560.0,0.001637902925722301
2816.0,0.0002712356799747795
3072.0,-0.0019060317426919937
3328.0,-0.001440914231352508
3584.0,-0.0011491237673908472
3840.0,-0.0009259757935069501
4096.0,0.0007009252440184355
4608.0,0.0018214795272797346
5120.0,-0.0013353178510442376
5632.0,-0.0011164791649207473
6144.0,-0.000941118283662945
6656.0,0.0023327828384935856
7168.0,0.00023040236555971205
7680.0,-0.0008371191215701401
8192.0,9.314544877270237e-05
9216.0,-0.0014799508498981595
10240.0,-0.0003520532336551696
11264.0,-0.0016864425269886851
12288.0,0.001333676977083087
13312.0,-0.00082823057891801
14336.0,0.001148237963207066
end
