version,3.0
numOfCh,1
type,point
parent_name,dirty_1dot0-1dot0
ch_type,1_1
kcount,1
numberNandB,1
brightnessNandB,1
carpet pos,0
pc,0
Time (ms),CH1 Auto-Correlation
1.0,0.098248191177845
2.0,0.09007659554481506
3.0,0.08388138562440872
4.0,0.07735172659158707
5.0,0.07163441926240921
6.0,0.06635074317455292
7.0,0.06188686564564705
8.0,0.05760132893919945
9.0,0.05424033850431442
10.0,0.051218755543231964
11.0,0.04843777418136597
12.0,0.04554370418190956
13.0,0.04345736280083656
14.0,0.040427349507808685
15.0,0.038240447640419006
16.0,0.0366765595972538
18.0,0.03320090472698212
20.0,0.029886430129408836
22.0,0.027195632457733154
24.0,0.024528926238417625
26.0,0.021101875230669975
28.0,0.017847126349806786
30.0,0.01523512788116932
32.0,0.012552157044410706
36.0,0.009740045294165611
40.0,0.00873420387506485
44.0,0.009037983603775501
48.0,0.010403899475932121
52.0,0.01117586437612772
56.0,0.010622365400195122
60.0,0.010031181387603283
64.0,0.009107454679906368
72.0,0.008138422854244709
80.0,0.00709142629057169
88.0,0.0047461544163525105
96.0,0.00305021065287292
104.0,0.0005511629278771579
112.0,-0.0010210972977802157
120.0,-0.0007613017223775387
128.0,0.0016157119534909725
144.0,0.0011378180934116244
160.0,0.0003540002799127251
176.0,0.0013651984045282006
192.0,0.0013945034006610513
208.0,-0.0008433955954387784
224.0,0.0005795633187517524
240.0,0.004814756568521261
256.0,0.0062320176512002945
288.0,0.005366298835724592
320.0,0.0027111826930195093
352.0,8.481067197863013e-05
384.0,-0.0024630033876746893
416.0,-0.0006048679351806641
448.0,-0.0008055720827542245
480.0,0.0020740299951285124
512.0,-0.0006157445604912937
576.0,9.64396313065663e-05
640.0,-0.002373172203078866
704.0,-0.0013264092849567533
768.0,-0.0006474466645158827
832.0,4.111788439331576e-05
896.0,-0.0018066623015329242
960.0,-0.00032688200008124113
1024.0,-0.0017428398132324219
1152.0,-0.0001238814293174073
1280.0,-0.003753792494535446
1408.0,-0.00278015760704875
1536.0,-0.0030123498290777206
1664.0,-0.0008335167076438665
1792.0,-0.0019736159592866898
1920.0,0.0017999913543462753
2048.0,0.0024506677873432636
2304.0,-0.00032518996158614755
2560.0,-0.0016956694889813662
2816.0,-0.0015163676580414176
3072.0,-0.0012297941138967872
3328.0,-0.0007509025163017213
3584.0,-0.0013470486737787724
3840.0,0.0014447990106418729
4096.0,0.0007828283123672009
4608.0,-0.0009437062544748187
5120.0,0.0003474585246294737
5632.0,0.00318909902125597
6144.0,0.005525371991097927
6656.0,-0.0008111771894618869
7168.0,-0.002663761842995882
7680.0,-0.0021592548582702875
8192.0,-0.0024785103742033243
9216.0,-0.0006793135544285178
10240.0,0.0010657049715518951
11264.0,0.0008373578311875463
12288.0,-0.0001516514748800546
13312.0,-0.0011440998641774058
14336.0,-0.004513791296631098
end
