version,3.0
numOfCh,1
type,point
parent_name,dirty_1dot0-1dot0
ch_type,1_1
kcount,1
numberNandB,1
brightnessNandB,1
carpet pos,0
pc,0
Time (ms),CH1 Auto-Correlation
1.0,0.15105393528938293
2.0,0.13764476776123047
3.0,0.12630608677864075
4.0,0.11824872344732285
5.0,0.11117929965257645
6.0,0.1052461713552475
7.0,0.09944769740104675
8.0,0.09480582922697067
9.0,0.09111945331096649
10.0,0.08575116842985153
11.0,0.08118169009685516
12.0,0.0775507241487503
13.0,0.07607254385948181
14.0,0.07455497235059738
15.0,0.07131212204694748
16.0,0.06789553165435791
18.0,0.061145685613155365
20.0,0.05742337927222252
22.0,0.0538019984960556
24.0,0.052808716893196106
26.0,0.05022957921028137
28.0,0.047074660658836365
30.0,0.04416310414671898
32.0,0.04237484559416771
36.0,0.03443057835102081
40.0,0.025010433048009872
44.0,0.020943598821759224
48.0,0.020014116540551186
52.0,0.018276464194059372
56.0,0.017565999180078506
60.0,0.016325103119015694
64.0,0.014622164890170097
72.0,0.011766718700528145
80.0,0.010843321681022644
88.0,0.007222644053399563
96.0,0.005661656614392996
104.0,0.003977019339799881
112.0,0.004098301753401756
120.0,0.0023713859263807535
128.0,5.342932490748353e-05
144.0,-0.0038352874107658863
160.0,-0.004721657373011112
176.0,-0.001958434237167239
192.0,0.0035092260222882032
208.0,0.00470065837725997
224.0,0.006897721439599991
240.0,0.005546375643461943
256.0,0.003874844638630748
288.0,0.0011033214395865798
320.0,0.002034528413787484
352.0,0.0020756907761096954
384.0,0.0052711437456309795
416.0,0.007184610702097416
448.0,0.003703699680045247
480.0,0.00093697669217363
512.0,-0.0041846041567623615
576.0,-0.0031792097724974155
640.0,-0.0028398321010172367
704.0,-0.006017240229994059
768.0,-0.0028134179301559925
832.0,0.0007577242213301361
896.0,6.491080421255901e-05
960.0,0.0024144200142472982
1024.0,0.003086850978434086
1152.0,-0.0026390787679702044
1280.0,0.0008210896048694849
1408.0,-0.0022801647428423166
1536.0,-0.004500290844589472
1664.0,-0.00022725782764609903
1792.0,-0.0009609037078917027
1920.0,-0.0018564434722065926
2048.0,-0.001477487850934267
2304.0,-0.002211282728239894
2560.0,0.00032347184605896473
2816.0,-0.00511085893958807
3072.0,-0.002188208047300577
3328.0,-0.004042947199195623
3584.0,0.0014716554433107376
3840.0,0.0002918168902397156
4096.0,-0.001103942166082561
4608.0,0.0013449391117319465
5120.0,0.0013025460066273808
5632.0,0.003363696625456214
6144.0,0.0032202990259975195
6656.0,0.000251092977123335
7168.0,-0.003599568735808134
7680.0,-0.004470438696444035
8192.0,-0.0009120747563429177
9216.0,0.00010261099669151008
10240.0,0.00210549752227962
11264.0,0.0005837494973093271
12288.0,-0.002581831067800522
13312.0,-0.005152184050530195
14336.0,-0.002972918562591076
end
