version,3.0
numOfCh,1
type,point
parent_name,dirty_1dot0-1dot0
ch_type,1_1
kcount,1
numberNandB,1
brightnessNandB,1
carpet pos,0
pc,0
Time (ms),CH1 Auto-Correlation
1.0,0.2570781409740448
2.0,0.24137571454048157
3.0,0.22988441586494446
4.0,0.21769744157791138
5.0,0.20505231618881226
6.0,0.19702006876468658
7.0,0.18876631557941437
8.0,0.18189804255962372
9.0,0.17631284892559052
10.0,0.16833147406578064
11.0,0.16081538796424866
12.0,0.15493588149547577
13.0,0.14975187182426453
14.0,0.14456868171691895
15.0,0.14094294607639313
16.0,0.1357007473707199
18.0,0.127735897898674
20.0,0.12307796627283096
22.0,0.11764395982027054
24.0,0.11218730360269547
26.0,0.10523495823144913
28.0,0.10179198533296585
30.0,0.10168910771608353
32.0,0.10127859562635422
36.0,0.09689457714557648
40.0,0.09057381004095078
44.0,0.08446579426527023
48.0,0.07831913232803345
52.0,0.07158991694450378
56.0,0.0682346299290657
60.0,0.06608425825834274
64.0,0.059172388166189194
72.0,0.049458250403404236
80.0,0.04623369500041008
88.0,0.042016565799713135
96.0,0.04568266496062279
104.0,0.04882767051458359
112.0,0.0474591925740242
120.0,0.03810117766261101
128.0,0.027495330199599266
144.0,0.01799977384507656
160.0,0.018724605441093445
176.0,0.018090255558490753
192.0,0.013573620468378067
208.0,0.017722897231578827
224.0,0.03254522755742073
240.0,0.03856586292386055
256.0,0.031437501311302185
288.0,0.02016116864979267
320.0,0.008720200508832932
352.0,0.014395401813089848
384.0,0.0031720194965600967
416.0,0.005145594477653503
448.0,-0.004195330198854208
480.0,-0.004791398532688618
512.0,0.0032657047268003225
576.0,0.007509694900363684
640.0,0.008189577609300613
704.0,-0.0012885432224720716
768.0,-0.01093306578695774
832.0,-0.00297929416410625
896.0,0.01406805869191885
960.0,-0.004122748970985413
1024.0,-0.01567259058356285
1152.0,-0.004276316147297621
1280.0,-0.015342673286795616
1408.0,-0.003578667063266039
1536.0,-0.0029170589987188578
1664.0,-0.016389869153499603
1792.0,-0.015777111053466797
1920.0,-0.011469701305031776
2048.0,-0.004086824133992195
2304.0,-0.006592787802219391
2560.0,-0.011837644502520561
2816.0,-0.002750252140685916
3072.0,0.004519016016274691
3328.0,0.006998036056756973
3584.0,-0.0008595429826527834
3840.0,-0.006447258871048689
4096.0,-0.014421271160244942
4608.0,-0.0024739252403378487
5120.0,0.001318481401540339
5632.0,0.013268389739096165
6144.0,-0.003473650896921754
6656.0,-0.010070041753351688
7168.0,-0.011853567324578762
7680.0,-0.006262098904699087
8192.0,0.0043858010321855545
9216.0,0.01637018658220768
10240.0,-0.01000708807259798
11264.0,-0.0020587523467838764
12288.0,-0.008391246199607849
13312.0,-0.006095277611166239
14336.0,0.005311649292707443
end
