version,3.0
numOfCh,1
type,point
parent_name,dirty_1dot0-1dot0
ch_type,1_1
kcount,1
numberNandB,1
brightnessNandB,1
carpet pos,0
pc,0
Time (ms),CH1 Auto-Correlation
1.0,0.09421149641275406
2.0,0.08622816205024719
3.0,0.07900911569595337
4.0,0.0731070414185524
5.0,0.06844233721494675
6.0,0.06512332707643509
7.0,0.06236547231674194
8.0,0.059362299740314484
9.0,0.05540073662996292
10.0,0.05120224878191948
11.0,0.047628216445446014
12.0,0.044473279267549515
13.0,0.04122292622923851
14.0,0.038491249084472656
15.0,0.03611044958233833
16.0,0.03394463285803795
18.0,0.031060276553034782
20.0,0.029487470164895058
22.0,0.027829140424728394
24.0,0.026905862614512444
26.0,0.025941697880625725
28.0,0.0249980166554451
30.0,0.023865969851613045
32.0,0.022052131593227386
36.0,0.01931985281407833
40.0,0.018031157553195953
44.0,0.01699359156191349
48.0,0.01581387221813202
52.0,0.013851292431354523
56.0,0.010814930312335491
60.0,0.008980032987892628
64.0,0.007010362576693296
72.0,0.007011983077973127
80.0,0.004167146980762482
88.0,0.0017728802049532533
96.0,0.0012107610236853361
104.0,0.0017968338215723634
112.0,0.002256625099107623
120.0,0.004334092605859041
128.0,0.008067422546446323
144.0,0.009081684984266758
160.0,0.0041225505992770195
176.0,0.004704241640865803
192.0,0.0009872844675555825
208.0,-0.0017799835186451674
224.0,-0.0028581181541085243
240.0,-0.0022265773732215166
256.0,-0.0005379150970838964
288.0,0.002082086866721511
320.0,0.0003808498731814325
352.0,0.001955690560862422
384.0,0.0024528007488697767
416.0,0.004830716177821159
448.0,0.0019124345853924751
480.0,0.000569481635466218
512.0,-0.0012955833226442337
576.0,-0.002334904856979847
640.0,-0.0006189503474161029
704.0,0.0013544898247346282
768.0,0.001290054409764707
832.0,0.0007129841833375394
896.0,-0.0035153452772647142
960.0,-0.0010903498623520136
1024.0,0.00010957707127090544
1152.0,0.0034682899713516235
1280.0,0.003936281427741051
1408.0,-0.0009755631908774376
1536.0,-0.00216227350756526
1664.0,-0.0011871758615598083
1792.0,0.000978312804363668
1920.0,-0.000641562626697123
2048.0,0.0003210507857147604
2304.0,0.0008561228751204908
2560.0,-0.0005453184712678194
2816.0,-0.0016422999324277043
3072.0,-0.0013846650253981352
3328.0,0.0010072877630591393
3584.0,0.003143328009173274
3840.0,-0.0019527111435309052
4096.0,-0.0012054013786837459
4608.0,0.0012226050021126866
5120.0,-0.0012234221212565899
5632.0,0.0005133614176884294
6144.0,-3.446304617682472e-05
6656.0,-0.002383557381108403
7168.0,4.677923698181985e-06
7680.0,0.0021665217354893684
8192.0,0.004368539899587631
9216.0,-0.0009864452295005322
10240.0,-0.0021309922449290752
11264.0,-0.0020904766861349344
12288.0,-0.0019049847032874823
13312.0,-0.0015523817855864763
14336.0,-0.010941820219159126
end
