version,3.0
numOfCh,1
type,point
parent_name,dirty_1dot0-1dot0
ch_type,1_1
kcount,1
numberNandB,1
brightnessNandB,1
carpet pos,0
pc,0
Time (ms),CH1 Auto-Correlation
1.0,0.14906388521194458
2.0,0.13709993660449982
3.0,0.126300647854805
4.0,0.11706922948360443
5.0,0.10893484950065613
6.0,0.10060274600982666
7.0,0.09244640916585922
8.0,0.0847916230559349
9.0,0.07898952066898346
10.0,0.07449119538068771
11.0,0.07069318741559982
12.0,0.06722352653741837
13.0,0.06395894289016724
14.0,0.06158772110939026
15.0,0.05935842916369438
16.0,0.057696983218193054
18.0,0.05254112184047699
20.0,0.04696935415267944
22.0,0.04181326925754547
24.0,0.038960497826337814
26.0,0.037124570459127426
28.0,0.03529771789908409
30.0,0.03437366336584091
32.0,0.033642929047346115
36.0,0.0314238965511322
40.0,0.02687797322869301
44.0,0.022731566801667213
48.0,0.019937263801693916
52.0,0.01774483174085617
56.0,0.014298037625849247
60.0,0.011207726784050465
64.0,0.008373349905014038
72.0,0.005794342141598463
80.0,0.006361795589327812
88.0,0.00818109605461359
96.0,0.009790142066776752
104.0,0.005895780399441719
112.0,0.0029523817356675863
120.0,0.002502025803551078
128.0,0.005452948622405529
144.0,0.00933904480189085
160.0,0.014426861889660358
176.0,0.014739502221345901
192.0,0.008938496001064777
208.0,0.006751979701220989
224.0,0.005273794289678335
240.0,0.007012187968939543
256.0,0.008519689552485943
288.0,0.01001134142279625
320.0,0.013154019601643085
352.0,0.003907548263669014
384.0,0.0005000933888368309
416.0,-0.0010861435439437628
448.0,0.0029143095016479492
480.0,0.0015303482068702579
512.0,-0.0019469896797090769
576.0,-0.004739179275929928
640.0,-0.005769683048129082
704.0,-0.002978971228003502
768.0,-0.0009196898899972439
832.0,-0.004070531111210585
896.0,-0.009446289390325546
960.0,-0.005054614972323179
1024.0,-0.007660892326384783
1152.0,-0.0024707410484552383
1280.0,-0.0036056614480912685
1408.0,0.00011755248851841316
1536.0,0.005111219361424446
1664.0,0.0023902556858956814
1792.0,0.008837202563881874
1920.0,0.00043587235268205404
2048.0,0.0015018237754702568
2304.0,-0.006256927270442247
2560.0,-0.0026959909591823816
2816.0,0.000957874464802444
3072.0,1.3857757039659191e-05
3328.0,0.002469583647325635
3584.0,0.010587653145194054
3840.0,0.008410547859966755
4096.0,-0.00037341704592108727
4608.0,-0.0010210891487076879
5120.0,-0.0006378156249411404
5632.0,-0.00021014500816818327
6144.0,-0.004337283316999674
6656.0,0.001766005763784051
7168.0,0.0012200442142784595
7680.0,-0.005250925663858652
8192.0,-0.004454007837921381
9216.0,0.0004966230480931699
10240.0,-0.005247683264315128
11264.0,-0.0017270285170525312
12288.0,-0.0004089638532605022
13312.0,-0.0006543966010212898
14336.0,-0.0023000596556812525
end
