version,3.0
numOfCh,1
type,point
parent_name,dirty_1dot0-1dot0
ch_type,1_1
kcount,1
numberNandB,1
brightnessNandB,1
carpet pos,0
pc,0
Time (ms),CH1 Auto-Correlation
1.0,0.13636380434036255
2.0,0.1258024126291275
3.0,0.11627649515867233
4.0,0.10734394937753677
5.0,0.09942759573459625
6.0,0.09197050333023071
7.0,0.08574879169464111
8.0,0.08086677640676498
9.0,0.07691817730665207
10.0,0.0725272074341774
11.0,0.06837516278028488
12.0,0.06469345092773438
13.0,0.06133423373103142
14.0,0.0576830692589283
15.0,0.05505618080496788
16.0,0.052261434495449066
18.0,0.04770542308688164
20.0,0.04394543915987015
22.0,0.040690939873456955
24.0,0.03771330416202545
26.0,0.0349622517824173
28.0,0.032789506018161774
30.0,0.03114566020667553
32.0,0.03064873069524765
36.0,0.02979731746017933
40.0,0.028317008167505264
44.0,0.02536197565495968
48.0,0.01999378763139248
52.0,0.0164120402187109
56.0,0.013956834562122822
60.0,0.013732814230024815
64.0,0.01610255241394043
72.0,0.014894179999828339
80.0,0.01436906773597002
88.0,0.012440523132681847
96.0,0.015158799476921558
104.0,0.016335343942046165
112.0,0.016682131215929985
120.0,0.02047525905072689
128.0,0.025125790387392044
144.0,0.027337348088622093
160.0,0.018917569890618324
176.0,0.009911629371345043
192.0,0.007107344921678305
208.0,0.0032676972914487123
224.0,0.003488626331090927
240.0,0.005831534042954445
256.0,0.008584076538681984
288.0,0.008981953375041485
320.0,0.003229697234928608
352.0,0.002873819088563323
384.0,0.0012900537112727761
416.0,0.004824001342058182
448.0,0.005167842842638493
480.0,0.0010629902826622128
512.0,-0.0024306646082550287
576.0,0.0010989707661792636
640.0,-0.0009314374765381217
704.0,0.0005715949228033423
768.0,0.00144912488758564
832.0,-0.0012027204502373934
896.0,0.005514136515557766
960.0,-0.003993812948465347
1024.0,0.004495931323617697
1152.0,-0.004466953221708536
1280.0,-0.008048150688409805
1408.0,-0.005419668275862932
1536.0,0.0003283379483036697
1664.0,-0.0012799107935279608
1792.0,-0.001939538400620222
1920.0,-0.004598365630954504
2048.0,-0.0031023977790027857
2304.0,-0.0049416860565543175
2560.0,0.0006695179035887122
2816.0,0.0009635626920498908
3072.0,-0.003689558245241642
3328.0,-0.002639347454532981
3584.0,0.002358573256060481
3840.0,0.0027935251127928495
4096.0,0.005818871781229973
4608.0,0.005004230886697769
5120.0,-0.0012263345997780561
5632.0,-0.0077964067459106445
6144.0,-0.006650627125054598
6656.0,-0.0045777251943945885
7168.0,0.004994960501790047
7680.0,0.0034969954285770655
8192.0,-0.0019047639798372984
9216.0,-0.0006141104968264699
10240.0,-0.0052200485952198505
11264.0,0.004532193299382925
12288.0,-0.0008515613153576851
13312.0,-0.002106807893142104
14336.0,-0.004647380206733942
end
