version,3.0
numOfCh,1
type,point
parent_name,dirty_1dot0-1dot0
ch_type,1_1
kcount,1
numberNandB,1
brightnessNandB,1
carpet pos,0
pc,0
Time (ms),CH1 Auto-Correlation
1.0,0.1674802452325821
2.0,0.15291984379291534
3.0,0.14032073318958282
4.0,0.13000160455703735
5.0,0.12069415301084518
6.0,0.11161773651838303
7.0,0.10404035449028015
8.0,0.09704088419675827
9.0,0.09142148494720459
10.0,0.0869852676987648
11.0,0.08310569822788239
12.0,0.08018650859594345
13.0,0.0781690925359726
14.0,0.07627119868993759
15.0,0.0745200589299202
16.0,0.0732087641954422
18.0,0.0691797062754631
20.0,0.06649645417928696
22.0,0.06288200616836548
24.0,0.060113586485385895
26.0,0.05759361758828163
28.0,0.05504247546195984
30.0,0.052474308758974075
32.0,0.050767477601766586
36.0,0.04883572831749916
40.0,0.04591331630945206
44.0,0.04337552562355995
48.0,0.044197726994752884
52.0,0.043639976531267166
56.0,0.04208694398403168
60.0,0.04055983945727348
64.0,0.03905501216650009
72.0,0.03882286697626114
80.0,0.033571623265743256
88.0,0.023715831339359283
96.0,0.019883906468749046
104.0,0.015979401767253876
112.0,0.01777302846312523
120.0,0.017571697011590004
128.0,0.015327039174735546
144.0,0.009623757563531399
160.0,0.003886021440848708
176.0,0.0017843516543507576
192.0,0.0009731298196129501
208.0,0.004531737416982651
224.0,0.008499790914356709
240.0,0.006957121193408966
256.0,0.00669884542003274
288.0,0.010313362814486027
320.0,0.004762902390211821
352.0,0.002762248506769538
384.0,0.0034981381613761187
416.0,0.007057145703583956
448.0,-0.0007556318305432796
480.0,-0.002263252157717943
512.0,-0.0035832831636071205
576.0,-0.007189404685050249
640.0,-0.006815807893872261
704.0,-0.0061153024435043335
768.0,-0.008128473535180092
832.0,-0.003890097141265869
896.0,0.003670010482892394
960.0,0.006345224566757679
1024.0,0.0026617124676704407
1152.0,0.008802978321909904
1280.0,0.008619857020676136
1408.0,-0.003192286007106304
1536.0,-0.0062591154128313065
1664.0,-0.007625435944646597
1792.0,-0.01107478141784668
1920.0,-0.011637354269623756
2048.0,-0.007927726954221725
2304.0,-0.00600564805790782
2560.0,-0.0023632145021110773
2816.0,-0.005412010010331869
3072.0,-0.003861671080812812
3328.0,-0.0028114537708461285
3584.0,-5.8659399655880406e-05
3840.0,-0.0033319436479359865
4096.0,-0.011195202358067036
4608.0,0.0045778788626194
5120.0,0.0036163583863526583
5632.0,0.0051980093121528625
6144.0,0.011031563393771648
6656.0,-0.0029314642306417227
7168.0,0.000657323224004358
7680.0,-0.0049377866089344025
8192.0,-0.0016962031368166208
9216.0,-0.005320400930941105
10240.0,-0.0019110450521111488
11264.0,0.011574500240385532
12288.0,-0.0014358487678691745
13312.0,-0.010649281553924084
14336.0,0.003349565900862217
end
