version,3.0
numOfCh,1
type,point
parent_name,dirty_1dot0-1dot0
ch_type,1_1
kcount,1
numberNandB,1
brightnessNandB,1
carpet pos,0
pc,0
Time (ms),CH1 Auto-Correlation
1.0,0.3853911757469177
2.0,0.35241204500198364
3.0,0.32535597681999207
4.0,0.3018246293067932
5.0,0.28425323963165283
6.0,0.2673961818218231
7.0,0.2537938058376312
8.0,0.24209186434745789
9.0,0.23087941110134125
10.0,0.2217482328414917
11.0,0.21371245384216309
12.0,0.2072690725326538
13.0,0.19943274557590485
14.0,0.19087423384189606
15.0,0.1841932088136673
16.0,0.1767919957637787
18.0,0.16471561789512634
20.0,0.15331590175628662
22.0,0.14176882803440094
24.0,0.13588574528694153
26.0,0.13047125935554504
28.0,0.12773555517196655
30.0,0.1276819258928299
32.0,0.1287599503993988
36.0,0.1208932027220726
40.0,0.11131969839334488
44.0,0.09886680543422699
48.0,0.09117460995912552
52.0,0.08301305770874023
56.0,0.07227228581905365
60.0,0.06299915164709091
64.0,0.054293688386678696
72.0,0.047419171780347824
80.0,0.03961028903722763
88.0,0.03215061500668526
96.0,0.030329503118991852
104.0,0.034122664481401443
112.0,0.031052270904183388
120.0,0.03212953731417656
128.0,0.03239675983786583
144.0,0.021023772656917572
160.0,0.01101087499409914
176.0,-0.0029862765222787857
192.0,-0.004775847773998976
208.0,-0.003158252453431487
224.0,0.006706405896693468
240.0,0.015119425021111965
256.0,0.014231715351343155
288.0,0.005860595498234034
320.0,0.008171944878995419
352.0,0.017283452674746513
384.0,0.009424488060176373
416.0,-0.010830987244844437
448.0,-0.009925601072609425
480.0,-0.0027190104592591524
512.0,0.001767883193679154
576.0,0.004043221473693848
640.0,-0.0014268170343711972
704.0,-0.0032590385526418686
768.0,0.0020423303358256817
832.0,-0.0016243166755884886
896.0,-0.019832976162433624
960.0,-0.024383192881941795
1024.0,-0.014337411150336266
1152.0,-0.009055180475115776
1280.0,0.010820675641298294
1408.0,0.007765366695821285
1536.0,-0.0019431599648669362
1664.0,-0.013358480297029018
1792.0,0.0005384606774896383
1920.0,-0.000890787283424288
2048.0,0.006213782355189323
2304.0,-0.013653074391186237
2560.0,-0.008935792371630669
2816.0,0.009757154621183872
3072.0,-0.0024827439337968826
3328.0,-0.007987918332219124
3584.0,-0.016219861805438995
3840.0,-0.012255744077265263
4096.0,0.015084318816661835
4608.0,0.0015331428730860353
5120.0,0.004905719310045242
5632.0,0.01271010097116232
6144.0,-0.011510076932609081
6656.0,-0.0066685862839221954
7168.0,-0.0032349657267332077
7680.0,-0.013502492569386959
8192.0,-0.012624571099877357
9216.0,-0.008004571311175823
10240.0,0.01379264798015356
11264.0,0.007743841037154198
12288.0,-0.020140593871474266
13312.0,-0.01175419520586729
14336.0,0.026400286704301834
end
