version,3.0
numOfCh,1
type,point
parent_name,dirty_1dot0-1dot0
ch_type,1_1
kcount,1
numberNandB,1
brightnessNandB,1
carpet pos,0
pc,0
Time (ms),CH1 Auto-Correlation
1.0,0.25019168853759766
2.0,0.2312704622745514
3.0,0.21515002846717834
4.0,0.20036007463932037
5.0,0.1869715452194214
6.0,0.17299844324588776
7.0,0.16287367045879364
8.0,0.15573237836360931
9.0,0.14740891754627228
10.0,0.1405523270368576
11.0,0.13414505124092102
12.0,0.12997855246067047
13.0,0.1261027455329895
14.0,0.12171050906181335
15.0,0.1164616271853447
16.0,0.11078429967164993
18.0,0.09968791902065277
20.0,0.09105683118104935
22.0,0.085085429251194
24.0,0.08121389150619507
26.0,0.07882725447416306
28.0,0.07690843194723129
30.0,0.07354593276977539
32.0,0.06936271488666534
36.0,0.05940927565097809
40.0,0.05267331749200821
44.0,0.0474051758646965
48.0,0.048757635056972504
52.0,0.04863663762807846
56.0,0.048787787556648254
60.0,0.0521165132522583
64.0,0.056267134845256805
72.0,0.049484286457300186
80.0,0.04131283983588219
88.0,0.03513190522789955
96.0,0.034022118896245956
104.0,0.042430706322193146
112.0,0.048641011118888855
120.0,0.04358408972620964
128.0,0.034413132816553116
144.0,0.02102881297469139
160.0,0.019473467022180557
176.0,0.019834669306874275
192.0,0.017612798139452934
208.0,0.012758233584463596
224.0,0.01297807041555643
240.0,0.013052303344011307
256.0,0.008157395757734776
288.0,0.005092958454042673
320.0,-0.0003524926141835749
352.0,0.004318318795412779
384.0,0.00239987438544631
416.0,-0.00305389566347003
448.0,0.011470076628029346
480.0,0.008672583848237991
512.0,0.014802797697484493
576.0,0.007835025899112225
640.0,0.0026334093417972326
704.0,0.005202191881835461
768.0,0.005416775122284889
832.0,-0.0031013875268399715
896.0,-0.0070668915286660194
960.0,-0.008467468433082104
1024.0,-0.005596115719527006
1152.0,-0.008501753211021423
1280.0,-0.004075259901583195
1408.0,-0.002089404733851552
1536.0,0.007025092840194702
1664.0,0.013613351620733738
1792.0,0.010416221804916859
1920.0,0.014588751830160618
2048.0,0.027405086904764175
2304.0,0.005828956142067909
2560.0,0.010653611272573471
2816.0,0.012034820392727852
3072.0,-0.006419137120246887
3328.0,-0.002773197600618005
3584.0,0.006267282646149397
3840.0,-0.005712318234145641
4096.0,0.0034386860206723213
4608.0,0.005683011841028929
5120.0,-0.007227637339383364
5632.0,-0.002518876688554883
6144.0,0.0029300733003765345
6656.0,-0.008560769259929657
7168.0,-0.01881573349237442
7680.0,-0.007399698719382286
8192.0,0.006635348778218031
9216.0,-0.012756066396832466
10240.0,-0.007065786514431238
11264.0,-0.0104620810598135
12288.0,-0.012720340862870216
13312.0,-0.0027205648366361856
14336.0,-0.008284802548587322
end
