version,3.0
numOfCh,1
type,point
parent_name,dirty_1dot0-1dot0
ch_type,1_1
kcount,1
numberNandB,1
brightnessNandB,1
carpet pos,0
pc,0
Time (ms),CH1 Auto-Correlation
1.0,0.23167945444583893
2.0,0.21019922196865082
3.0,0.1901402771472931
4.0,0.1745508909225464
5.0,0.1610536128282547
6.0,0.14751794934272766
7.0,0.13349603116512299
8.0,0.12192697077989578
9.0,0.11332845687866211
10.0,0.10671687126159668
11.0,0.10163936018943787
12.0,0.09723515808582306
13.0,0.09383262693881989
14.0,0.09089259803295135
15.0,0.08902104198932648
16.0,0.08886789530515671
18.0,0.08751147985458374
20.0,0.0844762846827507
22.0,0.0824374333024025
24.0,0.07729630917310715
26.0,0.07121707499027252
28.0,0.06840136647224426
30.0,0.06422287970781326
32.0,0.0619707852602005
36.0,0.05858265981078148
40.0,0.05172315239906311
44.0,0.0452706515789032
48.0,0.041286345571279526
52.0,0.03633416071534157
56.0,0.03028467856347561
60.0,0.021633300930261612
64.0,0.0172509104013443
72.0,0.018496600911021233
80.0,0.01431556511670351
88.0,0.014292976818978786
96.0,0.01465549971908331
104.0,0.014638712629675865
112.0,0.009486804716289043
120.0,0.006144608370959759
128.0,0.004205436911433935
144.0,-0.001486608642153442
160.0,-0.005430230870842934
176.0,-0.0071725123561918736
192.0,-0.002109500113874674
208.0,-0.0005096170352771878
224.0,0.00756530836224556
240.0,0.002948172390460968
256.0,0.002386193722486496
288.0,-0.004638946149498224
320.0,-0.003183061257004738
352.0,-0.004644112195819616
384.0,-0.005321203265339136
416.0,-0.003786439076066017
448.0,-0.000149321582284756
480.0,0.00020584171579685062
512.0,-0.0038679023273289204
576.0,-0.010134750045835972
640.0,-0.006523497402667999
704.0,0.016589494422078133
768.0,0.0068856701254844666
832.0,-0.0016943475930020213
896.0,-0.006201040465384722
960.0,-0.0038889290299266577
1024.0,0.0034102697391062975
1152.0,-0.0014278709422796965
1280.0,-0.003803333966061473
1408.0,0.0009595146984793246
1536.0,0.0006053326651453972
1664.0,-0.005306321661919355
1792.0,0.002330114133656025
1920.0,-0.005070090293884277
2048.0,0.0012318595545366406
2304.0,-0.0016445914516225457
2560.0,-0.0004512427549343556
2816.0,0.00712844543159008
3072.0,-0.006363095715641975
3328.0,0.0017536368686705828
3584.0,-0.00041992581100203097
3840.0,-0.001459390507079661
4096.0,0.0025552469305694103
4608.0,-0.004013898782432079
5120.0,0.0007430289988406003
5632.0,-0.0025808964855968952
6144.0,-0.005146802868694067
6656.0,-0.0008094908553175628
7168.0,0.0011112039210274816
7680.0,-0.0035336667206138372
8192.0,-5.564521416090429e-05
9216.0,-0.00028823193861171603
10240.0,-0.0006981907063163817
11264.0,0.008640999905765057
12288.0,-0.0035943405237048864
13312.0,0.0014731095870956779
14336.0,-0.006913891527801752
end
