version,3.0
numOfCh,1
type,point
parent_name,dirty_1dot0-1dot0
ch_type,1_1
kcount,1
numberNandB,1
brightnessNandB,1
carpet pos,0
pc,0
Time (ms),CH1 Auto-Correlation
1.0,0.2001762092113495
2.0,0.18391676247119904
3.0,0.1718696802854538
4.0,0.1604304164648056
5.0,0.15079641342163086
6.0,0.14274941384792328
7.0,0.13420306146144867
8.0,0.12780903279781342
9.0,0.12110459059476852
10.0,0.11510894447565079
11.0,0.10947790741920471
12.0,0.10425154864788055
13.0,0.10019278526306152
14.0,0.09628191590309143
15.0,0.09209464490413666
16.0,0.08885759115219116
18.0,0.08086902648210526
20.0,0.07565983384847641
22.0,0.07280448079109192
24.0,0.07219880074262619
26.0,0.07013246417045593
28.0,0.06734000891447067
30.0,0.06466973572969437
32.0,0.06442274153232574
36.0,0.0630023330450058
40.0,0.06081191077828407
44.0,0.06003349646925926
48.0,0.06147490069270134
52.0,0.06225691735744476
56.0,0.06220376491546631
60.0,0.058275703340768814
64.0,0.049372173845767975
72.0,0.03920949250459671
80.0,0.03354639559984207
88.0,0.029825260862708092
96.0,0.028826337307691574
104.0,0.027503985911607742
112.0,0.02843153476715088
120.0,0.026237137615680695
128.0,0.023536574095487595
144.0,0.018632695078849792
160.0,0.014602630399167538
176.0,0.019679328426718712
192.0,0.02497350238263607
208.0,0.01867602951824665
224.0,0.01537436805665493
240.0,0.018951071426272392
256.0,0.023289596661925316
288.0,0.015876388177275658
320.0,0.02653997763991356
352.0,0.02114587277173996
384.0,0.023102333769202232
416.0,0.020599352195858955
448.0,0.01660294644534588
480.0,0.015241364017128944
512.0,0.028249891474843025
576.0,0.014696091413497925
640.0,-0.003504887456074357
704.0,-0.007647793740034103
768.0,0.00210713897831738
832.0,0.005129191558808088
896.0,0.004683199338614941
960.0,-0.005479492712765932
1024.0,-0.007842235267162323
1152.0,-0.008196160197257996
1280.0,-0.010064564645290375
1408.0,-0.011473529040813446
1536.0,-0.006067750044167042
1664.0,-0.003465871326625347
1792.0,0.0031642422545701265
1920.0,0.00519771222025156
2048.0,-0.001748533803038299
2304.0,0.0046530840918421745
2560.0,-0.001894182525575161
2816.0,0.0008376534678973258
3072.0,-0.0006405261228792369
3328.0,-0.0006713668117299676
3584.0,0.0008125889580696821
3840.0,0.002970312722027302
4096.0,0.01460062526166439
4608.0,0.000859567429870367
5120.0,0.0022010882385075092
5632.0,-0.0025652535259723663
6144.0,0.000141701617394574
6656.0,-0.007209007162600756
7168.0,-0.0006955176941119134
7680.0,-0.003233738010749221
8192.0,-0.002073095180094242
9216.0,0.0008191323722712696
10240.0,-0.004506121855229139
11264.0,-0.007043780758976936
12288.0,-0.018598144873976707
13312.0,0.01795676350593567
14336.0,-0.057736534625291824
end
