version,3.0
numOfCh,1
type,point
parent_name,dirty_1dot0-1dot0
ch_type,1_1
kcount,1
numberNandB,1
brightnessNandB,1
carpet pos,0
pc,0
Time (ms),CH1 Auto-Correlation
1.0,0.11981351673603058
2.0,0.11106123775243759
3.0,0.10341836512088776
4.0,0.09636655449867249
5.0,0.09041382372379303
6.0,0.08545693755149841
7.0,0.08176209032535553
8.0,0.07810749113559723
9.0,0.07466868311166763
10.0,0.07206545770168304
11.0,0.07012982666492462
12.0,0.06833431124687195
13.0,0.06699218600988388
14.0,0.0651957094669342
15.0,0.06336288899183273
16.0,0.061724815517663956
18.0,0.05848753824830055
20.0,0.05405949801206589
22.0,0.049972839653491974
24.0,0.04713328555226326
26.0,0.04593623802065849
28.0,0.04516584426164627
30.0,0.04358180612325668
32.0,0.04174180328845978
36.0,0.03889019787311554
40.0,0.03656119853258133
44.0,0.03484736755490303
48.0,0.032458726316690445
52.0,0.030612852424383163
56.0,0.028639882802963257
60.0,0.026104584336280823
64.0,0.02363109216094017
72.0,0.02277773804962635
80.0,0.018691793084144592
88.0,0.01719057932496071
96.0,0.015303761698305607
104.0,0.014002460986375809
112.0,0.01409158669412136
120.0,0.013234618119895458
128.0,0.012034584768116474
144.0,0.009275098331272602
160.0,0.00885480921715498
176.0,0.004331732168793678
192.0,0.002177052665501833
208.0,0.002986833220347762
224.0,0.0019006418297067285
240.0,0.003154491540044546
256.0,0.005677474662661552
288.0,0.0018677439074963331
320.0,0.005197593476623297
352.0,0.006801780313253403
384.0,0.003080141032114625
416.0,-0.0008958510006777942
448.0,-0.001260246499441564
480.0,0.0008505060686729848
512.0,-0.0011071431217715144
576.0,-0.0010227173333987594
640.0,-0.002684634644538164
704.0,7.01990575180389e-05
768.0,-0.0015450723003596067
832.0,-0.0003128928365185857
896.0,-0.005185688845813274
960.0,-0.005865681450814009
1024.0,-0.0031206291168928146
1152.0,-0.0012255813926458359
1280.0,0.001494814408943057
1408.0,-0.003388325683772564
1536.0,-0.0028849232476204634
1664.0,-0.005115704610943794
1792.0,-0.0007327278726734221
1920.0,-0.003035882255062461
2048.0,0.0006618947954848409
2304.0,-0.0004785833298228681
2560.0,-1.0309499884897377e-05
2816.0,-0.005785349290817976
3072.0,-0.006674839183688164
3328.0,-0.008954809047281742
3584.0,-0.003844648599624634
3840.0,-0.0014815307222306728
4096.0,0.003235151059925556
4608.0,0.0017566760070621967
5120.0,0.0009091643150895834
5632.0,-0.0008116690441966057
6144.0,0.0019144936231896281
6656.0,0.010222596116364002
7168.0,0.0022251855116337538
7680.0,-0.006493463646620512
8192.0,-0.006490851286798716
9216.0,-0.0026136976666748524
10240.0,0.005165033042430878
11264.0,0.0020048045553267
12288.0,-0.0016769763315096498
13312.0,-0.0020363943185657263
14336.0,-0.00577909080311656
end
