version,3.0
numOfCh,1
type,point
parent_name,dirty_1dot0-1dot0
ch_type,1_1
kcount,1
numberNandB,1
brightnessNandB,1
carpet pos,0
pc,0
Time (ms),CH1 Auto-Correlation
1.0,0.15973106026649475
2.0,0.14943845570087433
3.0,0.14017528295516968
4.0,0.1323794722557068
5.0,0.125755175948143
6.0,0.11999546736478806
7.0,0.11459347605705261
8.0,0.11040022224187851
9.0,0.10610324889421463
10.0,0.10271346569061279
11.0,0.09990252554416656
12.0,0.09625478833913803
13.0,0.09287792444229126
14.0,0.09090768545866013
15.0,0.08895575255155563
16.0,0.08700036257505417
18.0,0.08335749059915543
20.0,0.07914949953556061
22.0,0.07479019463062286
24.0,0.07094511389732361
26.0,0.06768404692411423
28.0,0.06512635201215744
30.0,0.06212589144706726
32.0,0.05850407853722572
36.0,0.05184848606586456
40.0,0.049764323979616165
44.0,0.04823390766978264
48.0,0.04822712391614914
52.0,0.04508795216679573
56.0,0.043252598494291306
60.0,0.03973488509654999
64.0,0.03822345659136772
72.0,0.03965838626027107
80.0,0.04242751747369766
88.0,0.03965556249022484
96.0,0.03514193370938301
104.0,0.030173255130648613
112.0,0.026772430166602135
120.0,0.02442047744989395
128.0,0.024994099512696266
144.0,0.021163303405046463
160.0,0.01641121506690979
176.0,0.011216065846383572
192.0,0.004292572382837534
208.0,0.00021365356224123389
224.0,-0.00033797146170400083
240.0,-0.0006665866239927709
256.0,3.183866283507086e-05
288.0,-0.0076747252605855465
320.0,-0.007214301265776157
352.0,-0.005612736567854881
384.0,-0.008478973060846329
416.0,-0.005062415264546871
448.0,0.0014818385243415833
480.0,-0.0012153914431110024
512.0,-0.004089655354619026
576.0,-0.0017549552721902728
640.0,-0.00344720296561718
704.0,-0.0006606769748032093
768.0,0.0009959209710359573
832.0,-0.000138006973429583
896.0,0.0007544773397967219
960.0,-0.0017510228790342808
1024.0,-0.004761432763189077
1152.0,4.5678916649194434e-05
1280.0,-0.00451258197426796
1408.0,-0.005521745420992374
1536.0,-0.0005839844816364348
1664.0,-0.000627088884357363
1792.0,-0.008873662911355495
1920.0,-0.0019312858348712325
2048.0,-0.0010307617485523224
2304.0,0.0024161487817764282
2560.0,-0.006992545910179615
2816.0,0.001742818159982562
3072.0,-0.006505320314317942
3328.0,0.003994358703494072
3584.0,0.0039774407632648945
3840.0,-0.007969256490468979
4096.0,-0.0017518411623314023
4608.0,-0.0010697587858885527
5120.0,0.0017906174762174487
5632.0,-0.0018220616038888693
6144.0,0.0003778332320507616
6656.0,0.0054906862787902355
7168.0,-0.0007064848905429244
7680.0,-0.0015048101777210832
8192.0,-0.00034517687163315713
9216.0,0.0026021336670964956
10240.0,-0.003108740085735917
11264.0,0.018509497866034508
12288.0,-0.00764133594930172
13312.0,-0.004763599019497633
14336.0,-0.014658323489129543
end
