version,3.0
numOfCh,1
type,point
parent_name,dirty_1dot0-1dot0
ch_type,1_1
kcount,1
numberNandB,1
brightnessNandB,1
carpet pos,0
pc,0
Time (ms),CH1 Auto-Correlation
1.0,0.11642564833164215
2.0,0.10802600532770157
3.0,0.1007983386516571
4.0,0.09422889351844788
5.0,0.0881691426038742
6.0,0.0833437591791153
7.0,0.07947233319282532
8.0,0.07558786123991013
9.0,0.07238809019327164
10.0,0.06929007917642593
11.0,0.06714728474617004
12.0,0.0647088959813118
13.0,0.06295052915811539
14.0,0.061649151146411896
15.0,0.060059428215026855
16.0,0.05842685326933861
18.0,0.055340323597192764
20.0,0.05288349464535713
22.0,0.050545498728752136
24.0,0.048507243394851685
26.0,0.046995338052511215
28.0,0.04589637368917465
30.0,0.04454145208001137
32.0,0.042543284595012665
36.0,0.04052944853901863
40.0,0.03880200535058975
44.0,0.03455954045057297
48.0,0.033321063965559006
52.0,0.032970935106277466
56.0,0.03375108540058136
60.0,0.034055907279253006
64.0,0.034074656665325165
72.0,0.03358098864555359
80.0,0.03422103822231293
88.0,0.034843288362026215
96.0,0.03299310430884361
104.0,0.027132462710142136
112.0,0.02229461446404457
120.0,0.020609088242053986
128.0,0.020647110417485237
144.0,0.017401771619915962
160.0,0.020792800933122635
176.0,0.02210889384150505
192.0,0.018950050696730614
208.0,0.016322877258062363
224.0,0.014929060824215412
240.0,0.012701306492090225
256.0,0.011666319333016872
288.0,0.005184690933674574
320.0,0.0012529889354482293
352.0,-0.004592270124703646
384.0,-0.008461249992251396
416.0,-0.007102705538272858
448.0,-0.007707992102950811
480.0,-0.005775738041847944
512.0,-0.0033268274273723364
576.0,-0.005371320527046919
640.0,-0.006140866316854954
704.0,-0.005395909771323204
768.0,-0.005001894198358059
832.0,-0.0029837447218596935
896.0,-0.006481602322310209
960.0,-0.00907100923359394
1024.0,-0.003733074991032481
1152.0,-0.0024090867955237627
1280.0,0.0020014611072838306
1408.0,0.006944752763956785
1536.0,0.006607893388718367
1664.0,0.00496751768514514
1792.0,-0.002962136175483465
1920.0,-0.007481299340724945
2048.0,-0.008451437577605247
2304.0,-0.006915377452969551
2560.0,0.0026757034938782454
2816.0,0.0005494912038557231
3072.0,-0.001503918319940567
3328.0,-0.000670469889882952
3584.0,-0.007045944221317768
3840.0,-0.007324085105210543
4096.0,-0.0007825185311958194
4608.0,0.0017044688574969769
5120.0,0.003118380205705762
5632.0,-0.0013875555014237761
6144.0,-0.0010723526356741786
6656.0,-0.0009480961598455906
7168.0,0.0012287225108593702
7680.0,0.003946647513657808
8192.0,0.002025619149208069
9216.0,0.0026125453878194094
10240.0,-0.0030933506786823273
11264.0,-0.005534524563699961
12288.0,-0.0034350871574133635
13312.0,0.0011720075272023678
14336.0,0.003385777585208416
end
