version,3.0
numOfCh,1
type,point
parent_name,dirty_1dot0-1dot0
ch_type,1_1
kcount,1
numberNandB,1
brightnessNandB,1
carpet pos,0
pc,0
Time (ms),CH1 Auto-Correlation
1.0,0.10640399158000946
2.0,0.09835243970155716
3.0,0.09180355072021484
4.0,0.08671355247497559
5.0,0.08185296505689621
6.0,0.07712378352880478
7.0,0.07279834151268005
8.0,0.06916352361440659
9.0,0.06627445667982101
10.0,0.06324683129787445
11.0,0.060841526836156845
12.0,0.0589710995554924
13.0,0.05721934512257576
14.0,0.054953042417764664
15.0,0.05214497819542885
16.0,0.04973659664392471
18.0,0.04569233953952789
20.0,0.041814498603343964
22.0,0.03852943331003189
24.0,0.035866498947143555
26.0,0.03399408981204033
28.0,0.03315526247024536
30.0,0.0329299196600914
32.0,0.03257111459970474
36.0,0.0313945971429348
40.0,0.03079294227063656
44.0,0.030027786269783974
48.0,0.02680874615907669
52.0,0.02400003746151924
56.0,0.021417899057269096
60.0,0.01867830753326416
64.0,0.01598534919321537
72.0,0.013109509833157063
80.0,0.011677540838718414
88.0,0.011349886655807495
96.0,0.01004499476402998
104.0,0.007915480993688107
112.0,0.005657393019646406
120.0,0.006401590071618557
128.0,0.007154875434935093
144.0,0.0068536801263689995
160.0,0.005567150190472603
176.0,0.0017357517499476671
192.0,-0.001409271964803338
208.0,-0.002321692882105708
224.0,-0.002938675694167614
240.0,-0.0038536961656063795
256.0,-0.00691177835687995
288.0,-0.0070597929880023
320.0,-0.0013342919992282987
352.0,-0.0028915260918438435
384.0,-0.004922294057905674
416.0,-0.004996876697987318
448.0,-0.003067566081881523
480.0,-0.003262685379013419
512.0,-0.003930605482310057
576.0,-0.0027389905881136656
640.0,-0.004372099414467812
704.0,-0.005046779289841652
768.0,-0.003013697685673833
832.0,-0.00017419586947653443
896.0,0.00014728399401064962
960.0,-0.0008814231841824949
1024.0,-0.004018611740320921
1152.0,0.00035825074883177876
1280.0,-0.00022198128863237798
1408.0,-0.0022028491366654634
1536.0,0.006289995275437832
1664.0,-0.0018653151346370578
1792.0,-0.0031947947572916746
1920.0,-7.083722448442131e-05
2048.0,0.004515240900218487
2304.0,-0.00207132869400084
2560.0,-0.002999720396474004
2816.0,0.0033557366114109755
3072.0,-0.0042579988949000835
3328.0,-0.0011244129855185747
3584.0,-0.0009276620694436133
3840.0,0.006728957407176495
4096.0,0.0007360613089986145
4608.0,0.0021373729687184095
5120.0,0.0011482369154691696
5632.0,-0.00483130244538188
6144.0,-0.0004615374200511724
6656.0,0.0012457395205274224
7168.0,-0.0016848875675350428
7680.0,0.0017786741955205798
8192.0,0.0016431170515716076
9216.0,-0.00046431401278823614
10240.0,0.00011805800022557378
11264.0,-0.0010201106779277325
12288.0,0.0003456301928963512
13312.0,-0.0007465134258382022
14336.0,-0.0006347792805172503
end
