version,3.0
numOfCh,1
type,point
parent_name,dirty_1dot0-1dot0
ch_type,1_1
kcount,1
numberNandB,1
brightnessNandB,1
carpet pos,0
pc,0
Time (ms),CH1 Auto-Correlation
1.0,0.30133941769599915
2.0,0.2771669626235962
3.0,0.2584840953350067
4.0,0.24151618778705597
5.0,0.22601789236068726
6.0,0.21271656453609467
7.0,0.20111794769763947
8.0,0.1901993751525879
9.0,0.17979378998279572
10.0,0.1716538518667221
11.0,0.16251347959041595
12.0,0.15490391850471497
13.0,0.1493108570575714
14.0,0.14405818283557892
15.0,0.13875068724155426
16.0,0.1340375691652298
18.0,0.12429424375295639
20.0,0.11741837859153748
22.0,0.10908383876085281
24.0,0.09944654256105423
26.0,0.09134452790021896
28.0,0.08512258529663086
30.0,0.07895009964704514
32.0,0.07585157454013824
36.0,0.0717257633805275
40.0,0.06922180205583572
44.0,0.06671906262636185
48.0,0.07005033642053604
52.0,0.07387660443782806
56.0,0.07208126783370972
60.0,0.06684337556362152
64.0,0.06253490597009659
72.0,0.05854577571153641
80.0,0.04653627797961235
88.0,0.03351854532957077
96.0,0.028114279732108116
104.0,0.019918212667107582
112.0,0.010021595284342766
120.0,0.006368368864059448
128.0,0.008685986511409283
144.0,0.013336976058781147
160.0,0.02240949682891369
176.0,0.026398660615086555
192.0,0.009964155033230782
208.0,0.00679478095844388
224.0,0.005319848190993071
240.0,0.006000944878906012
256.0,0.0013717967085540295
288.0,-0.0012419649865478277
320.0,-0.009747329168021679
352.0,-0.007221822626888752
384.0,-0.0027551655657589436
416.0,0.004217903595417738
448.0,0.01680716872215271
480.0,0.019941985607147217
512.0,0.024754073470830917
576.0,0.014704491943120956
640.0,0.00959961861371994
704.0,0.016221782192587852
768.0,0.01755327545106411
832.0,0.02207743003964424
896.0,0.030258985236287117
960.0,0.011966785416007042
1024.0,-0.0046558985486626625
1152.0,0.0013292990624904633
1280.0,0.014274233020842075
1408.0,0.015473737381398678
1536.0,-0.0036541824229061604
1664.0,-0.006382879801094532
1792.0,-0.0017863907851278782
1920.0,-0.00011562107101781294
2048.0,0.0009535590652376413
2304.0,-0.003384194104000926
2560.0,-0.005778498947620392
2816.0,-0.0031632932368665934
3072.0,-0.0033791696187108755
3328.0,-0.004271413199603558
3584.0,0.005464890506118536
3840.0,-0.005922244396060705
4096.0,0.013505257666110992
4608.0,9.72215857473202e-05
5120.0,-0.0001078490458894521
5632.0,-0.008004401810467243
6144.0,-0.0025071098934859037
6656.0,-0.004757670685648918
7168.0,-0.009467829950153828
7680.0,-0.00915559008717537
8192.0,-0.011140597984194756
9216.0,-0.003399119945243001
10240.0,-0.011973625980317593
11264.0,-0.022661231458187103
12288.0,-0.00809477735310793
13312.0,0.02448275499045849
14336.0,0.027532033622264862
end
