version,3.0
numOfCh,1
type,point
parent_name,dirty_1dot0-1dot0
ch_type,1_1
kcount,1
numberNandB,1
brightnessNandB,1
carpet pos,0
pc,0
Time (ms),CH1 Auto-Correlation
1.0,0.19369114935398102
2.0,0.17505399882793427
3.0,0.16049672663211823
4.0,0.15063953399658203
5.0,0.14260657131671906
6.0,0.13709594309329987
7.0,0.13186566531658173
8.0,0.12589900195598602
9.0,0.11994815617799759
10.0,0.11497588455677032
11.0,0.11088822036981583
12.0,0.10652029514312744
13.0,0.1016688346862793
14.0,0.09660514444112778
15.0,0.09227079153060913
16.0,0.0888419970870018
18.0,0.08252713084220886
20.0,0.07708126306533813
22.0,0.07187175005674362
24.0,0.0680592730641365
26.0,0.06595912575721741
28.0,0.06292431056499481
30.0,0.059663426131010056
32.0,0.05683548375964165
36.0,0.05177246406674385
40.0,0.045357562601566315
44.0,0.04406970739364624
48.0,0.04037591814994812
52.0,0.03731605038046837
56.0,0.03261725604534149
60.0,0.02748202160000801
64.0,0.02274288609623909
72.0,0.01526876725256443
80.0,0.010674363933503628
88.0,0.007790034636855125
96.0,0.003932526800781488
104.0,0.004815433640033007
112.0,0.006517963483929634
120.0,0.009001631289720535
128.0,0.009447495453059673
144.0,0.00946806836873293
160.0,0.009271833114326
176.0,0.00897302757948637
192.0,0.011065746657550335
208.0,0.009803812950849533
224.0,0.005420419853180647
240.0,0.001979272114112973
256.0,0.0015073682880029082
288.0,0.004605461377650499
320.0,0.0014253142289817333
352.0,0.0017527490854263306
384.0,2.7120702725369483e-05
416.0,0.0034083875361829996
448.0,0.004718448501080275
480.0,-0.004571618512272835
512.0,-0.008238157257437706
576.0,0.00791669450700283
640.0,0.0046675316989421844
704.0,-0.0020869711879640818
768.0,0.00612097280099988
832.0,0.00474109360948205
896.0,0.00414240499958396
960.0,0.0007624869467690587
1024.0,0.002884619403630495
1152.0,0.007578257471323013
1280.0,0.0037144976668059826
1408.0,-0.005817833822220564
1536.0,0.004069684073328972
1664.0,0.0024892783258110285
1792.0,-0.005294139496982098
1920.0,0.0006812638021074235
2048.0,0.0036819553934037685
2304.0,0.0018989330856129527
2560.0,-0.00576996011659503
2816.0,-0.005610197316855192
3072.0,-0.00040574357262812555
3328.0,0.0077071175910532475
3584.0,-0.0052993143908679485
3840.0,-0.001716785365715623
4096.0,-0.010033868253231049
4608.0,-0.002702900907024741
5120.0,-0.005508330650627613
5632.0,0.004366657696664333
6144.0,0.0033425569999963045
6656.0,-0.0019233077764511108
7168.0,0.001835539354942739
7680.0,0.0061679407954216
8192.0,-0.0038642939180135727
9216.0,0.0019876635633409023
10240.0,0.0017451184103265405
11264.0,-0.005516454111784697
12288.0,-0.010408839210867882
13312.0,-0.013203277252614498
14336.0,-0.00749196857213974
end
