version,3.0
numOfCh,1
type,point
parent_name,dirty_1dot0-1dot0
ch_type,1_1
kcount,1
numberNandB,1
brightnessNandB,1
carpet pos,0
pc,0
Time (ms),CH1 Auto-Correlation
1.0,0.16331329941749573
2.0,0.15085181593894958
3.0,0.1403704285621643
4.0,0.13109014928340912
5.0,0.12418606877326965
6.0,0.11881841719150543
7.0,0.11362889409065247
8.0,0.10881379246711731
9.0,0.10450858622789383
10.0,0.10153825581073761
11.0,0.09929264336824417
12.0,0.09632482379674911
13.0,0.0937286987900734
14.0,0.09031043201684952
15.0,0.08770674467086792
16.0,0.08530782908201218
18.0,0.08186669647693634
20.0,0.07693508267402649
22.0,0.07149357348680496
24.0,0.06569357961416245
26.0,0.06101081892848015
28.0,0.05751309543848038
30.0,0.054466962814331055
32.0,0.050458647310733795
36.0,0.04299897328019142
40.0,0.0376751609146595
44.0,0.03366865590214729
48.0,0.030421027913689613
52.0,0.027947383001446724
56.0,0.02659623883664608
60.0,0.024652283638715744
64.0,0.023670457303524017
72.0,0.025831693783402443
80.0,0.02398551255464554
88.0,0.019847333431243896
96.0,0.01736174337565899
104.0,0.015208167023956776
112.0,0.01460297405719757
120.0,0.012861170805990696
128.0,0.009839046746492386
144.0,0.006664981134235859
160.0,0.003274334827437997
176.0,0.0032032274175435305
192.0,0.0040037911385297775
208.0,0.008266164921224117
224.0,0.010758046060800552
240.0,0.011174896731972694
256.0,0.010896903462707996
288.0,0.019105494022369385
320.0,0.016635878011584282
352.0,0.00964344386011362
384.0,0.00916107278317213
416.0,0.007006234023720026
448.0,0.0017600286519154906
480.0,0.004852980375289917
512.0,0.004279754590243101
576.0,0.0005968572804704309
640.0,0.015001488849520683
704.0,0.0038328259252011776
768.0,0.005229686386883259
832.0,-0.0004686187021434307
896.0,-0.004914863500744104
960.0,0.0004136987554375082
1024.0,0.004209097940474749
1152.0,-0.0022155428305268288
1280.0,0.0016830095555633307
1408.0,-0.0024377875961363316
1536.0,-0.002408569445833564
1664.0,-0.006246556527912617
1792.0,-0.006104619242250919
1920.0,-0.010808989405632019
2048.0,-0.010095406323671341
2304.0,-0.004317202605307102
2560.0,-0.007639731280505657
2816.0,-0.007619007024914026
3072.0,-0.008421204052865505
3328.0,-0.006005065981298685
3584.0,-0.005614105612039566
3840.0,-0.0029968200251460075
4096.0,0.0036177518777549267
4608.0,0.0072649139910936356
5120.0,0.00674766581505537
5632.0,0.0021837649401277304
6144.0,-0.0016690692864358425
6656.0,-0.007229591719806194
7168.0,-0.009605062194168568
7680.0,-0.000544748967513442
8192.0,-0.00032686430495232344
9216.0,0.0038816481828689575
10240.0,0.002586845774203539
11264.0,-0.0016182842664420605
12288.0,-0.0016266530146822333
13312.0,-0.0007364394259639084
14336.0,0.00026298945886082947
end
