version,3.0
numOfCh,1
type,point
parent_name,dirty_1dot0-1dot0
ch_type,1_1
kcount,1
numberNandB,1
brightnessNandB,1
carpet pos,0
pc,0
Time (ms),CH1 Auto-Correlation
1.0,0.20569606125354767
2.0,0.19095858931541443
3.0,0.17925845086574554
4.0,0.16998963057994843
5.0,0.16067659854888916
6.0,0.15215694904327393
7.0,0.1435960978269577
8.0,0.1376798003911972
9.0,0.13387933373451233
10.0,0.12949004769325256
11.0,0.126761794090271
12.0,0.12321896851062775
13.0,0.1178843230009079
14.0,0.11311570554971695
15.0,0.10957112163305283
16.0,0.10651157796382904
18.0,0.09859190881252289
20.0,0.09163715690374374
22.0,0.08854774385690689
24.0,0.08596000075340271
26.0,0.08314855396747589
28.0,0.08183135837316513
30.0,0.0793948620557785
32.0,0.07890574634075165
36.0,0.07282344251871109
40.0,0.062282662838697433
44.0,0.05271915718913078
48.0,0.04251086339354515
52.0,0.033069901168346405
56.0,0.02888515591621399
60.0,0.024702729657292366
64.0,0.021057087928056717
72.0,0.01739943027496338
80.0,0.01584496721625328
88.0,0.014366734772920609
96.0,0.010627534240484238
104.0,0.010794805362820625
112.0,0.012722429819405079
120.0,0.016126420348882675
128.0,0.02074841968715191
144.0,0.026133261620998383
160.0,0.025900013744831085
176.0,0.01836469955742359
192.0,0.002929819282144308
208.0,-0.008530502207577229
224.0,-0.011087228544056416
240.0,-0.010532804764807224
256.0,-0.008923831395804882
288.0,-0.005686610471457243
320.0,0.0042581139132380486
352.0,0.004430165980011225
384.0,-0.005966077093034983
416.0,-0.00738357612863183
448.0,-0.0011511415941640735
480.0,0.004596949089318514
512.0,0.002747944323346019
576.0,-0.006857162807136774
640.0,-0.002502072835341096
704.0,0.003685524221509695
768.0,-0.0013223327696323395
832.0,0.0005265121581032872
896.0,-0.0022771668154746294
960.0,-0.0038937737699598074
1024.0,-0.006282497197389603
1152.0,-0.005613395012915134
1280.0,0.009190940298140049
1408.0,0.008541079238057137
1536.0,0.0029337035957723856
1664.0,0.015758849680423737
1792.0,0.009521190077066422
1920.0,-0.0010708527406677604
2048.0,-0.005424512550234795
2304.0,0.004522246308624744
2560.0,-0.0010430971160531044
2816.0,-0.004474799148738384
3072.0,-0.0001288946659769863
3328.0,0.0004400336474645883
3584.0,-0.0005657956353388727
3840.0,-0.001841137302108109
4096.0,-0.008608046919107437
4608.0,0.0021514713298529387
5120.0,-0.002277132822200656
5632.0,-0.0054506342858076096
6144.0,-0.008716980926692486
6656.0,-0.0029848692938685417
7168.0,0.00029456891934387386
7680.0,-0.00012222162331454456
8192.0,-0.006041270215064287
9216.0,0.0049855890683829784
10240.0,-0.002408841857686639
11264.0,0.0018867956241592765
12288.0,0.005034082569181919
13312.0,-0.005964168347418308
14336.0,-0.0036880585830658674
end
