version,3.0
numOfCh,1
type,point
parent_name,dirty_1dot0-1dot0
ch_type,1_1
kcount,1
numberNandB,1
brightnessNandB,1
carpet pos,0
pc,0
Time (ms),CH1 Auto-Correlation
1.0,0.22731369733810425
2.0,0.21076886355876923
3.0,0.19661808013916016
4.0,0.1847894936800003
5.0,0.17221279442310333
6.0,0.1608227640390396
7.0,0.15210512280464172
8.0,0.14481274783611298
9.0,0.13832592964172363
10.0,0.1316617727279663
11.0,0.12565502524375916
12.0,0.12202055007219315
13.0,0.11672381311655045
14.0,0.11150271445512772
15.0,0.10768567025661469
16.0,0.10521520674228668
18.0,0.098185233771801
20.0,0.09078063070774078
22.0,0.08619099110364914
24.0,0.08229392021894455
26.0,0.07888299226760864
28.0,0.07622528076171875
30.0,0.07399741560220718
32.0,0.07143882662057877
36.0,0.0650789886713028
40.0,0.0636073425412178
44.0,0.06147361919283867
48.0,0.05754033103585243
52.0,0.055029358714818954
56.0,0.052228767424821854
60.0,0.04905596747994423
64.0,0.04792197421193123
72.0,0.03878174349665642
80.0,0.03362034633755684
88.0,0.0285275150090456
96.0,0.025202220305800438
104.0,0.02211514487862587
112.0,0.022475261241197586
120.0,0.020173329859972
128.0,0.0162515752017498
144.0,0.007084702607244253
160.0,-0.00036296676262281835
176.0,-0.0019499554764479399
192.0,-0.0019280705600976944
208.0,0.0008532466599717736
224.0,-4.216843535687076e-06
240.0,-0.0033302686642855406
256.0,0.0008490988984704018
288.0,0.0016536226030439138
320.0,0.003912967164069414
352.0,-0.001124233123846352
384.0,-0.007992670871317387
416.0,-0.008165721781551838
448.0,-0.007819844409823418
480.0,-0.011414761655032635
512.0,-0.006827885750681162
576.0,-0.008397421799600124
640.0,-0.011632914654910564
704.0,-0.01125237438827753
768.0,-0.008399969898164272
832.0,-0.0068538859486579895
896.0,-0.0026707397773861885
960.0,-0.004991309251636267
1024.0,0.0018018324626609683
1152.0,0.003675678977742791
1280.0,0.0029174694791436195
1408.0,0.0015674690948799253
1536.0,0.0029431465081870556
1664.0,-0.005823590327054262
1792.0,0.0013599732192233205
1920.0,0.011959831230342388
2048.0,0.005092637147754431
2304.0,0.00988593976944685
2560.0,-0.00329143600538373
2816.0,-0.004626486916095018
3072.0,0.0022477100137621164
3328.0,-0.0009836402023211122
3584.0,0.001638453803025186
3840.0,5.140396410752146e-07
4096.0,0.005764731205999851
4608.0,-0.0035759671591222286
5120.0,-0.004903470166027546
5632.0,-0.001650990336202085
6144.0,-0.003571504494175315
6656.0,-0.0035531362518668175
7168.0,0.000770506274420768
7680.0,-0.005380845628678799
8192.0,-0.008259989321231842
9216.0,7.887825631769374e-05
10240.0,0.0017676142742857337
11264.0,-0.004058296792209148
12288.0,0.00463592866435647
13312.0,0.0009231785661540926
14336.0,-0.0011524575529620051
end
