version,3.0
numOfCh,1
type,point
parent_name,dirty_1dot0-1dot0
ch_type,1_1
kcount,1
numberNandB,1
brightnessNandB,1
carpet pos,0
pc,0
Time (ms),CH1 Auto-Correlation
1.0,0.3491971492767334
2.0,0.3219335079193115
3.0,0.29600828886032104
4.0,0.27504268288612366
5.0,0.25502151250839233
6.0,0.23947179317474365
7.0,0.22459776699543
8.0,0.21586838364601135
9.0,0.20800019800662994
10.0,0.20017632842063904
11.0,0.19139565527439117
12.0,0.18263816833496094
13.0,0.17239899933338165
14.0,0.16246698796749115
15.0,0.15283729135990143
16.0,0.14399822056293488
18.0,0.13222548365592957
20.0,0.12479612976312637
22.0,0.11823873966932297
24.0,0.11027013510465622
26.0,0.10207466036081314
28.0,0.09466773271560669
30.0,0.09121762961149216
32.0,0.08680063486099243
36.0,0.07470343261957169
40.0,0.06326258182525635
44.0,0.061924103647470474
48.0,0.05739833042025566
52.0,0.04789022356271744
56.0,0.042903631925582886
60.0,0.037107352167367935
64.0,0.03508225828409195
72.0,0.0317060723900795
80.0,0.028876351192593575
88.0,0.026186447590589523
96.0,0.02634638361632824
104.0,0.02370525151491165
112.0,0.02219335548579693
120.0,0.019771428778767586
128.0,0.02223779633641243
144.0,0.023997848853468895
160.0,0.016718722879886627
176.0,0.012225759215652943
192.0,0.00579408323392272
208.0,0.005296466872096062
224.0,0.005311140790581703
240.0,0.009917395189404488
256.0,0.0033545983023941517
288.0,0.014503891579806805
320.0,0.0028754870872944593
352.0,0.0020768202375620604
384.0,-0.0016015004366636276
416.0,0.005213487893342972
448.0,0.022713834419846535
480.0,0.019726460799574852
512.0,0.004148638807237148
576.0,-0.0053438846953213215
640.0,-0.011233656667172909
704.0,-0.0029424789827317
768.0,-0.009564263746142387
832.0,-0.0068803587928414345
896.0,-0.01143778394907713
960.0,-0.00336122396402061
1024.0,-0.004225393291562796
1152.0,-0.011197926476597786
1280.0,-0.01268728170543909
1408.0,-0.009531203657388687
1536.0,-0.006550248246639967
1664.0,-0.0176437646150589
1792.0,-0.0077383993193507195
1920.0,0.005998695269227028
2048.0,-0.004062597174197435
2304.0,-0.009651931934058666
2560.0,-0.007261795457452536
2816.0,-0.0011155891697853804
3072.0,0.000554493279196322
3328.0,0.003495871787890792
3584.0,0.008504952304065228
3840.0,0.01871558651328087
4096.0,0.00937053095549345
4608.0,0.0010507411789149046
5120.0,-0.01101234182715416
5632.0,-0.009771001525223255
6144.0,-0.0007428166572935879
6656.0,0.005846244283020496
7168.0,0.0030362438410520554
7680.0,0.017915109172463417
8192.0,0.005909661762416363
9216.0,-0.010480671189725399
10240.0,-6.740394019288942e-05
11264.0,0.004154625348746777
12288.0,-0.0025659496895968914
13312.0,0.010687028057873249
14336.0,-0.006368651520460844
end
