version,3.0
numOfCh,1
type,point
parent_name,c1204_0dot1-1dot0
ch_type,1_1
kcount,1
numberNandB,1
brightnessNandB,1
carpet pos,0
pc,0
Time (ms),CH1 Auto-Correlation
1.0,0.03813724219799042
2.0,0.03766883537173271
3.0,0.03722722455859184
4.0,0.03680950030684471
5.0,0.03641730546951294
6.0,0.03602477163076401
7.0,0.03565259650349617
8.0,0.035284917801618576
9.0,0.034933216869831085
10.0,0.03457985445857048
11.0,0.03424540534615517
12.0,0.03391532227396965
13.0,0.03358845412731171
14.0,0.033264029771089554
15.0,0.03293345868587494
16.0,0.03261050954461098
18.0,0.03198552876710892
20.0,0.031341761350631714
22.0,0.030715981498360634
24.0,0.0300967488437891
26.0,0.029493384063243866
28.0,0.028896667063236237
30.0,0.028312109410762787
32.0,0.027734635397791862
36.0,0.026653092354536057
40.0,0.025567499920725822
44.0,0.024548683315515518
48.0,0.02364647388458252
52.0,0.022853167727589607
56.0,0.022057531401515007
60.0,0.021343328058719635
64.0,0.02068530023097992
72.0,0.019231583923101425
80.0,0.01788887195289135
88.0,0.01682286523282528
96.0,0.016086118295788765
104.0,0.015457434579730034
112.0,0.01494370587170124
120.0,0.014448185451328754
128.0,0.013952634297311306
144.0,0.012950455769896507
160.0,0.01202299166470766
176.0,0.011226040311157703
192.0,0.010268907062709332
208.0,0.009258930571377277
224.0,0.008208400569856167
240.0,0.00707528879866004
256.0,0.006260477472096682
288.0,0.005861178506165743
320.0,0.004795701242983341
352.0,0.002901954809203744
384.0,0.0014561464777216315
416.0,0.0004261455324012786
448.0,-0.0005373979802243412
480.0,-0.0022867796942591667
512.0,-0.0031255169305950403
576.0,-0.002898728009313345
640.0,-0.003671078011393547
704.0,-0.00292779179289937
768.0,-0.0015167106175795197
832.0,-0.0006050633965060115
896.0,0.00021883920999243855
960.0,-0.0008283210336230695
1024.0,1.0851304978132248e-05
1152.0,0.0008141150465235114
1280.0,-0.0012968594674021006
1408.0,-0.0028644539415836334
1536.0,-0.002013180172070861
1664.0,0.0009683833923190832
1792.0,0.003015991300344467
1920.0,0.0013068586122244596
2048.0,0.0015911286463961005
2304.0,-0.0028312066569924355
2560.0,-0.0022069187834858894
2816.0,-0.0005440734094008803
3072.0,-0.002542453818023205
3328.0,-0.0010120985098183155
3584.0,0.0020566782914102077
3840.0,-0.002139223041012883
4096.0,-0.0036922909785062075
4608.0,0.002450980944558978
5120.0,0.003135196166113019
5632.0,0.0011821383377537131
6144.0,-0.0052508884109556675
6656.0,-0.004214543849229813
7168.0,0.00036553372046910226
7680.0,-0.006163078360259533
8192.0,0.00314768822863698
end
