version,3.0
numOfCh,1
type,point
parent_name,c1204_0dot1-1dot0
ch_type,1_1
kcount,1
numberNandB,1
brightnessNandB,1
carpet pos,0
pc,0
Time (ms),CH1 Auto-Correlation
1.0,0.03377809375524521
2.0,0.0333736278116703
3.0,0.03298473730683327
4.0,0.03259964659810066
5.0,0.03222111612558365
6.0,0.03183475509285927
7.0,0.031483542174100876
8.0,0.031133169308304787
9.0,0.03078101947903633
10.0,0.03042774088680744
11.0,0.030071044340729713
12.0,0.0297378059476614
13.0,0.02942345291376114
14.0,0.02911568619310856
15.0,0.02881341055035591
16.0,0.028528831899166107
18.0,0.02799111418426037
20.0,0.027474114671349525
22.0,0.026980077847838402
24.0,0.026488592848181725
26.0,0.026007264852523804
28.0,0.025544168427586555
30.0,0.025102203711867332
32.0,0.02466246671974659
36.0,0.023815298452973366
40.0,0.0230549369007349
44.0,0.022364450618624687
48.0,0.02169055864214897
52.0,0.02102743647992611
56.0,0.020374653860926628
60.0,0.019765188917517662
64.0,0.019210724160075188
72.0,0.01838071271777153
80.0,0.017537226900458336
88.0,0.016633715480566025
96.0,0.015566167421638966
104.0,0.014633186161518097
112.0,0.013891715556383133
120.0,0.013173085637390614
128.0,0.012433268129825592
144.0,0.011193178594112396
160.0,0.010514526627957821
176.0,0.010024664923548698
192.0,0.009218634106218815
208.0,0.008322570472955704
224.0,0.007290393114089966
240.0,0.0065953549928963184
256.0,0.005873178131878376
288.0,0.004932648502290249
320.0,0.004683386068791151
352.0,0.00461555365473032
384.0,0.0035936066415160894
416.0,0.0026542304549366236
448.0,0.00156547746155411
480.0,0.0011866481509059668
512.0,0.001137048238888383
576.0,0.0015860912390053272
640.0,0.0014786727260798216
704.0,0.0004735983384307474
768.0,0.0008105204906314611
832.0,0.0002059914404526353
896.0,-0.0008283167262561619
960.0,-0.0003498755395412445
1024.0,-0.0012576859444379807
1152.0,-0.0009004520834423602
1280.0,0.0006770182517357171
1408.0,0.001144666806794703
1536.0,0.003150083590298891
1664.0,0.0016960749635472894
1792.0,0.001397299929521978
1920.0,0.001091394224204123
2048.0,-9.350780601380393e-05
2304.0,0.0019757782574743032
2560.0,0.0026373914442956448
2816.0,-0.0005840063677169383
3072.0,0.0016319449059665203
3328.0,0.0020918548107147217
3584.0,-0.0018490083748474717
3840.0,-0.004697287455201149
4096.0,-0.005510748364031315
4608.0,-0.006097670178860426
5120.0,-0.0015826981980353594
5632.0,0.0027723624370992184
6144.0,-0.005148725118488073
6656.0,-0.004886390641331673
7168.0,-0.0009905812330543995
7680.0,-0.0027537429705262184
8192.0,0.002780258422717452
end
