version,3.0
numOfCh,1
type,point
parent_name,c1204_0dot1-1dot0
ch_type,1_1
kcount,1
numberNandB,1
brightnessNandB,1
carpet pos,0
pc,0
Time (ms),CH1 Auto-Correlation
1.0,0.044958893209695816
2.0,0.04448305442929268
3.0,0.04404086619615555
4.0,0.043629374355077744
5.0,0.04323224723339081
6.0,0.042854078114032745
7.0,0.04248839616775513
8.0,0.04214204102754593
9.0,0.041804615408182144
10.0,0.04146046191453934
11.0,0.041142065078020096
12.0,0.04082789272069931
13.0,0.04052943363785744
14.0,0.04023246839642525
15.0,0.039922576397657394
16.0,0.039623137563467026
18.0,0.03902394697070122
20.0,0.03841881453990936
22.0,0.03786589577794075
24.0,0.03734654560685158
26.0,0.036861076951026917
28.0,0.03635348379611969
30.0,0.03583858907222748
32.0,0.035368964076042175
36.0,0.03446323797106743
40.0,0.033579133450984955
44.0,0.032681044191122055
48.0,0.03182901442050934
52.0,0.03097030334174633
56.0,0.030149124562740326
60.0,0.02932921051979065
64.0,0.028595920652151108
72.0,0.027249185368418694
80.0,0.02608812414109707
88.0,0.02507615275681019
96.0,0.023929961025714874
104.0,0.022777004167437553
112.0,0.021683957427740097
120.0,0.02065344527363777
128.0,0.01965636946260929
144.0,0.01783021353185177
160.0,0.01593906804919243
176.0,0.014233933761715889
192.0,0.012713507749140263
208.0,0.011604717001318932
224.0,0.010572182945907116
240.0,0.009742640890181065
256.0,0.00912612397223711
288.0,0.007808656897395849
320.0,0.007000301964581013
352.0,0.006376884877681732
384.0,0.006430722773075104
416.0,0.006334210745990276
448.0,0.005534003954380751
480.0,0.004479863680899143
512.0,0.0040490212850272655
576.0,0.0022678542882204056
640.0,0.002357765566557646
704.0,0.0021767353173345327
768.0,0.002806092845275998
832.0,0.0016923544462770224
896.0,0.001012873835861683
960.0,0.002065356820821762
1024.0,0.003114385763183236
1152.0,0.004494171589612961
1280.0,0.0026511489413678646
1408.0,0.002021051710471511
1536.0,0.0026371644344180822
1664.0,0.0005010607419535518
1792.0,-0.0005204314365983009
1920.0,-0.00013194103667046875
2048.0,-0.004492426756769419
2304.0,-0.008740425109863281
2560.0,-0.005014924332499504
2816.0,-0.002113020047545433
3072.0,-0.003251932328566909
3328.0,-0.001473922748118639
3584.0,-0.00487520033493638
3840.0,-0.0056234244257211685
4096.0,-0.0034785247407853603
4608.0,-0.002465412952005863
5120.0,0.0019027539528906345
5632.0,-0.0073579540476202965
6144.0,0.0009596741874702275
6656.0,0.002968013286590576
7168.0,0.0010978167410939932
7680.0,0.007568843197077513
8192.0,0.004326764959841967
end
