version,3.0
numOfCh,1
type,point
parent_name,c1204_0dot1-1dot0
ch_type,1_1
kcount,1
numberNandB,1
brightnessNandB,1
carpet pos,0
pc,0
Time (ms),CH1 Auto-Correlation
1.0,0.04009952023625374
2.0,0.03969298303127289
3.0,0.03931755572557449
4.0,0.03895410895347595
5.0,0.03860800340771675
6.0,0.03826010227203369
7.0,0.0379154272377491
8.0,0.03757913410663605
9.0,0.03723330423235893
10.0,0.03689180687069893
11.0,0.0365615040063858
12.0,0.03623609244823456
13.0,0.03591758757829666
14.0,0.03560524806380272
15.0,0.03529294580221176
16.0,0.03498849645256996
18.0,0.034434325993061066
20.0,0.03389579802751541
22.0,0.033364344388246536
24.0,0.03286534175276756
26.0,0.032406289130449295
28.0,0.03195585682988167
30.0,0.031498294323682785
32.0,0.031048055738210678
36.0,0.030112208798527718
40.0,0.029191002249717712
44.0,0.02835969813168049
48.0,0.027616312727332115
52.0,0.026897652074694633
56.0,0.026178410276770592
60.0,0.025490982457995415
64.0,0.02478206716477871
72.0,0.023633252829313278
80.0,0.022649141028523445
88.0,0.021760305389761925
96.0,0.021033143624663353
104.0,0.02028713747859001
112.0,0.019526643678545952
120.0,0.019002312794327736
128.0,0.018674956634640694
144.0,0.018005328252911568
160.0,0.017419835552573204
176.0,0.016530629247426987
192.0,0.015776241198182106
208.0,0.015039164572954178
224.0,0.014439268968999386
240.0,0.013896288350224495
256.0,0.01332121342420578
288.0,0.01287932600826025
320.0,0.012234246358275414
352.0,0.011916271410882473
384.0,0.011619637720286846
416.0,0.010750990360975266
448.0,0.01069052517414093
480.0,0.010516812093555927
512.0,0.010480709373950958
576.0,0.009888903237879276
640.0,0.009925803169608116
704.0,0.007895132526755333
768.0,0.007777201011776924
832.0,0.0068772537633776665
896.0,0.006620218977332115
960.0,0.0068557607010006905
1024.0,0.007855365984141827
1152.0,0.005579181481152773
1280.0,0.003441633889451623
1408.0,0.002707188716158271
1536.0,0.0037160085048526525
1664.0,0.003181819338351488
1792.0,0.0004355931014288217
1920.0,-0.0020827017724514008
2048.0,-0.004165485966950655
2304.0,-0.003823083359748125
2560.0,-0.0034151149448007345
2816.0,-0.004422364290803671
3072.0,-0.003180556930601597
3328.0,-0.0033277065958827734
3584.0,-0.0045906477607786655
3840.0,-0.003976618405431509
4096.0,-0.004236868117004633
4608.0,-0.0032274730037897825
5120.0,-0.005495502147823572
5632.0,-0.00017600905266590416
6144.0,0.005718074273318052
6656.0,0.0024319039657711983
7168.0,0.00479107815772295
7680.0,0.0065434155985713005
8192.0,0.0016900707269087434
end
