version,3.0
numOfCh,1
type,point
parent_name,c1204_0dot1-1dot0
ch_type,1_1
kcount,1
numberNandB,1
brightnessNandB,1
carpet pos,0
pc,0
Time (ms),CH1 Auto-Correlation
1.0,0.03978899121284485
2.0,0.03933439403772354
3.0,0.038914114236831665
4.0,0.038517195731401443
5.0,0.03810500353574753
6.0,0.037708040326833725
7.0,0.03731453791260719
8.0,0.03694140911102295
9.0,0.03658076748251915
10.0,0.03623896464705467
11.0,0.03590800240635872
12.0,0.03557261452078819
13.0,0.035240065306425095
14.0,0.03491358831524849
15.0,0.03458583727478981
16.0,0.034251052886247635
18.0,0.03362561762332916
20.0,0.033033061772584915
22.0,0.03248373791575432
24.0,0.03197140619158745
26.0,0.03145625442266464
28.0,0.030930861830711365
30.0,0.030385591089725494
32.0,0.029833098873496056
36.0,0.028791798278689384
40.0,0.02786724828183651
44.0,0.026981689035892487
48.0,0.02603049948811531
52.0,0.025082401931285858
56.0,0.024193646386265755
60.0,0.023289088159799576
64.0,0.02236604504287243
72.0,0.02065053954720497
80.0,0.019147489219903946
88.0,0.01779693365097046
96.0,0.01647367514669895
104.0,0.015209502540528774
112.0,0.013989737257361412
120.0,0.012810909189283848
128.0,0.0117860222235322
144.0,0.009811792522668839
160.0,0.008077582344412804
176.0,0.006778128445148468
192.0,0.005752728786319494
208.0,0.004584116395562887
224.0,0.00371545203961432
240.0,0.0029961615800857544
256.0,0.002674436429515481
288.0,0.0026238129939883947
320.0,0.0024670888669788837
352.0,0.0017014011973515153
384.0,0.0015370057662948966
416.0,0.0015453711384907365
448.0,0.0020156886894255877
480.0,0.002523979637771845
512.0,0.0024290261790156364
576.0,0.0007361810421571136
640.0,0.0008968592737801373
704.0,0.0013640818651765585
768.0,0.0024957277346402407
832.0,0.0018094463739544153
896.0,0.0006244465475901961
960.0,0.0016190757742151618
1024.0,0.0037658140063285828
1152.0,0.007116198074072599
1280.0,0.006936528254300356
1408.0,0.0003665444965008646
1536.0,-0.0005553180817514658
1664.0,5.733903162763454e-05
1792.0,0.00026998057728633285
1920.0,-0.00222797691822052
2048.0,-0.0029758510645478964
2304.0,0.0004351979005150497
2560.0,0.0004594561760313809
2816.0,-0.0036438589449971914
3072.0,-0.001064714859239757
3328.0,-0.00615500146523118
3584.0,0.00015373399946838617
3840.0,0.002343389205634594
4096.0,-0.003479243256151676
4608.0,-0.0013288551708683372
5120.0,-0.0019382236059755087
5632.0,-0.0022620235104113817
6144.0,-0.00420551560819149
6656.0,0.0001776522258296609
7168.0,-0.0032726519275456667
7680.0,-0.001544737140648067
8192.0,0.0026419188361614943
end
