version,3.0
numOfCh,1
type,point
parent_name,c1204_0dot1-1dot0
ch_type,1_1
kcount,1
numberNandB,1
brightnessNandB,1
carpet pos,0
pc,0
Time (ms),CH1 Auto-Correlation
1.0,0.037642866373062134
2.0,0.03716782480478287
3.0,0.03673258423805237
4.0,0.03630326688289642
5.0,0.035901475697755814
6.0,0.03551891818642616
7.0,0.035153016448020935
8.0,0.034796759486198425
9.0,0.03442598879337311
10.0,0.03407087177038193
11.0,0.033716533333063126
12.0,0.03337538242340088
13.0,0.033025018870830536
14.0,0.03266260400414467
15.0,0.032325249165296555
16.0,0.03199254348874092
18.0,0.03132225573062897
20.0,0.03070802427828312
22.0,0.030111007392406464
24.0,0.02949458546936512
26.0,0.0288783460855484
28.0,0.028325624763965607
30.0,0.027811026200652122
32.0,0.02732202596962452
36.0,0.026285622268915176
40.0,0.025257078930735588
44.0,0.024258043617010117
48.0,0.023267017677426338
52.0,0.022359952330589294
56.0,0.021523049101233482
60.0,0.02075360342860222
64.0,0.02008102647960186
72.0,0.018804345279932022
80.0,0.01774553395807743
88.0,0.016762660816311836
96.0,0.01586996577680111
104.0,0.015108127146959305
112.0,0.014258364215493202
120.0,0.013445824384689331
128.0,0.012622762471437454
144.0,0.011183236725628376
160.0,0.009836871176958084
176.0,0.008658070117235184
192.0,0.00818305741995573
208.0,0.008230401203036308
224.0,0.008391469717025757
240.0,0.008729901164770126
256.0,0.008757606148719788
288.0,0.007660620845854282
320.0,0.006501735188066959
352.0,0.00585097586736083
384.0,0.005411508027464151
416.0,0.005224920809268951
448.0,0.0051187193021178246
480.0,0.005455583333969116
512.0,0.00536955613642931
576.0,0.004621323198080063
640.0,0.004174345638602972
704.0,0.0029378130566328764
768.0,0.0036892928183078766
832.0,0.0037792304065078497
896.0,0.0023494292981922626
960.0,0.0009244072716683149
1024.0,0.00020495969511102885
1152.0,-0.00254908949136734
1280.0,-0.0013574796030297875
1408.0,0.0019998589996248484
1536.0,0.0015138897579163313
1664.0,0.004213941283524036
1792.0,0.004847055301070213
1920.0,0.0020728865638375282
2048.0,-0.00026972571504302323
2304.0,-0.0012166207889094949
2560.0,-0.0020970702171325684
2816.0,-0.0032057869248092175
3072.0,-0.007371935527771711
3328.0,-0.002035080920904875
3584.0,0.00028728641336783767
3840.0,-0.001339705428108573
4096.0,-0.003915885929018259
4608.0,-0.0025729923509061337
5120.0,-0.002241413574665785
5632.0,-0.0021533314138650894
6144.0,-0.00268968241289258
6656.0,-0.0031618415378034115
7168.0,-0.0038546686992049217
7680.0,-0.0002538081316743046
8192.0,-0.001950773410499096
end
