version,3.0
numOfCh,1
type,point
parent_name,c1204_0dot1-1dot0
ch_type,1_1
kcount,1
numberNandB,1
brightnessNandB,1
carpet pos,0
pc,0
Time (ms),CH1 Auto-Correlation
1.0,0.035058021545410156
2.0,0.03454283997416496
3.0,0.034089345484972
4.0,0.03365647792816162
5.0,0.03325987979769707
6.0,0.03288594260811806
7.0,0.03252512216567993
8.0,0.032168108969926834
9.0,0.031811270862817764
10.0,0.03144914656877518
11.0,0.03108053281903267
12.0,0.030736975371837616
13.0,0.030393311753869057
14.0,0.030061984434723854
15.0,0.029737915843725204
16.0,0.029417607933282852
18.0,0.02879590541124344
20.0,0.028184201568365097
22.0,0.02757989428937435
24.0,0.02703673578798771
26.0,0.026496566832065582
28.0,0.025951534509658813
30.0,0.025446759536862373
32.0,0.024955492466688156
36.0,0.02403869666159153
40.0,0.023112250491976738
44.0,0.022276178002357483
48.0,0.021482836455106735
52.0,0.020699750632047653
56.0,0.019956298172473907
60.0,0.019253849983215332
64.0,0.01861272007226944
72.0,0.017376387491822243
80.0,0.016272056847810745
88.0,0.015495501458644867
96.0,0.015011158771812916
104.0,0.014569995924830437
112.0,0.01398776937276125
120.0,0.013378443196415901
128.0,0.012629766948521137
144.0,0.011029147543013096
160.0,0.009437176398932934
176.0,0.008427826687693596
192.0,0.007865974679589272
208.0,0.007350534200668335
224.0,0.006907774601131678
240.0,0.006420142948627472
256.0,0.005627460312098265
288.0,0.004180136136710644
320.0,0.0029094049241393805
352.0,0.0019132776651531458
384.0,0.0005772869917564094
416.0,-0.00039085917524062097
448.0,-0.0005786934634670615
480.0,-0.0005241187172941864
512.0,-0.000406614039093256
576.0,-0.0011590872891247272
640.0,-0.0006757071241736412
704.0,-4.4917029299540445e-05
768.0,0.0011785062961280346
832.0,0.0017223407048732042
896.0,0.0033198578748852015
960.0,0.004230205435305834
1024.0,0.002892451360821724
1152.0,0.0018510003574192524
1280.0,-0.0007876836461946368
1408.0,4.095486656296998e-05
1536.0,0.0030446031596511602
1664.0,0.0027611071709543467
1792.0,0.0017245892668142915
1920.0,-0.000704154372215271
2048.0,-0.0021926015615463257
2304.0,-0.0032050868030637503
2560.0,0.0011699622264131904
2816.0,-0.0030355206690728664
3072.0,-0.0008218766888603568
3328.0,0.0003505668428260833
3584.0,0.0021137536969035864
3840.0,-0.0024800668470561504
4096.0,5.3998624025553e-06
4608.0,0.0008293009013868868
5120.0,-0.006785886827856302
5632.0,-0.0019579005893319845
6144.0,-0.0008172859670594335
6656.0,-0.0004513951425906271
7168.0,-0.002988670952618122
7680.0,-0.0002945275919046253
8192.0,0.006372183561325073
end
