version,3.0
numOfCh,1
type,point
parent_name,c1204_0dot1-1dot0
ch_type,1_1
kcount,1
numberNandB,1
brightnessNandB,1
carpet pos,0
pc,0
Time (ms),CH1 Auto-Correlation
1.0,0.02774249203503132
2.0,0.027351606637239456
3.0,0.0269809290766716
4.0,0.02663556858897209
5.0,0.026292050257325172
6.0,0.02595164068043232
7.0,0.025611739605665207
8.0,0.025274496525526047
9.0,0.02495010942220688
10.0,0.024634625762701035
11.0,0.02431677095592022
12.0,0.02399800531566143
13.0,0.023692453280091286
14.0,0.023403704166412354
15.0,0.023110533133149147
16.0,0.02282341755926609
18.0,0.022269925102591515
20.0,0.021734492853283882
22.0,0.021226951852440834
24.0,0.020720861852169037
26.0,0.020217793062329292
28.0,0.01975071057677269
30.0,0.01934526115655899
32.0,0.018975816667079926
36.0,0.018299095332622528
40.0,0.017696095630526543
44.0,0.017143255099654198
48.0,0.016598379239439964
52.0,0.016002632677555084
56.0,0.015388010069727898
60.0,0.014766808599233627
64.0,0.014181804843246937
72.0,0.013063711114227772
80.0,0.012028505094349384
88.0,0.011169316247105598
96.0,0.01039451826363802
104.0,0.009596848860383034
112.0,0.008778356947004795
120.0,0.008088316768407822
128.0,0.007590113207697868
144.0,0.006833316758275032
160.0,0.006051241885870695
176.0,0.005098291207104921
192.0,0.004339965991675854
208.0,0.0038382685743272305
224.0,0.0038959337398409843
240.0,0.0037032472901046276
256.0,0.003339736722409725
288.0,0.003575339913368225
320.0,0.0031788141932338476
352.0,0.0027608133386820555
384.0,0.0024590513203293085
416.0,0.0017888570437207818
448.0,0.0009378636023029685
480.0,0.0003405254101380706
512.0,0.00030773243634030223
576.0,-0.0005342193762771785
640.0,-0.0005755375022999942
704.0,0.0005641519092023373
768.0,0.0018990194657817483
832.0,0.0018270601285621524
896.0,0.0010642692213878036
960.0,-0.0008374040480703115
1024.0,-0.0017028743168339133
1152.0,-0.004495410248637199
1280.0,-0.00486422423273325
1408.0,-0.0040435935370624065
1536.0,-0.002950256457552314
1664.0,-0.0019110337598249316
1792.0,-0.0012876148102805018
1920.0,-0.0013376274146139622
2048.0,-0.0037738627288490534
2304.0,-0.0005582289304584265
2560.0,0.0020359624177217484
2816.0,0.0002130460925400257
3072.0,-0.00016522298392374068
3328.0,0.0016485133673995733
3584.0,0.0001507296838099137
3840.0,-0.000672847090754658
4096.0,-0.00048164810868911445
4608.0,-0.0005188520299270749
5120.0,-0.001173502649180591
5632.0,-0.0022747416514903307
6144.0,-0.0017202681628987193
6656.0,0.004161660559475422
7168.0,0.003799974452704191
7680.0,-0.0005675400607287884
8192.0,-0.003961191512644291
end
