version,3.0
numOfCh,1
type,point
parent_name,c1204_0dot1-1dot0
ch_type,1_1
kcount,1
numberNandB,1
brightnessNandB,1
carpet pos,0
pc,0
Time (ms),CH1 Auto-Correlation
1.0,0.034480564296245575
2.0,0.034020841121673584
3.0,0.03357870504260063
4.0,0.03316127881407738
5.0,0.032748445868492126
6.0,0.032378196716308594
7.0,0.03200552985072136
8.0,0.031647760421037674
9.0,0.03128684312105179
10.0,0.030943721532821655
11.0,0.03059883788228035
12.0,0.030272791162133217
13.0,0.029937803745269775
14.0,0.02962816134095192
15.0,0.029309220612049103
16.0,0.029001303017139435
18.0,0.028390351682901382
20.0,0.02777264267206192
22.0,0.02723085507750511
24.0,0.026729753240942955
26.0,0.026223352178931236
28.0,0.025729874148964882
30.0,0.025270072743296623
32.0,0.024852793663740158
36.0,0.023991139605641365
40.0,0.02310917153954506
44.0,0.022271398454904556
48.0,0.021484380587935448
52.0,0.020704828202724457
56.0,0.020042259246110916
60.0,0.019333453848958015
64.0,0.018602821975946426
72.0,0.01717471331357956
80.0,0.01578758843243122
88.0,0.014572412706911564
96.0,0.013420788571238518
104.0,0.012523677200078964
112.0,0.01180438231676817
120.0,0.011341727338731289
128.0,0.011037535034120083
144.0,0.010776981711387634
160.0,0.010438421741127968
176.0,0.009777967818081379
192.0,0.00899481400847435
208.0,0.0084738340228796
224.0,0.007892746478319168
240.0,0.007310579065233469
256.0,0.006863093469291925
288.0,0.006110470276325941
320.0,0.004768251907080412
352.0,0.002728700404986739
384.0,0.0008391956216655672
416.0,0.0005618289578706026
448.0,0.001057041808962822
480.0,0.0015018164413049817
512.0,0.001144347246736288
576.0,0.000925564207136631
640.0,0.0008647853974252939
704.0,-0.00031615118496119976
768.0,-0.00027609572862274945
832.0,0.0009030721848830581
896.0,-0.0001445568195777014
960.0,-0.00234504253603518
1024.0,-0.0017299751052632928
1152.0,-0.0018662854563444853
1280.0,-0.0017458363436162472
1408.0,-0.0025856189895421267
1536.0,-0.0039301672950387
1664.0,-0.0038197189569473267
1792.0,-0.002812052145600319
1920.0,-0.002226661890745163
2048.0,-0.002973272930830717
2304.0,-0.0021649557165801525
2560.0,-0.0006381830899044871
2816.0,0.001323950826190412
3072.0,-0.0008262280025519431
3328.0,-0.0014094752259552479
3584.0,0.0011737286113202572
3840.0,0.000303819339023903
4096.0,-0.0009888644563034177
4608.0,-0.0009733138140290976
5120.0,-0.0008072518394328654
5632.0,-0.004128484986722469
6144.0,0.0028978660702705383
6656.0,0.0071014598943293095
7168.0,0.0011612350353971124
7680.0,-0.0021410323679447174
8192.0,-0.0014580017887055874
end
