version,3.0
numOfCh,1
type,point
parent_name,c1204_0dot1-1dot0
ch_type,1_1
kcount,1
numberNandB,1
brightnessNandB,1
carpet pos,0
pc,0
Time (ms),CH1 Auto-Correlation
1.0,0.054452020674943924
2.0,0.05392758920788765
3.0,0.05345749482512474
4.0,0.05301619693636894
5.0,0.0525880865752697
6.0,0.05218622088432312
7.0,0.05180196091532707
8.0,0.051442451775074005
9.0,0.05106992647051811
10.0,0.050705038011074066
11.0,0.05032780393958092
12.0,0.04997052252292633
13.0,0.04961855709552765
14.0,0.04927746579051018
15.0,0.04892849549651146
16.0,0.04857172071933746
18.0,0.04790610447525978
20.0,0.04727137088775635
22.0,0.046661704778671265
24.0,0.046075526624917984
26.0,0.04549428075551987
28.0,0.044943369925022125
30.0,0.04444961994886398
32.0,0.04397490248084068
36.0,0.04298848286271095
40.0,0.04201380908489227
44.0,0.04116421565413475
48.0,0.04034584015607834
52.0,0.03956250846385956
56.0,0.038890112191438675
60.0,0.03833746910095215
64.0,0.03793469816446304
72.0,0.03721877187490463
80.0,0.03639394789934158
88.0,0.035466503351926804
96.0,0.03457150235772133
104.0,0.033753473311662674
112.0,0.0328165628015995
120.0,0.03180327266454697
128.0,0.030830517411231995
144.0,0.029193494468927383
160.0,0.027808785438537598
176.0,0.026815738528966904
192.0,0.025705577805638313
208.0,0.024662306532263756
224.0,0.023203350603580475
240.0,0.021689128130674362
256.0,0.02044505998492241
288.0,0.01876194402575493
320.0,0.01694195531308651
352.0,0.01533662248402834
384.0,0.013900190591812134
416.0,0.01198524422943592
448.0,0.010261213406920433
480.0,0.008918811567127705
512.0,0.007478710263967514
576.0,0.0037793561350554228
640.0,0.0025483134668320417
704.0,0.0022924577351659536
768.0,0.0022922400385141373
832.0,0.003339480608701706
896.0,0.004781939554959536
960.0,0.006011473946273327
1024.0,0.008175910450518131
1152.0,0.010254460386931896
1280.0,0.010813952423632145
1408.0,0.009194535203278065
1536.0,0.0054848273284733295
1664.0,0.003483516862615943
1792.0,0.0035694167017936707
1920.0,0.004168706480413675
2048.0,0.004505315329879522
2304.0,0.0025814336258918047
2560.0,-0.0040371958166360855
2816.0,-0.00664435513317585
3072.0,-0.00284323887899518
3328.0,0.0012479302240535617
3584.0,0.0019566365517675877
3840.0,-0.006027604453265667
4096.0,-0.0062090191058814526
4608.0,0.000110134162241593
5120.0,-0.00044458749471232295
5632.0,-0.0006943312473595142
6144.0,0.0008737025782465935
6656.0,-0.001963062910363078
7168.0,-0.012969126924872398
7680.0,-0.014665805734694004
8192.0,-0.011517569422721863
end
