version,3.0
numOfCh,1
type,point
parent_name,c1204_0dot1-1dot0
ch_type,1_1
kcount,1
numberNandB,1
brightnessNandB,1
carpet pos,0
pc,0
Time (ms),CH1 Auto-Correlation
1.0,0.03267155587673187
2.0,0.03213399648666382
3.0,0.03168562799692154
4.0,0.031230254098773003
5.0,0.030822286382317543
6.0,0.030406838282942772
7.0,0.030006609857082367
8.0,0.0296426173299551
9.0,0.029256723821163177
10.0,0.028872547671198845
11.0,0.02853202261030674
12.0,0.028173843398690224
13.0,0.027831315994262695
14.0,0.027497000992298126
15.0,0.02717955969274044
16.0,0.0268409326672554
18.0,0.02619924582540989
20.0,0.025588367134332657
22.0,0.024986788630485535
24.0,0.02443234995007515
26.0,0.023931343108415604
28.0,0.023436930030584335
30.0,0.022942140698432922
32.0,0.022447653114795685
36.0,0.021422257646918297
40.0,0.020412100479006767
44.0,0.019441604614257812
48.0,0.018537549301981926
52.0,0.01762751303613186
56.0,0.016804436221718788
60.0,0.016060469672083855
64.0,0.015325620770454407
72.0,0.014043862000107765
80.0,0.01276951190084219
88.0,0.011582039296627045
96.0,0.010383781976997852
104.0,0.009249748662114143
112.0,0.008392567746341228
120.0,0.007844771258533001
128.0,0.007452816236764193
144.0,0.00656713405624032
160.0,0.005636860616505146
176.0,0.004913076758384705
192.0,0.004399099387228489
208.0,0.00385227520018816
224.0,0.0031561567448079586
240.0,0.002521712565794587
256.0,0.002688426524400711
288.0,0.0026659255381673574
320.0,0.0017160275019705296
352.0,0.0009983099298551679
384.0,9.290983871323988e-05
416.0,-0.00075070362072438
448.0,-0.0022029841784387827
480.0,-0.0019482835195958614
512.0,-0.001344184740446508
576.0,-0.00037841920857317746
640.0,0.0006773389177396894
704.0,0.0003599008487071842
768.0,-7.478841143893078e-05
832.0,0.0013710701605305076
896.0,0.001991820987313986
960.0,0.001153059070929885
1024.0,-7.993928738869727e-05
1152.0,-0.0031547334510833025
1280.0,-0.001080631627701223
1408.0,-0.0010957845952361822
1536.0,-0.00037414973485283554
1664.0,0.0016492282738909125
1792.0,-0.0014722899068146944
1920.0,-0.002269935794174671
2048.0,-0.001431925455108285
2304.0,-0.00083635636838153
2560.0,0.001503203297033906
2816.0,6.416386167984456e-05
3072.0,-0.0007822903571650386
3328.0,0.0011329492554068565
3584.0,0.00011311082198517397
3840.0,-0.0012328687589615583
4096.0,8.487189916195348e-05
4608.0,0.002443138509988785
5120.0,-0.00023299157328438014
5632.0,-0.0028788046911358833
6144.0,-0.0016006736550480127
6656.0,-0.004445172846317291
7168.0,0.001196168246679008
7680.0,-0.0016952742589637637
8192.0,-0.002828387776389718
end
