version,3.0
numOfCh,1
type,point
parent_name,c1204_0dot1-1dot0
ch_type,1_1
kcount,1
numberNandB,1
brightnessNandB,1
carpet pos,0
pc,0
Time (ms),CH1 Auto-Correlation
1.0,0.04305295646190643
2.0,0.04253697395324707
3.0,0.04204752668738365
4.0,0.04159308969974518
5.0,0.04115288704633713
6.0,0.04071451723575592
7.0,0.04028991237282753
8.0,0.039903558790683746
9.0,0.039492566138505936
10.0,0.039116021245718
11.0,0.038750775158405304
12.0,0.03842294588685036
13.0,0.038088392466306686
14.0,0.03774728253483772
15.0,0.03740125149488449
16.0,0.03707154467701912
18.0,0.036438070237636566
20.0,0.03580104187130928
22.0,0.035144172608852386
24.0,0.03451878949999809
26.0,0.033898599445819855
28.0,0.033315520733594894
30.0,0.03275078535079956
32.0,0.03219398856163025
36.0,0.03112228773534298
40.0,0.03009893372654915
44.0,0.029118070378899574
48.0,0.028194071725010872
52.0,0.027277281507849693
56.0,0.02641269937157631
60.0,0.025587579235434532
64.0,0.024770202115178108
72.0,0.023112308233976364
80.0,0.021824583411216736
88.0,0.02078697271645069
96.0,0.019801542162895203
104.0,0.01888602040708065
112.0,0.017975617200136185
120.0,0.017136510461568832
128.0,0.0163341723382473
144.0,0.015244126319885254
160.0,0.01461850292980671
176.0,0.014334985055029392
192.0,0.014301810413599014
208.0,0.014017552137374878
224.0,0.013686897233128548
240.0,0.01339653693139553
256.0,0.012795614078640938
288.0,0.011581235565245152
320.0,0.010315585881471634
352.0,0.00891790445894003
384.0,0.00821242667734623
416.0,0.007998104207217693
448.0,0.007610526867210865
480.0,0.008037149906158447
512.0,0.008651000447571278
576.0,0.008437776938080788
640.0,0.007913644425570965
704.0,0.007249771151691675
768.0,0.006713277194648981
832.0,0.005288218148052692
896.0,0.005258491262793541
960.0,0.006852611433714628
1024.0,0.00791944470256567
1152.0,0.007612299174070358
1280.0,0.009058288298547268
1408.0,0.005178478080779314
1536.0,0.004657946527004242
1664.0,0.0010813316330313683
1792.0,0.002694981638342142
1920.0,0.00261174445040524
2048.0,0.003463074332103133
2304.0,0.0049225506372749805
2560.0,0.004690293222665787
2816.0,0.003224870888516307
3072.0,0.00562012055888772
3328.0,0.0008402108214795589
3584.0,0.0010742010781541467
3840.0,-0.0007843257626518607
4096.0,-0.0019913064315915108
4608.0,-0.0031625600531697273
5120.0,-0.0028397738933563232
5632.0,-0.006394850555807352
6144.0,-0.009002753533422947
6656.0,-0.009494340978562832
7168.0,-0.007533961441367865
7680.0,-0.005100261885672808
8192.0,-0.008746108040213585
end
