version,3.0
numOfCh,1
type,point
parent_name,c1204_0dot1-1dot0
ch_type,1_1
kcount,1
numberNandB,1
brightnessNandB,1
carpet pos,0
pc,0
Time (ms),CH1 Auto-Correlation
1.0,0.03996885567903519
2.0,0.03946087881922722
3.0,0.03898245096206665
4.0,0.03855004906654358
5.0,0.038162797689437866
6.0,0.037798140197992325
7.0,0.037445079535245895
8.0,0.037083934992551804
9.0,0.0367136225104332
10.0,0.036360304802656174
11.0,0.03601262718439102
12.0,0.03569331020116806
13.0,0.03540053591132164
14.0,0.035110536962747574
15.0,0.03484397754073143
16.0,0.034561887383461
18.0,0.03402455523610115
20.0,0.033554766327142715
22.0,0.03311380743980408
24.0,0.03270605206489563
26.0,0.03228091076016426
28.0,0.03186582773923874
30.0,0.03145080432295799
32.0,0.03102938085794449
36.0,0.030213525518774986
40.0,0.029412269592285156
44.0,0.028620127588510513
48.0,0.02785489335656166
52.0,0.027202239260077477
56.0,0.02655966766178608
60.0,0.02595958486199379
64.0,0.025418419390916824
72.0,0.02439825050532818
80.0,0.02341930940747261
88.0,0.022515105083584785
96.0,0.021720822900533676
104.0,0.02102413773536682
112.0,0.020258048549294472
120.0,0.01945427991449833
128.0,0.01873791590332985
144.0,0.017331620678305626
160.0,0.015961293131113052
176.0,0.014775805175304413
192.0,0.013889125548303127
208.0,0.013247599825263023
224.0,0.012645695358514786
240.0,0.012291262857615948
256.0,0.012359658256173134
288.0,0.012840844690799713
320.0,0.013015372678637505
352.0,0.013067471794784069
384.0,0.013118289411067963
416.0,0.012685572728514671
448.0,0.011404817923903465
480.0,0.010524104349315166
512.0,0.009754626080393791
576.0,0.008573180995881557
640.0,0.00831070076674223
704.0,0.007437053602188826
768.0,0.007674043532460928
832.0,0.0066147008910775185
896.0,0.005494439974427223
960.0,0.004342550877481699
1024.0,0.004455407150089741
1152.0,0.0031146123073995113
1280.0,-0.0003448138595558703
1408.0,-0.0021930558141320944
1536.0,-0.0028704022988677025
1664.0,-0.0033285508397966623
1792.0,-0.006964304484426975
1920.0,-0.007778109051287174
2048.0,-0.006616603117436171
2304.0,-0.006292763166129589
2560.0,-0.006347106769680977
2816.0,-0.0055760894902050495
3072.0,-0.0021616180893033743
3328.0,-0.001537032425403595
3584.0,-0.002468974096700549
3840.0,-4.178244489594363e-05
4096.0,0.00476844934746623
4608.0,0.0022460767067968845
5120.0,-0.0022844986524432898
5632.0,-0.0034043793566524982
6144.0,-0.010452262125909328
6656.0,-0.007485454436391592
7168.0,0.0003144608053844422
7680.0,0.0024494400713592768
8192.0,0.010129421018064022
end
