version,3.0
numOfCh,1
type,point
parent_name,fe81d_0dot1-0dot1
ch_type,1_1
kcount,1
numberNandB,1
brightnessNandB,1
carpet pos,0
pc,0
Time (ms),CH1 Auto-Correlation
1.0,0.043480757623910904
2.0,0.042925260961055756
3.0,0.04237750917673111
4.0,0.04186280444264412
5.0,0.04135329648852348
6.0,0.0408732108771801
7.0,0.040417417883872986
8.0,0.039977479726076126
9.0,0.03953572362661362
10.0,0.03908880054950714
11.0,0.03863402083516121
12.0,0.03817825764417648
13.0,0.03773383051156998
14.0,0.037285953760147095
15.0,0.036834925413131714
16.0,0.03641773387789726
18.0,0.03564215078949928
20.0,0.03487506881356239
22.0,0.03410588577389717
24.0,0.033391986042261124
26.0,0.03271283581852913
28.0,0.03206659480929375
30.0,0.03145565465092659
32.0,0.030897879973053932
36.0,0.0299018956720829
40.0,0.028971994295716286
44.0,0.028093481436371803
48.0,0.027383925393223763
52.0,0.026747185736894608
56.0,0.026114754378795624
60.0,0.025484723970294
64.0,0.024898678064346313
72.0,0.023752648383378983
80.0,0.02263185940682888
88.0,0.02160070091485977
96.0,0.020562533289194107
104.0,0.019342567771673203
112.0,0.018225088715553284
120.0,0.017311125993728638
128.0,0.016562864184379578
144.0,0.015293855220079422
160.0,0.013871211558580399
176.0,0.012185235507786274
192.0,0.010197632014751434
208.0,0.008875232189893723
224.0,0.008203352801501751
240.0,0.007938824594020844
256.0,0.008045080117881298
288.0,0.00744248554110527
320.0,0.00569833442568779
352.0,0.005027239676564932
384.0,0.004448489286005497
416.0,0.00239887204952538
448.0,0.0008135227835737169
480.0,-0.00010803559416672215
512.0,-0.0014597601257264614
576.0,-0.0013143779942765832
640.0,-0.0021043710876256227
704.0,-0.0008084202418103814
768.0,0.00030260486528277397
832.0,0.001350340317003429
896.0,0.0021461357828229666
960.0,0.004208986647427082
1024.0,0.004035456571727991
1152.0,0.0024069633800536394
1280.0,0.002326186280697584
1408.0,0.0010605041170492768
1536.0,-0.0031553267035633326
1664.0,-0.003725748974829912
1792.0,-0.003993915859609842
1920.0,-0.004170278552919626
2048.0,-0.0018831355264410377
2304.0,0.001962261041626334
2560.0,-0.0018468807684257627
2816.0,-0.001567297033034265
3072.0,-0.00027340761153027415
3328.0,-0.000406332517741248
3584.0,-0.0015599086182191968
3840.0,-0.005604113917797804
4096.0,-0.006536029279232025
4608.0,0.003390417667105794
5120.0,-0.0012492705136537552
5632.0,0.003743882291018963
6144.0,-0.006281185429543257
6656.0,-0.0010803169570863247
7168.0,-0.00856192596256733
7680.0,-0.005947642959654331
8192.0,-0.002342777792364359
end
