version,3.0
numOfCh,1
type,point
parent_name,fe81d_0dot1-0dot1
ch_type,1_1
kcount,1
numberNandB,1
brightnessNandB,1
carpet pos,0
pc,0
Time (ms),CH1 Auto-Correlation
1.0,0.04409457743167877
2.0,0.04365435987710953
3.0,0.04321536049246788
4.0,0.04278147593140602
5.0,0.04236926883459091
6.0,0.04195351153612137
7.0,0.041544947773218155
8.0,0.041144855320453644
9.0,0.040752850472927094
10.0,0.04037195071578026
11.0,0.03999341279268265
12.0,0.039622824639081955
13.0,0.039251070469617844
14.0,0.03889057785272598
15.0,0.03852855786681175
16.0,0.03817396238446236
18.0,0.037486732006073
20.0,0.0368228405714035
22.0,0.03616117686033249
24.0,0.035501908510923386
26.0,0.034854862838983536
28.0,0.0342300646007061
30.0,0.033633314073085785
32.0,0.03305327147245407
36.0,0.03192106634378433
40.0,0.030854588374495506
44.0,0.029866615310311317
48.0,0.028910446912050247
52.0,0.027948103845119476
56.0,0.02702946402132511
60.0,0.026202624663710594
64.0,0.025461411103606224
72.0,0.024002645164728165
80.0,0.022647036239504814
88.0,0.021368358284235
96.0,0.02016824670135975
104.0,0.019047195091843605
112.0,0.01800222136080265
120.0,0.01712125353515148
128.0,0.016311919316649437
144.0,0.014849717728793621
160.0,0.013616418465971947
176.0,0.012889252975583076
192.0,0.012122910469770432
208.0,0.011210563592612743
224.0,0.010525865480303764
240.0,0.00985941756516695
256.0,0.009062239900231361
288.0,0.006898412015289068
320.0,0.004888426046818495
352.0,0.004524004179984331
384.0,0.004795906133949757
416.0,0.0042334506288170815
448.0,0.0038589956238865852
480.0,0.005130039993673563
512.0,0.00646599754691124
576.0,0.005516462028026581
640.0,0.0047116512432694435
704.0,0.005448807030916214
768.0,0.006211190018802881
832.0,0.003029873827472329
896.0,-0.0007508621783927083
960.0,-0.002538749948143959
1024.0,-0.0033365548588335514
1152.0,-0.00145177380181849
1280.0,0.0014234769623726606
1408.0,0.0008495532674714923
1536.0,-0.0003842777805402875
1664.0,-0.005799178499728441
1792.0,-0.011401815339922905
1920.0,-0.007069896440953016
2048.0,-0.0026811501011252403
2304.0,-0.005941152106970549
2560.0,-0.005097783170640469
2816.0,0.0016719114501029253
3072.0,0.00011181088484590873
3328.0,0.0033329082652926445
3584.0,0.006079220212996006
3840.0,-0.0003286935098003596
4096.0,-0.0021193826105445623
4608.0,-0.0007710848585702479
5120.0,0.000591263931710273
5632.0,-0.0012095212005078793
6144.0,-0.00014686745998915285
6656.0,4.1812105337157845e-05
7168.0,-0.002378972712904215
7680.0,-0.0017306806985288858
8192.0,-0.0011551999486982822
end
