version,3.0
numOfCh,1
type,point
parent_name,fe81d_0dot1-0dot1
ch_type,1_1
kcount,1
numberNandB,1
brightnessNandB,1
carpet pos,0
pc,0
Time (ms),CH1 Auto-Correlation
1.0,0.05289771035313606
2.0,0.052367132157087326
3.0,0.05184495821595192
4.0,0.051339294761419296
5.0,0.05084938183426857
6.0,0.05035904422402382
7.0,0.049868252128362656
8.0,0.04939086362719536
9.0,0.048911359161138535
10.0,0.048442065715789795
11.0,0.04799802973866463
12.0,0.04756264388561249
13.0,0.047154273837804794
14.0,0.04674036055803299
15.0,0.04632795602083206
16.0,0.045921437442302704
18.0,0.045106127858161926
20.0,0.04426762834191322
22.0,0.0434119813144207
24.0,0.0425780825316906
26.0,0.0417838990688324
28.0,0.041022881865501404
30.0,0.04031526297330856
32.0,0.03965829685330391
36.0,0.03851011022925377
40.0,0.03751679137349129
44.0,0.03663027659058571
48.0,0.035745132714509964
52.0,0.03489608317613602
56.0,0.034145236015319824
60.0,0.03357405960559845
64.0,0.033042170107364655
72.0,0.03174516558647156
80.0,0.030666740611195564
88.0,0.02997644431889057
96.0,0.029398178681731224
104.0,0.029068604111671448
112.0,0.028870446607470512
120.0,0.028428781777620316
128.0,0.027845989912748337
144.0,0.02627706713974476
160.0,0.024535443633794785
176.0,0.022768620401620865
192.0,0.020841378718614578
208.0,0.019608397036790848
224.0,0.01886777952313423
240.0,0.018006449565291405
256.0,0.01744627207517624
288.0,0.0160139761865139
320.0,0.014024388045072556
352.0,0.012432717718183994
384.0,0.010481896810233593
416.0,0.008554193191230297
448.0,0.006279218476265669
480.0,0.00538462633267045
512.0,0.004964343272149563
576.0,0.005463951732963324
640.0,0.006333271972835064
704.0,0.0048517584800720215
768.0,0.0029591103084385395
832.0,0.0005427015712484717
896.0,0.0011989176273345947
960.0,0.002897732425481081
1024.0,0.0015803603455424309
1152.0,0.002674741903319955
1280.0,0.0049931760877370834
1408.0,0.004254166968166828
1536.0,0.002250883961096406
1664.0,-0.0017330906121060252
1792.0,-0.005706429947167635
1920.0,-0.00889019574970007
2048.0,-0.010718872770667076
2304.0,-0.006002508103847504
2560.0,-0.0013802904868498445
2816.0,-0.004255859646946192
3072.0,-0.006140317302197218
3328.0,-0.006807376630604267
3584.0,-0.009111320599913597
3840.0,-0.00691270874813199
4096.0,-0.006112717092037201
4608.0,-0.005041636526584625
5120.0,0.005587289575487375
5632.0,0.00152788613922894
6144.0,0.004340232349932194
6656.0,0.006961684208363295
7168.0,0.0009966031648218632
7680.0,0.001804084051400423
8192.0,-0.008153973147273064
end
