version,3.0
numOfCh,1
type,point
parent_name,fe81d_0dot1-0dot1
ch_type,1_1
kcount,1
numberNandB,1
brightnessNandB,1
carpet pos,0
pc,0
Time (ms),CH1 Auto-Correlation
1.0,0.07012961059808731
2.0,0.06954212486743927
3.0,0.06897809356451035
4.0,0.06844085454940796
5.0,0.06793100386857986
6.0,0.06741615384817123
7.0,0.0669112354516983
8.0,0.06643343716859818
9.0,0.06596016883850098
10.0,0.06551291793584824
11.0,0.06510660797357559
12.0,0.06470264494419098
13.0,0.06430980563163757
14.0,0.06389710307121277
15.0,0.06349162012338638
16.0,0.06309719383716583
18.0,0.0623592771589756
20.0,0.06161753833293915
22.0,0.06086909770965576
24.0,0.06014823168516159
26.0,0.05943909287452698
28.0,0.0587935708463192
30.0,0.05819293111562729
32.0,0.05764155834913254
36.0,0.05656886100769043
40.0,0.05552782490849495
44.0,0.05452419072389603
48.0,0.053543571382761
52.0,0.05252337083220482
56.0,0.051574982702732086
60.0,0.05066043138504028
64.0,0.04976882413029671
72.0,0.047837745398283005
80.0,0.04616110026836395
88.0,0.044768113642930984
96.0,0.0434340201318264
104.0,0.04213952273130417
112.0,0.0411892905831337
120.0,0.04038344323635101
128.0,0.039601389318704605
144.0,0.03748203068971634
160.0,0.035534489899873734
176.0,0.03373558074235916
192.0,0.03210797905921936
208.0,0.030591508373618126
224.0,0.029029348865151405
240.0,0.02682645432651043
256.0,0.024921435862779617
288.0,0.02210157923400402
320.0,0.018978722393512726
352.0,0.015682702884078026
384.0,0.012655560858547688
416.0,0.010294819250702858
448.0,0.009783155284821987
480.0,0.010288272984325886
512.0,0.011191025376319885
576.0,0.010522034019231796
640.0,0.012217991054058075
704.0,0.013573197647929192
768.0,0.01620892807841301
832.0,0.019601549953222275
896.0,0.021728765219449997
960.0,0.024649716913700104
1024.0,0.0237005352973938
1152.0,0.02267872542142868
1280.0,0.01313207857310772
1408.0,0.0024122733157128096
1536.0,-0.0014203934697434306
1664.0,0.00015643997176084667
1792.0,0.005393752828240395
1920.0,0.00780633557587862
2048.0,0.006893269717693329
2304.0,0.003264538710936904
2560.0,0.0027763776015490294
2816.0,-0.001663773786276579
3072.0,-0.0044872513972222805
3328.0,-0.0004845528455916792
3584.0,0.006548311561346054
3840.0,0.0026031204033643007
4096.0,-0.0014034780906513333
4608.0,0.0010840443428605795
5120.0,0.00019366946071386337
5632.0,0.001764786196872592
6144.0,-0.0025210969615727663
6656.0,-0.004392129369080067
7168.0,-0.019765403121709824
7680.0,-0.022738365456461906
8192.0,-0.034741684794425964
end
