version,3.0
numOfCh,1
type,point
parent_name,fe81d_0dot1-0dot1
ch_type,1_1
kcount,1
numberNandB,1
brightnessNandB,1
carpet pos,0
pc,0
Time (ms),CH1 Auto-Correlation
1.0,0.05885517969727516
2.0,0.05829210206866264
3.0,0.05774471163749695
4.0,0.05721069127321243
5.0,0.0567043237388134
6.0,0.056210875511169434
7.0,0.055735304951667786
8.0,0.05527159199118614
9.0,0.054810889065265656
10.0,0.0543626993894577
11.0,0.05393020436167717
12.0,0.05349046736955643
13.0,0.05305738002061844
14.0,0.052648305892944336
15.0,0.052223172038793564
16.0,0.051799874752759933
18.0,0.05097073316574097
20.0,0.050142284482717514
22.0,0.04937770962715149
24.0,0.048650216311216354
26.0,0.047973260283470154
28.0,0.04733756184577942
30.0,0.0467475987970829
32.0,0.04619283601641655
36.0,0.04508502781391144
40.0,0.04393580183386803
44.0,0.042823731899261475
48.0,0.041720978915691376
52.0,0.04062088578939438
56.0,0.03954329714179039
60.0,0.038495901972055435
64.0,0.037544772028923035
72.0,0.03585994616150856
80.0,0.034265462309122086
88.0,0.03270789980888367
96.0,0.03117411956191063
104.0,0.029566608369350433
112.0,0.028152506798505783
120.0,0.02693764492869377
128.0,0.02588464505970478
144.0,0.024418199434876442
160.0,0.022849733009934425
176.0,0.021361982449889183
192.0,0.020280182361602783
208.0,0.01918811909854412
224.0,0.018252184614539146
240.0,0.017384415492415428
256.0,0.016405319795012474
288.0,0.013937188312411308
320.0,0.012483102269470692
352.0,0.011213883757591248
384.0,0.010771452449262142
416.0,0.011228788644075394
448.0,0.011170214973390102
480.0,0.01156025193631649
512.0,0.01130517479032278
576.0,0.009516875259578228
640.0,0.007313665933907032
704.0,0.004681859631091356
768.0,0.0031027253717184067
832.0,0.004106954671442509
896.0,0.0024504014290869236
960.0,0.000931796443182975
1024.0,0.0021228392142802477
1152.0,0.005154550541192293
1280.0,0.004970305599272251
1408.0,0.004854110069572926
1536.0,0.0043009440414607525
1664.0,0.00710116233676672
1792.0,0.0015411197673529387
1920.0,-0.0015372616471722722
2048.0,0.001137731596827507
2304.0,-0.001009409548714757
2560.0,-0.005997934378683567
2816.0,-0.003817540593445301
3072.0,-0.009229564107954502
3328.0,-0.009521466679871082
3584.0,-0.010216537863016129
3840.0,-0.0093377735465765
4096.0,-0.0034043160267174244
4608.0,-0.0013491205172613263
5120.0,-0.01259533129632473
5632.0,-0.01231126394122839
6144.0,-0.004185235593467951
6656.0,-0.006145848892629147
7168.0,-0.0030068897176533937
7680.0,0.0032273964025080204
8192.0,0.006277670152485371
end
