version,3.0
numOfCh,1
type,point
parent_name,fe81d_0dot1-0dot1
ch_type,1_1
kcount,1
numberNandB,1
brightnessNandB,1
carpet pos,0
pc,0
Time (ms),CH1 Auto-Correlation
1.0,0.04274408891797066
2.0,0.04227355122566223
3.0,0.04182426631450653
4.0,0.0413934588432312
5.0,0.04097558930516243
6.0,0.040556881576776505
7.0,0.040150828659534454
8.0,0.039759837090969086
9.0,0.03937245160341263
10.0,0.038996871560811996
11.0,0.0386221781373024
12.0,0.03824277222156525
13.0,0.03786756470799446
14.0,0.037493638694286346
15.0,0.03713666647672653
16.0,0.03679130971431732
18.0,0.036088038235902786
20.0,0.03539184853434563
22.0,0.03470611572265625
24.0,0.03404116630554199
26.0,0.03339008614420891
28.0,0.032761961221694946
30.0,0.03218120336532593
32.0,0.03164777532219887
36.0,0.03063708357512951
40.0,0.02966809645295143
44.0,0.028751252219080925
48.0,0.027927204966545105
52.0,0.027154404670000076
56.0,0.026379872113466263
60.0,0.025607751682400703
64.0,0.02483418770134449
72.0,0.023445462808012962
80.0,0.022190934047102928
88.0,0.020928435027599335
96.0,0.019559068605303764
104.0,0.0183677040040493
112.0,0.01735525019466877
120.0,0.016473358497023582
128.0,0.01582019031047821
144.0,0.015069960616528988
160.0,0.014316489920020103
176.0,0.013161680661141872
192.0,0.011849367059767246
208.0,0.010909058153629303
224.0,0.010254759341478348
240.0,0.00905995536595583
256.0,0.007140283938497305
288.0,0.004386914428323507
320.0,0.002930036513134837
352.0,0.0016896870220080018
384.0,0.0009887838969007134
416.0,-0.00024329473671969026
448.0,-0.001631914870813489
480.0,-0.001676925108768046
512.0,-0.0010797784198075533
576.0,-0.0006793391075916588
640.0,-0.0010417881421744823
704.0,-0.0021065769251435995
768.0,-0.0005484548164531589
832.0,0.0007655294612050056
896.0,0.001872995519079268
960.0,0.0020706122741103172
1024.0,0.0017028712900355458
1152.0,0.002663613064214587
1280.0,0.0012474819086492062
1408.0,0.00097625982016325
1536.0,-0.0010339331347495317
1664.0,-8.005354175111279e-05
1792.0,0.0009205593960359693
1920.0,0.0017650930676609278
2048.0,0.0026823184452950954
2304.0,-0.0020260794553905725
2560.0,-0.004284290596842766
2816.0,-0.006288047414273024
3072.0,-0.0018291898304596543
3328.0,-0.000942162296269089
3584.0,-0.004514423198997974
3840.0,-0.006417061667889357
4096.0,-0.0013694491935893893
4608.0,0.006143894977867603
5120.0,-0.0016991205047816038
5632.0,-0.005308339837938547
6144.0,0.0007823591004125774
6656.0,-0.0002187339123338461
7168.0,-0.00350000848993659
7680.0,-3.872544766636565e-05
8192.0,0.004573937971144915
end
