version,3.0
numOfCh,1
type,point
parent_name,fe81d_0dot1-0dot1
ch_type,1_1
kcount,1
numberNandB,1
brightnessNandB,1
carpet pos,0
pc,0
Time (ms),CH1 Auto-Correlation
1.0,0.041363831609487534
2.0,0.04088246822357178
3.0,0.04041213542222977
4.0,0.03994954004883766
5.0,0.03949786722660065
6.0,0.03905753046274185
7.0,0.038620393723249435
8.0,0.038201287388801575
9.0,0.03777923807501793
10.0,0.03738703578710556
11.0,0.03699833154678345
12.0,0.03660197556018829
13.0,0.036220744252204895
14.0,0.03584812209010124
15.0,0.03547638654708862
16.0,0.03511550650000572
18.0,0.03441719710826874
20.0,0.03372740373015404
22.0,0.0330524742603302
24.0,0.032398562878370285
26.0,0.031797729432582855
28.0,0.031203346326947212
30.0,0.030638689175248146
32.0,0.03010965883731842
36.0,0.02899165078997612
40.0,0.027872800827026367
44.0,0.026759760454297066
48.0,0.02569553069770336
52.0,0.02468818426132202
56.0,0.02371937781572342
60.0,0.022719642147421837
64.0,0.021710092201828957
72.0,0.019880006089806557
80.0,0.01818886771798134
88.0,0.01667592115700245
96.0,0.015317044220864773
104.0,0.01395141240209341
112.0,0.012684358283877373
120.0,0.01161110121756792
128.0,0.010650701820850372
144.0,0.009119831025600433
160.0,0.008232085034251213
176.0,0.007559089921414852
192.0,0.006785864941775799
208.0,0.006131922360509634
224.0,0.005740475375205278
240.0,0.00536733865737915
256.0,0.005401199217885733
288.0,0.00642383610829711
320.0,0.006557459942996502
352.0,0.0070095062255859375
384.0,0.006323404610157013
416.0,0.005516720004379749
448.0,0.0040310281328856945
480.0,0.0012227481929585338
512.0,-0.0014080217806622386
576.0,-0.0027177962474524975
640.0,-0.001360641559585929
704.0,-0.0021820252295583487
768.0,-0.004079883918166161
832.0,-0.0062543293461203575
896.0,-0.00808960571885109
960.0,-0.007610133849084377
1024.0,-0.004169834777712822
1152.0,-0.0016153872711583972
1280.0,-0.0015962555771693587
1408.0,0.0009004825842566788
1536.0,0.003340519964694977
1664.0,0.0026115772780030966
1792.0,0.0003584229853004217
1920.0,-0.0005879195523448288
2048.0,-0.0023346119560301304
2304.0,0.0015364813152700663
2560.0,0.0038158860988914967
2816.0,0.0046816663816571236
3072.0,0.0016920702764764428
3328.0,-0.005190883297473192
3584.0,-0.0029134112410247326
3840.0,0.0022526115644723177
4096.0,0.005846175365149975
4608.0,-0.004281960427761078
5120.0,-0.002553114900365472
5632.0,0.004020206164568663
6144.0,-0.0013733652886003256
6656.0,-0.0008275308646261692
7168.0,-0.002029850846156478
7680.0,-0.002350497990846634
8192.0,0.003235375741496682
end
