version,3.0
numOfCh,1
type,point
parent_name,fe81d_0dot1-0dot1
ch_type,1_1
kcount,1
numberNandB,1
brightnessNandB,1
carpet pos,0
pc,0
Time (ms),CH1 Auto-Correlation
1.0,0.04368746653199196
2.0,0.043116748332977295
3.0,0.04255145415663719
4.0,0.04201370105147362
5.0,0.04150839522480965
6.0,0.04102826118469238
7.0,0.040557052940130234
8.0,0.04010170325636864
9.0,0.03966224938631058
10.0,0.03925095498561859
11.0,0.03882624953985214
12.0,0.03839713707566261
13.0,0.03795885667204857
14.0,0.037529367953538895
15.0,0.037100449204444885
16.0,0.036681629717350006
18.0,0.03586389869451523
20.0,0.035087231546640396
22.0,0.0342886857688427
24.0,0.033534541726112366
26.0,0.03277737274765968
28.0,0.03201108053326607
30.0,0.03129928559064865
32.0,0.030583254992961884
36.0,0.02914474718272686
40.0,0.027888068929314613
44.0,0.026668664067983627
48.0,0.0254049152135849
52.0,0.02408304065465927
56.0,0.02279125526547432
60.0,0.021594306454062462
64.0,0.020510880276560783
72.0,0.018393589183688164
80.0,0.016238145530223846
88.0,0.014425281435251236
96.0,0.012796339578926563
104.0,0.011349606327712536
112.0,0.010105007328093052
120.0,0.009046470746397972
128.0,0.008077436126768589
144.0,0.007108872756361961
160.0,0.006695633754134178
176.0,0.006574532948434353
192.0,0.0065055242739617825
208.0,0.00644673453643918
224.0,0.0067266118712723255
240.0,0.006797886453568935
256.0,0.006702065002173185
288.0,0.00685556884855032
320.0,0.006129072513431311
352.0,0.005199698731303215
384.0,0.004507151432335377
416.0,0.002939208410680294
448.0,0.0009965772042050958
480.0,-0.00044496526243165135
512.0,-0.0013052347349002957
576.0,-0.0006108044763095677
640.0,-0.0014172845985740423
704.0,-0.003045668127015233
768.0,-0.0025684291031211615
832.0,-0.0020385999232530594
896.0,-0.001711799530312419
960.0,-0.0007536681951023638
1024.0,-0.0003762500127777457
1152.0,0.00047853050637058914
1280.0,-0.003557736985385418
1408.0,0.00040777804679237306
1536.0,0.0005362014635466039
1664.0,-0.001477373531088233
1792.0,0.0031227620784193277
1920.0,0.0028804729226976633
2048.0,0.005184276960790157
2304.0,-0.000160370153025724
2560.0,-0.0019499401096254587
2816.0,-0.0039411368779838085
3072.0,-0.00039545525214634836
3328.0,0.0004175140638835728
3584.0,-0.002216961234807968
3840.0,0.00025600806111469865
4096.0,0.00043365248711779714
4608.0,-0.0036218620371073484
5120.0,0.000846921349875629
5632.0,-0.007033439353108406
6144.0,-0.00041573159978725016
6656.0,-0.0015157058369368315
7168.0,-0.0011169123463332653
7680.0,-0.0042995186522603035
8192.0,0.002402371959760785
end
