version,3.0
numOfCh,1
type,point
parent_name,fe81d_0dot1-0dot1
ch_type,1_1
kcount,1
numberNandB,1
brightnessNandB,1
carpet pos,0
pc,0
Time (ms),CH1 Auto-Correlation
1.0,0.06405185163021088
2.0,0.0612226203083992
3.0,0.05832439661026001
4.0,0.05547714978456497
5.0,0.052551474422216415
6.0,0.04987121373414993
7.0,0.04910530149936676
8.0,0.04839397221803665
9.0,0.04785289987921715
10.0,0.04731201007962227
11.0,0.046824559569358826
12.0,0.046327248215675354
13.0,0.04586019366979599
14.0,0.04538658261299133
15.0,0.044964391738176346
16.0,0.04457246884703636
18.0,0.043830402195453644
20.0,0.04296111688017845
22.0,0.04201032221317291
24.0,0.040890030562877655
26.0,0.040001045912504196
28.0,0.039148930460214615
30.0,0.03849932178854942
32.0,0.03788119554519653
36.0,0.03657914698123932
40.0,0.035037703812122345
44.0,0.0334065780043602
48.0,0.03176713362336159
52.0,0.030310755595564842
56.0,0.028899364173412323
60.0,0.02759336307644844
64.0,0.02640996314585209
72.0,0.02518141269683838
80.0,0.023740557953715324
88.0,0.02214309759438038
96.0,0.020646361634135246
104.0,0.01911347731947899
112.0,0.01807529293000698
120.0,0.017475508153438568
128.0,0.016939032822847366
144.0,0.016177142038941383
160.0,0.015120703727006912
176.0,0.013734797947108746
192.0,0.011642773635685444
208.0,0.010292861610651016
224.0,0.008875126019120216
240.0,0.0071794078685343266
256.0,0.0055159772746264935
288.0,0.002898093080148101
320.0,0.0015571863623335958
352.0,0.0012294985353946686
384.0,0.001683110953308642
416.0,0.0017805066891014576
448.0,0.0019815186969935894
480.0,0.0028531220741569996
512.0,0.002180310897529125
576.0,-0.002962695434689522
640.0,-0.006927116308361292
704.0,-0.007085384335368872
768.0,-0.007253278978168964
832.0,-0.005564533639699221
896.0,-0.00014512088091578335
960.0,0.00492832250893116
1024.0,0.007938913069665432
1152.0,0.009332898072898388
1280.0,0.00716771837323904
1408.0,0.00798921287059784
1536.0,0.0052414522506296635
1664.0,0.0021926267072558403
1792.0,-0.0064246924594044685
1920.0,-0.009669925086200237
2048.0,-0.004593022633343935
2304.0,-0.0001596801885170862
2560.0,0.011429867707192898
2816.0,0.004550382494926453
3072.0,-0.005624670535326004
3328.0,-0.014036583714187145
3584.0,-0.006354246288537979
3840.0,7.552773604402319e-05
4096.0,-0.004441767930984497
4608.0,-0.00835559330880642
5120.0,0.0004329955845605582
5632.0,-0.007460809778422117
6144.0,-0.00794938113540411
6656.0,0.004343628883361816
7168.0,-0.0025668072048574686
7680.0,0.004092941991984844
8192.0,0.0006841463036835194
end
