version,3.0
numOfCh,1
type,point
parent_name,fe81d_0dot1-0dot1
ch_type,1_1
kcount,1
numberNandB,1
brightnessNandB,1
carpet pos,0
pc,0
Time (ms),CH1 Auto-Correlation
1.0,0.0607915036380291
2.0,0.06021507829427719
3.0,0.05965184420347214
4.0,0.05909513682126999
5.0,0.058553796261548996
6.0,0.05803142488002777
7.0,0.05753453075885773
8.0,0.05704197287559509
9.0,0.05655403807759285
10.0,0.056062862277030945
11.0,0.05561085790395737
12.0,0.05515383556485176
13.0,0.054713234305381775
14.0,0.054277610033750534
15.0,0.053834978491067886
16.0,0.05341038480401039
18.0,0.05258606746792793
20.0,0.051783204078674316
22.0,0.05100112408399582
24.0,0.050216298550367355
26.0,0.0494515560567379
28.0,0.04873134195804596
30.0,0.048030540347099304
32.0,0.04738174378871918
36.0,0.04618096724152565
40.0,0.04503735154867172
44.0,0.04387594386935234
48.0,0.042667731642723083
52.0,0.04151182249188423
56.0,0.04043276980519295
60.0,0.03935282304883003
64.0,0.038356754928827286
72.0,0.036498378962278366
80.0,0.03503721207380295
88.0,0.033739808946847916
96.0,0.032472286373376846
104.0,0.030971551313996315
112.0,0.029387203976511955
120.0,0.027934623882174492
128.0,0.026389196515083313
144.0,0.023626357316970825
160.0,0.021565597504377365
176.0,0.019869236275553703
192.0,0.018212994560599327
208.0,0.01647546887397766
224.0,0.015557198785245419
240.0,0.014572619460523129
256.0,0.01296201627701521
288.0,0.009821091778576374
320.0,0.006661875639110804
352.0,0.004008024465292692
384.0,0.003167651826515794
416.0,0.0022754205856472254
448.0,0.001393129932694137
480.0,0.0014831096632406116
512.0,0.0011028210865333676
576.0,0.0015436331741511822
640.0,0.004639322869479656
704.0,0.007597202900797129
768.0,0.009302874095737934
832.0,0.00756792351603508
896.0,0.007242296356707811
960.0,0.0054722800850868225
1024.0,-0.0012169049587100744
1152.0,-0.0061398884281516075
1280.0,-0.0037087914533913136
1408.0,-0.005915918853133917
1536.0,-0.0023136979434639215
1664.0,0.0038157592061907053
1792.0,-0.001119459280744195
1920.0,-0.0026937033981084824
2048.0,-0.0027710453141480684
2304.0,-0.001251538866199553
2560.0,0.006608784198760986
2816.0,-0.0029445772524923086
3072.0,-0.012210275046527386
3328.0,-0.011460836045444012
3584.0,-0.00865986943244934
3840.0,-0.006346807349473238
4096.0,-0.0073521374724805355
4608.0,-0.01118143368512392
5120.0,0.003144890768453479
5632.0,-0.004190654028207064
6144.0,0.0036830264143645763
6656.0,0.001146657974459231
7168.0,0.005297977011650801
7680.0,0.0021324451081454754
8192.0,0.0023465296253561974
end
