version,3.0
numOfCh,1
type,point
parent_name,fe81d_0dot1-0dot1
ch_type,1_1
kcount,1
numberNandB,1
brightnessNandB,1
carpet pos,0
pc,0
Time (ms),CH1 Auto-Correlation
1.0,0.0674232542514801
2.0,0.06670808047056198
3.0,0.06602074205875397
4.0,0.06535923480987549
5.0,0.06475986540317535
6.0,0.06418275833129883
7.0,0.0635993555188179
8.0,0.06301608681678772
9.0,0.06246647983789444
10.0,0.06193302571773529
11.0,0.06145771965384483
12.0,0.060986652970314026
13.0,0.0605548694729805
14.0,0.06014599651098251
15.0,0.05972227826714516
16.0,0.0593206062912941
18.0,0.05861455574631691
20.0,0.057943105697631836
22.0,0.05723654851317406
24.0,0.05655254051089287
26.0,0.05584154650568962
28.0,0.055133502930402756
30.0,0.05440294370055199
32.0,0.05368639528751373
36.0,0.05235380306839943
40.0,0.05115288868546486
44.0,0.04992981255054474
48.0,0.04875454679131508
52.0,0.0476769357919693
56.0,0.04667918011546135
60.0,0.045713841915130615
64.0,0.04492446407675743
72.0,0.04333864152431488
80.0,0.041575513780117035
88.0,0.03985326737165451
96.0,0.03814038634300232
104.0,0.036824870854616165
112.0,0.03560332581400871
120.0,0.034388184547424316
128.0,0.033273886889219284
144.0,0.03093509003520012
160.0,0.02851102687418461
176.0,0.02550783008337021
192.0,0.022228101268410683
208.0,0.01979934237897396
224.0,0.01801617257297039
240.0,0.016935892403125763
256.0,0.016659488901495934
288.0,0.015820110216736794
320.0,0.01387499738484621
352.0,0.01290889922529459
384.0,0.011917784810066223
416.0,0.010174508206546307
448.0,0.007298833690583706
480.0,0.004269028082489967
512.0,0.0025870765093714
576.0,-0.0025829568039625883
640.0,-0.005496450234204531
704.0,-0.005498941522091627
768.0,-0.004707937594503164
832.0,-0.005410304293036461
896.0,-0.0036043133586645126
960.0,0.0005303662619553506
1024.0,0.003169028554111719
1152.0,0.0036256134044378996
1280.0,0.00035581752308644354
1408.0,0.0007154609775170684
1536.0,0.0048400661908090115
1664.0,0.004954460542649031
1792.0,-0.000767095887567848
1920.0,-0.00037995915045030415
2048.0,0.00160493073053658
2304.0,-0.00010563516116235405
2560.0,0.0076523954048752785
2816.0,0.010149592533707619
3072.0,0.0075784712098538876
3328.0,-0.006868825759738684
3584.0,-0.014784983359277248
3840.0,-0.00978358555585146
4096.0,-0.003726193681359291
4608.0,0.005440492182970047
5120.0,-0.003669343190267682
5632.0,-0.0032023696694523096
6144.0,-0.02126411534845829
6656.0,-0.02108931913971901
7168.0,0.004177861846983433
7680.0,-0.00422885175794363
8192.0,-0.0029805235099047422
end
