version,3.0
numOfCh,1
type,point
parent_name,fe81d_0dot1-0dot1
ch_type,1_1
kcount,1
numberNandB,1
brightnessNandB,1
carpet pos,0
pc,0
Time (ms),CH1 Auto-Correlation
1.0,0.050682827830314636
2.0,0.0501941442489624
3.0,0.049716345965862274
4.0,0.049246396869421005
5.0,0.04878951236605644
6.0,0.04835627228021622
7.0,0.04791291803121567
8.0,0.04747200012207031
9.0,0.047041576355695724
10.0,0.04662725329399109
11.0,0.046208251267671585
12.0,0.04580763354897499
13.0,0.04542494937777519
14.0,0.04506111890077591
15.0,0.04471933841705322
16.0,0.044388189911842346
18.0,0.04374168440699577
20.0,0.04313831031322479
22.0,0.042549267411231995
24.0,0.041958998888731
26.0,0.041384123265743256
28.0,0.04082541912794113
30.0,0.04026129096746445
32.0,0.03968861699104309
36.0,0.038647204637527466
40.0,0.03773203864693642
44.0,0.036877039819955826
48.0,0.036066342145204544
52.0,0.03523224592208862
56.0,0.03439142927527428
60.0,0.03359302878379822
64.0,0.03285932168364525
72.0,0.03152081370353699
80.0,0.030225444585084915
88.0,0.029266972094774246
96.0,0.028534965589642525
104.0,0.027913298457860947
112.0,0.027289407327771187
120.0,0.02660965733230114
128.0,0.02596891112625599
144.0,0.02519058622419834
160.0,0.024618180468678474
176.0,0.023648090660572052
192.0,0.02225537598133087
208.0,0.020804407075047493
224.0,0.019489742815494537
240.0,0.018254561349749565
256.0,0.01747029460966587
288.0,0.01644165627658367
320.0,0.014265553094446659
352.0,0.012077399529516697
384.0,0.010446297004818916
416.0,0.00899528805166483
448.0,0.007883073762059212
480.0,0.006265581119805574
512.0,0.00556661281734705
576.0,0.0055589317344129086
640.0,0.006539489608258009
704.0,0.008080330677330494
768.0,0.007975900545716286
832.0,0.00794058758765459
896.0,0.006714628543704748
960.0,0.0036190589889883995
1024.0,0.0018064642790704966
1152.0,-0.0015021739527583122
1280.0,-0.003801291575655341
1408.0,-0.004574252292513847
1536.0,-0.002663446357473731
1664.0,-0.0029203060548752546
1792.0,-0.0030253303702920675
1920.0,-0.004251027945429087
2048.0,-0.005315945018082857
2304.0,-0.005626796744763851
2560.0,-0.007375639397650957
2816.0,-0.006130351684987545
3072.0,0.00018741516396403313
3328.0,0.0017108531901612878
3584.0,0.004563418682664633
3840.0,0.0055633410811424255
4096.0,0.003778377315029502
4608.0,-0.003990869503468275
5120.0,-0.0037415865808725357
5632.0,-0.0012017089175060391
6144.0,-0.0019930892158299685
6656.0,-0.0016981051303446293
7168.0,0.0023454653564840555
7680.0,-0.00513458764180541
8192.0,-0.013291928917169571
end
