version,3.0
numOfCh,1
type,point
parent_name,fe81d_0dot1-0dot1
ch_type,1_1
kcount,1
numberNandB,1
brightnessNandB,1
carpet pos,0
pc,0
Time (ms),CH1 Auto-Correlation
1.0,0.05906045436859131
2.0,0.0555642694234848
3.0,0.05217614024877548
4.0,0.04875712841749191
5.0,0.045259181410074234
6.0,0.04164274409413338
7.0,0.041144970804452896
8.0,0.040649015456438065
9.0,0.04012434184551239
10.0,0.03963863477110863
11.0,0.0391995944082737
12.0,0.03872005268931389
13.0,0.03836781531572342
14.0,0.03799303248524666
15.0,0.03760185092687607
16.0,0.03717061132192612
18.0,0.03609076142311096
20.0,0.035237330943346024
22.0,0.0344555526971817
24.0,0.03380853310227394
26.0,0.03319040313363075
28.0,0.03257875517010689
30.0,0.03182412311434746
32.0,0.03112274594604969
36.0,0.029869254678487778
40.0,0.028635524213314056
44.0,0.027321571484208107
48.0,0.026027297601103783
52.0,0.025079982355237007
56.0,0.024290889501571655
60.0,0.023413313552737236
64.0,0.022313714027404785
72.0,0.020636210218071938
80.0,0.019132845103740692
88.0,0.017572959885001183
96.0,0.01631181873381138
104.0,0.015218883752822876
112.0,0.014472666196525097
120.0,0.013901240192353725
128.0,0.013435043394565582
144.0,0.012137355282902718
160.0,0.01055259257555008
176.0,0.008928345516324043
192.0,0.007610893342643976
208.0,0.006189081352204084
224.0,0.004811388440430164
240.0,0.004038976971060038
256.0,0.003120627487078309
288.0,0.0014051743783056736
320.0,0.0015030268114060163
352.0,0.0011258976301178336
384.0,0.0006246546981856227
416.0,-0.0006508486112579703
448.0,-0.0008327089599333704
480.0,-0.0005064801080152392
512.0,-0.0006965445936657488
576.0,1.6927644537645392e-05
640.0,0.001730491523630917
704.0,0.003819418838247657
768.0,0.003140549175441265
832.0,0.00012377460370771587
896.0,-0.0033668808173388243
960.0,-0.004809442441910505
1024.0,-0.006050182040780783
1152.0,-0.0075020878575742245
1280.0,-0.005300151649862528
1408.0,-0.00010527545236982405
1536.0,-0.0006699255318380892
1664.0,-0.001486588385887444
1792.0,-0.0008633249090053141
1920.0,-0.002708453219383955
2048.0,0.0008191007655113935
2304.0,0.0005486217560246587
2560.0,-0.0008209675434045494
2816.0,-0.0014848153805360198
3072.0,-0.000799630768597126
3328.0,-0.0009936557617038488
3584.0,-0.0015855494420975447
3840.0,-0.0002815761836245656
4096.0,0.000629048328846693
4608.0,-0.0011864036787301302
5120.0,-0.0010106166591867805
5632.0,0.0038080872036516666
6144.0,0.001864747959189117
6656.0,-0.005008283071219921
7168.0,-0.0013143537798896432
7680.0,0.002178558614104986
8192.0,-0.0009188131080009043
end
