version,3.0
numOfCh,1
type,point
parent_name,fe81d_0dot1-0dot1
ch_type,1_1
kcount,1
numberNandB,1
brightnessNandB,1
carpet pos,0
pc,0
Time (ms),CH1 Auto-Correlation
1.0,0.052241001278162
2.0,0.05168669670820236
3.0,0.051140014082193375
4.0,0.05060223117470741
5.0,0.05007369443774223
6.0,0.04957440122961998
7.0,0.04910353943705559
8.0,0.04865679889917374
9.0,0.04818665608763695
10.0,0.047745805233716965
11.0,0.047317683696746826
12.0,0.04689841717481613
13.0,0.04650343954563141
14.0,0.046121396124362946
15.0,0.045726921409368515
16.0,0.045343220233917236
18.0,0.04456719383597374
20.0,0.04381386190652847
22.0,0.043081238865852356
24.0,0.04240022599697113
26.0,0.04175419732928276
28.0,0.04113902524113655
30.0,0.04054608196020126
32.0,0.03993973135948181
36.0,0.03881531581282616
40.0,0.037743326276540756
44.0,0.03678326681256294
48.0,0.03581393137574196
52.0,0.034871261566877365
56.0,0.03401411697268486
60.0,0.03324358910322189
64.0,0.03253428265452385
72.0,0.031234856694936752
80.0,0.02981182001531124
88.0,0.028494739904999733
96.0,0.027209164574742317
104.0,0.02606818825006485
112.0,0.025074686855077744
120.0,0.024039508774876595
128.0,0.023132039234042168
144.0,0.021358368918299675
160.0,0.01961345225572586
176.0,0.01815030165016651
192.0,0.01636507175862789
208.0,0.015002429485321045
224.0,0.014155498705804348
240.0,0.013534247875213623
256.0,0.013084410689771175
288.0,0.01127401553094387
320.0,0.009283199906349182
352.0,0.00838033203035593
384.0,0.008203980512917042
416.0,0.008368267677724361
448.0,0.0068941544741392136
480.0,0.004448755644261837
512.0,0.004314604680985212
576.0,0.0027828561142086983
640.0,0.0012669125571846962
704.0,-0.0010761257726699114
768.0,-0.004604675807058811
832.0,-0.0074963984079658985
896.0,-0.006685793399810791
960.0,-0.0029001643415540457
1024.0,-4.638974496629089e-05
1152.0,0.0009996389271691442
1280.0,-0.00036476319655776024
1408.0,0.0013493269216269255
1536.0,0.003983702510595322
1664.0,0.00890157651156187
1792.0,0.005045861471444368
1920.0,-0.002044149674475193
2048.0,-0.003824166487902403
2304.0,-0.004382995888590813
2560.0,-0.00437537394464016
2816.0,-0.0039523509331047535
3072.0,-0.0018956443527713418
3328.0,-0.004968054126948118
3584.0,-0.00895098689943552
3840.0,-0.005426413379609585
4096.0,0.0031565874814987183
4608.0,0.0033864430151879787
5120.0,-0.0066035594791173935
5632.0,-0.003649652935564518
6144.0,0.013403763063251972
6656.0,-0.0020208347123116255
7168.0,-0.01704741269350052
7680.0,-0.0034560319036245346
8192.0,-0.005669098813086748
end
