version,3.0
numOfCh,1
type,point
parent_name,fe81d_0dot1-0dot1
ch_type,1_1
kcount,1
numberNandB,1
brightnessNandB,1
carpet pos,0
pc,0
Time (ms),CH1 Auto-Correlation
1.0,0.04762715846300125
2.0,0.04710595682263374
3.0,0.04662715643644333
4.0,0.046155285090208054
5.0,0.04569021984934807
6.0,0.045230213552713394
7.0,0.044771794229745865
8.0,0.04431357607245445
9.0,0.0438593365252018
10.0,0.04342151805758476
11.0,0.04301547259092331
12.0,0.04262026399374008
13.0,0.04224351420998573
14.0,0.04186258092522621
15.0,0.041490018367767334
16.0,0.041113656014204025
18.0,0.04039943590760231
20.0,0.03973616287112236
22.0,0.03908289596438408
24.0,0.038443535566329956
26.0,0.037793681025505066
28.0,0.0371599942445755
30.0,0.03652339428663254
32.0,0.03587246686220169
36.0,0.034619204699993134
40.0,0.03342942148447037
44.0,0.032300982624292374
48.0,0.03130396082997322
52.0,0.030255962163209915
56.0,0.02923736535012722
60.0,0.028240256011486053
64.0,0.02723420225083828
72.0,0.025403695181012154
80.0,0.023736145347356796
88.0,0.022130420431494713
96.0,0.020615383982658386
104.0,0.019386008381843567
112.0,0.018264003098011017
120.0,0.017242133617401123
128.0,0.01653560996055603
144.0,0.01566345803439617
160.0,0.015111236833035946
176.0,0.0147811658680439
192.0,0.014394902624189854
208.0,0.013329441659152508
224.0,0.012070886790752411
240.0,0.011472251266241074
256.0,0.01103444304317236
288.0,0.009590399451553822
320.0,0.006919534411281347
352.0,0.003933074418455362
384.0,0.0016967076808214188
416.0,8.84948021848686e-05
448.0,-3.508021109155379e-05
480.0,-0.0006153821013867855
512.0,-0.0013287533074617386
576.0,-0.003522965358570218
640.0,-0.006245888769626617
704.0,-0.006436387076973915
768.0,-0.0066184005700051785
832.0,-0.005623084958642721
896.0,-0.0037388349883258343
960.0,-0.002444320823997259
1024.0,-0.0025689969770610332
1152.0,-0.0002674727002158761
1280.0,0.006364710628986359
1408.0,0.006482639815658331
1536.0,0.004688502289354801
1664.0,0.004912351258099079
1792.0,0.0010354664409533143
1920.0,-0.0022107078693807125
2048.0,-0.007302236743271351
2304.0,-0.012000150978565216
2560.0,-0.005087843630462885
2816.0,0.0001428969408152625
3072.0,0.011529934592545033
3328.0,0.009974156506359577
3584.0,-0.004323300439864397
3840.0,-0.003087150165811181
4096.0,0.004210049286484718
4608.0,0.0043510571122169495
5120.0,-0.012810363434255123
5632.0,-0.006239395122975111
6144.0,0.0011539512779563665
6656.0,-0.009557310491800308
7168.0,0.0010342194000259042
7680.0,0.014074084348976612
8192.0,-0.0022730082273483276
end
