version,3.0
numOfCh,1
type,point
parent_name,fe81d_0dot1-0dot1
ch_type,1_1
kcount,1
numberNandB,1
brightnessNandB,1
carpet pos,0
pc,0
Time (ms),CH1 Auto-Correlation
1.0,0.04719996452331543
2.0,0.045758768916130066
3.0,0.044412292540073395
4.0,0.04287467151880264
5.0,0.041397806257009506
6.0,0.0399976409971714
7.0,0.03851327672600746
8.0,0.03728242218494415
9.0,0.03670194745063782
10.0,0.03613003343343735
11.0,0.03559700399637222
12.0,0.035080548375844955
13.0,0.034596655517816544
14.0,0.03425394743680954
15.0,0.03391733020544052
16.0,0.033583857119083405
18.0,0.03297644108533859
20.0,0.03237301483750343
22.0,0.031806085258722305
24.0,0.03129046410322189
26.0,0.030820855870842934
28.0,0.03033122420310974
30.0,0.02991538681089878
32.0,0.029478345066308975
36.0,0.02852102927863598
40.0,0.027634629979729652
44.0,0.026877325028181076
48.0,0.026177750900387764
52.0,0.02552352473139763
56.0,0.024868590757250786
60.0,0.024173729121685028
64.0,0.023628665134310722
72.0,0.02236955240368843
80.0,0.02109445445239544
88.0,0.01994309201836586
96.0,0.019067643210291862
104.0,0.018433809280395508
112.0,0.01755816675722599
120.0,0.016910741105675697
128.0,0.01596345193684101
144.0,0.01478614378720522
160.0,0.013845016248524189
176.0,0.013261555694043636
192.0,0.012756148353219032
208.0,0.012385733425617218
224.0,0.01226565707474947
240.0,0.012204618193209171
256.0,0.012355079874396324
288.0,0.01195603422820568
320.0,0.010966042056679726
352.0,0.009709762409329414
384.0,0.008535828441381454
416.0,0.007929354906082153
448.0,0.007889746688306332
480.0,0.007443068083375692
512.0,0.006134125869721174
576.0,0.003953809384256601
640.0,0.003196113044396043
704.0,0.0027798088267445564
768.0,0.003933814354240894
832.0,0.0048539540730416775
896.0,0.004550671670585871
960.0,0.0040692295879125595
1024.0,0.0028544857632368803
1152.0,0.0022650451865047216
1280.0,-0.0010286035249009728
1408.0,-0.0021648595575243235
1536.0,-0.0033648572862148285
1664.0,-0.004299120977520943
1792.0,-0.0048417821526527405
1920.0,-0.004425559658557177
2048.0,-0.0035516712814569473
2304.0,-0.004679699428379536
2560.0,-0.005018001422286034
2816.0,-0.00493765901774168
3072.0,-0.004289350006729364
3328.0,-0.006525114644318819
3584.0,-0.005501030944287777
3840.0,-0.004882579669356346
4096.0,-0.0054166968911886215
4608.0,-0.00669223302975297
5120.0,0.0009538072044961154
5632.0,-0.000917299825232476
6144.0,0.0036014008801430464
6656.0,0.005124728195369244
7168.0,0.007546480279415846
7680.0,0.011516942642629147
8192.0,0.010098340921103954
end
