version,3.0
numOfCh,1
type,point
parent_name,fe81d_0dot1-0dot1
ch_type,1_1
kcount,1
numberNandB,1
brightnessNandB,1
carpet pos,0
pc,0
Time (ms),CH1 Auto-Correlation
1.0,0.06171754002571106
2.0,0.06109902635216713
3.0,0.06048635393381119
4.0,0.05987159535288811
5.0,0.05925595015287399
6.0,0.05866222083568573
7.0,0.05810067057609558
8.0,0.057539597153663635
9.0,0.05698305740952492
10.0,0.056466493755578995
11.0,0.055940501391887665
12.0,0.05543278902769089
13.0,0.054943013936281204
14.0,0.054477542638778687
15.0,0.05399676784873009
16.0,0.053538717329502106
18.0,0.052586983889341354
20.0,0.051592808216810226
22.0,0.050630249083042145
24.0,0.04971765726804733
26.0,0.048841942101716995
28.0,0.048007991164922714
30.0,0.04717051610350609
32.0,0.04633961617946625
36.0,0.044663071632385254
40.0,0.043001193553209305
44.0,0.0414683073759079
48.0,0.03996929153800011
52.0,0.0384879894554615
56.0,0.0371883399784565
60.0,0.035968899726867676
64.0,0.03464929759502411
72.0,0.032148946076631546
80.0,0.029735201969742775
88.0,0.02747613750398159
96.0,0.02581208199262619
104.0,0.024343710392713547
112.0,0.02311808615922928
120.0,0.021812696009874344
128.0,0.020464014261960983
144.0,0.01779240183532238
160.0,0.0159166119992733
176.0,0.014284484088420868
192.0,0.013342133723199368
208.0,0.012600857764482498
224.0,0.011997072957456112
240.0,0.011370314285159111
256.0,0.010555875487625599
288.0,0.009116914123296738
320.0,0.006918338593095541
352.0,0.0036450044717639685
384.0,0.0013917912729084492
416.0,0.0012421722058206797
448.0,0.0019637346267700195
480.0,0.0007640915573574603
512.0,-0.0026306218933314085
576.0,-0.007487863767892122
640.0,-0.0100176390260458
704.0,-0.012327886186540127
768.0,-0.011153530329465866
832.0,-0.010086395777761936
896.0,-0.008902247063815594
960.0,-0.007544086314737797
1024.0,-0.005428649485111237
1152.0,-0.001844908227212727
1280.0,-0.002180632669478655
1408.0,0.0014382991939783096
1536.0,0.005057416390627623
1664.0,0.00618015369400382
1792.0,-7.052929140627384e-05
1920.0,0.004184565041214228
2048.0,-0.003081908216699958
2304.0,-0.0063062082044780254
2560.0,-0.003787665395066142
2816.0,0.0014087110757827759
3072.0,0.009735282510519028
3328.0,-0.0012933152029290795
3584.0,-0.004489796701818705
3840.0,-0.0031473312992602587
4096.0,-0.0010907320538535714
4608.0,0.002989131025969982
5120.0,0.0031353088561445475
5632.0,-0.009066250175237656
6144.0,-0.0019561976660043
6656.0,-0.004861410707235336
7168.0,-0.0069686188362538815
7680.0,0.005264695733785629
8192.0,0.003653888590633869
end
