version,3.0
numOfCh,1
type,point
parent_name,fe81d_0dot1-0dot1
ch_type,1_1
kcount,1
numberNandB,1
brightnessNandB,1
carpet pos,0
pc,0
Time (ms),CH1 Auto-Correlation
1.0,0.055367495864629745
2.0,0.054860543459653854
3.0,0.05436636880040169
4.0,0.05390157178044319
5.0,0.053436752408742905
6.0,0.052975133061409
7.0,0.05250626802444458
8.0,0.052050091326236725
9.0,0.051607243716716766
10.0,0.05118369311094284
11.0,0.05077338591217995
12.0,0.0503869503736496
13.0,0.050011444836854935
14.0,0.04965007305145264
15.0,0.0492854043841362
16.0,0.04892869293689728
18.0,0.048217955976724625
20.0,0.04756854474544525
22.0,0.04691161587834358
24.0,0.04627896845340729
26.0,0.04566531255841255
28.0,0.045093368738889694
30.0,0.04457418993115425
32.0,0.044073931872844696
36.0,0.04309309273958206
40.0,0.042110245674848557
44.0,0.04115404188632965
48.0,0.040265027433633804
52.0,0.03947519510984421
56.0,0.03869415447115898
60.0,0.03792369365692139
64.0,0.03721332177519798
72.0,0.03601645305752754
80.0,0.03487911820411682
88.0,0.033700328320264816
96.0,0.032602548599243164
104.0,0.03150636702775955
112.0,0.03040987066924572
120.0,0.029359892010688782
128.0,0.028361255303025246
144.0,0.02650357596576214
160.0,0.024981549009680748
176.0,0.0236493069678545
192.0,0.022279640659689903
208.0,0.02086750790476799
224.0,0.019208310171961784
240.0,0.017051171511411667
256.0,0.015356832183897495
288.0,0.014308040030300617
320.0,0.013535212725400925
352.0,0.012062208727002144
384.0,0.01106295082718134
416.0,0.009628895670175552
448.0,0.008288372308015823
480.0,0.008154583163559437
512.0,0.007995439693331718
576.0,0.004780904855579138
640.0,0.00035106457653455436
704.0,-0.002617188263684511
768.0,-0.005238781683146954
832.0,-0.005922730080783367
896.0,-0.006444963160902262
960.0,-0.008211218751966953
1024.0,-0.006465640384703875
1152.0,-0.0022892202250659466
1280.0,-0.0013489950215443969
1408.0,-0.002917325356975198
1536.0,-0.00024593956186436117
1664.0,0.005372426938265562
1792.0,0.005842830054461956
1920.0,0.0026476464699953794
2048.0,0.006023953668773174
2304.0,0.009825794957578182
2560.0,0.0035331847611814737
2816.0,0.002616302343085408
3072.0,-0.0010214702924713492
3328.0,0.000520542380400002
3584.0,-0.0009409465710632503
3840.0,-0.006931045558303595
4096.0,-0.00956807378679514
4608.0,0.003549200017005205
5120.0,0.008914482779800892
5632.0,0.002114723203703761
6144.0,-0.007527610287070274
6656.0,-0.012143880128860474
7168.0,0.00484851747751236
7680.0,0.003989439457654953
8192.0,-0.007037262432277203
end
