version,3.0
numOfCh,1
type,point
parent_name,fe81d_0dot1-0dot1
ch_type,1_1
kcount,1
numberNandB,1
brightnessNandB,1
carpet pos,0
pc,0
Time (ms),CH1 Auto-Correlation
1.0,0.04331237077713013
2.0,0.042718347162008286
3.0,0.04215404763817787
4.0,0.0416068471968174
5.0,0.041065480560064316
6.0,0.040529754012823105
7.0,0.04001617059111595
8.0,0.0394958034157753
9.0,0.03899306803941727
10.0,0.03847334533929825
11.0,0.03796180337667465
12.0,0.037475354969501495
13.0,0.03699740022420883
14.0,0.03654304891824722
15.0,0.03609894588589668
16.0,0.03564564138650894
18.0,0.03475968912243843
20.0,0.033902037888765335
22.0,0.03303804621100426
24.0,0.03220074251294136
26.0,0.031408246606588364
28.0,0.03065474145114422
30.0,0.029965363442897797
32.0,0.029347939416766167
36.0,0.02825983799993992
40.0,0.027265693992376328
44.0,0.02635215036571026
48.0,0.02551044151186943
52.0,0.02477073110640049
56.0,0.024010907858610153
60.0,0.02328713797032833
64.0,0.0225724745541811
72.0,0.02152312360703945
80.0,0.02075134962797165
88.0,0.020080849528312683
96.0,0.01937580481171608
104.0,0.01862352527678013
112.0,0.017546264454722404
120.0,0.016302527859807014
128.0,0.015129261650145054
144.0,0.013361343182623386
160.0,0.011935620568692684
176.0,0.01078654732555151
192.0,0.010349021293222904
208.0,0.009631133638322353
224.0,0.00931491144001484
240.0,0.009623228572309017
256.0,0.009943937882781029
288.0,0.009563411585986614
320.0,0.009695306420326233
352.0,0.007224283181130886
384.0,0.004091593902558088
416.0,0.0014232761459425092
448.0,-0.0006063993205316365
480.0,-0.0010132569586858153
512.0,-0.00015106868522707373
576.0,0.00035392475547268987
640.0,-0.00017035803466569632
704.0,-0.0006654874887317419
768.0,-0.0005056754453107715
832.0,0.00229603610932827
896.0,0.0017065844731405377
960.0,-0.0004367580113466829
1024.0,-0.0016099934000521898
1152.0,-0.0013229782925918698
1280.0,-0.0031158151105046272
1408.0,-0.0010763579048216343
1536.0,-0.0024287148844450712
1664.0,-0.0011571027571335435
1792.0,-0.001019732910208404
1920.0,-0.006108978297561407
2048.0,-0.006895647384226322
2304.0,-0.003876995062455535
2560.0,-0.0001196222729049623
2816.0,0.0012761005200445652
3072.0,0.0038015726022422314
3328.0,0.0007765868213027716
3584.0,-0.007188449613749981
3840.0,-0.005896364338696003
4096.0,-0.0047113955952227116
4608.0,0.0005176807171665132
5120.0,0.0031274971552193165
5632.0,0.010062365792691708
6144.0,0.005543895997107029
6656.0,-0.0018240545177832246
7168.0,-0.007272183429449797
7680.0,-0.004434420261532068
8192.0,-0.005881112068891525
end
