version,3.0
numOfCh,1
type,point
parent_name,fe81d_0dot1-0dot1
ch_type,1_1
kcount,1
numberNandB,1
brightnessNandB,1
carpet pos,0
pc,0
Time (ms),CH1 Auto-Correlation
1.0,0.053305309265851974
2.0,0.052519701421260834
3.0,0.051662735641002655
4.0,0.050944309681653976
5.0,0.05028910934925079
6.0,0.04977436363697052
7.0,0.04927945137023926
8.0,0.04882999509572983
9.0,0.048409800976514816
10.0,0.04798446595668793
11.0,0.04757856950163841
12.0,0.04719263315200806
13.0,0.04682658240199089
14.0,0.046468332409858704
15.0,0.04612428694963455
16.0,0.045764170587062836
18.0,0.045047275722026825
20.0,0.044343288987874985
22.0,0.04370421916246414
24.0,0.043079376220703125
26.0,0.04249083995819092
28.0,0.04189342260360718
30.0,0.04128048196434975
32.0,0.040656547993421555
36.0,0.03966272622346878
40.0,0.038723189383745193
44.0,0.0378885380923748
48.0,0.03703846409916878
52.0,0.03628823161125183
56.0,0.035587407648563385
60.0,0.03490421175956726
64.0,0.03419240564107895
72.0,0.03273189812898636
80.0,0.031414326280355453
88.0,0.0301190372556448
96.0,0.02880626730620861
104.0,0.027572765946388245
112.0,0.02651822194457054
120.0,0.02561916410923004
128.0,0.024835634976625443
144.0,0.023308411240577698
160.0,0.022191030904650688
176.0,0.02175823599100113
192.0,0.02151563949882984
208.0,0.02152642048895359
224.0,0.02155320718884468
240.0,0.02130497619509697
256.0,0.021219328045845032
288.0,0.01943141594529152
320.0,0.01687951199710369
352.0,0.01411459594964981
384.0,0.011463544331490993
416.0,0.009448949247598648
448.0,0.008450280874967575
480.0,0.008222650736570358
512.0,0.008586053736507893
576.0,0.008316882885992527
640.0,0.005769048817455769
704.0,0.0037951660342514515
768.0,0.003804844804108143
832.0,0.0032993510831147432
896.0,0.0037695246282964945
960.0,0.0025184203404933214
1024.0,-0.0007243406143970788
1152.0,-0.0042490242049098015
1280.0,-0.003407276701182127
1408.0,-0.00559941167011857
1536.0,-0.005743001587688923
1664.0,-0.00801662728190422
1792.0,-0.007388746831566095
1920.0,-0.011762499809265137
2048.0,-0.012868251651525497
2304.0,-0.014010271057486534
2560.0,-0.00923165213316679
2816.0,-0.00717362342402339
3072.0,-0.005778094287961721
3328.0,-0.0050119622610509396
3584.0,-0.0028549807611852884
3840.0,-0.0019358982099220157
4096.0,-0.0005906638107262552
4608.0,0.00538231898099184
5120.0,-0.0004766501660924405
5632.0,0.0027812824118882418
6144.0,0.0018990994431078434
6656.0,0.0006261786911636591
7168.0,0.0046240901574492455
7680.0,0.002491375897079706
8192.0,0.0019886349327862263
end
