version,3.0
numOfCh,1
type,point
parent_name,fe81d_0dot1-0dot1
ch_type,1_1
kcount,1
numberNandB,1
brightnessNandB,1
carpet pos,0
pc,0
Time (ms),CH1 Auto-Correlation
1.0,0.051707301288843155
2.0,0.05110395327210426
3.0,0.0504952110350132
4.0,0.04992203414440155
5.0,0.049366697669029236
6.0,0.04882735386490822
7.0,0.04830745607614517
8.0,0.047804057598114014
9.0,0.047330934554338455
10.0,0.04686829820275307
11.0,0.0464063435792923
12.0,0.04593339562416077
13.0,0.04546491429209709
14.0,0.04499183967709541
15.0,0.04453423246741295
16.0,0.044068917632102966
18.0,0.04314575716853142
20.0,0.042289476841688156
22.0,0.04141080752015114
24.0,0.04052415117621422
26.0,0.03960949927568436
28.0,0.038704417645931244
30.0,0.037844251841306686
32.0,0.03702176362276077
36.0,0.03551054373383522
40.0,0.034087345004081726
44.0,0.03283664211630821
48.0,0.03167523071169853
52.0,0.030488410964608192
56.0,0.029430313035845757
60.0,0.02847367152571678
64.0,0.027545109391212463
72.0,0.025642594322562218
80.0,0.02408749982714653
88.0,0.02282038889825344
96.0,0.02167549543082714
104.0,0.020860394462943077
112.0,0.020249906927347183
120.0,0.019757594913244247
128.0,0.01923893392086029
144.0,0.018412020057439804
160.0,0.01769232749938965
176.0,0.016928749158978462
192.0,0.01595517247915268
208.0,0.015080878511071205
224.0,0.01419252809137106
240.0,0.013310777954757214
256.0,0.012520828284323215
288.0,0.011474250815808773
320.0,0.009436370804905891
352.0,0.007785451132804155
384.0,0.008223370648920536
416.0,0.009159618057310581
448.0,0.008403201587498188
480.0,0.006802287884056568
512.0,0.005407846067100763
576.0,0.004619136918336153
640.0,0.004662362392991781
704.0,0.00522547448053956
768.0,0.0007513247546739876
832.0,0.0006393811199814081
896.0,0.0007115175831131637
960.0,0.00022603025718126446
1024.0,0.0014848030405119061
1152.0,-0.0012694040779024363
1280.0,-0.003596580121666193
1408.0,-0.0016503322403877974
1536.0,-0.000334138167090714
1664.0,0.0005981394206173718
1792.0,0.00027159316232427955
1920.0,-0.0005762684158980846
2048.0,-0.001856753951869905
2304.0,-0.004515617620199919
2560.0,-0.005771201103925705
2816.0,-0.004585778806358576
3072.0,0.004812368657439947
3328.0,0.004294162150472403
3584.0,0.005675732623785734
3840.0,0.007144337520003319
4096.0,0.006594863720238209
4608.0,0.0036747739650309086
5120.0,-0.005546565167605877
5632.0,-0.009659712202847004
6144.0,-0.005190517753362656
6656.0,-0.005010762717574835
7168.0,-0.009622359648346901
7680.0,0.001200470025651157
8192.0,-0.0009747901349328458
end
