version,3.0
numOfCh,1
type,point
parent_name,fe81d_0dot1-0dot1
ch_type,1_1
kcount,1
numberNandB,1
brightnessNandB,1
carpet pos,0
pc,0
Time (ms),CH1 Auto-Correlation
1.0,0.0445367768406868
2.0,0.044007789343595505
3.0,0.043501075357198715
4.0,0.04298942908644676
5.0,0.04248020425438881
6.0,0.041984908282756805
7.0,0.041513290256261826
8.0,0.04107460752129555
9.0,0.04062715172767639
10.0,0.04017355665564537
11.0,0.03972286731004715
12.0,0.03926760330796242
13.0,0.03881878778338432
14.0,0.03838207945227623
15.0,0.03795882686972618
16.0,0.0375487394630909
18.0,0.03675159811973572
20.0,0.03598085790872574
22.0,0.03520548716187477
24.0,0.03446532040834427
26.0,0.03377816826105118
28.0,0.033134665340185165
30.0,0.03251326456665993
32.0,0.03191414102911949
36.0,0.030861342325806618
40.0,0.029931550845503807
44.0,0.0290251225233078
48.0,0.028180040419101715
52.0,0.02747143991291523
56.0,0.026892872527241707
60.0,0.026361148804426193
64.0,0.02576790563762188
72.0,0.02453872375190258
80.0,0.02322893775999546
88.0,0.021983833983540535
96.0,0.020901046693325043
104.0,0.01990325003862381
112.0,0.01896023005247116
120.0,0.018064970150589943
128.0,0.017281021922826767
144.0,0.01634575054049492
160.0,0.01573725789785385
176.0,0.015254595316946507
192.0,0.014765900559723377
208.0,0.014399749226868153
224.0,0.014177515171468258
240.0,0.013651954010128975
256.0,0.01261572539806366
288.0,0.011102646589279175
320.0,0.01027862261980772
352.0,0.008896131068468094
384.0,0.0065864440985023975
416.0,0.0042274403385818005
448.0,0.0036642232444137335
480.0,0.0044667478650808334
512.0,0.004841730929911137
576.0,0.004635211545974016
640.0,0.0024567467626184225
704.0,0.0020939214155077934
768.0,0.001963462447747588
832.0,0.0011294778669252992
896.0,-0.0008890127646736801
960.0,-0.00392903434112668
1024.0,-0.007428081706166267
1152.0,-0.008490771055221558
1280.0,-0.006784071680158377
1408.0,-0.003382453927770257
1536.0,-0.001389742479659617
1664.0,-0.0033437719102948904
1792.0,-0.00229584495536983
1920.0,-0.0018161643529310822
2048.0,0.000629742513410747
2304.0,0.0026369609404355288
2560.0,-0.0026725982315838337
2816.0,-0.006728967651724815
3072.0,-0.0063108475878834724
3328.0,-0.009521323256194592
3584.0,-0.009370313957333565
3840.0,-0.002972808899357915
4096.0,0.00404825946316123
4608.0,0.001683203037828207
5120.0,-0.006253981497138739
5632.0,-0.004736372269690037
6144.0,0.003826863132417202
6656.0,0.008091607131063938
7168.0,0.003871392458677292
7680.0,0.0034927292726933956
8192.0,0.009363450109958649
end
