version,3.0
numOfCh,1
type,point
parent_name,fe81d_0dot1-0dot1
ch_type,1_1
kcount,1
numberNandB,1
brightnessNandB,1
carpet pos,0
pc,0
Time (ms),CH1 Auto-Correlation
1.0,0.0356619767844677
2.0,0.03512668237090111
3.0,0.03460444137454033
4.0,0.03409089148044586
5.0,0.03360708802938461
6.0,0.033123236149549484
7.0,0.032651592046022415
8.0,0.03219567611813545
9.0,0.03174617514014244
10.0,0.03129907324910164
11.0,0.03086661919951439
12.0,0.03043232299387455
13.0,0.029993712902069092
14.0,0.02957003377377987
15.0,0.029167724773287773
16.0,0.028779517859220505
18.0,0.028082886710762978
20.0,0.027416007593274117
22.0,0.02676028199493885
24.0,0.026126598939299583
26.0,0.02554631233215332
28.0,0.025015894323587418
30.0,0.024491142481565475
32.0,0.023960929363965988
36.0,0.022913405671715736
40.0,0.021856045350432396
44.0,0.02075093798339367
48.0,0.019740695133805275
52.0,0.01875889301300049
56.0,0.017811400815844536
60.0,0.016928790137171745
64.0,0.016140000894665718
72.0,0.014652414247393608
80.0,0.013214388862252235
88.0,0.01200732123106718
96.0,0.010999159887433052
104.0,0.010046645067632198
112.0,0.00920749083161354
120.0,0.008393104188144207
128.0,0.007423596456646919
144.0,0.005288610700517893
160.0,0.0036111492663621902
176.0,0.0022330014035105705
192.0,0.0015996262663975358
208.0,0.0011382985394448042
224.0,0.001073155552148819
240.0,0.0009392201900482178
256.0,0.00036400556564331055
288.0,-0.0005207433132454753
320.0,-0.0009191112476401031
352.0,-0.0006354418001137674
384.0,0.00013413951091933995
416.0,0.0008821897208690643
448.0,0.0016400287859141827
480.0,0.0021170673426240683
512.0,0.0030306181870400906
576.0,0.0024498894345015287
640.0,0.0007524746470153332
704.0,-0.00023324580979533494
768.0,-0.0013794144615530968
832.0,-0.0013528290437534451
896.0,-0.002030039671808481
960.0,-0.0022685581352561712
1024.0,-0.002852712757885456
1152.0,-0.0020511611364781857
1280.0,-0.0014573814114555717
1408.0,-0.0015974424313753843
1536.0,-0.002606370486319065
1664.0,-0.0013628682354465127
1792.0,0.0016584385884925723
1920.0,0.0008276395383290946
2048.0,-0.0007559465593658388
2304.0,0.0024752579629421234
2560.0,-0.003110318211838603
2816.0,-0.001535778515972197
3072.0,-0.0038193417713046074
3328.0,-0.0021526929922401905
3584.0,0.0013469384284690022
3840.0,0.0034854246769100428
4096.0,0.0015364880673587322
4608.0,0.0011738513130694628
5120.0,-0.002235539723187685
5632.0,0.0016099789645522833
6144.0,0.0031511313281953335
6656.0,-0.0007555442862212658
7168.0,-0.0030424066353589296
7680.0,-0.0018804270075634122
8192.0,0.00021458826086018234
end
