version,3.0
numOfCh,1
type,point
parent_name,fe81d_0dot1-0dot1
ch_type,1_1
kcount,1
numberNandB,1
brightnessNandB,1
carpet pos,0
pc,0
Time (ms),CH1 Auto-Correlation
1.0,0.056970465928316116
2.0,0.05637431889772415
3.0,0.05577191337943077
4.0,0.05517403781414032
5.0,0.054602690041065216
6.0,0.0540316216647625
7.0,0.0534551665186882
8.0,0.05288088694214821
9.0,0.05232953652739525
10.0,0.051817312836647034
11.0,0.051310766488313675
12.0,0.05081494525074959
13.0,0.05030382052063942
14.0,0.049811530858278275
15.0,0.04932081326842308
16.0,0.04883691295981407
18.0,0.0478457510471344
20.0,0.04681877791881561
22.0,0.045851606875658035
24.0,0.04496878385543823
26.0,0.04411722347140312
28.0,0.04328557476401329
30.0,0.04249691963195801
32.0,0.04171885922551155
36.0,0.04016341269016266
40.0,0.03867684304714203
44.0,0.03727126494050026
48.0,0.0359308160841465
52.0,0.034677840769290924
56.0,0.0334806852042675
60.0,0.032341960817575455
64.0,0.031315967440605164
72.0,0.029648013412952423
80.0,0.02829749882221222
88.0,0.027122724801301956
96.0,0.02611975371837616
104.0,0.02549884095788002
112.0,0.024935677647590637
120.0,0.024429043754935265
128.0,0.02405334636569023
144.0,0.02293025329709053
160.0,0.021741990000009537
176.0,0.020191140472888947
192.0,0.018892835825681686
208.0,0.017997542396187782
224.0,0.017294568940997124
240.0,0.016047092154622078
256.0,0.015040835365653038
288.0,0.0129184415563941
320.0,0.010928243398666382
352.0,0.009594582952558994
384.0,0.008489483967423439
416.0,0.006955089513212442
448.0,0.006488498765975237
480.0,0.006364107597619295
512.0,0.005351519677788019
576.0,0.005994386505335569
640.0,0.007842252030968666
704.0,0.0062269726768136024
768.0,0.004144555423408747
832.0,0.0009650246356613934
896.0,-0.0010183547856286168
960.0,-0.002147458028048277
1024.0,-0.0023679370060563087
1152.0,0.0014983729925006628
1280.0,0.0028558322228491306
1408.0,0.0019245244329795241
1536.0,-0.0011243649059906602
1664.0,-0.004912002477794886
1792.0,0.000546517432667315
1920.0,0.0007133404142223299
2048.0,-0.003629885381087661
2304.0,-0.005573957692831755
2560.0,-0.0027291704900562763
2816.0,-0.006322104949504137
3072.0,-0.008391081355512142
3328.0,-0.008740192279219627
3584.0,-0.012325168587267399
3840.0,-0.007414724212139845
4096.0,-0.005883465986698866
4608.0,0.003506507258862257
5120.0,0.005269334185868502
5632.0,0.006499926559627056
6144.0,0.004965882282704115
6656.0,0.011900458484888077
7168.0,0.006664073094725609
7680.0,-0.007380213588476181
8192.0,-0.012158512137830257
end
