version,3.0
numOfCh,1
type,point
parent_name,fe81d_0dot1-0dot1
ch_type,1_1
kcount,1
numberNandB,1
brightnessNandB,1
carpet pos,0
pc,0
Time (ms),CH1 Auto-Correlation
1.0,0.05417516827583313
2.0,0.053616926074028015
3.0,0.05307448282837868
4.0,0.05254378542304039
5.0,0.05205092206597328
6.0,0.051539644598960876
7.0,0.05106343701481819
8.0,0.050596628338098526
9.0,0.05012593790888786
10.0,0.04964819550514221
11.0,0.04916417971253395
12.0,0.048701170831918716
13.0,0.04824734479188919
14.0,0.04781851917505264
15.0,0.04738019034266472
16.0,0.04694642871618271
18.0,0.04609746113419533
20.0,0.045316774398088455
22.0,0.044571876525878906
24.0,0.043823909014463425
26.0,0.04308127239346504
28.0,0.04236845299601555
30.0,0.041697271168231964
32.0,0.04105651378631592
36.0,0.03987232223153114
40.0,0.03873263671994209
44.0,0.03762984648346901
48.0,0.03658846765756607
52.0,0.03560508042573929
56.0,0.03468786180019379
60.0,0.03385069966316223
64.0,0.033126167953014374
72.0,0.03175922855734825
80.0,0.030436741188168526
88.0,0.02944999374449253
96.0,0.028739439323544502
104.0,0.02785053290426731
112.0,0.02698882296681404
120.0,0.026252975687384605
128.0,0.02561158314347267
144.0,0.02472100220620632
160.0,0.02398160845041275
176.0,0.02347583696246147
192.0,0.022733323276042938
208.0,0.022243641316890717
224.0,0.02164613828063011
240.0,0.02082257904112339
256.0,0.01964849978685379
288.0,0.01829623430967331
320.0,0.01766764000058174
352.0,0.018051335588097572
384.0,0.018135210499167442
416.0,0.017422031611204147
448.0,0.017147667706012726
480.0,0.01684361696243286
512.0,0.016880515962839127
576.0,0.017909612506628036
640.0,0.01633390225470066
704.0,0.012994850985705853
768.0,0.011188830249011517
832.0,0.012296724133193493
896.0,0.013091596774756908
960.0,0.01430033054202795
1024.0,0.015093302354216576
1152.0,0.015388121828436852
1280.0,0.014727341942489147
1408.0,0.014132143929600716
1536.0,0.01669992506504059
1664.0,0.01889108307659626
1792.0,0.013284405693411827
1920.0,0.010650577954947948
2048.0,0.009094574488699436
2304.0,0.006247494835406542
2560.0,0.002294764621183276
2816.0,0.005855555180460215
3072.0,0.00044474436435848475
3328.0,0.0006745629361830652
3584.0,-0.00614943215623498
3840.0,-0.005968561861664057
4096.0,-0.009578813798725605
4608.0,-0.010180538520216942
5120.0,-0.017946165055036545
5632.0,-0.017468059435486794
6144.0,-0.009929908439517021
6656.0,-0.01374882459640503
7168.0,-0.01793658919632435
7680.0,-0.01204450149089098
8192.0,-0.007205056957900524
end
