version,3.0
numOfCh,1
type,point
parent_name,0cd20_10dot0-0dot01
ch_type,1_1
kcount,1
numberNandB,1
brightnessNandB,1
carpet pos,0
pc,0
Time (ms),CH1 Auto-Correlation
1.0,0.23006831109523773
2.0,0.22516204416751862
3.0,0.22276313602924347
4.0,0.221060648560524
5.0,0.21997016668319702
6.0,0.21849526464939117
7.0,0.21743057668209076
8.0,0.21646951138973236
9.0,0.21526868641376495
10.0,0.2143360823392868
11.0,0.21368557214736938
12.0,0.2133251130580902
13.0,0.2123296856880188
14.0,0.21126899123191833
15.0,0.2102041393518448
16.0,0.20963290333747864
18.0,0.2088738977909088
20.0,0.2075013816356659
22.0,0.20638003945350647
24.0,0.20491856336593628
26.0,0.2033756673336029
28.0,0.20198377966880798
30.0,0.20064261555671692
32.0,0.19948799908161163
36.0,0.19818010926246643
40.0,0.19716589152812958
44.0,0.19589930772781372
48.0,0.19373095035552979
52.0,0.19170266389846802
56.0,0.19133077561855316
60.0,0.19054119288921356
64.0,0.18885210156440735
72.0,0.1851862519979477
80.0,0.18290294706821442
88.0,0.18126115202903748
96.0,0.17979620397090912
104.0,0.17767280340194702
112.0,0.17541344463825226
120.0,0.17352239787578583
128.0,0.1727437824010849
144.0,0.16869547963142395
160.0,0.16245681047439575
176.0,0.15644417703151703
192.0,0.15132704377174377
208.0,0.14642579853534698
224.0,0.14253458380699158
240.0,0.1372039020061493
256.0,0.13258671760559082
288.0,0.12471745908260345
320.0,0.11786843836307526
352.0,0.10878413170576096
384.0,0.10203713923692703
416.0,0.09737039357423782
448.0,0.09837879985570908
480.0,0.0958329513669014
512.0,0.09280382096767426
576.0,0.09487216919660568
640.0,0.1001843512058258
704.0,0.10537177324295044
768.0,0.09944407641887665
832.0,0.08885309100151062
896.0,0.07807905972003937
960.0,0.06887812167406082
1024.0,0.05650704726576805
1152.0,0.029611844569444656
1280.0,0.0007702570874243975
1408.0,-0.015908779576420784
1536.0,-0.029008621349930763
1664.0,-0.03492814302444458
1792.0,-0.03757614642381668
1920.0,-0.03902469575405121
2048.0,-0.04010641202330589
2304.0,-0.049128107726573944
2560.0,-0.04782905429601669
2816.0,-0.05763515457510948
3072.0,-0.06786615401506424
3328.0,-0.07510717213153839
3584.0,-0.0938403531908989
3840.0,-0.11879236251115799
4096.0,-0.1507285237312317
end
