version,3.0
numOfCh,1
type,point
parent_name,ff67b_0dot069-1dot0
ch_type,1_1
kcount,1
numberNandB,1
brightnessNandB,1
carpet pos,0
pc,0
Time (ms),CH1 Auto-Correlation
1.0,0.0745612308382988
2.0,0.07350759208202362
3.0,0.0725468099117279
4.0,0.07172835618257523
5.0,0.07102020829916
6.0,0.07031279802322388
7.0,0.06958870589733124
8.0,0.06882785260677338
9.0,0.06812072545289993
10.0,0.06742241233587265
11.0,0.0667540431022644
12.0,0.06611036509275436
13.0,0.06548818200826645
14.0,0.0648687332868576
15.0,0.06425788998603821
16.0,0.0636867880821228
18.0,0.062493566423654556
20.0,0.06134786829352379
22.0,0.060335464775562286
24.0,0.05942310765385628
26.0,0.05842985212802887
28.0,0.05743025615811348
30.0,0.05648355931043625
32.0,0.055499639362096786
36.0,0.05361085385084152
40.0,0.05180715397000313
44.0,0.050161462277173996
48.0,0.04864185303449631
52.0,0.04715944826602936
56.0,0.045861586928367615
60.0,0.04466012120246887
64.0,0.04353353753685951
72.0,0.04112938046455383
80.0,0.03886990249156952
88.0,0.03683081641793251
96.0,0.0350521095097065
104.0,0.0333290696144104
112.0,0.03177247568964958
120.0,0.03049742989242077
128.0,0.029634416103363037
144.0,0.027644872665405273
160.0,0.02537081018090248
176.0,0.023305898532271385
192.0,0.020610731095075607
208.0,0.017329141497612
224.0,0.014281162992119789
240.0,0.011511323042213917
256.0,0.009038260206580162
288.0,0.005864087957888842
320.0,0.00465776864439249
352.0,0.003344729309901595
384.0,0.0011432662140578032
416.0,-0.0001523809041827917
448.0,0.0003683365066535771
480.0,0.0008339363848790526
512.0,0.0020080709364265203
576.0,0.004803243558853865
640.0,0.007445283234119415
704.0,0.007527028676122427
768.0,0.006005468778312206
832.0,0.006259307265281677
896.0,0.007235145196318626
960.0,0.0060226707719266415
1024.0,0.0029403625521808863
1152.0,-0.00048213714035227895
1280.0,0.0010017219465225935
1408.0,0.007945140823721886
1536.0,0.006709107663482428
1664.0,-0.0012101603206247091
1792.0,-0.00464521674439311
1920.0,-0.0017997000832110643
2048.0,0.0010574234183877707
2304.0,0.008743063546717167
2560.0,0.013641387224197388
2816.0,0.007969525642693043
3072.0,0.01194726675748825
3328.0,0.0013688658364117146
3584.0,-0.0034359372220933437
3840.0,0.011922899633646011
4096.0,0.003304368583485484
4608.0,-0.003408553311601281
5120.0,-0.005662652663886547
5632.0,0.006283799186348915
6144.0,-0.009508979506790638
6656.0,-0.007877252995967865
7168.0,-0.0007747735944576561
7680.0,-0.006922280881553888
8192.0,-3.0499562853947282e-05
end
