version,3.0
numOfCh,1
type,point
parent_name,ff67b_0dot069-1dot0
ch_type,1_1
kcount,1
numberNandB,1
brightnessNandB,1
carpet pos,0
pc,0
Time (ms),CH1 Auto-Correlation
1.0,0.07016481459140778
2.0,0.06890158355236053
3.0,0.06785206496715546
4.0,0.06696374714374542
5.0,0.06622455269098282
6.0,0.06559538841247559
7.0,0.06495995819568634
8.0,0.06439258903265
9.0,0.06379152834415436
10.0,0.06316596269607544
11.0,0.06259239464998245
12.0,0.062039028853178024
13.0,0.0614897757768631
14.0,0.06094704940915108
15.0,0.06042494252324104
16.0,0.0598844550549984
18.0,0.0587821789085865
20.0,0.05780146270990372
22.0,0.0568697415292263
24.0,0.056010209023952484
26.0,0.055268075317144394
28.0,0.0545240193605423
30.0,0.053751591593027115
32.0,0.05299292132258415
36.0,0.05157584324479103
40.0,0.050245679914951324
44.0,0.04904751479625702
48.0,0.04777656868100166
52.0,0.046621423214673996
56.0,0.04539424926042557
60.0,0.044326502829790115
64.0,0.043210651725530624
72.0,0.04120871052145958
80.0,0.03890272229909897
88.0,0.03691418096423149
96.0,0.034668002277612686
104.0,0.032708220183849335
112.0,0.030943185091018677
120.0,0.029424544423818588
128.0,0.027911128476262093
144.0,0.024378973990678787
160.0,0.021384023129940033
176.0,0.018272846937179565
192.0,0.01525196060538292
208.0,0.012850149534642696
224.0,0.011084424331784248
240.0,0.009363151155412197
256.0,0.007233352866023779
288.0,0.0044018300250172615
320.0,0.0029425020329654217
352.0,0.0016365714836865664
384.0,0.0013943411177024245
416.0,0.00150456337723881
448.0,0.0016489609843119979
480.0,0.002678039250895381
512.0,0.0030447517056018114
576.0,0.0026845040265470743
640.0,0.003782047191634774
704.0,0.0038721621967852116
768.0,0.003149116411805153
832.0,0.004662476945668459
896.0,0.0035360599867999554
960.0,0.0012096719583496451
1024.0,-0.0010191494366154075
1152.0,0.00023554310610052198
1280.0,0.002144936239346862
1408.0,-1.6335197869921103e-05
1536.0,0.0002317239996045828
1664.0,-0.0038672066293656826
1792.0,-0.005682095419615507
1920.0,-0.004717560485005379
2048.0,-0.005890468135476112
2304.0,0.005866480525583029
2560.0,0.004443686921149492
2816.0,0.001969331642612815
3072.0,0.00111132743768394
3328.0,-0.0035843830555677414
3584.0,0.003508768044412136
3840.0,-0.0018400012049824
4096.0,-0.0030495086684823036
4608.0,0.0016867019003257155
5120.0,0.002884436631575227
5632.0,-0.0033868837635964155
6144.0,0.0052760299295187
6656.0,-0.005787362344563007
7168.0,-0.0028461101464927197
7680.0,-0.00034492689883336425
8192.0,-0.0026318461168557405
end
