version,3.0
numOfCh,1
type,point
parent_name,ff67b_0dot069-1dot0
ch_type,1_1
kcount,1
numberNandB,1
brightnessNandB,1
carpet pos,0
pc,0
Time (ms),CH1 Auto-Correlation
1.0,0.06705973297357559
2.0,0.06626477837562561
3.0,0.06556320935487747
4.0,0.06494229286909103
5.0,0.06433629244565964
6.0,0.06381823867559433
7.0,0.0633634552359581
8.0,0.06294069439172745
9.0,0.06251165270805359
10.0,0.06204664707183838
11.0,0.06161965802311897
12.0,0.06121427193284035
13.0,0.06078081578016281
14.0,0.06031365320086479
15.0,0.05989816039800644
16.0,0.05950239300727844
18.0,0.058740708976984024
20.0,0.0580185241997242
22.0,0.057292740792036057
24.0,0.056538552045822144
26.0,0.05586764216423035
28.0,0.05518077686429024
30.0,0.05449372157454491
32.0,0.05382866412401199
36.0,0.052499376237392426
40.0,0.05118376389145851
44.0,0.049921270459890366
48.0,0.04875482991337776
52.0,0.04751474782824516
56.0,0.04625708609819412
60.0,0.04506276547908783
64.0,0.0438663512468338
72.0,0.041798997670412064
80.0,0.03985866159200668
88.0,0.038189008831977844
96.0,0.03666440397500992
104.0,0.03519603982567787
112.0,0.033792998641729355
120.0,0.032339394092559814
128.0,0.03098386526107788
144.0,0.028439614921808243
160.0,0.02582666650414467
176.0,0.023293720558285713
192.0,0.02107563056051731
208.0,0.018523916602134705
224.0,0.016154088079929352
240.0,0.014248913154006004
256.0,0.012122857384383678
288.0,0.00883849710226059
320.0,0.007670799735933542
352.0,0.007318537682294846
384.0,0.006463776808232069
416.0,0.006305750925093889
448.0,0.006444124039262533
480.0,0.005106335040181875
512.0,0.001997343497350812
576.0,-0.0015854735393077135
640.0,-0.003006239188835025
704.0,-0.003079457674175501
768.0,-0.0030383174307644367
832.0,-0.002760326722636819
896.0,-0.0017667163629084826
960.0,-0.0026077479124069214
1024.0,-0.0031038294546306133
1152.0,-0.0012839408591389656
1280.0,-0.0007427403470501304
1408.0,-0.0036588190123438835
1536.0,-0.005874800495803356
1664.0,-0.002115007722750306
1792.0,-0.002147972583770752
1920.0,-2.062329076579772e-05
2048.0,0.003045509336516261
2304.0,0.005376845598220825
2560.0,-0.0034777349792420864
2816.0,-0.004113865550607443
3072.0,0.0019046544330194592
3328.0,0.004802520852535963
3584.0,0.003179506165906787
3840.0,-0.000612662814091891
4096.0,0.004010492470115423
4608.0,0.006065653171390295
5120.0,-0.006409833207726479
5632.0,-0.007727910298854113
6144.0,-0.01590188965201378
6656.0,-0.007050829939544201
7168.0,0.0004938613274134696
7680.0,0.002724927617236972
8192.0,-0.004350533243268728
end
