version,3.0
numOfCh,1
type,point
parent_name,ff67b_0dot069-1dot0
ch_type,1_1
kcount,1
numberNandB,1
brightnessNandB,1
carpet pos,0
pc,0
Time (ms),CH1 Auto-Correlation
1.0,0.0800570622086525
2.0,0.07919666916131973
3.0,0.07840429991483688
4.0,0.07779435068368912
5.0,0.07716833800077438
6.0,0.0765623152256012
7.0,0.07597894966602325
8.0,0.0755002424120903
9.0,0.0750272125005722
10.0,0.07454944401979446
11.0,0.0740567147731781
12.0,0.0735458955168724
13.0,0.07305343449115753
14.0,0.07253769785165787
15.0,0.07210037112236023
16.0,0.07168892025947571
18.0,0.0708867684006691
20.0,0.07010181248188019
22.0,0.06938493996858597
24.0,0.06863648444414139
26.0,0.0679139569401741
28.0,0.06721008569002151
30.0,0.0664604902267456
32.0,0.06576802581548691
36.0,0.0645240768790245
40.0,0.06322269886732101
44.0,0.062187496572732925
48.0,0.06122593954205513
52.0,0.06031876429915428
56.0,0.059363532811403275
60.0,0.05834748595952988
64.0,0.05736410617828369
72.0,0.05561060085892677
80.0,0.05385468900203705
88.0,0.052320122718811035
96.0,0.050889287143945694
104.0,0.049435026943683624
112.0,0.04788157343864441
120.0,0.04639222100377083
128.0,0.0450766384601593
144.0,0.04269561171531677
160.0,0.04011410474777222
176.0,0.03713383898139
192.0,0.0342426635324955
208.0,0.032227713614702225
224.0,0.03060932457447052
240.0,0.028601203113794327
256.0,0.02659182995557785
288.0,0.021051859483122826
320.0,0.016224177554249763
352.0,0.013019576668739319
384.0,0.010885109193623066
416.0,0.008717778138816357
448.0,0.006947329733520746
480.0,0.005253059323877096
512.0,0.00437718303874135
576.0,0.0031369144562631845
640.0,0.0005478942184709013
704.0,-0.0008302308269776404
768.0,0.0015347693115472794
832.0,0.0023866670671850443
896.0,0.004058606922626495
960.0,0.0044542597606778145
1024.0,0.0035658313427120447
1152.0,-0.0013394010020419955
1280.0,-0.002155069261789322
1408.0,-0.0022528613917529583
1536.0,-0.004447501618415117
1664.0,-0.0062624989077448845
1792.0,-0.003207800444215536
1920.0,0.004835826810449362
2048.0,0.011054813861846924
2304.0,0.005936551373451948
2560.0,-0.01254455279558897
2816.0,-0.019026022404432297
3072.0,-0.006787605583667755
3328.0,0.0002249316603410989
3584.0,0.003598027164116502
3840.0,0.011129394173622131
4096.0,0.020175494253635406
4608.0,0.014094669371843338
5120.0,-0.007036001421511173
5632.0,0.0035881802905350924
6144.0,-0.007146682124584913
6656.0,-0.0025091231800615788
7168.0,-0.02248024195432663
7680.0,0.0063903783448040485
8192.0,-0.005703429225832224
end
