version,3.0
numOfCh,1
type,point
parent_name,ff67b_0dot069-1dot0
ch_type,1_1
kcount,1
numberNandB,1
brightnessNandB,1
carpet pos,0
pc,0
Time (ms),CH1 Auto-Correlation
1.0,0.10417276620864868
2.0,0.10328218340873718
3.0,0.10250860452651978
4.0,0.10176169127225876
5.0,0.10105036944150925
6.0,0.1003265231847763
7.0,0.09966953843832016
8.0,0.099022775888443
9.0,0.09842570126056671
10.0,0.09783187508583069
11.0,0.09724089503288269
12.0,0.09670570492744446
13.0,0.0961456149816513
14.0,0.09557119756937027
15.0,0.09498963505029678
16.0,0.0943954661488533
18.0,0.09332973510026932
20.0,0.09237460047006607
22.0,0.09143555909395218
24.0,0.09052842110395432
26.0,0.08966520428657532
28.0,0.08882814645767212
30.0,0.08799035847187042
32.0,0.08714773505926132
36.0,0.08545932918787003
40.0,0.08375758677721024
44.0,0.08213131129741669
48.0,0.08058634400367737
52.0,0.0790342316031456
56.0,0.07756946235895157
60.0,0.07619933784008026
64.0,0.07493919134140015
72.0,0.0725071132183075
80.0,0.070199154317379
88.0,0.06820469349622726
96.0,0.06614558398723602
104.0,0.06399144977331161
112.0,0.06223578378558159
120.0,0.060754142701625824
128.0,0.059364788234233856
144.0,0.056512463837862015
160.0,0.05417580530047417
176.0,0.052104949951171875
192.0,0.049821652472019196
208.0,0.04728802666068077
224.0,0.04508700966835022
240.0,0.04297675937414169
256.0,0.04134643077850342
288.0,0.04131734371185303
320.0,0.041601717472076416
352.0,0.03885926678776741
384.0,0.034046780318021774
416.0,0.03037945181131363
448.0,0.025633906945586205
480.0,0.022269578650593758
512.0,0.021236715838313103
576.0,0.018387075513601303
640.0,0.018010856583714485
704.0,0.019297504797577858
768.0,0.016827186569571495
832.0,0.01571187935769558
896.0,0.015406593680381775
960.0,0.012624802067875862
1024.0,0.010571748949587345
1152.0,0.0030779154039919376
1280.0,-0.001550783752463758
1408.0,-0.006078401114791632
1536.0,-0.010314663872122765
1664.0,-0.01623934507369995
1792.0,-0.022209782153367996
1920.0,-0.03187846392393112
2048.0,-0.03450591862201691
2304.0,-0.029247034341096878
2560.0,-0.023549405857920647
2816.0,-0.022752884775400162
3072.0,-0.008384466171264648
3328.0,0.003845570143312216
3584.0,0.004128895699977875
3840.0,0.0032920485828071833
4096.0,0.012277171947062016
4608.0,0.012394025921821594
5120.0,-0.0032101620454341173
5632.0,-0.02529936097562313
6144.0,-0.025626489892601967
6656.0,-0.022763356566429138
7168.0,-0.007059281691908836
7680.0,0.0036728719715029
8192.0,0.014204742386937141
end
