version,3.0
numOfCh,1
type,point
parent_name,ff67b_0dot069-1dot0
ch_type,1_1
kcount,1
numberNandB,1
brightnessNandB,1
carpet pos,0
pc,0
Time (ms),CH1 Auto-Correlation
1.0,0.08323507010936737
2.0,0.0818912610411644
3.0,0.08076945692300797
4.0,0.07977285981178284
5.0,0.07886385917663574
6.0,0.07809087634086609
7.0,0.07717165350914001
8.0,0.07655031234025955
9.0,0.0758768618106842
10.0,0.07519397139549255
11.0,0.07451140880584717
12.0,0.07402287423610687
13.0,0.07352852076292038
14.0,0.07301939278841019
15.0,0.07255631685256958
16.0,0.07202018797397614
18.0,0.0711020976305008
20.0,0.07024415582418442
22.0,0.06944885849952698
24.0,0.06853731721639633
26.0,0.06773218512535095
28.0,0.06696173548698425
30.0,0.06608069688081741
32.0,0.06535031646490097
36.0,0.06421248614788055
40.0,0.06314549595117569
44.0,0.06216120719909668
48.0,0.06118243560194969
52.0,0.060122016817331314
56.0,0.05866206809878349
60.0,0.057518500834703445
64.0,0.05665912479162216
72.0,0.055165596306324005
80.0,0.05331329628825188
88.0,0.051509495824575424
96.0,0.04965748265385628
104.0,0.04806385189294815
112.0,0.046281903982162476
120.0,0.044441789388656616
128.0,0.04275726526975632
144.0,0.03956868499517441
160.0,0.035724226385354996
176.0,0.03205778822302818
192.0,0.029558414593338966
208.0,0.027034848928451538
224.0,0.025131553411483765
240.0,0.022750619798898697
256.0,0.02034502662718296
288.0,0.017200103029608727
320.0,0.013778186403214931
352.0,0.011728028766810894
384.0,0.010437487624585629
416.0,0.009726968593895435
448.0,0.010478867217898369
480.0,0.009670739062130451
512.0,0.009159427136182785
576.0,0.0080211590975523
640.0,0.007220054045319557
704.0,0.006964012980461121
768.0,0.0065500130876898766
832.0,0.004655512049794197
896.0,0.004310307092964649
960.0,-0.0003372471546754241
1024.0,-0.003889546962454915
1152.0,0.00030791020253673196
1280.0,0.005851635243743658
1408.0,0.011448311619460583
1536.0,0.014842215925455093
1664.0,0.010441301390528679
1792.0,0.004283169284462929
1920.0,0.0015672453446313739
2048.0,0.001850787433795631
2304.0,-0.0007083723903633654
2560.0,-0.008791452273726463
2816.0,-0.013024025596678257
3072.0,-0.002176648238673806
3328.0,-0.008243640884757042
3584.0,-0.007164719980210066
3840.0,-0.0035198116675019264
4096.0,-0.0162445567548275
4608.0,0.00255771866068244
5120.0,0.008875157684087753
5632.0,0.003492272226139903
6144.0,0.011570003814995289
6656.0,0.008722243830561638
7168.0,0.0043276092037558556
7680.0,0.0026208532508462667
8192.0,-0.0059821526519954205
end
