version,3.0
numOfCh,1
type,point
parent_name,ff67b_0dot069-1dot0
ch_type,1_1
kcount,1
numberNandB,1
brightnessNandB,1
carpet pos,0
pc,0
Time (ms),CH1 Auto-Correlation
1.0,0.11125302314758301
2.0,0.11008647829294205
3.0,0.10916656255722046
4.0,0.10842547565698624
5.0,0.10778717696666718
6.0,0.10709216445684433
7.0,0.10653889179229736
8.0,0.10599704831838608
9.0,0.10540783405303955
10.0,0.10487661510705948
11.0,0.10432617366313934
12.0,0.10389328002929688
13.0,0.10349884629249573
14.0,0.10304521769285202
15.0,0.1025848463177681
16.0,0.10212478041648865
18.0,0.10131865739822388
20.0,0.10056142508983612
22.0,0.09967748820781708
24.0,0.09869718551635742
26.0,0.09768924862146378
28.0,0.09676963090896606
30.0,0.09584450721740723
32.0,0.09497377276420593
36.0,0.09317135810852051
40.0,0.09159361571073532
44.0,0.09019771218299866
48.0,0.088717520236969
52.0,0.08728247135877609
56.0,0.08572421967983246
60.0,0.0844576358795166
64.0,0.08345648646354675
72.0,0.0815480500459671
80.0,0.07980053871870041
88.0,0.07854954153299332
96.0,0.0774168148636818
104.0,0.07628848403692245
112.0,0.07545804977416992
120.0,0.07451823353767395
128.0,0.07337754219770432
144.0,0.07129897177219391
160.0,0.0688103437423706
176.0,0.0669257715344429
192.0,0.0651116892695427
208.0,0.06279905885457993
224.0,0.06070255860686302
240.0,0.059164490550756454
256.0,0.05786583945155144
288.0,0.055093009024858475
320.0,0.052479322999715805
352.0,0.05033452808856964
384.0,0.046944309026002884
416.0,0.04368096590042114
448.0,0.041814304888248444
480.0,0.040008824318647385
512.0,0.036803197115659714
576.0,0.030584802851080894
640.0,0.026217807084321976
704.0,0.022587304934859276
768.0,0.01865275390446186
832.0,0.020608171820640564
896.0,0.02095915749669075
960.0,0.017103660851716995
1024.0,0.011326553300023079
1152.0,0.00120859919115901
1280.0,-0.000651800655759871
1408.0,0.0019150900188833475
1536.0,0.0007032118737697601
1664.0,0.0020684562623500824
1792.0,0.006570914760231972
1920.0,0.007295716553926468
2048.0,0.0005960073904134333
2304.0,0.0027667933609336615
2560.0,-0.0018589794635772705
2816.0,-0.009057065472006798
3072.0,-0.017083896324038506
3328.0,-0.016858099028468132
3584.0,-0.015642588958144188
3840.0,-0.016844190657138824
4096.0,-0.010573568753898144
4608.0,-0.018726147711277008
5120.0,-0.028177333995699883
5632.0,-0.030392508953809738
6144.0,-0.017888229340314865
6656.0,-0.0064802090637385845
7168.0,-0.002075834898278117
7680.0,0.012786723673343658
8192.0,0.0059764510951936245
end
