version,3.0
numOfCh,1
type,point
parent_name,ff67b_0dot069-1dot0
ch_type,1_1
kcount,1
numberNandB,1
brightnessNandB,1
carpet pos,0
pc,0
Time (ms),CH1 Auto-Correlation
1.0,0.13198792934417725
2.0,0.13098108768463135
3.0,0.13010841608047485
4.0,0.12921054661273956
5.0,0.12840010225772858
6.0,0.12764346599578857
7.0,0.12689821422100067
8.0,0.1261724978685379
9.0,0.12544383108615875
10.0,0.12474110722541809
11.0,0.12415242940187454
12.0,0.12352801114320755
13.0,0.12292400747537613
14.0,0.12231413275003433
15.0,0.12173160910606384
16.0,0.1211153119802475
18.0,0.11991921812295914
20.0,0.11872830986976624
22.0,0.11744631826877594
24.0,0.11625749617815018
26.0,0.11500051617622375
28.0,0.11376400291919708
30.0,0.11253573000431061
32.0,0.1113479807972908
36.0,0.10908040404319763
40.0,0.10693524777889252
44.0,0.10497350245714188
48.0,0.10318665206432343
52.0,0.10163974016904831
56.0,0.10011639446020126
60.0,0.0987030640244484
64.0,0.09730266034603119
72.0,0.09477480500936508
80.0,0.0927172526717186
88.0,0.09059904515743256
96.0,0.08832570165395737
104.0,0.08633184432983398
112.0,0.08431590348482132
120.0,0.08237072825431824
128.0,0.08059050887823105
144.0,0.07723718881607056
160.0,0.0740625411272049
176.0,0.07090060412883759
192.0,0.06800875067710876
208.0,0.06520041078329086
224.0,0.06132639944553375
240.0,0.057949136942625046
256.0,0.05523659288883209
288.0,0.052929285913705826
320.0,0.05177178606390953
352.0,0.04968355596065521
384.0,0.04893500357866287
416.0,0.045835357159376144
448.0,0.04208832234144211
480.0,0.03829764574766159
512.0,0.03336002677679062
576.0,0.024939056485891342
640.0,0.02204160951077938
704.0,0.024535948410630226
768.0,0.029010716825723648
832.0,0.03521067649126053
896.0,0.03938797116279602
960.0,0.0423622652888298
1024.0,0.047260649502277374
1152.0,0.048420678824186325
1280.0,0.04321707785129547
1408.0,0.03065873309969902
1536.0,0.018524901941418648
1664.0,0.012128820642828941
1792.0,0.010171307250857353
1920.0,0.014881801791489124
2048.0,0.019358253106474876
2304.0,0.014995784498751163
2560.0,0.0035079100634902716
2816.0,-0.012137752026319504
3072.0,-0.009813304990530014
3328.0,-0.015054522082209587
3584.0,-0.013700876384973526
3840.0,-0.021999040618538857
4096.0,-0.020714160054922104
4608.0,-0.022683920338749886
5120.0,-0.026936287060379982
5632.0,-0.025227973237633705
6144.0,-0.022571753710508347
6656.0,-0.020596424117684364
7168.0,-0.010498873889446259
7680.0,-0.0008848293800838292
8192.0,0.016164667904376984
end
