version,3.0
numOfCh,1
type,point
parent_name,ff67b_0dot069-1dot0
ch_type,1_1
kcount,1
numberNandB,1
brightnessNandB,1
carpet pos,0
pc,0
Time (ms),CH1 Auto-Correlation
1.0,0.05924093723297119
2.0,0.05845780298113823
3.0,0.057766981422901154
4.0,0.057155609130859375
5.0,0.05654921010136604
6.0,0.05597955733537674
7.0,0.05542347580194473
8.0,0.0549146942794323
9.0,0.054394349455833435
10.0,0.053871285170316696
11.0,0.053342804312705994
12.0,0.052877847105264664
13.0,0.05241795629262924
14.0,0.05194048210978508
15.0,0.05147627368569374
16.0,0.05102020502090454
18.0,0.050170887261629105
20.0,0.04936382919549942
22.0,0.048646993935108185
24.0,0.04790566489100456
26.0,0.04712685942649841
28.0,0.04639098048210144
30.0,0.04572371765971184
32.0,0.045020896941423416
36.0,0.04368171840906143
40.0,0.042324960231781006
44.0,0.041061632335186005
48.0,0.039905861020088196
52.0,0.03885896876454353
56.0,0.03786664456129074
60.0,0.03703247755765915
64.0,0.03613060340285301
72.0,0.034544553607702255
80.0,0.03300292789936066
88.0,0.03136272728443146
96.0,0.029826443642377853
104.0,0.02837776578962803
112.0,0.027266982942819595
120.0,0.026323463767766953
128.0,0.025387082248926163
144.0,0.02351582795381546
160.0,0.021474627777934074
176.0,0.0199046079069376
192.0,0.018582783639431
208.0,0.01768123358488083
224.0,0.016796287149190903
240.0,0.015897629782557487
256.0,0.015383627265691757
288.0,0.013482363894581795
320.0,0.011573542840778828
352.0,0.010461525060236454
384.0,0.009853124618530273
416.0,0.009350151754915714
448.0,0.009794797748327255
480.0,0.00971437431871891
512.0,0.008387353271245956
576.0,0.008226186968386173
640.0,0.007627589162439108
704.0,0.00814990047365427
768.0,0.00844434555619955
832.0,0.01125333458185196
896.0,0.011696046218276024
960.0,0.011891654692590237
1024.0,0.012295800261199474
1152.0,0.015094748698174953
1280.0,0.015239572152495384
1408.0,0.012568388134241104
1536.0,0.008695450611412525
1664.0,0.007438953500241041
1792.0,0.004540350288152695
1920.0,0.0010801349999383092
2048.0,0.00203812588006258
2304.0,0.007659147959202528
2560.0,0.003108820179477334
2816.0,-0.0008093774085864425
3072.0,-0.007779262028634548
3328.0,-0.008154241368174553
3584.0,-0.006833063904196024
3840.0,-0.011604693718254566
4096.0,-0.011801925487816334
4608.0,-0.013969463296234608
5120.0,-0.012968365103006363
5632.0,-0.01426407415419817
6144.0,-0.013778917491436005
6656.0,-0.011819951236248016
7168.0,-0.0002501309209037572
7680.0,-0.003083267016336322
8192.0,-0.00030235425219871104
end
