version,3.0
numOfCh,1
type,point
parent_name,ff67b_0dot069-1dot0
ch_type,1_1
kcount,1
numberNandB,1
brightnessNandB,1
carpet pos,0
pc,0
Time (ms),CH1 Auto-Correlation
1.0,0.08051233738660812
2.0,0.07984689623117447
3.0,0.07925280183553696
4.0,0.07864679396152496
5.0,0.07807255536317825
6.0,0.07754625380039215
7.0,0.0770316794514656
8.0,0.07649866491556168
9.0,0.07596136629581451
10.0,0.07544318586587906
11.0,0.07490582019090652
12.0,0.07440592348575592
13.0,0.07391191273927689
14.0,0.07342513650655746
15.0,0.07293851673603058
16.0,0.07245500385761261
18.0,0.07150910794734955
20.0,0.07057663798332214
22.0,0.06968019157648087
24.0,0.06882840394973755
26.0,0.06796122342348099
28.0,0.06707944720983505
30.0,0.06623120605945587
32.0,0.06541641801595688
36.0,0.06387098878622055
40.0,0.06250118464231491
44.0,0.061233825981616974
48.0,0.060001302510499954
52.0,0.05888698622584343
56.0,0.057871267199516296
60.0,0.056940607726573944
64.0,0.05612260103225708
72.0,0.05436619743704796
80.0,0.052864376455545425
88.0,0.05185944586992264
96.0,0.05083857476711273
104.0,0.04982774332165718
112.0,0.04865323379635811
120.0,0.047483619302511215
128.0,0.0464271605014801
144.0,0.04428986832499504
160.0,0.042649369686841965
176.0,0.04127562791109085
192.0,0.04001307114958763
208.0,0.03882916644215584
224.0,0.03799787536263466
240.0,0.03737659379839897
256.0,0.03615252301096916
288.0,0.033157408237457275
320.0,0.03071361780166626
352.0,0.026227988302707672
384.0,0.021791914477944374
416.0,0.020034201443195343
448.0,0.01897798478603363
480.0,0.018109964206814766
512.0,0.018146272748708725
576.0,0.019038977101445198
640.0,0.017268026247620583
704.0,0.014841622672975063
768.0,0.013321470469236374
832.0,0.014441138133406639
896.0,0.011700405739247799
960.0,0.008771861903369427
1024.0,0.006890328601002693
1152.0,0.008853830397129059
1280.0,0.00830926839262247
1408.0,0.007779351901262999
1536.0,-0.0013960587093606591
1664.0,-0.0071462602354586124
1792.0,-0.014541847631335258
1920.0,-0.017469387501478195
2048.0,-0.01653626188635826
2304.0,-0.01202052179723978
2560.0,-0.02075829543173313
2816.0,-0.02256021276116371
3072.0,-0.02117968536913395
3328.0,-0.021274732425808907
3584.0,-0.012661206535995007
3840.0,-0.01553487777709961
4096.0,-0.020783396437764168
4608.0,-0.004155827220529318
5120.0,-0.007077162154018879
5632.0,-0.004380875267088413
6144.0,0.0024640581104904413
6656.0,0.0071864379569888115
7168.0,0.014542918652296066
7680.0,0.021665748208761215
8192.0,0.04208488389849663
end
