version,3.0
numOfCh,1
type,point
parent_name,ff67b_0dot069-1dot0
ch_type,1_1
kcount,1
numberNandB,1
brightnessNandB,1
carpet pos,0
pc,0
Time (ms),CH1 Auto-Correlation
1.0,0.07246952503919601
2.0,0.0711405947804451
3.0,0.07010215520858765
4.0,0.06917296350002289
5.0,0.06850002706050873
6.0,0.06781821697950363
7.0,0.06710430234670639
8.0,0.06640872359275818
9.0,0.06568838655948639
10.0,0.06508035957813263
11.0,0.06451186537742615
12.0,0.0638975277543068
13.0,0.06332001835107803
14.0,0.06266581267118454
15.0,0.06214775890111923
16.0,0.06162701174616814
18.0,0.06073080375790596
20.0,0.05987920984625816
22.0,0.05880696699023247
24.0,0.05785210430622101
26.0,0.05697527527809143
28.0,0.056030116975307465
30.0,0.05512673035264015
32.0,0.05437929928302765
36.0,0.052850428968667984
40.0,0.0513748861849308
44.0,0.04988161101937294
48.0,0.04837848246097565
52.0,0.047018080949783325
56.0,0.0457773357629776
60.0,0.044582776725292206
64.0,0.043409112840890884
72.0,0.04124012216925621
80.0,0.0394727885723114
88.0,0.038052529096603394
96.0,0.03654543310403824
104.0,0.03544720262289047
112.0,0.034209512174129486
120.0,0.032829221338033676
128.0,0.031615737825632095
144.0,0.02947767823934555
160.0,0.026683272793889046
176.0,0.024105966091156006
192.0,0.022355910390615463
208.0,0.020996030420064926
224.0,0.019473863765597343
240.0,0.018253756687045097
256.0,0.016435880213975906
288.0,0.012030134908854961
320.0,0.00835521798580885
352.0,0.006130956578999758
384.0,0.004460286349058151
416.0,0.002521863207221031
448.0,0.0008614995749667287
480.0,0.00040120986523106694
512.0,0.00150204636156559
576.0,0.003297689836472273
640.0,0.003576059592887759
704.0,0.0031048450618982315
768.0,0.0038695980329066515
832.0,0.004658567253500223
896.0,0.004139788914471865
960.0,0.006295378319919109
1024.0,0.005913462955504656
1152.0,-0.004552846774458885
1280.0,-0.0011536891106516123
1408.0,-0.0004926284309476614
1536.0,0.0018326492281630635
1664.0,-0.0006540605681948364
1792.0,-0.009612874127924442
1920.0,-0.012758370488882065
2048.0,-0.006512125954031944
2304.0,0.0027074050158262253
2560.0,0.001437322236597538
2816.0,0.0007574267219752073
3072.0,0.00583747960627079
3328.0,0.0010407629888504744
3584.0,-0.005248376168310642
3840.0,-0.008194858208298683
4096.0,-0.01306097861379385
4608.0,-0.0038551820907741785
5120.0,0.0012955169659107924
5632.0,-0.0001694314123596996
6144.0,0.008039282634854317
6656.0,-0.002533169463276863
7168.0,-0.008981535211205482
7680.0,-0.022176358848810196
8192.0,-0.006397639866918325
end
