version,3.0
numOfCh,1
type,point
parent_name,ff67b_0dot069-1dot0
ch_type,1_1
kcount,1
numberNandB,1
brightnessNandB,1
carpet pos,0
pc,0
Time (ms),CH1 Auto-Correlation
1.0,0.07424198091030121
2.0,0.07279262691736221
3.0,0.07160764187574387
4.0,0.07061107456684113
5.0,0.06974459439516068
6.0,0.06894729286432266
7.0,0.06806596368551254
8.0,0.06730522960424423
9.0,0.06660345941781998
10.0,0.06590403616428375
11.0,0.06518113613128662
12.0,0.06451677531003952
13.0,0.06382661312818527
14.0,0.0632711797952652
15.0,0.0627153068780899
16.0,0.06218728795647621
18.0,0.061068687587976456
20.0,0.06004602089524269
22.0,0.05910394713282585
24.0,0.0581546351313591
26.0,0.057173628360033035
28.0,0.05604636296629906
30.0,0.05501125007867813
32.0,0.05418164283037186
36.0,0.052774280309677124
40.0,0.05169588699936867
44.0,0.050600700080394745
48.0,0.04952363669872284
52.0,0.04825013130903244
56.0,0.046877406537532806
60.0,0.04545411467552185
64.0,0.044128213077783585
72.0,0.041588377207517624
80.0,0.039312466979026794
88.0,0.037323132157325745
96.0,0.035418327897787094
104.0,0.033867012709379196
112.0,0.032672081142663956
120.0,0.030993930995464325
128.0,0.029496777802705765
144.0,0.02695184201002121
160.0,0.023615647107362747
176.0,0.020759915933012962
192.0,0.018302252516150475
208.0,0.01592695340514183
224.0,0.014094604179263115
240.0,0.012500513345003128
256.0,0.010699696838855743
288.0,0.008338688872754574
320.0,0.007719444110989571
352.0,0.00685039721429348
384.0,0.005125358235090971
416.0,0.0013448402751237154
448.0,-0.00029666407499462366
480.0,-0.002704830374568701
512.0,-0.0024404628202319145
576.0,-0.000801249232608825
640.0,0.0007981499074958265
704.0,0.0034668713342398405
768.0,0.004316392820328474
832.0,0.006773044820874929
896.0,0.008871352300047874
960.0,0.009609786793589592
1024.0,0.007270833011716604
1152.0,0.004316891077905893
1280.0,0.004559770226478577
1408.0,0.005154140759259462
1536.0,0.0022193987388163805
1664.0,-0.0014131937641650438
1792.0,-0.005558740347623825
1920.0,-0.006234621629118919
2048.0,-0.0019415506394580007
2304.0,0.002300150226801634
2560.0,-0.004531783051788807
2816.0,-0.007878301665186882
3072.0,-0.001613974804058671
3328.0,-0.0039006629958748817
3584.0,-0.00967746414244175
3840.0,-0.0058993189595639706
4096.0,-0.0021881666034460068
4608.0,-0.0003980775363743305
5120.0,0.010397463105618954
5632.0,0.00648218160495162
6144.0,0.0018230247078463435
6656.0,-0.0016283870209008455
7168.0,-0.009400991722941399
7680.0,-0.005095398984849453
8192.0,-0.007319287862628698
end
