version,3.0
numOfCh,1
type,point
parent_name,ff67b_0dot069-1dot0
ch_type,1_1
kcount,1
numberNandB,1
brightnessNandB,1
carpet pos,0
pc,0
Time (ms),CH1 Auto-Correlation
1.0,0.09059826284646988
2.0,0.08912472426891327
3.0,0.08783078193664551
4.0,0.08668757975101471
5.0,0.0857418030500412
6.0,0.08484380692243576
7.0,0.08401799201965332
8.0,0.0832672119140625
9.0,0.0825294777750969
10.0,0.08177714049816132
11.0,0.08115259557962418
12.0,0.08048601448535919
13.0,0.07986058294773102
14.0,0.07925519347190857
15.0,0.07871085405349731
16.0,0.07817591726779938
18.0,0.077048160135746
20.0,0.0759650468826294
22.0,0.0749226063489914
24.0,0.0739508718252182
26.0,0.07291598618030548
28.0,0.07198140025138855
30.0,0.071066714823246
32.0,0.07037675380706787
36.0,0.06888426840305328
40.0,0.0674063041806221
44.0,0.06581760197877884
48.0,0.06444690376520157
52.0,0.06304364651441574
56.0,0.06152789667248726
60.0,0.059998393058776855
64.0,0.05858086794614792
72.0,0.05584634840488434
80.0,0.053671278059482574
88.0,0.05176641419529915
96.0,0.05012107640504837
104.0,0.04859250783920288
112.0,0.04711895436048508
120.0,0.04562663286924362
128.0,0.04404103383421898
144.0,0.041184570640325546
160.0,0.03856315091252327
176.0,0.036712538450956345
192.0,0.035508718341588974
208.0,0.03432442620396614
224.0,0.03384442999958992
240.0,0.03323717415332794
256.0,0.031547512859106064
288.0,0.02781713381409645
320.0,0.024456942453980446
352.0,0.022068975493311882
384.0,0.02060907706618309
416.0,0.018141107633709908
448.0,0.013559027574956417
480.0,0.009387380443513393
512.0,0.006973848678171635
576.0,0.00363720185123384
640.0,0.0014538775430992246
704.0,-0.0021329279989004135
768.0,-0.0036316055338829756
832.0,-0.005102990195155144
896.0,-0.005471138749271631
960.0,-0.005770022980868816
1024.0,-0.0068968674167990685
1152.0,-0.005510816816240549
1280.0,-0.0002599150757305324
1408.0,-0.0015283979009836912
1536.0,-0.0026268097572028637
1664.0,-0.004860306158661842
1792.0,-0.008989274501800537
1920.0,-0.010705427266657352
2048.0,-0.00908067636191845
2304.0,-0.004697287455201149
2560.0,-0.00523665826767683
2816.0,-0.01308549102395773
3072.0,-0.01215632725507021
3328.0,-0.016633903607726097
3584.0,-0.018806619569659233
3840.0,-0.010424522683024406
4096.0,0.00435489509254694
4608.0,0.00919762160629034
5120.0,-0.01402487326413393
5632.0,-0.0020123759750276804
6144.0,0.0014423130778595805
6656.0,0.011274768970906734
7168.0,0.01879752054810524
7680.0,0.0008605574257671833
8192.0,0.006008583586663008
end
