version,3.0
numOfCh,1
type,point
parent_name,ff67b_0dot069-1dot0
ch_type,1_1
kcount,1
numberNandB,1
brightnessNandB,1
carpet pos,0
pc,0
Time (ms),CH1 Auto-Correlation
1.0,0.09687759727239609
2.0,0.09610354900360107
3.0,0.09539823234081268
4.0,0.09471430629491806
5.0,0.09410712867975235
6.0,0.09351121634244919
7.0,0.09291380643844604
8.0,0.09229422360658646
9.0,0.09168718755245209
10.0,0.09112346917390823
11.0,0.09057652205228806
12.0,0.09001056849956512
13.0,0.08944971859455109
14.0,0.08889475464820862
15.0,0.0883309468626976
16.0,0.08781873434782028
18.0,0.08675911277532578
20.0,0.08572229743003845
22.0,0.08471725136041641
24.0,0.08387394994497299
26.0,0.08306123316287994
28.0,0.08223992586135864
30.0,0.08139391243457794
32.0,0.08052124083042145
36.0,0.07876050472259521
40.0,0.07710926979780197
44.0,0.0755377933382988
48.0,0.07411553710699081
52.0,0.072772316634655
56.0,0.0715014711022377
60.0,0.07012435048818588
64.0,0.06876373291015625
72.0,0.06634578853845596
80.0,0.06412842124700546
88.0,0.06190377101302147
96.0,0.05981742590665817
104.0,0.05786268040537834
112.0,0.05594072863459587
120.0,0.05380578339099884
128.0,0.05169520527124405
144.0,0.048283278942108154
160.0,0.0451105497777462
176.0,0.04216025397181511
192.0,0.0398445799946785
208.0,0.03769311308860779
224.0,0.03524867072701454
240.0,0.0336921252310276
256.0,0.03279510512948036
288.0,0.03175404667854309
320.0,0.029935197904706
352.0,0.027728138491511345
384.0,0.02532077394425869
416.0,0.021409660577774048
448.0,0.01693868450820446
480.0,0.014079911634325981
512.0,0.012706154957413673
576.0,0.011288849636912346
640.0,0.008016537874937057
704.0,0.0018197833560407162
768.0,-0.0026546490844339132
832.0,-0.0049416557885706425
896.0,-0.002863920060917735
960.0,-0.0027107445057481527
1024.0,-0.001957925967872143
1152.0,0.007115664426237345
1280.0,0.009237555786967278
1408.0,0.011444439180195332
1536.0,0.015614544972777367
1664.0,0.010645798407495022
1792.0,0.007132280617952347
1920.0,0.001553068752400577
2048.0,-0.004894449841231108
2304.0,-0.010177300311625004
2560.0,-0.010402452200651169
2816.0,-0.0063400003127753735
3072.0,-0.010739427991211414
3328.0,-0.02434721775352955
3584.0,-0.027017373591661453
3840.0,-0.040440402925014496
4096.0,-0.023387853056192398
4608.0,-0.007232812698930502
5120.0,-0.004857084713876247
5632.0,-0.020971423014998436
6144.0,-0.005044152960181236
6656.0,0.014952549710869789
7168.0,0.012484291568398476
7680.0,0.02273768186569214
8192.0,0.024800673127174377
end
