version,3.0
numOfCh,1
type,point
parent_name,ff67b_0dot069-1dot0
ch_type,1_1
kcount,1
numberNandB,1
brightnessNandB,1
carpet pos,0
pc,0
Time (ms),CH1 Auto-Correlation
1.0,0.07515924423933029
2.0,0.0734081044793129
3.0,0.07222338020801544
4.0,0.07151510566473007
5.0,0.07088059931993484
6.0,0.06951132416725159
7.0,0.06875550746917725
8.0,0.06798301637172699
9.0,0.06726280599832535
10.0,0.06665754318237305
11.0,0.06566592305898666
12.0,0.06498181074857712
13.0,0.06425552070140839
14.0,0.0635722428560257
15.0,0.06312282383441925
16.0,0.062341731041669846
18.0,0.061187781393527985
20.0,0.05989433452486992
22.0,0.05912649631500244
24.0,0.05827988311648369
26.0,0.05755412206053734
28.0,0.05683556944131851
30.0,0.0557609386742115
32.0,0.054597221314907074
36.0,0.052599988877773285
40.0,0.05081021040678024
44.0,0.049385081976652145
48.0,0.0478309728205204
52.0,0.04655018821358681
56.0,0.045403558760881424
60.0,0.04400688037276268
64.0,0.04254645109176636
72.0,0.03970252349972725
80.0,0.03733845055103302
88.0,0.03533368185162544
96.0,0.033110469579696655
104.0,0.031038984656333923
112.0,0.02895386330783367
120.0,0.027061933651566505
128.0,0.025170689448714256
144.0,0.021787675097584724
160.0,0.019083915278315544
176.0,0.017022591084241867
192.0,0.014991777017712593
208.0,0.01293966919183731
224.0,0.011493291705846786
240.0,0.011118553578853607
256.0,0.011076503433287144
288.0,0.009851302951574326
320.0,0.00881282426416874
352.0,0.006802679505199194
384.0,0.0034647181164473295
416.0,0.0006347555317915976
448.0,-0.001802843064069748
480.0,-0.004457504488527775
512.0,-0.004868767224252224
576.0,-0.0024863278958946466
640.0,0.0019670389592647552
704.0,0.006386343855410814
768.0,0.009583302773535252
832.0,0.010889215394854546
896.0,0.011668207123875618
960.0,0.01266144122928381
1024.0,0.01537754200398922
1152.0,0.009356147609651089
1280.0,0.0006971725379116833
1408.0,-0.000727187842130661
1536.0,0.004885094705969095
1664.0,0.009472621604800224
1792.0,0.013558193109929562
1920.0,0.014591294340789318
2048.0,0.009069615975022316
2304.0,0.007742096669971943
2560.0,0.0031420530285686255
2816.0,0.0020049093291163445
3072.0,0.006494998000562191
3328.0,0.009291501715779305
3584.0,0.006268720142543316
3840.0,0.0069594476372003555
4096.0,0.0006933668628334999
4608.0,-0.005493892356753349
5120.0,-0.008597072213888168
5632.0,-0.0026766762603074312
6144.0,-0.009580274112522602
6656.0,-0.004894267302006483
7168.0,-0.006191039923578501
7680.0,-0.011045116931200027
8192.0,-0.012297735549509525
end
