version,3.0
numOfCh,1
type,point
parent_name,ff67b_0dot069-1dot0
ch_type,1_1
kcount,1
numberNandB,1
brightnessNandB,1
carpet pos,0
pc,0
Time (ms),CH1 Auto-Correlation
1.0,0.05957163870334625
2.0,0.05870026722550392
3.0,0.057947829365730286
4.0,0.05726981163024902
5.0,0.056642815470695496
6.0,0.055975742638111115
7.0,0.05535278469324112
8.0,0.05480652302503586
9.0,0.05430852994322777
10.0,0.05380143225193024
11.0,0.053282637149095535
12.0,0.05281314626336098
13.0,0.05232483148574829
14.0,0.05183906853199005
15.0,0.05134737864136696
16.0,0.05088118836283684
18.0,0.05004124343395233
20.0,0.049266472458839417
22.0,0.048515331000089645
24.0,0.04780532047152519
26.0,0.04705951735377312
28.0,0.046393830329179764
30.0,0.0457732267677784
32.0,0.04509666562080383
36.0,0.04391879588365555
40.0,0.04292253032326698
44.0,0.0418318435549736
48.0,0.040733061730861664
52.0,0.0396355576813221
56.0,0.03851979970932007
60.0,0.03753489628434181
64.0,0.03673555329442024
72.0,0.035408955067396164
80.0,0.03407515957951546
88.0,0.03266922011971474
96.0,0.031329646706581116
104.0,0.029977528378367424
112.0,0.029030267149209976
120.0,0.02812807261943817
128.0,0.027196962386369705
144.0,0.025037262588739395
160.0,0.023128394037485123
176.0,0.021880581974983215
192.0,0.020482685416936874
208.0,0.018677832558751106
224.0,0.016470996662974358
240.0,0.014479054138064384
256.0,0.012803487479686737
288.0,0.010873972438275814
320.0,0.009380495175719261
352.0,0.008245235309004784
384.0,0.007165071088820696
416.0,0.004776596557348967
448.0,0.002697431016713381
480.0,0.0018519929144531488
512.0,3.3429045288357884e-05
576.0,-0.00561137218028307
640.0,-0.01017450075596571
704.0,-0.012245379388332367
768.0,-0.013330223970115185
832.0,-0.01550500001758337
896.0,-0.018060678616166115
960.0,-0.01987355761229992
1024.0,-0.02018614299595356
1152.0,-0.016554823145270348
1280.0,-0.009125860407948494
1408.0,-0.0017946537118405104
1536.0,0.005127508658915758
1664.0,0.008222552947700024
1792.0,0.00883178599178791
1920.0,0.011270665563642979
2048.0,0.011318904347717762
2304.0,0.004355717450380325
2560.0,-0.00265416968613863
2816.0,-0.0037682291585952044
3072.0,-0.00035192558425478637
3328.0,-0.002232855651527643
3584.0,0.005461893975734711
3840.0,-0.00023292569676414132
4096.0,0.00023197363771032542
4608.0,-0.002698492491617799
5120.0,0.003527378663420677
5632.0,0.003142518224194646
6144.0,-0.0012479348806664348
6656.0,-0.00937366858124733
7168.0,-0.004487952217459679
7680.0,0.004001988098025322
8192.0,0.0013569442089647055
end
