version,3.0
numOfCh,1
type,point
parent_name,ff67b_0dot069-1dot0
ch_type,1_1
kcount,1
numberNandB,1
brightnessNandB,1
carpet pos,0
pc,0
Time (ms),CH1 Auto-Correlation
1.0,0.07666945457458496
2.0,0.07590464502573013
3.0,0.07518184185028076
4.0,0.07450924813747406
5.0,0.07387389242649078
6.0,0.07326682657003403
7.0,0.07268286496400833
8.0,0.07214108109474182
9.0,0.07163693010807037
10.0,0.07114062458276749
11.0,0.07067955285310745
12.0,0.07019417732954025
13.0,0.06974946707487106
14.0,0.06928318738937378
15.0,0.06883794814348221
16.0,0.06836387515068054
18.0,0.06744253635406494
20.0,0.06661608815193176
22.0,0.06576122343540192
24.0,0.0648907721042633
26.0,0.06407345086336136
28.0,0.0632457435131073
30.0,0.06243818253278732
32.0,0.06170874834060669
36.0,0.06029839068651199
40.0,0.058847323060035706
44.0,0.05741763114929199
48.0,0.056129179894924164
52.0,0.054898153990507126
56.0,0.053723692893981934
60.0,0.05271487310528755
64.0,0.051777735352516174
72.0,0.05015595629811287
80.0,0.04852110892534256
88.0,0.04702153429389
96.0,0.04541097953915596
104.0,0.04376678541302681
112.0,0.04220964387059212
120.0,0.040556035935878754
128.0,0.03893366456031799
144.0,0.035796087235212326
160.0,0.033122412860393524
176.0,0.031057726591825485
192.0,0.029037147760391235
208.0,0.02720736898481846
224.0,0.025732729583978653
240.0,0.024015435948967934
256.0,0.022389093413949013
288.0,0.02089056931436062
320.0,0.019012244418263435
352.0,0.01646341197192669
384.0,0.01508479006588459
416.0,0.014242737554013729
448.0,0.012670384719967842
480.0,0.01077208761125803
512.0,0.009582090191543102
576.0,0.008702503517270088
640.0,0.00915553793311119
704.0,0.008234851062297821
768.0,0.008773647248744965
832.0,0.010955420322716236
896.0,0.014531705528497696
960.0,0.016259819269180298
1024.0,0.015032189898192883
1152.0,0.00594366854056716
1280.0,-0.0019133740570396185
1408.0,-0.007025463506579399
1536.0,-0.01119996514171362
1664.0,-0.014766559936106205
1792.0,-0.009758250787854195
1920.0,0.0005234478740021586
2048.0,0.00290046539157629
2304.0,-0.006911430507898331
2560.0,-0.01426217146217823
2816.0,-0.004179738461971283
3072.0,0.002242336282506585
3328.0,0.0015087180072441697
3584.0,-0.0003780556726269424
3840.0,0.0006535190041176975
4096.0,0.0032456335611641407
4608.0,-0.01816418580710888
5120.0,-0.025276852771639824
5632.0,-0.015521837398409843
6144.0,-0.005020603537559509
6656.0,0.0021935836412012577
7168.0,0.007908288389444351
7680.0,0.00803494080901146
8192.0,-0.003747759386897087
end
