version,3.0
numOfCh,1
type,point
parent_name,ff67b_0dot069-1dot0
ch_type,1_1
kcount,1
numberNandB,1
brightnessNandB,1
carpet pos,0
pc,0
Time (ms),CH1 Auto-Correlation
1.0,0.10260838270187378
2.0,0.10131881386041641
3.0,0.1002328097820282
4.0,0.09934338927268982
5.0,0.09858466684818268
6.0,0.09792490303516388
7.0,0.09734640270471573
8.0,0.0967399850487709
9.0,0.0961572602391243
10.0,0.0954461470246315
11.0,0.09477917104959488
12.0,0.09423039853572845
13.0,0.09370646625757217
14.0,0.09317779541015625
15.0,0.09261661022901535
16.0,0.09208869934082031
18.0,0.09119879454374313
20.0,0.09027543663978577
22.0,0.08937893062829971
24.0,0.08856819570064545
26.0,0.08782480657100677
28.0,0.08700332790613174
30.0,0.08613428473472595
32.0,0.08520343154668808
36.0,0.08364906162023544
40.0,0.08199736475944519
44.0,0.08043500781059265
48.0,0.07881110161542892
52.0,0.07729365676641464
56.0,0.07587283104658127
60.0,0.07451575249433517
64.0,0.07314751297235489
72.0,0.07074228674173355
80.0,0.06809551268815994
88.0,0.06548977643251419
96.0,0.06311354786157608
104.0,0.06078318506479263
112.0,0.05857761949300766
120.0,0.056324951350688934
128.0,0.05389459431171417
144.0,0.049471739679574966
160.0,0.044988252222537994
176.0,0.04051657393574715
192.0,0.03583522513508797
208.0,0.03237133100628853
224.0,0.029419895261526108
240.0,0.027273766696453094
256.0,0.025128835812211037
288.0,0.019717654213309288
320.0,0.01463194191455841
352.0,0.009120170958340168
384.0,0.0043988097459077835
416.0,0.0014979649567976594
448.0,0.00036197149893268943
480.0,-0.0006956600118428469
512.0,-0.0022355627734214067
576.0,-0.0037926812656223774
640.0,-0.006273987237364054
704.0,-0.0076558939181268215
768.0,-0.008502778597176075
832.0,-0.009896118193864822
896.0,-0.008842507377266884
960.0,-0.0054287901148200035
1024.0,-0.0010659222025424242
1152.0,-0.0005547440960071981
1280.0,-0.008882357738912106
1408.0,-0.0154027808457613
1536.0,-0.01593243144452572
1664.0,-0.012191511690616608
1792.0,-0.007481937762349844
1920.0,-0.0065191336907446384
2048.0,0.0004497307527344674
2304.0,-0.003836388001218438
2560.0,-0.011177828535437584
2816.0,-0.014452295377850533
3072.0,-0.008928582072257996
3328.0,-0.008470426313579082
3584.0,0.0014712077099829912
3840.0,0.010086524300277233
4096.0,0.010751757770776749
4608.0,0.0059623816050589085
5120.0,0.013657079078257084
5632.0,-0.010297443717718124
6144.0,-0.003755567828193307
6656.0,-0.007327005732804537
7168.0,-0.014184699393808842
7680.0,0.0006581599009223282
8192.0,0.0189456008374691
end
