version,3.0
numOfCh,1
type,point
parent_name,ff67b_0dot069-1dot0
ch_type,1_1
kcount,1
numberNandB,1
brightnessNandB,1
carpet pos,0
pc,0
Time (ms),CH1 Auto-Correlation
1.0,0.08354885131120682
2.0,0.08277109265327454
3.0,0.08208538591861725
4.0,0.08142673224210739
5.0,0.08080291748046875
6.0,0.08018217235803604
7.0,0.07956479489803314
8.0,0.07897032797336578
9.0,0.07839824259281158
10.0,0.07782828062772751
11.0,0.07730989158153534
12.0,0.07678519189357758
13.0,0.07625813782215118
14.0,0.07575592398643494
15.0,0.07520464062690735
16.0,0.07468271255493164
18.0,0.07369998842477798
20.0,0.07281380146741867
22.0,0.07194483280181885
24.0,0.07109948247671127
26.0,0.07029760628938675
28.0,0.0695539191365242
30.0,0.06881402432918549
32.0,0.06811709702014923
36.0,0.06670264154672623
40.0,0.06529491394758224
44.0,0.06389836221933365
48.0,0.06247206777334213
52.0,0.06102033331990242
56.0,0.0597362257540226
60.0,0.0585193932056427
64.0,0.05728740990161896
72.0,0.05499187484383583
80.0,0.05286487191915512
88.0,0.05084949731826782
96.0,0.04908442124724388
104.0,0.0475928969681263
112.0,0.04625091701745987
120.0,0.04495339095592499
128.0,0.043394703418016434
144.0,0.040217574685811996
160.0,0.03766287863254547
176.0,0.03489714488387108
192.0,0.03191114217042923
208.0,0.02925325557589531
224.0,0.02686343342065811
240.0,0.024858949705958366
256.0,0.022739432752132416
288.0,0.017585311084985733
320.0,0.01358664408326149
352.0,0.010491223074495792
384.0,0.009054802358150482
416.0,0.006924053188413382
448.0,0.004109569825232029
480.0,0.0024991242680698633
512.0,0.0019046295201405883
576.0,0.0025818897411227226
640.0,-0.0003255523042753339
704.0,-0.0012790244072675705
768.0,-3.304849815322086e-05
832.0,0.0010282000293955207
896.0,0.004199546296149492
960.0,0.005781594663858414
1024.0,0.005743802059441805
1152.0,0.0039135767146945
1280.0,0.0029936160426586866
1408.0,0.0075407871045172215
1536.0,0.014803901314735413
1664.0,0.013728001154959202
1792.0,0.0063482411205768585
1920.0,-0.0008523953729309142
2048.0,0.0007278364500962198
2304.0,-0.005214119330048561
2560.0,-0.008619279600679874
2816.0,-0.009886905550956726
3072.0,0.003536699805408716
3328.0,0.007977939210832119
3584.0,0.003322445787489414
3840.0,0.004884305875748396
4096.0,0.0015483528841286898
4608.0,-0.007011657115072012
5120.0,-0.012490302324295044
5632.0,-0.0066732000559568405
6144.0,-0.009450755082070827
6656.0,-0.011583979241549969
7168.0,-0.01588710956275463
7680.0,-0.0005403131362982094
8192.0,-0.01499878242611885
end
