version,3.0
numOfCh,1
type,point
parent_name,ff67b_0dot069-1dot0
ch_type,1_1
kcount,1
numberNandB,1
brightnessNandB,1
carpet pos,0
pc,0
Time (ms),CH1 Auto-Correlation
1.0,0.08558132499456406
2.0,0.08452367782592773
3.0,0.08366082608699799
4.0,0.08291484415531158
5.0,0.08216390013694763
6.0,0.08151518553495407
7.0,0.08083333820104599
8.0,0.08021608740091324
9.0,0.07958196848630905
10.0,0.07902585715055466
11.0,0.07846657931804657
12.0,0.07791159301996231
13.0,0.07733145356178284
14.0,0.07680174708366394
15.0,0.07624264061450958
16.0,0.07571405917406082
18.0,0.07450194656848907
20.0,0.0733710378408432
22.0,0.07217617332935333
24.0,0.07112442702054977
26.0,0.07019953429698944
28.0,0.06916937232017517
30.0,0.06812455505132675
32.0,0.06726863235235214
36.0,0.06548424810171127
40.0,0.06381432712078094
44.0,0.06225036829710007
48.0,0.060814112424850464
52.0,0.05958854779601097
56.0,0.05831665173172951
60.0,0.057209163904190063
64.0,0.0562409907579422
72.0,0.0540710911154747
80.0,0.05212775617837906
88.0,0.050192538648843765
96.0,0.048356473445892334
104.0,0.04651748389005661
112.0,0.04461808130145073
120.0,0.042865101248025894
128.0,0.041093748062849045
144.0,0.03818856179714203
160.0,0.03648358955979347
176.0,0.034604113548994064
192.0,0.031745463609695435
208.0,0.029338382184505463
224.0,0.027325302362442017
240.0,0.025620408356189728
256.0,0.024474933743476868
288.0,0.023246167227625847
320.0,0.021953480318188667
352.0,0.02058902569115162
384.0,0.01884559914469719
416.0,0.018124986439943314
448.0,0.01627948321402073
480.0,0.01393802184611559
512.0,0.013136359862983227
576.0,0.010389614850282669
640.0,0.01067984476685524
704.0,0.012386222369968891
768.0,0.014788143336772919
832.0,0.017049090936779976
896.0,0.01707134023308754
960.0,0.017263516783714294
1024.0,0.012815006077289581
1152.0,0.003403909271582961
1280.0,-0.0011166451731696725
1408.0,-0.0050118896178901196
1536.0,-0.0061746505089104176
1664.0,-0.0006330643082037568
1792.0,-0.001682350062765181
1920.0,-0.00016831666289363056
2048.0,0.002140441909432411
2304.0,0.0006205496611073613
2560.0,-0.0016761589795351028
2816.0,-0.0027115491684526205
3072.0,-0.0019391499226912856
3328.0,0.0027511781081557274
3584.0,-0.002710144966840744
3840.0,-0.011604173108935356
4096.0,-0.007120054680854082
4608.0,-0.007381183095276356
5120.0,0.005428624339401722
5632.0,0.0017552265198901296
6144.0,0.00730447331443429
6656.0,0.004604623187333345
7168.0,0.007222557906061411
7680.0,-0.0021077075507491827
8192.0,-0.011423313990235329
end
