version,3.0
numOfCh,1
type,point
parent_name,ff67b_0dot069-1dot0
ch_type,1_1
kcount,1
numberNandB,1
brightnessNandB,1
carpet pos,0
pc,0
Time (ms),CH1 Auto-Correlation
1.0,0.07172994315624237
2.0,0.07039570808410645
3.0,0.06919299811124802
4.0,0.06821012496948242
5.0,0.06734544783830643
6.0,0.0666099563241005
7.0,0.0659075677394867
8.0,0.06515685468912125
9.0,0.0644710585474968
10.0,0.06374040246009827
11.0,0.06312869489192963
12.0,0.062479421496391296
13.0,0.06185866519808769
14.0,0.06128364056348801
15.0,0.0607944019138813
16.0,0.0602908693253994
18.0,0.059202685952186584
20.0,0.05811877176165581
22.0,0.057270631194114685
24.0,0.056363433599472046
26.0,0.055398572236299515
28.0,0.054600443691015244
30.0,0.05383771285414696
32.0,0.05308247357606888
36.0,0.05157116800546646
40.0,0.050231967121362686
44.0,0.048908814787864685
48.0,0.04764620214700699
52.0,0.04627479612827301
56.0,0.04484252259135246
60.0,0.04355107620358467
64.0,0.04246002063155174
72.0,0.040659960359334946
80.0,0.03894142061471939
88.0,0.03718872740864754
96.0,0.03576837107539177
104.0,0.0343441516160965
112.0,0.03306030109524727
120.0,0.0318901352584362
128.0,0.03053598664700985
144.0,0.02799947001039982
160.0,0.025271503254771233
176.0,0.023249516263604164
192.0,0.02128172479569912
208.0,0.01893225684762001
224.0,0.016556724905967712
240.0,0.014779756776988506
256.0,0.013941832818090916
288.0,0.012229193933308125
320.0,0.00999863538891077
352.0,0.008347032591700554
384.0,0.007464360911399126
416.0,0.007103240583091974
448.0,0.005812277086079121
480.0,0.003175155259668827
512.0,0.0010411023395135999
576.0,0.00044526104466058314
640.0,-0.0027665155939757824
704.0,-0.004436401650309563
768.0,-0.006972058210521936
832.0,-0.006585765164345503
896.0,-0.006254973355680704
960.0,-0.006611252203583717
1024.0,-0.006264789029955864
1152.0,-0.004829356912523508
1280.0,-0.004398358520120382
1408.0,0.0002847191644832492
1536.0,0.0076345945708453655
1664.0,0.006568046286702156
1792.0,0.00039602405740879476
1920.0,-0.0014380492502823472
2048.0,-0.0025058607570827007
2304.0,-0.003569531487300992
2560.0,0.002484713215380907
2816.0,0.007449521217495203
3072.0,0.009430532343685627
3328.0,0.0057902284897863865
3584.0,-0.003658042987808585
3840.0,0.0012893094681203365
4096.0,0.005174160469323397
4608.0,-0.006375196855515242
5120.0,-0.005087267607450485
5632.0,0.0009160272311419249
6144.0,-0.004283883608877659
6656.0,-0.006520475726574659
7168.0,-0.01591639220714569
7680.0,-0.00659520598128438
8192.0,0.0013213645434007049
end
