version,3.0
numOfCh,1
type,point
parent_name,ff67b_0dot069-1dot0
ch_type,1_1
kcount,1
numberNandB,1
brightnessNandB,1
carpet pos,0
pc,0
Time (ms),CH1 Auto-Correlation
1.0,0.09885347634553909
2.0,0.09787711501121521
3.0,0.096921406686306
4.0,0.0960659459233284
5.0,0.09533467888832092
6.0,0.0946597009897232
7.0,0.09407136589288712
8.0,0.09344647824764252
9.0,0.0928693488240242
10.0,0.0923340693116188
11.0,0.09181328117847443
12.0,0.09128469228744507
13.0,0.09075328707695007
14.0,0.09019895642995834
15.0,0.08966640383005142
16.0,0.0891040489077568
18.0,0.08792471140623093
20.0,0.0869293287396431
22.0,0.08602561056613922
24.0,0.08515086770057678
26.0,0.08427011221647263
28.0,0.08341378718614578
30.0,0.08264783024787903
32.0,0.08180534094572067
36.0,0.08019052445888519
40.0,0.07865100353956223
44.0,0.0770469531416893
48.0,0.0753907635807991
52.0,0.07393579930067062
56.0,0.07246731966733932
60.0,0.07089504599571228
64.0,0.06933996081352234
72.0,0.0666937530040741
80.0,0.06420709192752838
88.0,0.061759334057569504
96.0,0.05962540954351425
104.0,0.0573943555355072
112.0,0.055458951741456985
120.0,0.05375993624329567
128.0,0.052311088889837265
144.0,0.049560826271772385
160.0,0.047051507979631424
176.0,0.04467329755425453
192.0,0.04201362282037735
208.0,0.04000728577375412
224.0,0.03882218152284622
240.0,0.03792278468608856
256.0,0.036769360303878784
288.0,0.03583231568336487
320.0,0.034969884902238846
352.0,0.03386745601892471
384.0,0.03194752708077431
416.0,0.030717352405190468
448.0,0.030129391700029373
480.0,0.030584996566176414
512.0,0.02994971163570881
576.0,0.027637667953968048
640.0,0.02619726024568081
704.0,0.02572065219283104
768.0,0.02619476430118084
832.0,0.025138363242149353
896.0,0.02350476384162903
960.0,0.018745368346571922
1024.0,0.013101682998239994
1152.0,0.008306805044412613
1280.0,0.003789685433730483
1408.0,0.007225736975669861
1536.0,0.016285810619592667
1664.0,0.02189483493566513
1792.0,0.021481579169631004
1920.0,0.017401762306690216
2048.0,0.010572927072644234
2304.0,0.005689046811312437
2560.0,0.004210725426673889
2816.0,-0.007286759093403816
3072.0,-0.008355429396033287
3328.0,-0.006801032926887274
3584.0,-0.009368249215185642
3840.0,-0.008986003696918488
4096.0,-0.011848093941807747
4608.0,-0.011866508983075619
5120.0,-0.018042711541056633
5632.0,-0.027463531121611595
6144.0,-0.03271586447954178
6656.0,-0.025594478473067284
7168.0,-0.015481187030673027
7680.0,-0.015387085266411304
8192.0,-0.03063325583934784
end
