version,3.0
numOfCh,1
type,point
parent_name,ff67b_0dot069-1dot0
ch_type,1_1
kcount,1
numberNandB,1
brightnessNandB,1
carpet pos,0
pc,0
Time (ms),CH1 Auto-Correlation
1.0,0.06231169402599335
2.0,0.06137009337544441
3.0,0.060585085302591324
4.0,0.05983760207891464
5.0,0.05923004820942879
6.0,0.05867127701640129
7.0,0.05810384079813957
8.0,0.05760077387094498
9.0,0.05708656460046768
10.0,0.05661953613162041
11.0,0.05611091107130051
12.0,0.05561887100338936
13.0,0.05515724793076515
14.0,0.05471574887633324
15.0,0.0542575940489769
16.0,0.05388184264302254
18.0,0.05300632864236832
20.0,0.05211009457707405
22.0,0.05129658058285713
24.0,0.050489380955696106
26.0,0.04964003711938858
28.0,0.04881317913532257
30.0,0.048051197081804276
32.0,0.0473957322537899
36.0,0.04615749791264534
40.0,0.04509285092353821
44.0,0.04405688866972923
48.0,0.04311216622591019
52.0,0.04210710525512695
56.0,0.041162602603435516
60.0,0.04020269587635994
64.0,0.039330799132585526
72.0,0.037655387073755264
80.0,0.03625147417187691
88.0,0.03477408364415169
96.0,0.03320857509970665
104.0,0.03163273632526398
112.0,0.030004482716321945
120.0,0.028519881889224052
128.0,0.027256684377789497
144.0,0.025149421766400337
160.0,0.02354639768600464
176.0,0.021659402176737785
192.0,0.01997765526175499
208.0,0.01867937482893467
224.0,0.017503509297966957
240.0,0.016496678814291954
256.0,0.015552413649857044
288.0,0.014860388822853565
320.0,0.014514908194541931
352.0,0.012956329621374607
384.0,0.01072788517922163
416.0,0.008210842497646809
448.0,0.005794290453195572
480.0,0.0035152460914105177
512.0,0.0007734092068858445
576.0,-0.003253685077652335
640.0,-0.006605531554669142
704.0,-0.005098393652588129
768.0,-0.0022199098020792007
832.0,-0.0008617882849648595
896.0,0.0006197236943989992
960.0,0.00254191760905087
1024.0,0.005276082083582878
1152.0,0.008094722405076027
1280.0,0.010144354775547981
1408.0,0.00943012721836567
1536.0,0.005764611531049013
1664.0,0.0046724737621843815
1792.0,0.0009562807972542942
1920.0,-0.003490833332762122
2048.0,-0.0023282563779503107
2304.0,-0.003913039341568947
2560.0,-0.0033545726910233498
2816.0,-0.0031562463846057653
3072.0,0.0019283269066363573
3328.0,0.004034209530800581
3584.0,-0.0015036041149869561
3840.0,-0.006083029322326183
4096.0,-0.01046935748308897
4608.0,0.0032407273538410664
5120.0,0.00530627416446805
5632.0,0.0003029079525731504
6144.0,-0.00073968869401142
6656.0,-0.009092784486711025
7168.0,-0.0036545824259519577
7680.0,0.000360239006113261
8192.0,-0.01179337315261364
end
