version,3.0
numOfCh,1
type,point
parent_name,484af_0dot2-1dot0
ch_type,1_1
kcount,1
numberNandB,1
brightnessNandB,1
carpet pos,0
pc,0
Time (ms),CH1 Auto-Correlation
1.0,0.021131351590156555
2.0,0.02067606709897518
3.0,0.020257918164134026
4.0,0.01986253820359707
5.0,0.019464664161205292
6.0,0.019079240038990974
7.0,0.018701674416661263
8.0,0.01834886148571968
9.0,0.018013058230280876
10.0,0.0176938995718956
11.0,0.01738598197698593
12.0,0.017101000994443893
13.0,0.016835883259773254
14.0,0.016592467203736305
15.0,0.0163495521992445
16.0,0.01611882820725441
18.0,0.015644468367099762
20.0,0.015176779590547085
22.0,0.014725025743246078
24.0,0.014323567040264606
26.0,0.01392409112304449
28.0,0.013534259982407093
30.0,0.013126862235367298
32.0,0.012728325091302395
36.0,0.01199612207710743
40.0,0.011373396962881088
44.0,0.010842752642929554
48.0,0.010340588167309761
52.0,0.00986663717776537
56.0,0.00945362076163292
60.0,0.009104439057409763
64.0,0.0087073789909482
72.0,0.00800816435366869
80.0,0.007490969728678465
88.0,0.00705823116004467
96.0,0.006612826604396105
104.0,0.0061514596454799175
112.0,0.0056870500557124615
120.0,0.005323545541614294
128.0,0.004983541090041399
144.0,0.004846638534218073
160.0,0.004353543743491173
176.0,0.00393958855420351
192.0,0.003952682018280029
208.0,0.003890013787895441
224.0,0.00367427384480834
240.0,0.0033718058839440346
256.0,0.002907245187088847
288.0,0.002148671308532357
320.0,0.0014794464223086834
352.0,0.0012904000468552113
384.0,0.00025884059141390026
416.0,-0.001149848336353898
448.0,-0.0015874638920649886
480.0,-0.0013551621232181787
512.0,-0.0018469358328729868
576.0,-0.00335173518396914
640.0,-0.003934863489121199
704.0,-0.004713505040854216
768.0,-0.00445675291121006
832.0,-0.003388121724128723
896.0,-0.002088164212182164
960.0,-0.0010452662827447057
1024.0,7.842066406738013e-05
1152.0,0.0006521184113807976
1280.0,-2.091661917802412e-05
1408.0,0.0001351161627098918
1536.0,0.0008902982226572931
1664.0,0.0016377405263483524
1792.0,0.0019586000125855207
1920.0,0.0012944909976795316
2048.0,0.0005266732187010348
2304.0,-0.0024642297066748142
2560.0,-0.0023941590916365385
2816.0,-3.2679115975042805e-05
3072.0,0.0018491330556571484
3328.0,0.0017391792498528957
3584.0,-5.129605415277183e-05
3840.0,-0.0010039190528914332
4096.0,-0.00053486751858145
4608.0,0.0007781359017826617
5120.0,-0.00021412878413684666
5632.0,-0.0007796322461217642
6144.0,-0.0007743918104097247
6656.0,0.0034715901128947735
7168.0,-0.002670479007065296
7680.0,-0.0007986007840372622
8192.0,0.0010794020490720868
end
