version,3.0
numOfCh,1
type,point
parent_name,484af_0dot2-1dot0
ch_type,1_1
kcount,1
numberNandB,1
brightnessNandB,1
carpet pos,0
pc,0
Time (ms),CH1 Auto-Correlation
1.0,0.022569919005036354
2.0,0.02217826247215271
3.0,0.021801702678203583
4.0,0.021428227424621582
5.0,0.02107078954577446
6.0,0.02073776349425316
7.0,0.020409803837537766
8.0,0.020100248977541924
9.0,0.01979445479810238
10.0,0.019496221095323563
11.0,0.01920441724359989
12.0,0.0189232025295496
13.0,0.0186598002910614
14.0,0.018410969525575638
15.0,0.018163898959755898
16.0,0.017930299043655396
18.0,0.01751609332859516
20.0,0.017146088182926178
22.0,0.016781365498900414
24.0,0.016444584354758263
26.0,0.016126684844493866
28.0,0.01584864780306816
30.0,0.015614005737006664
32.0,0.015403565019369125
36.0,0.015013232827186584
40.0,0.014580650255084038
44.0,0.014109822921454906
48.0,0.013618700206279755
52.0,0.013210722245275974
56.0,0.01284339465200901
60.0,0.012480579316616058
64.0,0.01208409108221531
72.0,0.01139156986027956
80.0,0.01088679488748312
88.0,0.010351068340241909
96.0,0.009742630645632744
104.0,0.009167284704744816
112.0,0.00865254458039999
120.0,0.00818981695920229
128.0,0.007786954287439585
144.0,0.007120343390852213
160.0,0.006731579080224037
176.0,0.006282812915742397
192.0,0.005724004935473204
208.0,0.00512733543291688
224.0,0.004843323491513729
240.0,0.004734103102236986
256.0,0.004617373459041119
288.0,0.004316298291087151
320.0,0.003588478546589613
352.0,0.0028155904728919268
384.0,0.0022527496330440044
416.0,0.0018343395786359906
448.0,0.0015766900032758713
480.0,0.001258503063581884
512.0,0.0010064162779599428
576.0,0.0013846110086888075
640.0,0.0027256947942078114
704.0,0.003371477359905839
768.0,0.0037694063503295183
832.0,0.0035937889479100704
896.0,0.0030339164659380913
960.0,0.0019270125776529312
1024.0,0.000549176475033164
1152.0,-0.00025130127323791385
1280.0,0.0010480425553396344
1408.0,0.0013994983164593577
1536.0,0.0017768342513591051
1664.0,-2.7037291147280484e-05
1792.0,-0.000696341332513839
1920.0,-0.0014503869460895658
2048.0,-0.0011332033900544047
2304.0,-0.0012998561142012477
2560.0,-0.003973593469709158
2816.0,-0.0020888117142021656
3072.0,-0.001942025264725089
3328.0,-0.0033573980908840895
3584.0,-0.004198520909994841
3840.0,-0.004094289615750313
4096.0,-0.0028037771116942167
4608.0,-0.0035009027924388647
5120.0,-0.0013045301893725991
5632.0,-0.0007703658775426447
6144.0,0.0002471116022206843
6656.0,0.0023593418300151825
7168.0,0.0022944395896047354
7680.0,0.0030374813359230757
8192.0,0.006233259569853544
end
