version,3.0
numOfCh,1
type,point
parent_name,484af_0dot2-1dot0
ch_type,1_1
kcount,1
numberNandB,1
brightnessNandB,1
carpet pos,0
pc,0
Time (ms),CH1 Auto-Correlation
1.0,0.020873811095952988
2.0,0.020469143986701965
3.0,0.02008037641644478
4.0,0.01969996653497219
5.0,0.01933634653687477
6.0,0.018983017653226852
7.0,0.018644850701093674
8.0,0.018313290551304817
9.0,0.017987139523029327
10.0,0.017672305926680565
11.0,0.01737702265381813
12.0,0.017089663073420525
13.0,0.01679951138794422
14.0,0.016514254733920097
15.0,0.016225507482886314
16.0,0.015939125791192055
18.0,0.015431955456733704
20.0,0.014963270165026188
22.0,0.014494472183287144
24.0,0.01405369769781828
26.0,0.013660790398716927
28.0,0.01328195072710514
30.0,0.01290510967373848
32.0,0.012542237527668476
36.0,0.011840962804853916
40.0,0.0112368855625391
44.0,0.010663404129445553
48.0,0.01015179418027401
52.0,0.009718367829918861
56.0,0.009301966056227684
60.0,0.008923051878809929
64.0,0.008545609191060066
72.0,0.00782698392868042
80.0,0.0071473997086286545
88.0,0.006481807213276625
96.0,0.005968628916889429
104.0,0.005487244576215744
112.0,0.005038050003349781
120.0,0.004522109404206276
128.0,0.003977310378104448
144.0,0.0030145752243697643
160.0,0.0023768595419824123
176.0,0.001956469379365444
192.0,0.0019823985639959574
208.0,0.002483372576534748
224.0,0.003114092629402876
240.0,0.0035636331886053085
256.0,0.003681344212964177
288.0,0.003712570993229747
320.0,0.004609623458236456
352.0,0.004446956794708967
384.0,0.004429751541465521
416.0,0.003852087538689375
448.0,0.0032612294889986515
480.0,0.0028857074212282896
512.0,0.0028315961826592684
576.0,0.0032067722640931606
640.0,0.003030506195500493
704.0,0.002760531147941947
768.0,0.002242610091343522
832.0,0.0018448299961164594
896.0,0.0015172666171565652
960.0,0.0009529570816084743
1024.0,-0.00026225316105410457
1152.0,0.0002409861917840317
1280.0,0.0008901726687327027
1408.0,0.0005827316781505942
1536.0,0.0013349410146474838
1664.0,0.000447029247879982
1792.0,8.851358143147081e-05
1920.0,0.0010332081001251936
2048.0,0.0018688483396545053
2304.0,0.0014417744241654873
2560.0,-0.0002714716538321227
2816.0,-0.0006694545154459774
3072.0,-0.0006591796409338713
3328.0,-0.0009001524304039776
3584.0,-0.0007339162402786314
3840.0,-0.0004935284378007054
4096.0,-0.0018849477637559175
4608.0,-0.002154214307665825
5120.0,-0.002190686296671629
5632.0,3.389906623851857e-06
6144.0,0.0008682062034495175
6656.0,0.0015018742997199297
7168.0,7.892648864071816e-05
7680.0,0.0013121546944603324
8192.0,0.0004750332154799253
end
