version,3.0
numOfCh,1
type,point
parent_name,484af_0dot2-1dot0
ch_type,1_1
kcount,1
numberNandB,1
brightnessNandB,1
carpet pos,0
pc,0
Time (ms),CH1 Auto-Correlation
1.0,0.023964662104845047
2.0,0.023511597886681557
3.0,0.023097626864910126
4.0,0.02270582504570484
5.0,0.02234327420592308
6.0,0.022001905366778374
7.0,0.021665122359991074
8.0,0.021318580955266953
9.0,0.020991232246160507
10.0,0.020685726776719093
11.0,0.020387794822454453
12.0,0.020076703280210495
13.0,0.019784465432167053
14.0,0.01949775218963623
15.0,0.019226333126425743
16.0,0.01895917020738125
18.0,0.018428536131978035
20.0,0.017911218106746674
22.0,0.017390940338373184
24.0,0.016890408471226692
26.0,0.016416506841778755
28.0,0.0159495547413826
30.0,0.015494626946747303
32.0,0.015058478340506554
36.0,0.014272969216108322
40.0,0.013600188307464123
44.0,0.01301585417240858
48.0,0.012463731691241264
52.0,0.011929740197956562
56.0,0.0114637091755867
60.0,0.011066124774515629
64.0,0.010713640600442886
72.0,0.010013286024332047
80.0,0.009465386159718037
88.0,0.009068440645933151
96.0,0.008710268884897232
104.0,0.008388936519622803
112.0,0.008159752935171127
120.0,0.007840943522751331
128.0,0.007439963053911924
144.0,0.006767286919057369
160.0,0.006225782912224531
176.0,0.005981841124594212
192.0,0.005575788207352161
208.0,0.004719019401818514
224.0,0.003941343631595373
240.0,0.003609275445342064
256.0,0.0036460882984101772
288.0,0.0037074012216180563
320.0,0.0032405077945441008
352.0,0.002123476704582572
384.0,0.0008177303243428469
416.0,0.0005657719448208809
448.0,0.00029012473532930017
480.0,0.0005462871049530804
512.0,0.0009355904767289758
576.0,0.0003346364537719637
640.0,-0.0016334422398358583
704.0,-0.002233155071735382
768.0,-0.0019130123546347022
832.0,-0.0019318565027788281
896.0,-0.000953720067627728
960.0,-0.0004894178709946573
1024.0,-0.0009572739945724607
1152.0,-0.0028503681533038616
1280.0,-0.002956021809950471
1408.0,-0.0021404284052550793
1536.0,-0.0012093662517145276
1664.0,-2.3115335352486e-05
1792.0,-0.0011297393357381225
1920.0,-0.0011198584688827395
2048.0,-0.0017316589364781976
2304.0,0.002124224090948701
2560.0,0.003901367774233222
2816.0,0.0022213798947632313
3072.0,-0.0021720645017921925
3328.0,-0.0018342874245718122
3584.0,-0.0012389051262289286
3840.0,-0.0006730171735398471
4096.0,-0.0015681938966736197
4608.0,-0.0021599517203867435
5120.0,0.0008236107532866299
5632.0,0.0011820821091532707
6144.0,-0.0007567437714897096
6656.0,-0.0022658761590719223
7168.0,-0.0018147090449929237
7680.0,0.0012610178673639894
8192.0,0.003965322393923998
end
