version,3.0
numOfCh,1
type,point
parent_name,484af_0dot2-1dot0
ch_type,1_1
kcount,1
numberNandB,1
brightnessNandB,1
carpet pos,0
pc,0
Time (ms),CH1 Auto-Correlation
1.0,0.021163400262594223
2.0,0.020759664475917816
3.0,0.020373797044157982
4.0,0.02000308968126774
5.0,0.019652439281344414
6.0,0.01930062659084797
7.0,0.018960805609822273
8.0,0.018628165125846863
9.0,0.01829724758863449
10.0,0.017965124920010567
11.0,0.017645878717303276
12.0,0.017338357865810394
13.0,0.017036139965057373
14.0,0.016771355643868446
15.0,0.016511132940649986
16.0,0.0162672009319067
18.0,0.01579921320080757
20.0,0.015356737188994884
22.0,0.014937269501388073
24.0,0.014533506706357002
26.0,0.01414785347878933
28.0,0.013796293176710606
30.0,0.013484181836247444
32.0,0.013217702507972717
36.0,0.012728367000818253
40.0,0.012242287397384644
44.0,0.011706237681210041
48.0,0.01117869932204485
52.0,0.010750770568847656
56.0,0.010369591414928436
60.0,0.010039927437901497
64.0,0.00966658815741539
72.0,0.008980424143373966
80.0,0.008380929939448833
88.0,0.00771441450342536
96.0,0.007171460427343845
104.0,0.006821627262979746
112.0,0.006571345962584019
120.0,0.0062066419050097466
128.0,0.005802735686302185
144.0,0.005264401435852051
160.0,0.0050852736458182335
176.0,0.004926806315779686
192.0,0.00492340512573719
208.0,0.00461981538683176
224.0,0.0044114249758422375
240.0,0.004138972144573927
256.0,0.004302798770368099
288.0,0.004526629578322172
320.0,0.004249995108693838
352.0,0.0035908862482756376
384.0,0.0031938310712575912
416.0,0.003139000851660967
448.0,0.0034302123822271824
480.0,0.0031867825891822577
512.0,0.002638651756569743
576.0,0.002525293966755271
640.0,0.0015824120491743088
704.0,0.00040480701136402786
768.0,0.0003511522081680596
832.0,-0.00038278804277069867
896.0,-0.0015799175016582012
960.0,-0.0024085226468741894
1024.0,-0.0011874850606545806
1152.0,-0.0011029128218069673
1280.0,-0.0010022291680797935
1408.0,-0.0016254488145932555
1536.0,-0.0003252382739447057
1664.0,0.0013222736306488514
1792.0,0.002723247976973653
1920.0,0.0023920731619000435
2048.0,0.002849680371582508
2304.0,0.0008315308950841427
2560.0,0.0003237510100007057
2816.0,-0.001879408722743392
3072.0,-0.0026923315599560738
3328.0,-0.0027756995987147093
3584.0,-0.0009277330245822668
3840.0,-0.0023198442067950964
4096.0,-0.00020124207367189229
4608.0,0.0011358833871781826
5120.0,-0.0008447301806882024
5632.0,-0.0030110799707472324
6144.0,-0.002356864046305418
6656.0,-0.0008854703628458083
7168.0,-0.0029634064994752407
7680.0,-0.004318044986575842
8192.0,-0.0005569457425735891
end
