version,3.0
numOfCh,1
type,point
parent_name,484af_0dot2-1dot0
ch_type,1_1
kcount,1
numberNandB,1
brightnessNandB,1
carpet pos,0
pc,0
Time (ms),CH1 Auto-Correlation
1.0,0.019987506791949272
2.0,0.019586756825447083
3.0,0.019202249124646187
4.0,0.018838174641132355
5.0,0.01848808117210865
6.0,0.018158024176955223
7.0,0.01784316822886467
8.0,0.017538145184516907
9.0,0.01725282520055771
10.0,0.016987549141049385
11.0,0.016734177246689796
12.0,0.016479535028338432
13.0,0.016224870458245277
14.0,0.015972279012203217
15.0,0.01573123037815094
16.0,0.015498341992497444
18.0,0.015061100013554096
20.0,0.01462931651622057
22.0,0.014201066456735134
24.0,0.013762906193733215
26.0,0.013355136848986149
28.0,0.012970245443284512
30.0,0.012612804770469666
32.0,0.012271356768906116
36.0,0.011625988408923149
40.0,0.011009044013917446
44.0,0.010509246028959751
48.0,0.010082974098622799
52.0,0.009645397774875164
56.0,0.009181925095617771
60.0,0.008768460713326931
64.0,0.00845660362392664
72.0,0.00786560121923685
80.0,0.0073389410972595215
88.0,0.006972888018935919
96.0,0.006546748336404562
104.0,0.006137226242572069
112.0,0.005904737394303083
120.0,0.005805760622024536
128.0,0.005607434548437595
144.0,0.005041560158133507
160.0,0.004396762233227491
176.0,0.0038487061392515898
192.0,0.0035885381512343884
208.0,0.0034113978035748005
224.0,0.0032996388617902994
240.0,0.0031622932292521
256.0,0.002856093691661954
288.0,0.0018852939829230309
320.0,0.0013797658029943705
352.0,0.0005660598399117589
384.0,0.0004412916605360806
416.0,0.00031566122197546065
448.0,0.0003225719556212425
480.0,6.623752415180206e-05
512.0,-0.0006959703750908375
576.0,0.0003394210943952203
640.0,0.001717139151878655
704.0,0.0023799091577529907
768.0,0.0013101473450660706
832.0,0.0005222004256211221
896.0,-0.0002826947602443397
960.0,-0.00044070938020013273
1024.0,-0.00024082078016363084
1152.0,0.00015224135131575167
1280.0,0.0005638213478960097
1408.0,5.141429937793873e-05
1536.0,-0.0004220851114951074
1664.0,-0.0009836317040026188
1792.0,-0.0014020426897332072
1920.0,-0.000190818274859339
2048.0,-0.0016019755275920033
2304.0,-0.0020529197063297033
2560.0,-0.0004638737882487476
2816.0,-0.001385659328661859
3072.0,-0.0005855156923644245
3328.0,0.0004327987553551793
3584.0,0.00012243592937011272
3840.0,0.0007985946140252054
4096.0,-0.0006782471900805831
4608.0,0.0005545978783629835
5120.0,-0.0005755997262895107
5632.0,-0.001081806723959744
6144.0,0.0002121686120517552
6656.0,0.0005759677733294666
7168.0,0.0002660182071849704
7680.0,0.0004429828259162605
8192.0,0.0011449860176071525
end
