version,3.0
numOfCh,1
type,point
parent_name,484af_0dot2-1dot0
ch_type,1_1
kcount,1
numberNandB,1
brightnessNandB,1
carpet pos,0
pc,0
Time (ms),CH1 Auto-Correlation
1.0,0.01945452392101288
2.0,0.019060304388403893
3.0,0.018689008429646492
4.0,0.018334023654460907
5.0,0.01798538863658905
6.0,0.017649415880441666
7.0,0.01732666790485382
8.0,0.0170114878565073
9.0,0.016699068248271942
10.0,0.016406923532485962
11.0,0.016127878800034523
12.0,0.01585094816982746
13.0,0.01557565201073885
14.0,0.015300778672099113
15.0,0.015048830769956112
16.0,0.014802148565649986
18.0,0.014327961951494217
20.0,0.013897957280278206
22.0,0.013500283472239971
24.0,0.013114238157868385
26.0,0.012749582529067993
28.0,0.012407897040247917
30.0,0.012083955109119415
32.0,0.01177270244807005
36.0,0.011202068068087101
40.0,0.01067454181611538
44.0,0.010223206132650375
48.0,0.009760888293385506
52.0,0.009275102987885475
56.0,0.00878941547125578
60.0,0.008314874023199081
64.0,0.007851486094295979
72.0,0.007209988310933113
80.0,0.006691000424325466
88.0,0.006245171185582876
96.0,0.005967654753476381
104.0,0.005766089074313641
112.0,0.005572877358645201
120.0,0.005340774543583393
128.0,0.005022756289690733
144.0,0.00439698901027441
160.0,0.004008696414530277
176.0,0.0040142168290913105
192.0,0.004114265087991953
208.0,0.0040127793326973915
224.0,0.003734381403774023
240.0,0.0035366469528526068
256.0,0.0036255382001399994
288.0,0.0035102078691124916
320.0,0.0036130414810031652
352.0,0.003743987064808607
384.0,0.004333096090704203
416.0,0.004633697681128979
448.0,0.00428733741864562
480.0,0.003438391024246812
512.0,0.0032119222451001406
576.0,0.0026282735634595156
640.0,0.0028211341705173254
704.0,0.0024123701732605696
768.0,0.0020660145673900843
832.0,0.0025721059646457434
896.0,0.0011117717949673533
960.0,0.0015090525848791003
1024.0,0.0012769041350111365
1152.0,0.0008361674845218658
1280.0,-0.0013276564422994852
1408.0,0.0002168234932469204
1536.0,-0.0001324472250416875
1664.0,2.2395124688046053e-05
1792.0,0.0004925871617160738
1920.0,9.574508294463158e-05
2048.0,-0.0009208163246512413
2304.0,-0.00101884501054883
2560.0,0.0005783411324955523
2816.0,-0.0003518976445775479
3072.0,0.00022307439940050244
3328.0,0.00032238021958619356
3584.0,0.0010074665769934654
3840.0,0.0008446305873803794
4096.0,0.0005550700589083135
4608.0,-0.0008506765589118004
5120.0,-0.0012759652454406023
5632.0,3.318508606753312e-05
6144.0,0.0021786950528621674
6656.0,0.0024185359943658113
7168.0,0.0011749904369935393
7680.0,-0.0008831376908347011
8192.0,-0.002463127253577113
end
