version,3.0
numOfCh,1
type,point
parent_name,484af_0dot2-1dot0
ch_type,1_1
kcount,1
numberNandB,1
brightnessNandB,1
carpet pos,0
pc,0
Time (ms),CH1 Auto-Correlation
1.0,0.022539744153618813
2.0,0.022105127573013306
3.0,0.021682167425751686
4.0,0.021276675164699554
5.0,0.020883964374661446
6.0,0.020511535927653313
7.0,0.020159641280770302
8.0,0.01982409693300724
9.0,0.019508834928274155
10.0,0.019202319905161858
11.0,0.01890992745757103
12.0,0.018619244918227196
13.0,0.018332969397306442
14.0,0.018067028373479843
15.0,0.017813516780734062
16.0,0.017573874443769455
18.0,0.017096426337957382
20.0,0.016619360074400902
22.0,0.016156520694494247
24.0,0.01570788584649563
26.0,0.015293803997337818
28.0,0.014899270609021187
30.0,0.014513433910906315
32.0,0.0141256432980299
36.0,0.013433289714157581
40.0,0.012772621586918831
44.0,0.012173417955636978
48.0,0.011567139066755772
52.0,0.010974506847560406
56.0,0.010444613173604012
60.0,0.009988813661038876
64.0,0.009567134082317352
72.0,0.008887546136975288
80.0,0.008325791917741299
88.0,0.0077489265240728855
96.0,0.007128536235541105
104.0,0.006622208748012781
112.0,0.00617182906717062
120.0,0.005677065812051296
128.0,0.0051301149651408195
144.0,0.004227055236697197
160.0,0.0036793388426303864
176.0,0.0031893053092062473
192.0,0.003014268819242716
208.0,0.0032202498987317085
224.0,0.0035655342508107424
240.0,0.003948262892663479
256.0,0.00401854794472456
288.0,0.003737188410013914
320.0,0.003980179317295551
352.0,0.003923363983631134
384.0,0.0035533751361072063
416.0,0.002962097292765975
448.0,0.0029826678801327944
480.0,0.002917265286669135
512.0,0.002271317644044757
576.0,0.0019280562410131097
640.0,0.001884422730654478
704.0,0.0010071209399029613
768.0,0.0004824223287869245
832.0,5.039079042035155e-05
896.0,0.0006823637522757053
960.0,0.0015920771984383464
1024.0,0.0023416788317263126
1152.0,0.001527160289697349
1280.0,0.0006577623425982893
1408.0,0.0022661921102553606
1536.0,0.0011291861301288009
1664.0,-0.0014339619083330035
1792.0,-0.0011531803756952286
1920.0,-0.0017949502216652036
2048.0,-0.0008174949325621128
2304.0,-0.000641312450170517
2560.0,0.0004829181416425854
2816.0,-0.0021268788259476423
3072.0,-0.0020693200640380383
3328.0,-0.002337552374228835
3584.0,-0.00010621846013236791
3840.0,0.0003182770451530814
4096.0,0.0009189928532578051
4608.0,-0.0011233841069042683
5120.0,0.0006182417273521423
5632.0,-0.0008894309867173433
6144.0,-0.0015999943716451526
6656.0,-0.0020947728771716356
7168.0,-0.000742106232792139
7680.0,0.000724374782294035
8192.0,0.0029656761325895786
end
