version,3.0
numOfCh,1
type,point
parent_name,484af_0dot2-1dot0
ch_type,1_1
kcount,1
numberNandB,1
brightnessNandB,1
carpet pos,0
pc,0
Time (ms),CH1 Auto-Correlation
1.0,0.021726297214627266
2.0,0.02130906470119953
3.0,0.020907698199152946
4.0,0.02052328921854496
5.0,0.02014857530593872
6.0,0.01978646032512188
7.0,0.01943347044289112
8.0,0.01907968334853649
9.0,0.01874556764960289
10.0,0.018430618569254875
11.0,0.018121501430869102
12.0,0.017821336165070534
13.0,0.017536820843815804
14.0,0.01725815422832966
15.0,0.016979632899165154
16.0,0.01671115681529045
18.0,0.016200581565499306
20.0,0.015733079984784126
22.0,0.015304832719266415
24.0,0.01487839873880148
26.0,0.014458774589002132
28.0,0.014081775210797787
30.0,0.013743019662797451
32.0,0.013445441611111164
36.0,0.012833631597459316
40.0,0.012250414118170738
44.0,0.011724669486284256
48.0,0.01128417532891035
52.0,0.010856098495423794
56.0,0.010417304933071136
60.0,0.009989778511226177
64.0,0.00960306916385889
72.0,0.008792256005108356
80.0,0.008055375888943672
88.0,0.007465291302651167
96.0,0.00711527094244957
104.0,0.006926323752850294
112.0,0.00684001250192523
120.0,0.006656967103481293
128.0,0.006423024460673332
144.0,0.006293781567364931
160.0,0.00645118672400713
176.0,0.006280972622334957
192.0,0.006031640339642763
208.0,0.005644606426358223
224.0,0.005354767665266991
240.0,0.005260715261101723
256.0,0.005110555328428745
288.0,0.004226821940392256
320.0,0.0033112030941993
352.0,0.0032719396986067295
384.0,0.003621220588684082
416.0,0.00342073617503047
448.0,0.0033772126771509647
480.0,0.003627621103078127
512.0,0.00360221229493618
576.0,0.0031936659943312407
640.0,0.003049407619982958
704.0,0.0029728354420512915
768.0,0.0016603543190285563
832.0,0.0026939362287521362
896.0,0.002854929305613041
960.0,0.0032227407209575176
1024.0,0.0040276083163917065
1152.0,0.002871057717129588
1280.0,0.0018180300248786807
1408.0,0.0006130483234301209
1536.0,-0.0008824588730931282
1664.0,-0.0011212259996682405
1792.0,-0.00011993235239060596
1920.0,-0.0004414300201460719
2048.0,-0.0009683658718131483
2304.0,-0.001977761974558234
2560.0,-0.001545896870084107
2816.0,-0.00037046323996037245
3072.0,0.0010454457951709628
3328.0,0.0013640180695801973
3584.0,0.0015064652543514967
3840.0,0.001907245721668005
4096.0,0.002887466922402382
4608.0,0.0029898658394813538
5120.0,0.001527458312921226
5632.0,-0.0005584403406828642
6144.0,-0.0045283492654562
6656.0,-0.00420844741165638
7168.0,-0.005148421972990036
7680.0,-0.002305060625076294
8192.0,-0.0012077828869223595
end
