version,3.0
numOfCh,1
type,point
parent_name,484af_0dot2-1dot0
ch_type,1_1
kcount,1
numberNandB,1
brightnessNandB,1
carpet pos,0
pc,0
Time (ms),CH1 Auto-Correlation
1.0,0.024418845772743225
2.0,0.024004587903618813
3.0,0.023625075817108154
4.0,0.023264002054929733
5.0,0.022910837084054947
6.0,0.02257327176630497
7.0,0.022241028025746346
8.0,0.02191946469247341
9.0,0.021618157625198364
10.0,0.02133052423596382
11.0,0.021048905327916145
12.0,0.020791389048099518
13.0,0.02053285390138626
14.0,0.020274734124541283
15.0,0.020024271681904793
16.0,0.019782543182373047
18.0,0.019345952197909355
20.0,0.018916932865977287
22.0,0.018515324220061302
24.0,0.018130939453840256
26.0,0.017776424065232277
28.0,0.017404010519385338
30.0,0.017043357715010643
32.0,0.016693204641342163
36.0,0.01603921689093113
40.0,0.01541061606258154
44.0,0.014822057448327541
48.0,0.014309096150100231
52.0,0.013909895904362202
56.0,0.013551601208746433
60.0,0.013151058927178383
64.0,0.012760164216160774
72.0,0.012109584175050259
80.0,0.011616947129368782
88.0,0.011110315099358559
96.0,0.010437688790261745
104.0,0.009665652178227901
112.0,0.008999909274280071
120.0,0.008341305889189243
128.0,0.007757706101983786
144.0,0.0069403755478560925
160.0,0.006311044096946716
176.0,0.005838519427925348
192.0,0.005387436598539352
208.0,0.005055109970271587
224.0,0.004851027391850948
240.0,0.0047212583012878895
256.0,0.0043352763168513775
288.0,0.004335337318480015
320.0,0.004454690031707287
352.0,0.004767449572682381
384.0,0.005165113601833582
416.0,0.006204491946846247
448.0,0.007092784624546766
480.0,0.007494447287172079
512.0,0.008253932930529118
576.0,0.00640105502679944
640.0,0.004346346482634544
704.0,0.003093798877671361
768.0,0.0029749441891908646
832.0,0.0014852045569568872
896.0,0.0009705760749056935
960.0,0.0016687096795067191
1024.0,0.0019696156959980726
1152.0,0.0035169983748346567
1280.0,0.0026609450578689575
1408.0,0.00040952692506834865
1536.0,2.3386823158944026e-05
1664.0,0.0018989400705322623
1792.0,0.0003495955897960812
1920.0,-0.001488475245423615
2048.0,-0.0006079734885133803
2304.0,-0.002109285444021225
2560.0,-0.002648331457749009
2816.0,-0.0023126075975596905
3072.0,-0.0037601704243570566
3328.0,-0.0020119547843933105
3584.0,-0.004353515803813934
3840.0,-0.00329961976967752
4096.0,-0.0034596386831253767
4608.0,-0.0026479072403162718
5120.0,-0.0007155894418247044
5632.0,0.0016628559678792953
6144.0,0.00471241120249033
6656.0,0.004588814917951822
7168.0,0.002149060135707259
7680.0,0.0004784486081916839
8192.0,-0.0019452683627605438
end
