version,3.0
numOfCh,1
type,point
parent_name,484af_0dot2-1dot0
ch_type,1_1
kcount,1
numberNandB,1
brightnessNandB,1
carpet pos,0
pc,0
Time (ms),CH1 Auto-Correlation
1.0,0.020269695669412613
2.0,0.019869742915034294
3.0,0.01948966272175312
4.0,0.019125161692500114
5.0,0.018778422847390175
6.0,0.018440471962094307
7.0,0.018126076087355614
8.0,0.01783347874879837
9.0,0.017549538984894753
10.0,0.017274202778935432
11.0,0.0170153621584177
12.0,0.0167623832821846
13.0,0.016494402661919594
14.0,0.01623169519007206
15.0,0.015973450616002083
16.0,0.015720464289188385
18.0,0.015223134309053421
20.0,0.014757964760065079
22.0,0.01432117074728012
24.0,0.013888909481465816
26.0,0.013480047695338726
28.0,0.013090916909277439
30.0,0.012750708498060703
32.0,0.01243626419454813
36.0,0.011815822683274746
40.0,0.011184262111783028
44.0,0.010647785849869251
48.0,0.01020741742104292
52.0,0.009798084385693073
56.0,0.009411018341779709
60.0,0.009008832275867462
64.0,0.008612722158432007
72.0,0.007836955599486828
80.0,0.007045299746096134
88.0,0.006273288745433092
96.0,0.0055816899985075
104.0,0.005000893957912922
112.0,0.004525861237198114
120.0,0.004190915729850531
128.0,0.004005545750260353
144.0,0.003637946443632245
160.0,0.002993310336023569
176.0,0.0024560363963246346
192.0,0.002100446028634906
208.0,0.0017135682282969356
224.0,0.0013001308543607593
240.0,0.001093509723432362
256.0,0.0010524134850129485
288.0,0.0003007338382303715
320.0,-0.00043018380529247224
352.0,-0.0009427045006304979
384.0,-0.001226506195962429
416.0,-0.00111742177978158
448.0,-0.0008985353633761406
480.0,-0.0007113830070011318
512.0,-0.0005101572605781257
576.0,0.0005100508569739759
640.0,-7.825361763025285e-07
704.0,1.7382490113959648e-05
768.0,0.0011750970734283328
832.0,0.0012768188025802374
896.0,-4.7279436330427416e-06
960.0,-0.0013569776201620698
1024.0,-0.0019408173393458128
1152.0,-0.0008970937924459577
1280.0,0.0010448225075379014
1408.0,0.0007986266864463687
1536.0,0.000583725399337709
1664.0,-0.00046378732076846063
1792.0,-0.001762466155923903
1920.0,-0.002143991645425558
2048.0,3.7223162507871166e-05
2304.0,-0.0008402225212194026
2560.0,-0.0005906916339881718
2816.0,0.0011028844164684415
3072.0,0.0004224404983688146
3328.0,-0.0004955636686645448
3584.0,-0.0011267856461927295
3840.0,-0.0011035761563107371
4096.0,0.0007079375209286809
4608.0,0.00036560342414304614
5120.0,0.0005747984396293759
5632.0,-0.000715021975338459
6144.0,-0.000546561845112592
6656.0,-0.00027844691067002714
7168.0,0.002090565161779523
7680.0,-0.0006843979936093092
8192.0,-0.002400415251031518
end
