version,3.0
numOfCh,1
type,point
parent_name,484af_0dot2-1dot0
ch_type,1_1
kcount,1
numberNandB,1
brightnessNandB,1
carpet pos,0
pc,0
Time (ms),CH1 Auto-Correlation
1.0,0.021570783108472824
2.0,0.02115320973098278
3.0,0.020740898326039314
4.0,0.020355459302663803
5.0,0.020001698285341263
6.0,0.0196584090590477
7.0,0.019327813759446144
8.0,0.019012469798326492
9.0,0.018707646057009697
10.0,0.018403971567749977
11.0,0.01811913400888443
12.0,0.017843103036284447
13.0,0.017580419778823853
14.0,0.017326097935438156
15.0,0.01708087883889675
16.0,0.016832547262310982
18.0,0.016365448012948036
20.0,0.015940388664603233
22.0,0.015556612983345985
24.0,0.01517883874475956
26.0,0.014826437458395958
28.0,0.014482655562460423
30.0,0.014149305410683155
32.0,0.013832522556185722
36.0,0.01328329648822546
40.0,0.012772911228239536
44.0,0.01226849015802145
48.0,0.011805107817053795
52.0,0.01138119213283062
56.0,0.010994348675012589
60.0,0.01062036119401455
64.0,0.010284226387739182
72.0,0.009684284217655659
80.0,0.009239829145371914
88.0,0.00866220984607935
96.0,0.008083261549472809
104.0,0.007663938216865063
112.0,0.007287734653800726
120.0,0.006921261083334684
128.0,0.006603064946830273
144.0,0.005958291236311197
160.0,0.005295821465551853
176.0,0.004896579775959253
192.0,0.004681153688579798
208.0,0.004425475839525461
224.0,0.004067671950906515
240.0,0.0035402155481278896
256.0,0.002876805607229471
288.0,0.0018256233306601644
320.0,0.0009421594440937042
352.0,0.00044776551658287644
384.0,-1.3453081010084134e-05
416.0,-0.00010670049232430756
448.0,6.567667878698558e-05
480.0,0.0005595750408247113
512.0,0.0013979041250422597
576.0,0.0031980378553271294
640.0,0.002640819875523448
704.0,0.002324889414012432
768.0,0.0026419993955641985
832.0,0.0013684722362086177
896.0,0.0012332283658906817
960.0,0.00164585851598531
1024.0,0.001221401966176927
1152.0,0.00141524663195014
1280.0,0.002450203523039818
1408.0,0.0023467696737498045
1536.0,0.002256150124594569
1664.0,0.0007724626339040697
1792.0,0.0006936764693818986
1920.0,-0.00018759883823804557
2048.0,0.00020279083400964737
2304.0,-0.0015286693815141916
2560.0,0.0028609391301870346
2816.0,0.001564779900945723
3072.0,-0.001767703564837575
3328.0,-0.0019192766631022096
3584.0,-0.0017222368624061346
3840.0,-0.0016514157177880406
4096.0,0.0001065870383172296
4608.0,-0.0020511813927441835
5120.0,-0.0005682894261553884
5632.0,-0.0019134761532768607
6144.0,-0.0030336095951497555
6656.0,-0.0011685725767165422
7168.0,-0.0001933411112986505
7680.0,-0.002073252573609352
8192.0,-0.0022740343119949102
end
