version,3.0
numOfCh,1
type,point
parent_name,484af_0dot2-1dot0
ch_type,1_1
kcount,1
numberNandB,1
brightnessNandB,1
carpet pos,0
pc,0
Time (ms),CH1 Auto-Correlation
1.0,0.018096476793289185
2.0,0.01770721934735775
3.0,0.01732654869556427
4.0,0.016968125477433205
5.0,0.016644012182950974
6.0,0.016321707516908646
7.0,0.01600489392876625
8.0,0.01570691354572773
9.0,0.015412906184792519
10.0,0.015140257775783539
11.0,0.01487245038151741
12.0,0.01461016945540905
13.0,0.014360327273607254
14.0,0.01412681769579649
15.0,0.013904825784265995
16.0,0.013687890954315662
18.0,0.01329411193728447
20.0,0.012923192232847214
22.0,0.012543936260044575
24.0,0.012168768793344498
26.0,0.011799409985542297
28.0,0.01143412385135889
30.0,0.011089920066297054
32.0,0.010755132883787155
36.0,0.01010147761553526
40.0,0.009481780230998993
44.0,0.00891016609966755
48.0,0.008403196930885315
52.0,0.00792797189205885
56.0,0.007505465764552355
60.0,0.0071371253579854965
64.0,0.006831185892224312
72.0,0.006357565522193909
80.0,0.00590861402451992
88.0,0.0054669552482664585
96.0,0.005145866423845291
104.0,0.0047973282635211945
112.0,0.004518862813711166
120.0,0.004389146342873573
128.0,0.0044097695499658585
144.0,0.004538301378488541
160.0,0.004436106886714697
176.0,0.004036071710288525
192.0,0.0033897338435053825
208.0,0.0026939769741147757
224.0,0.002102729631587863
240.0,0.0016375096747651696
256.0,0.0015207418473437428
288.0,0.0013698155526071787
320.0,0.0011258493177592754
352.0,0.00045313400914892554
384.0,0.00023420357319992036
416.0,0.0005749727715738118
448.0,0.000751580111682415
480.0,0.000433637440437451
512.0,0.00024733063764870167
576.0,-0.0004104060644749552
640.0,-0.000231264260946773
704.0,-1.202624844154343e-05
768.0,-0.00017754483269527555
832.0,0.0003185378445778042
896.0,0.0008356045000255108
960.0,0.000265013484749943
1024.0,-0.00046578608453273773
1152.0,0.0006639678031206131
1280.0,0.0009021696168929338
1408.0,0.00042927273898385465
1536.0,0.00012247861013747752
1664.0,0.00048030453035607934
1792.0,0.0006867682095617056
1920.0,-0.0004258891276549548
2048.0,-0.0008306686650030315
2304.0,-0.0019118502968922257
2560.0,-0.0015133284032344818
2816.0,0.0003180532075930387
3072.0,0.0016777226701378822
3328.0,-0.0008036530925892293
3584.0,-0.0021677021868526936
3840.0,-0.0023199496790766716
4096.0,-0.0007643642020411789
4608.0,0.000714968191459775
5120.0,0.00047343815094791353
5632.0,-0.0014430967858061194
6144.0,0.0016856294823810458
6656.0,-0.0005512238712981343
7168.0,-0.0003882829041685909
7680.0,0.0008540737326256931
8192.0,0.0005123448790982366
end
