version,3.0
numOfCh,1
type,point
parent_name,484af_0dot2-1dot0
ch_type,1_1
kcount,1
numberNandB,1
brightnessNandB,1
carpet pos,0
pc,0
Time (ms),CH1 Auto-Correlation
1.0,0.01828603819012642
2.0,0.017867134883999825
3.0,0.01747640036046505
4.0,0.017099760472774506
5.0,0.016730032861232758
6.0,0.01635824516415596
7.0,0.01599918305873871
8.0,0.015656718984246254
9.0,0.015331783331930637
10.0,0.015020526014268398
11.0,0.014707854948937893
12.0,0.014408049173653126
13.0,0.014128060080111027
14.0,0.01384348887950182
15.0,0.013574511744081974
16.0,0.013332385569810867
18.0,0.01284981332719326
20.0,0.012397153303027153
22.0,0.011953932233154774
24.0,0.011526369489729404
26.0,0.011122476309537888
28.0,0.010747876949608326
30.0,0.010385784320533276
32.0,0.010056136175990105
36.0,0.009425416588783264
40.0,0.008829930797219276
44.0,0.00822554249316454
48.0,0.007647139020264149
52.0,0.007134654559195042
56.0,0.006705144420266151
60.0,0.00630606384947896
64.0,0.005930597893893719
72.0,0.005275815259665251
80.0,0.004697652533650398
88.0,0.004275079816579819
96.0,0.003929499536752701
104.0,0.0036453884094953537
112.0,0.003437246195971966
120.0,0.003367170924320817
128.0,0.0032696318812668324
144.0,0.002834014594554901
160.0,0.002199537353590131
176.0,0.0015753292245790362
192.0,0.0012704642722383142
208.0,0.0013593388721346855
224.0,0.0014748037792742252
240.0,0.0017797101754695177
256.0,0.001862805220298469
288.0,0.0017240560846403241
320.0,0.00137877999804914
352.0,0.0008512907661497593
384.0,0.0002153150417143479
416.0,8.105691813398153e-05
448.0,0.00026737642474472523
480.0,0.00019446008082013577
512.0,5.577993579208851e-05
576.0,-0.0005160075379535556
640.0,-2.8187774660182185e-05
704.0,-0.00013748486526310444
768.0,-0.0006194908055476844
832.0,-0.0015310822054743767
896.0,-0.0020268193911761045
960.0,-0.0006344410357996821
1024.0,0.0008676676661707461
1152.0,0.0010747452033683658
1280.0,-0.0007484916131943464
1408.0,-0.0012492561945691705
1536.0,-0.0018450000789016485
1664.0,-0.0015080184675753117
1792.0,-0.0001385581272188574
1920.0,-0.0011461710091680288
2048.0,-0.001540664117783308
2304.0,-0.0003749748575501144
2560.0,-0.0004675318778026849
2816.0,2.395128831267357e-05
3072.0,-0.0007556301425211132
3328.0,-0.0002578125859145075
3584.0,0.0017133972141891718
3840.0,0.0024275437463074923
4096.0,0.0016336713451892138
4608.0,-0.0009917098795995116
5120.0,-0.00032143996213562787
5632.0,-0.0005161060835234821
6144.0,-0.0003731371834874153
6656.0,0.0008764495141804218
7168.0,-0.0006486459751613438
7680.0,0.0022040647454559803
8192.0,-0.0016471338458359241
end
