version,3.0
numOfCh,1
type,point
parent_name,484af_0dot2-1dot0
ch_type,1_1
kcount,1
numberNandB,1
brightnessNandB,1
carpet pos,0
pc,0
Time (ms),CH1 Auto-Correlation
1.0,0.02472006157040596
2.0,0.0242614783346653
3.0,0.023864630609750748
4.0,0.023485083132982254
5.0,0.023112423717975616
6.0,0.02275148034095764
7.0,0.022414077073335648
8.0,0.022065293043851852
9.0,0.021729804575443268
10.0,0.021389558911323547
11.0,0.0210612490773201
12.0,0.020738275721669197
13.0,0.02041047066450119
14.0,0.020100191235542297
15.0,0.01981004886329174
16.0,0.01951957680284977
18.0,0.018968677148222923
20.0,0.018480995669960976
22.0,0.018037226051092148
24.0,0.01761700212955475
26.0,0.01719977706670761
28.0,0.01681044138967991
30.0,0.016437247395515442
32.0,0.016076412051916122
36.0,0.015400238335132599
40.0,0.014714536257088184
44.0,0.014096374623477459
48.0,0.01356064435094595
52.0,0.013070164248347282
56.0,0.012677446939051151
60.0,0.012348304502665997
64.0,0.012043583206832409
72.0,0.011412098072469234
80.0,0.010705509223043919
88.0,0.009978119283914566
96.0,0.009295965544879436
104.0,0.008772213943302631
112.0,0.008214490488171577
120.0,0.007609800901263952
128.0,0.007075759116560221
144.0,0.0064087118953466415
160.0,0.005944787058979273
176.0,0.005744142923504114
192.0,0.00554577587172389
208.0,0.0049857343547046185
224.0,0.004257985856384039
240.0,0.003929077181965113
256.0,0.0038764604832977057
288.0,0.004107494372874498
320.0,0.003678172593936324
352.0,0.0038651153445243835
384.0,0.0037672356702387333
416.0,0.0038491382729262114
448.0,0.003830352332442999
480.0,0.0026972871273756027
512.0,0.0019089662237092853
576.0,0.0005970976781100035
640.0,-0.0003398630069568753
704.0,-0.0003020135045517236
768.0,-0.0007897774339653552
832.0,-0.00029490364249795675
896.0,0.00012066490307915956
960.0,-0.0012690137373283505
1024.0,-0.0025291340425610542
1152.0,-0.002876346930861473
1280.0,-0.0032825928647071123
1408.0,-0.001611439511179924
1536.0,-0.001961026107892394
1664.0,-0.0015117308357730508
1792.0,-0.0025023925118148327
1920.0,-0.0008682336774654686
2048.0,-0.0015672005247324705
2304.0,-0.0011537978425621986
2560.0,-0.002577295061200857
2816.0,0.0008908104500733316
3072.0,0.001558726537041366
3328.0,0.0007995452033355832
3584.0,0.0009653704473748803
3840.0,0.001598056871443987
4096.0,-0.0019326874753460288
4608.0,-0.0022165640257298946
5120.0,-0.0002807432319968939
5632.0,-0.0007121972739696503
6144.0,-0.0015196660533547401
6656.0,0.00035273784305900335
7168.0,0.0029702233150601387
7680.0,0.00021243437367957085
8192.0,0.0025427397340536118
end
