version,3.0
numOfCh,1
type,point
parent_name,484af_0dot2-1dot0
ch_type,1_1
kcount,1
numberNandB,1
brightnessNandB,1
carpet pos,0
pc,0
Time (ms),CH1 Auto-Correlation
1.0,0.02154701016843319
2.0,0.02115510031580925
3.0,0.020779596641659737
4.0,0.02041466347873211
5.0,0.02005631849169731
6.0,0.01972547173500061
7.0,0.019395938143134117
8.0,0.01907486282289028
9.0,0.01877189613878727
10.0,0.018478363752365112
11.0,0.01818612590432167
12.0,0.0179059449583292
13.0,0.017636969685554504
14.0,0.01735992729663849
15.0,0.017088187858462334
16.0,0.016828298568725586
18.0,0.016347935423254967
20.0,0.015917761251330376
22.0,0.015506441704928875
24.0,0.015151274390518665
26.0,0.0148263955488801
28.0,0.014500856399536133
30.0,0.014192406088113785
32.0,0.013891931623220444
36.0,0.013322392478585243
40.0,0.012818774208426476
44.0,0.012334495782852173
48.0,0.011883916333317757
52.0,0.011471257545053959
56.0,0.011030403897166252
60.0,0.010582326911389828
64.0,0.010158944875001907
72.0,0.009478372521698475
80.0,0.008907339535653591
88.0,0.008488684892654419
96.0,0.008190648630261421
104.0,0.007915927097201347
112.0,0.007630894426256418
120.0,0.007336007431149483
128.0,0.006978094112128019
144.0,0.006331032142043114
160.0,0.00559177016839385
176.0,0.0048921904526650906
192.0,0.0043678381480276585
208.0,0.004233144223690033
224.0,0.003951035439968109
240.0,0.003822991158813238
256.0,0.0036733506713062525
288.0,0.003039996838197112
320.0,0.00227516726590693
352.0,0.0022127784322947264
384.0,0.00143809977453202
416.0,0.0006561685004271567
448.0,0.0005281690391711891
480.0,7.186080620158464e-05
512.0,-0.0006106732762418687
576.0,-0.0014553347136825323
640.0,-0.002038140082731843
704.0,-0.0024003542494028807
768.0,-0.0023707887157797813
832.0,-0.002524456474930048
896.0,-0.0023374867159873247
960.0,-0.0036776894703507423
1024.0,-0.004430732224136591
1152.0,-0.0034579739440232515
1280.0,-0.002843072172254324
1408.0,-0.002602621912956238
1536.0,-0.0003333881904836744
1664.0,0.0009303002152591944
1792.0,0.0013432877603918314
1920.0,0.0020353286527097225
2048.0,0.0016377978026866913
2304.0,0.00034613997559063137
2560.0,-0.0006160783814266324
2816.0,-0.0025484468787908554
3072.0,-0.0020368958357721567
3328.0,-0.0003550366382114589
3584.0,0.0018366501899436116
3840.0,0.0040863677859306335
4096.0,0.004028493072837591
4608.0,-0.0011361963115632534
5120.0,-0.0037503154017031193
5632.0,-0.0010531217558309436
6144.0,0.0009266961715184152
6656.0,0.001472578034736216
7168.0,-0.0025968002155423164
7680.0,0.0013181143440306187
8192.0,0.004711740650236607
end
