version,3.0
numOfCh,1
type,point
parent_name,484af_0dot2-1dot0
ch_type,1_1
kcount,1
numberNandB,1
brightnessNandB,1
carpet pos,0
pc,0
Time (ms),CH1 Auto-Correlation
1.0,0.023205004632472992
2.0,0.022793971002101898
3.0,0.022402562201023102
4.0,0.022042421624064445
5.0,0.021690458059310913
6.0,0.021353822201490402
7.0,0.02102813869714737
8.0,0.020720025524497032
9.0,0.020412104204297066
10.0,0.02011333778500557
11.0,0.019814344123005867
12.0,0.019544510170817375
13.0,0.01928834617137909
14.0,0.019034069031476974
15.0,0.018788086250424385
16.0,0.018547547981142998
18.0,0.018065758049488068
20.0,0.017587468028068542
22.0,0.017131930217146873
24.0,0.01670551672577858
26.0,0.01630002073943615
28.0,0.015923844650387764
30.0,0.01554196048527956
32.0,0.01514135580509901
36.0,0.014378339052200317
40.0,0.013665998354554176
44.0,0.0130119938403368
48.0,0.012479376047849655
52.0,0.011993452906608582
56.0,0.011558025144040585
60.0,0.01113521121442318
64.0,0.010686340741813183
72.0,0.010056211613118649
80.0,0.00954316183924675
88.0,0.009155483916401863
96.0,0.008817940950393677
104.0,0.00838126428425312
112.0,0.008044209331274033
120.0,0.007989801466464996
128.0,0.008020451292395592
144.0,0.008162563666701317
160.0,0.007937895134091377
176.0,0.007224293425679207
192.0,0.00662236800417304
208.0,0.005867114290595055
224.0,0.0051962765865027905
240.0,0.00519529776647687
256.0,0.005429765209555626
288.0,0.005945633165538311
320.0,0.0062291622161865234
352.0,0.005544768646359444
384.0,0.004658544901758432
416.0,0.004653692711144686
448.0,0.004776040557771921
480.0,0.00431258836761117
512.0,0.00337050249800086
576.0,0.0029446780681610107
640.0,0.0034556228201836348
704.0,0.0016267356695607305
768.0,0.001205484732054174
832.0,0.0005164057947695255
896.0,0.00040607911068946123
960.0,0.0005230355891399086
1024.0,-0.0004815162974409759
1152.0,-0.0024777385406196117
1280.0,-0.0022693458013236523
1408.0,-0.0017869194271042943
1536.0,-0.000632165465503931
1664.0,-0.00027127162320539355
1792.0,-0.0018390649929642677
1920.0,-0.00167780218180269
2048.0,-0.0013588631991297007
2304.0,-0.00017909379675984383
2560.0,-0.0009526556241326034
2816.0,-0.002186658326536417
3072.0,-0.0006504280609078705
3328.0,-0.0003627431869972497
3584.0,-0.0002703297941479832
3840.0,-7.278670091181993e-05
4096.0,-0.000273010489763692
4608.0,-0.0018101970199495554
5120.0,-0.0032659072894603014
5632.0,-0.00029777170857414603
6144.0,0.000898302358109504
6656.0,0.0016205605352297425
7168.0,0.0031003474723547697
7680.0,0.0034547680988907814
8192.0,0.0023630408104509115
end
