version,3.0
numOfCh,1
type,point
parent_name,484af_0dot2-1dot0
ch_type,1_1
kcount,1
numberNandB,1
brightnessNandB,1
carpet pos,0
pc,0
Time (ms),CH1 Auto-Correlation
1.0,0.022501425817608833
2.0,0.022060751914978027
3.0,0.02163872867822647
4.0,0.021243136376142502
5.0,0.02085661143064499
6.0,0.02047787979245186
7.0,0.02011713571846485
8.0,0.01976322941482067
9.0,0.01942462846636772
10.0,0.019094033166766167
11.0,0.01877758838236332
12.0,0.01846066117286682
13.0,0.018148045986890793
14.0,0.017852453514933586
15.0,0.017568310722708702
16.0,0.017285551875829697
18.0,0.01673066057264805
20.0,0.016209783032536507
22.0,0.015725284814834595
24.0,0.015289739705622196
26.0,0.014864915050566196
28.0,0.014426601119339466
30.0,0.013985823839902878
32.0,0.013551454059779644
36.0,0.012773910537362099
40.0,0.012161938473582268
44.0,0.011661376804113388
48.0,0.011220244690775871
52.0,0.010787582956254482
56.0,0.010326355695724487
60.0,0.009851375594735146
64.0,0.009419790469110012
72.0,0.008829733356833458
80.0,0.00821132306009531
88.0,0.007557738106697798
96.0,0.006865595001727343
104.0,0.006176661234349012
112.0,0.005457583349198103
120.0,0.004803107585757971
128.0,0.004284016788005829
144.0,0.003782629268243909
160.0,0.003663785755634308
176.0,0.003559957491233945
192.0,0.0037471791729331017
208.0,0.004228448960930109
224.0,0.0043807439506053925
240.0,0.004463789984583855
256.0,0.004501088988035917
288.0,0.00432558823376894
320.0,0.004578295163810253
352.0,0.004154510330408812
384.0,0.003349803388118744
416.0,0.003238016739487648
448.0,0.003293085377663374
480.0,0.002869281219318509
512.0,0.0025049287360161543
576.0,0.002259019995108247
640.0,0.002438049064949155
704.0,0.0025239314418286085
768.0,0.0025110836140811443
832.0,0.0009658809867687523
896.0,7.422311318805441e-05
960.0,-0.0008336218306794763
1024.0,0.00014991985517553985
1152.0,0.0005749593838118017
1280.0,0.0006789173348806798
1408.0,-3.3152933610836044e-05
1536.0,-0.0012442223960533738
1664.0,-0.0027685428503900766
1792.0,-0.000837049912661314
1920.0,-0.00158884737174958
2048.0,-0.0005590992514044046
2304.0,-0.0010400692699477077
2560.0,-0.00047477512271143496
2816.0,-0.0021020628046244383
3072.0,-0.002058832673355937
3328.0,-0.0010399235179647803
3584.0,-0.0009249218855984509
3840.0,-0.0005445991409942508
4096.0,-0.0002541680005379021
4608.0,-0.0013506056275218725
5120.0,-0.001593737630173564
5632.0,-0.001047726022079587
6144.0,-0.0009603638318367302
6656.0,0.0010683522559702396
7168.0,0.0005649715894833207
7680.0,-0.0007660772535018623
8192.0,-0.0013588308356702328
end
