version,3.0
numOfCh,1
type,point
parent_name,484af_0dot2-1dot0
ch_type,1_1
kcount,1
numberNandB,1
brightnessNandB,1
carpet pos,0
pc,0
Time (ms),CH1 Auto-Correlation
1.0,0.020997483283281326
2.0,0.020562218502163887
3.0,0.020149797201156616
4.0,0.019743701443076134
5.0,0.019353097304701805
6.0,0.018978845328092575
7.0,0.01862149126827717
8.0,0.018277090042829514
9.0,0.01793365739285946
10.0,0.017605483531951904
11.0,0.01728437840938568
12.0,0.016984514892101288
13.0,0.016696810722351074
14.0,0.016415612772107124
15.0,0.016138963401317596
16.0,0.015868043527007103
18.0,0.01533504854887724
20.0,0.014826777391135693
22.0,0.014355985447764397
24.0,0.013929820619523525
26.0,0.01353492308408022
28.0,0.013162456452846527
30.0,0.012783625163137913
32.0,0.012409159913659096
36.0,0.011705273762345314
40.0,0.011110382154583931
44.0,0.010560412891209126
48.0,0.010068796575069427
52.0,0.009597116149961948
56.0,0.00915864109992981
60.0,0.008772353641688824
64.0,0.008448696695268154
72.0,0.007855997420847416
80.0,0.0074158888310194016
88.0,0.007039055228233337
96.0,0.006506440695375204
104.0,0.00604340760037303
112.0,0.005632859189063311
120.0,0.005050927400588989
128.0,0.004456715192645788
144.0,0.0038178192917257547
160.0,0.0034090185072273016
176.0,0.0028685973957180977
192.0,0.002530299127101898
208.0,0.0022662586998194456
224.0,0.0017666337080299854
240.0,0.001065990305505693
256.0,0.0005070979823358357
288.0,0.00020916000357829034
320.0,0.0003263237013015896
352.0,5.171675638848683e-06
384.0,-0.0006656759651377797
416.0,-0.000709021755028516
448.0,-0.0004518628993537277
480.0,0.00010052658763015643
512.0,0.000939781020861119
576.0,0.0013186909491196275
640.0,0.0005831343005411327
704.0,7.13669287506491e-05
768.0,-0.0009673303575254977
832.0,-0.0007235166849568486
896.0,0.00019050712580792606
960.0,0.0006301577668637037
1024.0,0.0006583257927559316
1152.0,0.0005918510141782463
1280.0,-0.00021558665321208537
1408.0,-0.0002442896948195994
1536.0,-0.0011037061922252178
1664.0,-0.0018943597096949816
1792.0,-0.0013452366692945361
1920.0,0.00015624862862750888
2048.0,0.0010553785832598805
2304.0,4.546396667137742e-05
2560.0,0.0009816527599468827
2816.0,0.0005414553452283144
3072.0,-1.7595396002434427e-06
3328.0,-0.0015433748485520482
3584.0,-0.0025334882084280252
3840.0,0.0012436907272785902
4096.0,-8.461662218905985e-05
4608.0,0.0003535890718922019
5120.0,0.0009771678596735
5632.0,-0.0006424520979635417
6144.0,-0.001647071330808103
6656.0,-0.0001297098642680794
7168.0,-0.0016326085897162557
7680.0,-0.0022992410231381655
8192.0,-0.00043864038889296353
end
