version,3.0
numOfCh,1
type,point
parent_name,484af_0dot2-1dot0
ch_type,1_1
kcount,1
numberNandB,1
brightnessNandB,1
carpet pos,0
pc,0
Time (ms),CH1 Auto-Correlation
1.0,0.025620989501476288
2.0,0.025162607431411743
3.0,0.024731764569878578
4.0,0.024329369887709618
5.0,0.02394322119653225
6.0,0.023578662425279617
7.0,0.023246604949235916
8.0,0.022925421595573425
9.0,0.02260380983352661
10.0,0.022293392568826675
11.0,0.021984728053212166
12.0,0.021682430058717728
13.0,0.021398354321718216
14.0,0.02111700549721718
15.0,0.020835967734456062
16.0,0.020550047978758812
18.0,0.02003973349928856
20.0,0.019558802247047424
22.0,0.019119564443826675
24.0,0.018700962886214256
26.0,0.01830294169485569
28.0,0.017918864265084267
30.0,0.017557108774781227
32.0,0.0172234196215868
36.0,0.01658797822892666
40.0,0.015967894345521927
44.0,0.015349599532783031
48.0,0.014758847653865814
52.0,0.014164323918521404
56.0,0.013596217148005962
60.0,0.013028249144554138
64.0,0.012477565556764603
72.0,0.011484218761324883
80.0,0.010476606898009777
88.0,0.009498029947280884
96.0,0.008621166460216045
104.0,0.0078035080805420876
112.0,0.007199598476290703
120.0,0.006725034676492214
128.0,0.00641819229349494
144.0,0.0060129021294415
160.0,0.005722991190850735
176.0,0.005387508310377598
192.0,0.005302750039845705
208.0,0.005419648718088865
224.0,0.005567749030888081
240.0,0.005589595064520836
256.0,0.005347191821783781
288.0,0.004062972962856293
320.0,0.0022341376170516014
352.0,0.0010984335094690323
384.0,0.0004880538326688111
416.0,0.000479207985335961
448.0,0.0011448269942775369
480.0,0.0017999873962253332
512.0,0.002137885196134448
576.0,0.001572545152157545
640.0,0.0006525028729811311
704.0,0.0005848095752298832
768.0,-0.0002772847074083984
832.0,-0.0011855135671794415
896.0,-0.0016403014305979013
960.0,-0.0017427433049306273
1024.0,-0.0015308259753510356
1152.0,-3.367666431586258e-05
1280.0,-0.0004526670090854168
1408.0,0.0022358363494277
1536.0,0.0011341979261487722
1664.0,-0.0003430978686083108
1792.0,-0.0024840570986270905
1920.0,-0.001424429821781814
2048.0,-0.0013411787804216146
2304.0,0.0006966500077396631
2560.0,0.0014878168003633618
2816.0,0.0008983028819784522
3072.0,7.465382077498361e-05
3328.0,0.0004926162655465305
3584.0,0.0004469751729629934
3840.0,0.0022887771483510733
4096.0,0.0014959709951654077
4608.0,0.0002887630253098905
5120.0,-0.0013110872823745012
5632.0,-0.005543830804526806
6144.0,-0.0020051910541951656
6656.0,0.000992386951111257
7168.0,0.0008544023148715496
7680.0,-0.00019927017274312675
8192.0,-0.0022194257471710443
end
