version,3.0
numOfCh,1
type,point
parent_name,484af_0dot2-1dot0
ch_type,1_1
kcount,1
numberNandB,1
brightnessNandB,1
carpet pos,0
pc,0
Time (ms),CH1 Auto-Correlation
1.0,0.020094940438866615
2.0,0.019686348736286163
3.0,0.01930294744670391
4.0,0.018931161612272263
5.0,0.018562158569693565
6.0,0.01818980649113655
7.0,0.017840156331658363
8.0,0.017506226897239685
9.0,0.01718609780073166
10.0,0.016879267990589142
11.0,0.016584061086177826
12.0,0.016303345561027527
13.0,0.016018658876419067
14.0,0.015735412016510963
15.0,0.01546582579612732
16.0,0.01518990844488144
18.0,0.014663616195321083
20.0,0.014153707772493362
22.0,0.01365578267723322
24.0,0.013190166093409061
26.0,0.012746734544634819
28.0,0.012323135510087013
30.0,0.011950239539146423
32.0,0.011625765822827816
36.0,0.01102464273571968
40.0,0.010472421534359455
44.0,0.009976730681955814
48.0,0.00952653307467699
52.0,0.009067152626812458
56.0,0.008654708974063396
60.0,0.008253339678049088
64.0,0.007864684797823429
72.0,0.006987075321376324
80.0,0.0061708069406449795
88.0,0.005484044086188078
96.0,0.004858200438320637
104.0,0.004364077001810074
112.0,0.0038743659388273954
120.0,0.003446048591285944
128.0,0.0032429425045847893
144.0,0.002692746464163065
160.0,0.002030993578955531
176.0,0.0012352720368653536
192.0,0.0004979264922440052
208.0,-0.00020932724874000996
224.0,-0.0006608450203202665
240.0,-0.0006200369680300355
256.0,-0.00012890188372693956
288.0,0.0004863569338340312
320.0,0.00035645696334540844
352.0,0.00016830525419209152
384.0,0.00012809217150788754
416.0,0.0009108689264394343
448.0,0.0010637488448992372
480.0,0.000507504097186029
512.0,-0.00030785336275584996
576.0,-0.0003123970527667552
640.0,-0.0006945582572370768
704.0,5.7739402109291404e-05
768.0,0.0018918273271992803
832.0,0.0012910331133753061
896.0,0.00016884831711649895
960.0,-0.001963989809155464
1024.0,-0.0033320635557174683
1152.0,-0.001769521040841937
1280.0,-0.0006453036330640316
1408.0,-0.0005333638400770724
1536.0,-0.0019087375840172172
1664.0,-0.001040591043420136
1792.0,-0.0019192439503967762
1920.0,-0.0028648560401052237
2048.0,-0.0011756718158721924
2304.0,-0.0008124661981128156
2560.0,-0.0006123037310317159
2816.0,-0.00019976819748990238
3072.0,0.0007916636532172561
3328.0,0.0015523965703323483
3584.0,0.0015273739118129015
3840.0,0.00132122787181288
4096.0,0.0017540575936436653
4608.0,4.91016726300586e-05
5120.0,-0.00016363404574804008
5632.0,-0.0012531960383057594
6144.0,-0.002089056186378002
6656.0,-0.00026506336871534586
7168.0,0.0010127853602170944
7680.0,0.001994542544707656
8192.0,0.0013682456919923425
end
