version,3.0
numOfCh,1
type,point
parent_name,484af_0dot2-1dot0
ch_type,1_1
kcount,1
numberNandB,1
brightnessNandB,1
carpet pos,0
pc,0
Time (ms),CH1 Auto-Correlation
1.0,0.021256156265735626
2.0,0.020824480801820755
3.0,0.020415915176272392
4.0,0.020020095631480217
5.0,0.019632326439023018
6.0,0.0192610751837492
7.0,0.018904225900769234
8.0,0.018561987206339836
9.0,0.018236570060253143
10.0,0.01792917400598526
11.0,0.017637761309742928
12.0,0.01735805533826351
13.0,0.01707945019006729
14.0,0.016806241124868393
15.0,0.016532281413674355
16.0,0.016270074993371964
18.0,0.01574014499783516
20.0,0.015229794196784496
22.0,0.01474142074584961
24.0,0.014263666234910488
26.0,0.013803521171212196
28.0,0.013354315422475338
30.0,0.012923321686685085
32.0,0.012516621500253677
36.0,0.011775657534599304
40.0,0.01110832765698433
44.0,0.01055196300148964
48.0,0.010061554610729218
52.0,0.009662045165896416
56.0,0.009281246922910213
60.0,0.008944360539317131
64.0,0.008596144616603851
72.0,0.007946114055812359
80.0,0.007401323411613703
88.0,0.006974139716476202
96.0,0.006597959902137518
104.0,0.006182274781167507
112.0,0.0057100835256278515
120.0,0.0053032501600682735
128.0,0.005037276539951563
144.0,0.004810241516679525
160.0,0.004677019082009792
176.0,0.004361777100712061
192.0,0.004171683453023434
208.0,0.0041446625255048275
224.0,0.003764250548556447
240.0,0.0030910044442862272
256.0,0.002840562490746379
288.0,0.002374830422922969
320.0,0.0018892912194132805
352.0,0.001636797678656876
384.0,0.0018643680959939957
416.0,0.0023633097298443317
448.0,0.0016857222653925419
480.0,0.0014110255287960172
512.0,0.001306631020270288
576.0,0.0009411413338966668
640.0,0.0007266054744832218
704.0,0.0008360472857020795
768.0,-0.0005190958618186414
832.0,0.0001914694585138932
896.0,0.0009356823866255581
960.0,0.00048100639833137393
1024.0,-9.738325024954975e-05
1152.0,-0.000873196346219629
1280.0,-0.001311583910137415
1408.0,-4.0547118260292336e-05
1536.0,0.0009652357548475266
1664.0,0.000879646569956094
1792.0,-0.0008193142130039632
1920.0,-0.0018216355238109827
2048.0,-0.0015634925803169608
2304.0,-0.0020973857026547194
2560.0,-0.0021984002087265253
2816.0,-0.001044125179760158
3072.0,0.0009366325102746487
3328.0,0.0004813107952941209
3584.0,0.0011444375850260258
3840.0,0.00019585227710194886
4096.0,-0.0017960717668756843
4608.0,-0.0009922549361363053
5120.0,9.708447032608092e-05
5632.0,-0.002018831204622984
6144.0,-0.0028068632818758488
6656.0,-0.00027891609352082014
7168.0,-0.000254492973908782
7680.0,-0.00014173211820889264
8192.0,0.003420609049499035
end
