version,3.0
numOfCh,1
type,point
parent_name,484af_0dot2-1dot0
ch_type,1_1
kcount,1
numberNandB,1
brightnessNandB,1
carpet pos,0
pc,0
Time (ms),CH1 Auto-Correlation
1.0,0.021432284265756607
2.0,0.02103462815284729
3.0,0.020671894773840904
4.0,0.02031715027987957
5.0,0.019978148862719536
6.0,0.01966198720037937
7.0,0.01935894414782524
8.0,0.019067302346229553
9.0,0.018778886646032333
10.0,0.01849711500108242
11.0,0.018221333622932434
12.0,0.017957210540771484
13.0,0.017699405550956726
14.0,0.017442937940359116
15.0,0.017193997278809547
16.0,0.016949696466326714
18.0,0.016488471999764442
20.0,0.01607048138976097
22.0,0.01567983627319336
24.0,0.015310918912291527
26.0,0.014960326254367828
28.0,0.01463456079363823
30.0,0.01431550458073616
32.0,0.013987460173666477
36.0,0.013350271619856358
40.0,0.01280031818896532
44.0,0.012250982224941254
48.0,0.011749200522899628
52.0,0.0113131208345294
56.0,0.010914182290434837
60.0,0.010494353249669075
64.0,0.010071676224470139
72.0,0.009283999912440777
80.0,0.008374660275876522
88.0,0.0076375980861485004
96.0,0.007069038227200508
104.0,0.006596248131245375
112.0,0.0061937556602060795
120.0,0.005657529924064875
128.0,0.005073895677924156
144.0,0.004186647944152355
160.0,0.003396273823454976
176.0,0.0027474702801555395
192.0,0.0023954149801284075
208.0,0.002254782011732459
224.0,0.0023051972966641188
240.0,0.0022930323611944914
256.0,0.0023659924045205116
288.0,0.0026155230589210987
320.0,0.002943107159808278
352.0,0.0029381425119936466
384.0,0.0026524534914642572
416.0,0.002138969488441944
448.0,0.0014760707272216678
480.0,0.0009585889056324959
512.0,0.0010195209179073572
576.0,-0.00021998115698806942
640.0,-0.00120722153224051
704.0,-0.002150848973542452
768.0,-0.002868587151169777
832.0,-0.002753987442702055
896.0,-0.0016239021206274629
960.0,-0.000979135511443019
1024.0,-0.00034360482823103666
1152.0,0.0009966925717890263
1280.0,-0.00012506346683949232
1408.0,-0.0011016210773959756
1536.0,-0.00011134357919218019
1664.0,0.00019183490076102316
1792.0,-0.002151499968022108
1920.0,-0.0034081677440553904
2048.0,-0.0030694962479174137
2304.0,-0.00315338303335011
2560.0,-0.002692009322345257
2816.0,0.0006345372530631721
3072.0,-7.37166337785311e-05
3328.0,0.0015072176465764642
3584.0,0.0006906643975526094
3840.0,7.36954971216619e-05
4096.0,-0.00067824253346771
4608.0,0.003591593587771058
5120.0,8.23679511086084e-05
5632.0,0.0018282324308529496
6144.0,-0.00042600708547979593
6656.0,-0.0017558952094987035
7168.0,-0.0012423776788637042
7680.0,-0.0018900817958638072
8192.0,0.0019482956267893314
end
