version,3.0
numOfCh,1
type,point
parent_name,484af_0dot2-1dot0
ch_type,1_1
kcount,1
numberNandB,1
brightnessNandB,1
carpet pos,0
pc,0
Time (ms),CH1 Auto-Correlation
1.0,0.02140071801841259
2.0,0.02097412571310997
3.0,0.0205827746540308
4.0,0.020219620317220688
5.0,0.019862942397594452
6.0,0.0195116326212883
7.0,0.019172610715031624
8.0,0.01884186454117298
9.0,0.01852194033563137
10.0,0.018195029348134995
11.0,0.017868341878056526
12.0,0.017545318230986595
13.0,0.017221132293343544
14.0,0.016900258138775826
15.0,0.016595399007201195
16.0,0.016286319121718407
18.0,0.015720738098025322
20.0,0.015196009539067745
22.0,0.014698060229420662
24.0,0.01421532966196537
26.0,0.013738053850829601
28.0,0.01327321957796812
30.0,0.012849869206547737
32.0,0.012421698309481144
36.0,0.011647435836493969
40.0,0.010940986685454845
44.0,0.010322070680558681
48.0,0.00975429080426693
52.0,0.00921537633985281
56.0,0.00870099849998951
60.0,0.008225508965551853
64.0,0.007840851321816444
72.0,0.0072395047172904015
80.0,0.00678615365177393
88.0,0.00633268803358078
96.0,0.005873819347470999
104.0,0.005464930087327957
112.0,0.005024911370128393
120.0,0.0045813899487257
128.0,0.004208365920931101
144.0,0.003771943971514702
160.0,0.003645125776529312
176.0,0.0038110767491161823
192.0,0.0038666916079819202
208.0,0.003977288957685232
224.0,0.004039056599140167
240.0,0.0038318834267556667
256.0,0.003519686870276928
288.0,0.0024432523641735315
320.0,0.0019522454822435975
352.0,0.001353130559436977
384.0,0.0005479332758113742
416.0,0.0007181798573583364
448.0,0.0009115602006204426
480.0,-4.3846721382578835e-05
512.0,-0.0008135252865031362
576.0,-0.0008412650786340237
640.0,-0.0013122579548507929
704.0,-0.0014175272081047297
768.0,-0.000858340528793633
832.0,0.00014465773710981011
896.0,0.0013473373837769032
960.0,-1.8383379938313738e-05
1024.0,-0.0006585490773431957
1152.0,-0.000867734313942492
1280.0,5.264932042337023e-05
1408.0,-0.0008980883285403252
1536.0,0.0005997323314659297
1664.0,0.0010366945061832666
1792.0,0.0007943409727886319
1920.0,1.1879538988068816e-06
2048.0,-0.0021373399067670107
2304.0,-0.0008912338525988162
2560.0,0.0004425991210155189
2816.0,0.0016522356308996677
3072.0,-5.749727279180661e-05
3328.0,-0.0024976751301437616
3584.0,-0.002630691509693861
3840.0,-0.000664593477267772
4096.0,-0.001341399853117764
4608.0,-0.0008401048835366964
5120.0,0.0004417047603055835
5632.0,0.0015522545436397195
6144.0,-0.0015705953119322658
6656.0,-3.095822467003018e-05
7168.0,0.0005190028459765017
7680.0,-0.0018274382455274463
8192.0,-0.0011532825883477926
end
