version,3.0
numOfCh,1
type,point
parent_name,484af_0dot2-1dot0
ch_type,1_1
kcount,1
numberNandB,1
brightnessNandB,1
carpet pos,0
pc,0
Time (ms),CH1 Auto-Correlation
1.0,0.023716606199741364
2.0,0.023285938426852226
3.0,0.022868705913424492
4.0,0.02246594987809658
5.0,0.022073237225413322
6.0,0.021683044731616974
7.0,0.021312303841114044
8.0,0.020973455160856247
9.0,0.020636776462197304
10.0,0.020308850333094597
11.0,0.01999475434422493
12.0,0.019689660519361496
13.0,0.01938549429178238
14.0,0.01910271868109703
15.0,0.01882425881922245
16.0,0.01856394112110138
18.0,0.018075719475746155
20.0,0.017608335241675377
22.0,0.017197607085108757
24.0,0.016810577362775803
26.0,0.016451003029942513
28.0,0.01610572263598442
30.0,0.01576010137796402
32.0,0.01543031819164753
36.0,0.014800284057855606
40.0,0.014241979457437992
44.0,0.013697530142962933
48.0,0.013184718787670135
52.0,0.012804225087165833
56.0,0.012524908408522606
60.0,0.012272973544895649
64.0,0.012023696675896645
72.0,0.011605287902057171
80.0,0.011238540522754192
88.0,0.010842475108802319
96.0,0.010467305779457092
104.0,0.010156011208891869
112.0,0.009869419038295746
120.0,0.009506464935839176
128.0,0.009011678397655487
144.0,0.008077185600996017
160.0,0.0072971852496266365
176.0,0.006951396819204092
192.0,0.006648475769907236
208.0,0.006377013400197029
224.0,0.006206576246768236
240.0,0.005930118262767792
256.0,0.0057051051408052444
288.0,0.00482929777354002
320.0,0.00436915410682559
352.0,0.0037919601891189814
384.0,0.00344090280123055
416.0,0.0028965785168111324
448.0,0.0020792188588529825
480.0,0.001845252001658082
512.0,0.001307132770307362
576.0,-0.0005625256453640759
640.0,-0.0011474989587441087
704.0,-0.0013032122515141964
768.0,-0.0014594030799344182
832.0,-0.0018945535412058234
896.0,-0.0018536823336035013
960.0,-0.0010276084067299962
1024.0,-9.891381341731176e-05
1152.0,0.000589503615628928
1280.0,0.0004812713013961911
1408.0,0.0015225446550175548
1536.0,0.0017225700430572033
1664.0,0.0005306915263645351
1792.0,-7.874386938055977e-05
1920.0,0.0006714473711326718
2048.0,0.0009336723014712334
2304.0,0.0010349900694563985
2560.0,-0.00015575546422041953
2816.0,-0.0019878013990819454
3072.0,-0.002274713944643736
3328.0,-0.003411652520298958
3584.0,-0.0026898665819317102
3840.0,0.0012800219701603055
4096.0,0.001981704728677869
4608.0,0.0009263879619538784
5120.0,-0.0012584292562678456
5632.0,-3.8306818169075996e-05
6144.0,0.0014431376475840807
6656.0,0.0019914850126951933
7168.0,-0.0008508756291121244
7680.0,-0.000884649227373302
8192.0,6.61526937619783e-05
end
