version,3.0
numOfCh,1
type,point
parent_name,484af_0dot2-1dot0
ch_type,1_1
kcount,1
numberNandB,1
brightnessNandB,1
carpet pos,0
pc,0
Time (ms),CH1 Auto-Correlation
1.0,0.018974944949150085
2.0,0.018505072221159935
3.0,0.018077924847602844
4.0,0.017674116417765617
5.0,0.01728084497153759
6.0,0.016912415623664856
7.0,0.01654800772666931
8.0,0.01620427332818508
9.0,0.015872450545430183
10.0,0.015558762475848198
11.0,0.01525060459971428
12.0,0.014965744689106941
13.0,0.014679688028991222
14.0,0.014410115778446198
15.0,0.014136513695120811
16.0,0.013870730064809322
18.0,0.013380025513470173
20.0,0.012892541475594044
22.0,0.012432706542313099
24.0,0.011991065926849842
26.0,0.011600498110055923
28.0,0.011239862069487572
30.0,0.010910125449299812
32.0,0.010587058961391449
36.0,0.009927550330758095
40.0,0.009275199845433235
44.0,0.008660223335027695
48.0,0.008146497420966625
52.0,0.007685563992708921
56.0,0.007260060869157314
60.0,0.006950448267161846
64.0,0.00668330816552043
72.0,0.006201159209012985
80.0,0.005653163883835077
88.0,0.005151375662535429
96.0,0.004618045873939991
104.0,0.0040659294463694096
112.0,0.003422250272706151
120.0,0.0028431308455765247
128.0,0.0023942156694829464
144.0,0.0019916058517992496
160.0,0.0018323231488466263
176.0,0.0017321421764791012
192.0,0.0013729875208809972
208.0,0.0008835700573399663
224.0,0.00038318190490826964
240.0,-0.00011650931992335245
256.0,-0.0006806980236433446
288.0,-0.0009677972993813455
320.0,-0.001191922347061336
352.0,-0.0008394598262384534
384.0,-0.00029823643853887916
416.0,-0.00039071982610039413
448.0,-0.0005760127096436918
480.0,-0.0006186405662447214
512.0,-0.0007222385611385107
576.0,-0.001285667298361659
640.0,-0.001964133232831955
704.0,-0.002123108133673668
768.0,-0.00014532242494169623
832.0,0.0016588564030826092
896.0,0.00143121974542737
960.0,0.0008351051365025342
1024.0,0.0010091718286275864
1152.0,0.0013380663003772497
1280.0,0.0016698787221685052
1408.0,0.00025870176614262164
1536.0,-0.0012151813134551048
1664.0,-0.00010038978507509455
1792.0,0.0004539457440841943
1920.0,0.0005568829365074635
2048.0,0.0008936530211940408
2304.0,0.00038303801557049155
2560.0,-0.0013942166697233915
2816.0,0.0006879380089230835
3072.0,0.001706788782030344
3328.0,-0.001994746271520853
3584.0,-0.001640073023736477
3840.0,0.0002708829415496439
4096.0,0.0009717377251945436
4608.0,-0.001414743484929204
5120.0,0.0001940988440765068
5632.0,-0.0014589970232918859
6144.0,0.0001138197912951
6656.0,-0.0014974296791478992
7168.0,-0.00041686929762363434
7680.0,-0.001780534046702087
8192.0,0.0011601652950048447
end
