version,3.0
numOfCh,1
type,point
parent_name,484af_0dot2-1dot0
ch_type,1_1
kcount,1
numberNandB,1
brightnessNandB,1
carpet pos,0
pc,0
Time (ms),CH1 Auto-Correlation
1.0,0.01742376759648323
2.0,0.01699579693377018
3.0,0.01659107394516468
4.0,0.01620521955192089
5.0,0.015835793688893318
6.0,0.015487497672438622
7.0,0.015155034139752388
8.0,0.014833838678896427
9.0,0.014521894045174122
10.0,0.014202986843883991
11.0,0.013887490145862103
12.0,0.013593093492090702
13.0,0.013314361684024334
14.0,0.013045601546764374
15.0,0.012785459868609905
16.0,0.012531871907413006
18.0,0.012047836557030678
20.0,0.011582279577851295
22.0,0.01113981008529663
24.0,0.010708115063607693
26.0,0.010293297469615936
28.0,0.009887570515275002
30.0,0.009486289694905281
32.0,0.009104352444410324
36.0,0.008450114168226719
40.0,0.007909928448498249
44.0,0.007412925362586975
48.0,0.0069390516728162766
52.0,0.0065125892870128155
56.0,0.006110170390456915
60.0,0.005752293858677149
64.0,0.0054197655990719795
72.0,0.0047849626280367374
80.0,0.004320504143834114
88.0,0.004127922002226114
96.0,0.004078210331499577
104.0,0.004055733792483807
112.0,0.003959556110203266
120.0,0.003820154583081603
128.0,0.003548654494807124
144.0,0.003165622241795063
160.0,0.0027367924340069294
176.0,0.0020930964965373278
192.0,0.001490878057666123
208.0,0.0011759618064388633
224.0,0.0010658743558451533
240.0,0.0012016578111797571
256.0,0.0011152256047353148
288.0,0.0009427277254872024
320.0,0.00025529906270094216
352.0,-0.00042308965930715203
384.0,-0.0013061602367088199
416.0,-0.0019886749796569347
448.0,-0.002193936612457037
480.0,-0.0020799743942916393
512.0,-0.00221429904922843
576.0,-0.002594172256067395
640.0,-0.00207536737434566
704.0,-0.0014462964609265327
768.0,-0.0005065841251052916
832.0,-0.00015511167293880135
896.0,0.00046290550380945206
960.0,0.0004104362742509693
1024.0,0.0006510787061415613
1152.0,-0.0010027136886492372
1280.0,-0.00015889450151007622
1408.0,-0.0005015162751078606
1536.0,-0.000456788984593004
1664.0,0.0002261375921079889
1792.0,0.0008091821800917387
1920.0,0.0010593226179480553
2048.0,0.0021871495991945267
2304.0,0.001241399091668427
2560.0,-0.0018372484482824802
2816.0,-0.0019740585703402758
3072.0,0.00038121541729196906
3328.0,7.845977961551398e-06
3584.0,-0.0013351071393117309
3840.0,0.0006492650718428195
4096.0,0.0013153504114598036
4608.0,-0.00020700495224446058
5120.0,0.0001167125956271775
5632.0,-0.0006899666623212397
6144.0,0.0007255763048306108
6656.0,-8.971503848442808e-05
7168.0,0.000552829063963145
7680.0,-0.0009527795482426882
8192.0,0.00019311571668367833
end
