version,3.0
numOfCh,1
type,point
parent_name,484af_0dot2-1dot0
ch_type,1_1
kcount,1
numberNandB,1
brightnessNandB,1
carpet pos,0
pc,0
Time (ms),CH1 Auto-Correlation
1.0,0.019876686856150627
2.0,0.01943577639758587
3.0,0.01902284100651741
4.0,0.01863417588174343
5.0,0.018258482217788696
6.0,0.01790599152445793
7.0,0.01758509688079357
8.0,0.017263101413846016
9.0,0.016951365396380424
10.0,0.016651364043354988
11.0,0.01636345498263836
12.0,0.016081729903817177
13.0,0.015819717198610306
14.0,0.015566861256957054
15.0,0.015320722945034504
16.0,0.015081431716680527
18.0,0.014622368849813938
20.0,0.014193189330399036
22.0,0.013787763193249702
24.0,0.013414362445473671
26.0,0.01306336373090744
28.0,0.012751058675348759
30.0,0.012450816109776497
32.0,0.012199600227177143
36.0,0.011748100630939007
40.0,0.011347116902470589
44.0,0.01096333097666502
48.0,0.010612250305712223
52.0,0.010335208848118782
56.0,0.010120207443833351
60.0,0.009948711842298508
64.0,0.009780817665159702
72.0,0.009431346319615841
80.0,0.009089866653084755
88.0,0.008686676621437073
96.0,0.008214614354074001
104.0,0.007742874324321747
112.0,0.007358654867857695
120.0,0.006961580365896225
128.0,0.006609831936657429
144.0,0.006043552421033382
160.0,0.005668914411216974
176.0,0.005242520477622747
192.0,0.004754087887704372
208.0,0.004421105608344078
224.0,0.004213950131088495
240.0,0.0039461832493543625
256.0,0.003749204333871603
288.0,0.0029749542009085417
320.0,0.0024227036628872156
352.0,0.0014174727257341146
384.0,0.0009518631850369275
416.0,0.0012246019905433059
448.0,0.0013622187543660402
480.0,0.0011496403021737933
512.0,0.0009900409495458007
576.0,0.000300409592455253
640.0,0.00031276949448511004
704.0,0.0011614792747423053
768.0,0.0011075681541115046
832.0,0.0009991504484787583
896.0,3.1684689020039514e-05
960.0,-8.76131234690547e-05
1024.0,-0.0008745529921725392
1152.0,-0.0002103614096995443
1280.0,-0.00023842525843065232
1408.0,-0.0002678768942132592
1536.0,-0.0010301719885319471
1664.0,-0.0004334758850745857
1792.0,4.419947799760848e-05
1920.0,0.0002257582382299006
2048.0,0.00045724670053459704
2304.0,-0.00044407363748177886
2560.0,0.0004914922174066305
2816.0,-0.0008705637301318347
3072.0,-0.0009130755788646638
3328.0,-0.001368085970170796
3584.0,-0.003026112448424101
3840.0,-0.0002560211578384042
4096.0,0.0016974919708445668
4608.0,-0.0018473896197974682
5120.0,-0.0005428478471003473
5632.0,0.000779171590693295
6144.0,0.002876110840588808
6656.0,-0.0018384243594482541
7168.0,-0.0016094822203740478
7680.0,8.5732142906636e-05
8192.0,0.0017449373845010996
end
