version,3.0
numOfCh,1
type,point
parent_name,484af_0dot2-1dot0
ch_type,1_1
kcount,1
numberNandB,1
brightnessNandB,1
carpet pos,0
pc,0
Time (ms),CH1 Auto-Correlation
1.0,0.019389590248465538
2.0,0.018978353589773178
3.0,0.01858764886856079
4.0,0.01820630393922329
5.0,0.01784810796380043
6.0,0.01751111075282097
7.0,0.017175128683447838
8.0,0.01684425212442875
9.0,0.01652776449918747
10.0,0.01621951535344124
11.0,0.015929728746414185
12.0,0.015656789764761925
13.0,0.015387732535600662
14.0,0.01513837929815054
15.0,0.014894415624439716
16.0,0.014655395410954952
18.0,0.014205965213477612
20.0,0.013772399164736271
22.0,0.01334800198674202
24.0,0.012931105680763721
26.0,0.012544753029942513
28.0,0.01220355462282896
30.0,0.01188046857714653
32.0,0.011579085141420364
36.0,0.010974747128784657
40.0,0.010401053354144096
44.0,0.009907405823469162
48.0,0.009455139748752117
52.0,0.009041445329785347
56.0,0.008621524088084698
60.0,0.008199788630008698
64.0,0.007850573398172855
72.0,0.007238538935780525
80.0,0.00677555100992322
88.0,0.0063612740486860275
96.0,0.005831526126712561
104.0,0.0053434232249855995
112.0,0.005019166972488165
120.0,0.004825345706194639
128.0,0.0046935598365962505
144.0,0.004624132998287678
160.0,0.004671898204833269
176.0,0.004432893358170986
192.0,0.0037651569582521915
208.0,0.003010129788890481
224.0,0.002455674111843109
240.0,0.001876857946626842
256.0,0.0011901392135769129
288.0,0.00011718007590388879
320.0,0.00036548447678796947
352.0,0.00047256177640520036
384.0,0.0007376297144219279
416.0,0.0011172393569722772
448.0,0.0007546320557594299
480.0,0.000558180850930512
512.0,0.00022593536414206028
576.0,0.0007181587861850858
640.0,0.001434481586329639
704.0,0.0008841724484227598
768.0,0.0014149656053632498
832.0,0.002194235334172845
896.0,0.0013772613601759076
960.0,0.0001738624705467373
1024.0,0.0002901498810388148
1152.0,-0.0007683792500756681
1280.0,9.619884804124013e-05
1408.0,-8.38971755001694e-05
1536.0,-7.129682489903644e-05
1664.0,0.0011777774197980762
1792.0,0.0007208347669802606
1920.0,0.0007370029343292117
2048.0,2.2810827431385405e-05
2304.0,1.2339595741650555e-05
2560.0,-0.0013875059084966779
2816.0,-0.002095682779327035
3072.0,-0.0009305693674832582
3328.0,-0.002818832639604807
3584.0,-0.003473102580755949
3840.0,0.00048118431004695594
4096.0,0.0009720284142531455
4608.0,0.0011999239213764668
5120.0,0.0008401714731007814
5632.0,0.0004216149391140789
6144.0,0.0023951265029609203
6656.0,0.00158164172898978
7168.0,-0.0015784043353050947
7680.0,-0.0009786277078092098
8192.0,-3.7592944863718e-05
end
