version,3.0
numOfCh,1
type,point
parent_name,484af_0dot2-1dot0
ch_type,1_1
kcount,1
numberNandB,1
brightnessNandB,1
carpet pos,0
pc,0
Time (ms),CH1 Auto-Correlation
1.0,0.02654101885855198
2.0,0.026141362264752388
3.0,0.025753546506166458
4.0,0.02538149058818817
5.0,0.025030046701431274
6.0,0.024691294878721237
7.0,0.024359915405511856
8.0,0.024045566096901894
9.0,0.02372700721025467
10.0,0.023419419303536415
11.0,0.023121392354369164
12.0,0.022838735952973366
13.0,0.022564508020877838
14.0,0.022305235266685486
15.0,0.022050287574529648
16.0,0.021808505058288574
18.0,0.021351289004087448
20.0,0.02091384306550026
22.0,0.020488683134317398
24.0,0.020109305158257484
26.0,0.019771115854382515
28.0,0.019446706399321556
30.0,0.019132977351546288
32.0,0.018837999552488327
36.0,0.018302224576473236
40.0,0.017789920791983604
44.0,0.017317848280072212
48.0,0.016883354634046555
52.0,0.01649574376642704
56.0,0.016109278425574303
60.0,0.0157419852912426
64.0,0.015404961071908474
72.0,0.01479499414563179
80.0,0.01415281742811203
88.0,0.013457744382321835
96.0,0.012736533768475056
104.0,0.012057498097419739
112.0,0.01146072056144476
120.0,0.01091583538800478
128.0,0.010391471907496452
144.0,0.009268993511795998
160.0,0.007830471731722355
176.0,0.006526341196149588
192.0,0.005932766478508711
208.0,0.005737849045544863
224.0,0.005255653988569975
240.0,0.004358968231827021
256.0,0.0038082737009972334
288.0,0.003200163133442402
320.0,0.0025087627582252026
352.0,0.002323487773537636
384.0,0.0017841564258560538
416.0,0.0011578976409509778
448.0,0.0010693923104554415
480.0,0.0009388382313773036
512.0,0.0006721210083924234
576.0,0.00010656129597919062
640.0,-0.0010522155789658427
704.0,-0.0019130170112475753
768.0,-0.0013404726050794125
832.0,-0.0016836454160511494
896.0,-0.0017934703500941396
960.0,-0.0010819985764101148
1024.0,-0.000629747926723212
1152.0,-0.00041032672743313015
1280.0,0.0005577360861934721
1408.0,0.0026210250798612833
1536.0,0.0010675014927983284
1664.0,-2.1690781068173237e-05
1792.0,-0.0004735217953566462
1920.0,-0.0013624975690618157
2048.0,-0.0033453828655183315
2304.0,-0.0048152185045182705
2560.0,-0.005741220898926258
2816.0,-0.0022978251799941063
3072.0,-0.002588375937193632
3328.0,-0.0007691705250181258
3584.0,-0.001931178499944508
3840.0,-0.0005562618607655168
4096.0,-0.0018335402710363269
4608.0,0.0008018384105525911
5120.0,-0.000669395609293133
5632.0,0.001480664825066924
6144.0,0.0058226147666573524
6656.0,0.0019839778542518616
7168.0,0.0019049644470214844
7680.0,8.769031410338357e-05
8192.0,-0.0042101675644516945
end
