version,3.0
numOfCh,1
type,point
parent_name,484af_0dot2-1dot0
ch_type,1_1
kcount,1
numberNandB,1
brightnessNandB,1
carpet pos,0
pc,0
Time (ms),CH1 Auto-Correlation
1.0,0.02094382233917713
2.0,0.02048979513347149
3.0,0.020042406395077705
4.0,0.01961612142622471
5.0,0.019185608252882957
6.0,0.018794536590576172
7.0,0.01841014251112938
8.0,0.018037375062704086
9.0,0.01768513023853302
10.0,0.01734517514705658
11.0,0.017005909234285355
12.0,0.01667593978345394
13.0,0.01634475775063038
14.0,0.016042592003941536
15.0,0.01575784757733345
16.0,0.015484449453651905
18.0,0.014957194216549397
20.0,0.014475656673312187
22.0,0.014026708900928497
24.0,0.013618508353829384
26.0,0.013259620405733585
28.0,0.012948313727974892
30.0,0.012690403498709202
32.0,0.012449419125914574
36.0,0.011966824531555176
40.0,0.011563482694327831
44.0,0.01122981309890747
48.0,0.010881920345127583
52.0,0.010463090613484383
56.0,0.01008258480578661
60.0,0.009798814542591572
64.0,0.009606615640223026
72.0,0.00914747454226017
80.0,0.008668126538395882
88.0,0.00809748750180006
96.0,0.0076299672946333885
104.0,0.007275229785591364
112.0,0.0070013501681387424
120.0,0.006704689469188452
128.0,0.0063656591810286045
144.0,0.005389577709138393
160.0,0.004453353583812714
176.0,0.003669144818559289
192.0,0.003299860982224345
208.0,0.0030861832201480865
224.0,0.003108114702627063
240.0,0.0029172163922339678
256.0,0.00270173535682261
288.0,0.0027446704916656017
320.0,0.0023990378249436617
352.0,0.0019360525766387582
384.0,0.001741904648952186
416.0,0.0012408519396558404
448.0,0.001052380888722837
480.0,0.0008244218188337982
512.0,0.00024896994000300765
576.0,0.0002683728525880724
640.0,0.000358344434062019
704.0,0.0008631298551335931
768.0,0.001715896767564118
832.0,0.00196214416064322
896.0,0.0019786921329796314
960.0,0.001971336780115962
1024.0,0.001956536201760173
1152.0,0.000978270429186523
1280.0,0.0009159104083664715
1408.0,-0.0002029274037340656
1536.0,-0.0013533151941373944
1664.0,-0.0016773318639025092
1792.0,-0.0004228625912219286
1920.0,0.00014594817184843123
2048.0,-0.00037444810732267797
2304.0,-0.002694908995181322
2560.0,-0.0039330958388745785
2816.0,-0.0019995509646832943
3072.0,-0.0013636208605021238
3328.0,-0.001454794080927968
3584.0,-0.00119742751121521
3840.0,-0.0011129347840324044
4096.0,-0.000921757600735873
4608.0,-0.00039687997195869684
5120.0,0.002686884254217148
5632.0,0.0022750392090529203
6144.0,0.0003725428832694888
6656.0,0.0015231644501909614
7168.0,0.0011967804748564959
7680.0,-0.0005171569064259529
8192.0,-0.001389135723002255
end
