version,3.0
numOfCh,1
type,point
parent_name,484af_0dot2-1dot0
ch_type,1_1
kcount,1
numberNandB,1
brightnessNandB,1
carpet pos,0
pc,0
Time (ms),CH1 Auto-Correlation
1.0,0.023451710119843483
2.0,0.022981638088822365
3.0,0.022545993328094482
4.0,0.022132351994514465
5.0,0.02175198867917061
6.0,0.021372206509113312
7.0,0.02099582366645336
8.0,0.020645717158913612
9.0,0.020301517099142075
10.0,0.019967177882790565
11.0,0.019645249471068382
12.0,0.01933603547513485
13.0,0.01905301958322525
14.0,0.018767446279525757
15.0,0.018483133986592293
16.0,0.01819675788283348
18.0,0.01763465628027916
20.0,0.017115071415901184
22.0,0.016614140942692757
24.0,0.01613106206059456
26.0,0.015674928203225136
28.0,0.015250311233103275
30.0,0.014832078479230404
32.0,0.01443878747522831
36.0,0.013743067160248756
40.0,0.013142570853233337
44.0,0.012578400783240795
48.0,0.012077328749001026
52.0,0.011610978282988071
56.0,0.01120706181973219
60.0,0.010827676393091679
64.0,0.010446818545460701
72.0,0.009831375442445278
80.0,0.009194738231599331
88.0,0.008616498671472073
96.0,0.008170182816684246
104.0,0.007625918369740248
112.0,0.007126358337700367
120.0,0.006510845385491848
128.0,0.006069314666092396
144.0,0.0055562094785273075
160.0,0.004968737252056599
176.0,0.0044768815860152245
192.0,0.004156486131250858
208.0,0.003822436323389411
224.0,0.003210625145584345
240.0,0.002968652406707406
256.0,0.003197658574208617
288.0,0.003887999802827835
320.0,0.003704965580254793
352.0,0.0031152304727584124
384.0,0.002813355065882206
416.0,0.002716613933444023
448.0,0.0029231326188892126
480.0,0.002825498580932617
512.0,0.0023151382338255644
576.0,0.0017953471979126334
640.0,-0.0007773248944431543
704.0,-0.002203963929787278
768.0,-0.0032844385132193565
832.0,-0.0022793500684201717
896.0,-0.0016359940636903048
960.0,-0.0027009262703359127
1024.0,-0.002423460129648447
1152.0,-0.002187528647482395
1280.0,-0.0008319250773638487
1408.0,-0.0019247642485424876
1536.0,-0.002259040018543601
1664.0,-0.00047045687097124755
1792.0,6.687156565021724e-05
1920.0,0.00039176069549284875
2048.0,0.00010960263898596168
2304.0,0.0013198771048337221
2560.0,0.002233523642644286
2816.0,0.0023723721969872713
3072.0,7.940061914268881e-05
3328.0,-0.0007420338224619627
3584.0,-0.0016760602593421936
3840.0,-0.0009155614534392953
4096.0,-0.001209362642839551
4608.0,0.0008883089176379144
5120.0,-0.0007774035912007093
5632.0,-0.002582333516329527
6144.0,0.00013010903785470873
6656.0,0.003571408102288842
7168.0,-0.00031870868406258523
7680.0,-0.00262039084918797
8192.0,-0.0012183630606159568
end
