version,3.0
numOfCh,1
type,point
parent_name,0cd20_10dot0-1dot0
ch_type,1_1
kcount,1
numberNandB,1
brightnessNandB,1
carpet pos,0
pc,0
Time (ms),CH1 Auto-Correlation
1.0,0.013916635885834694
2.0,0.00945333018898964
3.0,0.007296520285308361
4.0,0.005734684411436319
5.0,0.004802943207323551
6.0,0.00410716887563467
7.0,0.003483459120616317
8.0,0.002904679859057069
9.0,0.0024754006881266832
10.0,0.00210874923504889
11.0,0.001966015435755253
12.0,0.0018419439438730478
13.0,0.0017581317806616426
14.0,0.0015996251022443175
15.0,0.0014253159752115607
16.0,0.0009924799669533968
18.0,0.0007978068897500634
20.0,0.0009704474359750748
22.0,0.0007630916079506278
24.0,0.0005607607890851796
26.0,0.0003535350551828742
28.0,4.373537376523018e-05
30.0,-7.80658156145364e-05
32.0,0.00019425318168941885
36.0,0.0002573128731455654
40.0,6.893945828778669e-05
44.0,-5.557313852477819e-05
48.0,-7.580647798022255e-05
52.0,0.0001078428904293105
56.0,2.4785906134638935e-05
60.0,0.00021233977167867124
64.0,0.00023394926392938942
72.0,-0.00013674919318873435
80.0,-0.00011630223161773756
88.0,-0.0002136479743057862
96.0,-0.00026627120678313076
104.0,-0.00015634458395652473
112.0,-6.66681842176331e-07
120.0,0.00036174379056319594
128.0,0.00015502738824579865
144.0,0.0001377762819174677
160.0,-3.416205072426237e-05
176.0,-2.1002972061978653e-05
192.0,-2.6842220904654823e-05
208.0,-0.00015557535516563803
224.0,-0.0001607500744285062
240.0,5.010912445868598e-06
256.0,-0.0001256623218068853
288.0,1.1586020264076069e-05
320.0,0.0001015520392684266
352.0,-0.00012078567669959739
384.0,-0.00019025063375011086
416.0,-0.00017027341527864337
448.0,-5.442022666102275e-05
480.0,0.00015001717838458717
512.0,-5.023698122386122e-06
576.0,0.00040026899660006166
640.0,-0.00029151071794331074
704.0,-5.416575004346669e-05
768.0,4.845286639465485e-06
832.0,0.00031116901664063334
896.0,-9.146307274932042e-05
960.0,-0.0004238336405251175
1024.0,0.00020109512843191624
1152.0,-6.703321560053155e-07
1280.0,-0.00010985198605339974
1408.0,-0.00012303936819080263
1536.0,-9.141397458733991e-05
1664.0,0.00013832106196787208
1792.0,-1.2211496141389944e-05
1920.0,-5.2041687013115734e-05
2048.0,-0.00023180438438430429
2304.0,-2.5084395019803196e-05
2560.0,-7.974863547133282e-05
2816.0,6.827207107562572e-05
3072.0,8.189011714421213e-05
3328.0,5.297449752106331e-05
3584.0,2.6712019462138414e-05
3840.0,-0.00021381255646701902
4096.0,-2.228549237770494e-05
4608.0,-5.101446367916651e-05
5120.0,0.00012385082663968205
5632.0,3.715801358339377e-05
6144.0,4.608568633557297e-05
6656.0,-0.0001278313429793343
7168.0,-3.1435294658876956e-05
7680.0,-2.6660247385734692e-05
8192.0,6.993546412559226e-05
end
