version,3.0
numOfCh,1
type,point
parent_name,400-cuts
ch_type,1_1
kcount,1
numberNandB,1
brightnessNandB,1
carpet pos,0
pc,0
Time (ms),CH1 Auto-Correlation
1.0,0.0289550069719553
2.0,0.02368209697306156
3.0,0.019966240972280502
4.0,0.01723441481590271
5.0,0.015045844949781895
6.0,0.013259859755635262
7.0,0.011771822348237038
8.0,0.010438934899866581
9.0,0.00940345786511898
10.0,0.008391866460442543
11.0,0.00756791140884161
12.0,0.006867176853120327
13.0,0.006108137778937817
14.0,0.005438735242933035
15.0,0.005027179140597582
16.0,0.004539783578366041
18.0,0.00398461427539587
20.0,0.0035351417027413845
22.0,0.0028865665663033724
24.0,0.002319582272320986
26.0,0.002116323448717594
28.0,0.0016948591219261289
30.0,0.0016567809507250786
32.0,0.0014128745533525944
36.0,0.001355603220872581
40.0,0.001087381038814783
44.0,0.0006548897363245487
48.0,0.0009601113852113485
52.0,0.00090737733989954
56.0,0.0010561062954366207
60.0,0.0010653416393324733
64.0,0.0007534456672146916
72.0,-6.30116555839777e-05
80.0,-0.00043589522829279304
88.0,-0.0005583426100201905
96.0,-0.00011443602852523327
104.0,0.00017574803496245295
112.0,0.0005917757516726851
120.0,0.0003921377647202462
128.0,0.0004669252084568143
144.0,0.0008066632435657084
160.0,0.0008476259536109865
176.0,0.00012989460083190352
192.0,2.9566086595878005e-05
208.0,0.00014044463750906289
224.0,-0.00040169028216041625
240.0,-0.0006935159908607602
256.0,1.6163552572834305e-05
288.0,-0.0007575822528451681
320.0,2.3854889150243253e-05
352.0,0.00015893849194981158
384.0,0.0002664313360583037
416.0,0.00022068613907322288
448.0,0.0002480568364262581
480.0,4.703317245002836e-05
512.0,-0.0004546548007056117
576.0,0.0005259189056232572
640.0,-4.457099930732511e-05
704.0,-8.199965668609366e-05
768.0,0.0002182783791795373
832.0,-0.00016036939632613212
896.0,0.0002980685094371438
960.0,5.5988464737311006e-05
1024.0,9.353728091809899e-05
1152.0,-0.0003579988842830062
1280.0,-0.0002796622575260699
1408.0,-0.000239102344494313
1536.0,-0.00018749227456282824
1664.0,0.00010919275518972427
1792.0,-0.0004046534304507077
1920.0,0.0004306981572881341
2048.0,9.561955812387168e-05
2304.0,-0.00023029735893942416
2560.0,4.705872561316937e-05
2816.0,-3.105707946815528e-05
3072.0,-0.00028008237131871283
3328.0,-0.00023470510495826602
3584.0,-0.00026503310073167086
3840.0,-0.000261697918176651
4096.0,-0.00037694600177928805
4608.0,-0.0001878427719930187
5120.0,0.00022884862846694887
5632.0,0.00027477345429360867
6144.0,-2.491343821020564e-06
6656.0,-0.0001386451767757535
7168.0,0.0006260743248276412
7680.0,0.0002197651338065043
8192.0,-0.0005145167233422399
9216.0,-0.00022973143495619297
10240.0,-0.00014088692842051387
11264.0,0.00015916916891001165
12288.0,0.0003686593845486641
13312.0,-0.0002880276588257402
14336.0,0.0003188846749253571
end
