version,3.0
numOfCh,1
type,point
parent_name,400-cuts
ch_type,1_1
kcount,1
numberNandB,1
brightnessNandB,1
carpet pos,0
pc,0
Time (ms),CH1 Auto-Correlation
1.0,0.016270963475108147
2.0,0.012975103221833706
3.0,0.010807101614773273
4.0,0.009038074873387814
5.0,0.007665915880352259
6.0,0.006675133015960455
7.0,0.00577470101416111
8.0,0.004946667701005936
9.0,0.004242809489369392
10.0,0.0037067451048642397
11.0,0.0032141287811100483
12.0,0.0029081201646476984
13.0,0.0026983104180544615
14.0,0.002474639331921935
15.0,0.0024308720603585243
16.0,0.0023456576745957136
18.0,0.0018548954976722598
20.0,0.001456551719456911
22.0,0.0011808653362095356
24.0,0.0010926505783572793
26.0,0.000935014511924237
28.0,0.0008802685770206153
30.0,0.0005820881342515349
32.0,0.0005255976575426757
36.0,0.0005175294354557991
40.0,0.00015970990352798253
44.0,0.00038308434886857867
48.0,0.0004142512916587293
52.0,1.1417594578233548e-05
56.0,-0.0001379583845846355
60.0,-0.00010066303366329521
64.0,-8.587033516960219e-05
72.0,-0.00039739071507938206
80.0,-0.00031833924003876746
88.0,-8.301784873765428e-06
96.0,-0.00035116117214784026
104.0,-0.0002665079082362354
112.0,-3.545912477420643e-05
120.0,0.00010990991722792387
128.0,5.707982199965045e-05
144.0,-0.0001024855300784111
160.0,0.00025254138745367527
176.0,0.0005429594311863184
192.0,0.0005584494792856276
208.0,0.000150955660501495
224.0,3.8634825614281e-05
240.0,-1.3909875633544289e-05
256.0,0.00025074041332118213
288.0,-6.159322947496548e-05
320.0,0.0002238004672108218
352.0,0.00019532670557964593
384.0,-0.0002959313860628754
416.0,0.00069759989855811
448.0,0.00041199466795660555
480.0,0.00019503616204019636
512.0,-0.000373637507436797
576.0,-0.00015524796617683023
640.0,-7.787372305756435e-05
704.0,8.172106754500419e-05
768.0,-1.3834951460012235e-05
832.0,7.601454126415774e-05
896.0,0.0002731688437052071
960.0,-0.00010053521691588685
1024.0,0.0004972935421392322
1152.0,7.254407591972267e-06
1280.0,0.0003415898245293647
1408.0,0.00020552938804030418
1536.0,-0.00021314440527930856
1664.0,-0.00013781308371108025
1792.0,5.880724347662181e-05
1920.0,-0.00010320786532247439
2048.0,-0.0002006213617278263
2304.0,2.3528607925982215e-05
2560.0,-2.8090193154639564e-05
2816.0,-5.831295493408106e-05
3072.0,2.091913302137982e-05
3328.0,-0.00021197754540480673
3584.0,1.8221293430542573e-05
3840.0,5.3526793635683134e-05
4096.0,-0.00011595841351663694
4608.0,-5.5927932407939807e-05
5120.0,-8.077100937953219e-05
5632.0,1.550641900394112e-05
6144.0,-0.00015514859114773571
6656.0,-0.0001972667087102309
7168.0,4.327346687205136e-05
7680.0,4.469398845685646e-05
8192.0,-0.00022012372210156173
9216.0,-9.445007162867114e-05
10240.0,7.661141717107967e-05
11264.0,0.0001569547166582197
12288.0,9.714084444567561e-05
13312.0,1.8876147805713117e-05
14336.0,-0.00012318218068685383
end
