version,3.0
numOfCh,1
type,point
parent_name,400-cuts
ch_type,1_1
kcount,1
numberNandB,1
brightnessNandB,1
carpet pos,0
pc,0
Time (ms),CH1 Auto-Correlation
1.0,0.01601230353116989
2.0,0.012788856402039528
3.0,0.01057934295386076
4.0,0.008963865227997303
5.0,0.007719763554632664
6.0,0.006757939700037241
7.0,0.00599669897928834
8.0,0.005299163516610861
9.0,0.004677854478359222
10.0,0.004221451934427023
11.0,0.003868159605190158
12.0,0.0035138048697263002
13.0,0.003282056888565421
14.0,0.003036856884136796
15.0,0.0028086344245821238
16.0,0.0026145316660404205
18.0,0.0021052344236522913
20.0,0.0016180349048227072
22.0,0.0011639782460406423
24.0,0.0008087825844995677
26.0,0.0005937187816016376
28.0,0.0004117006901651621
30.0,0.00032483774702996016
32.0,0.0002834573679137975
36.0,-5.117668479215354e-05
40.0,-0.0003332502965349704
44.0,-0.0005261594196781516
48.0,-0.0007884500664658844
52.0,-0.00034046839573420584
56.0,-0.00013540976215153933
60.0,-0.00016890802362468094
64.0,-0.00010605554416542873
72.0,-0.0003009633510373533
80.0,-0.0002797443012241274
88.0,6.247845885809511e-05
96.0,0.0001808240922400728
104.0,-0.00020588455663528293
112.0,-0.00027352754841558635
120.0,-0.00014104491856414825
128.0,-1.3713934094994329e-05
144.0,-0.00029074837220832705
160.0,6.591129022126552e-06
176.0,-0.0004609701572917402
192.0,-0.0006570880650542676
208.0,-6.840505375294015e-05
224.0,-0.00023046498245093971
240.0,-0.00023469528241548687
256.0,0.0002275113802170381
288.0,0.00032187800388783216
320.0,-0.00015837470709811896
352.0,-6.0480699175968766e-05
384.0,-0.00024225136439781636
416.0,-0.00047021330101415515
448.0,0.00020107637101318687
480.0,-7.381595787592232e-05
512.0,-0.0004438369651325047
576.0,-1.6722804502933286e-05
640.0,-0.00030431681079789996
704.0,-0.00016841506294440478
768.0,0.00039481109706684947
832.0,-0.00016880205657798797
896.0,0.0002905939472839236
960.0,-0.0005495995283126831
1024.0,-0.00015794351929798722
1152.0,-2.415056042082142e-05
1280.0,6.801576819270849e-05
1408.0,0.0001319994917139411
1536.0,-5.908642560825683e-05
1664.0,8.505423465976492e-05
1792.0,0.00011566637112991884
1920.0,-0.00010808450315380469
2048.0,-6.557933375006542e-05
2304.0,9.274084732169285e-05
2560.0,-7.066332909744233e-05
2816.0,7.272250513779e-05
3072.0,-0.00011953325883951038
3328.0,1.0220705917163286e-05
3584.0,4.957682540407404e-05
3840.0,-9.984225471271202e-05
4096.0,0.0001347739453194663
4608.0,-9.025894541991875e-05
5120.0,-1.656197855481878e-05
5632.0,9.759315435076132e-05
6144.0,-3.174749872414395e-05
6656.0,-8.705796062713489e-05
7168.0,7.835029828129336e-05
7680.0,2.6558722311165184e-05
8192.0,-8.379814244108275e-05
9216.0,5.8745150454342365e-05
10240.0,-0.00015075941337272525
11264.0,8.390490984311327e-05
12288.0,-0.00013364666665438563
13312.0,0.00011362400982761756
14336.0,-0.00013639395183417946
end
