version,3.0
numOfCh,1
type,point
parent_name,400-cuts
ch_type,1_1
kcount,1
numberNandB,1
brightnessNandB,1
carpet pos,0
pc,0
Time (ms),CH1 Auto-Correlation
1.0,0.016126234084367752
2.0,0.013144688680768013
3.0,0.011075343005359173
4.0,0.00955191720277071
5.0,0.008272151462733746
6.0,0.007203239481896162
7.0,0.0063849021680653095
8.0,0.005631358362734318
9.0,0.005012159235775471
10.0,0.0044786143116652966
11.0,0.0038964198902249336
12.0,0.003391852369531989
13.0,0.003005372593179345
14.0,0.002635110169649124
15.0,0.002334072021767497
16.0,0.0020873150788247585
18.0,0.0016489352565258741
20.0,0.0013893056893721223
22.0,0.0010952540906146169
24.0,0.0008826132398098707
26.0,0.0007666749879717827
28.0,0.0006648022099398077
30.0,0.0006620176136493683
32.0,0.0006319746025837958
36.0,0.00030982185853645205
40.0,-4.4419444748200476e-05
44.0,-0.0002830199955496937
48.0,-0.00011872277536895126
52.0,0.0001975037157535553
56.0,0.0005899090319871902
60.0,0.0008142368169501424
64.0,0.0008469249587506056
72.0,0.0007506650872528553
80.0,2.361937913519796e-05
88.0,-0.0001999983942368999
96.0,-0.000480051152408123
104.0,-0.0004772047104779631
112.0,-0.0005128260818310082
120.0,-0.000383884587790817
128.0,-0.00043720475514419377
144.0,-8.617930870968848e-05
160.0,-0.0002605268673505634
176.0,-0.0002500021073501557
192.0,3.8307371141854674e-05
208.0,4.7471992729697376e-05
224.0,-0.0002306876704096794
240.0,-0.0004806125070899725
256.0,-0.0001480697828810662
288.0,0.00027910678181797266
320.0,-1.5844399968045764e-05
352.0,-0.0002817610511556268
384.0,0.00012815187801606953
416.0,-0.0005390839651226997
448.0,-0.00035898617352358997
480.0,0.0001639189722482115
512.0,5.816795601276681e-05
576.0,9.534713171888143e-06
640.0,-0.00019573095778468996
704.0,0.00034630074515007436
768.0,9.74727445282042e-05
832.0,-0.0002697601157706231
896.0,-0.00039137015119194984
960.0,-0.00014512220514006913
1024.0,-0.00010796491551445797
1152.0,-0.00037456306745298207
1280.0,0.0004374792333692312
1408.0,1.1573331903491635e-05
1536.0,6.372900679707527e-05
1664.0,-0.00015347113367170095
1792.0,0.00019889549002982676
1920.0,-0.0002758397604338825
2048.0,-6.476435373770073e-05
2304.0,-6.632741133216769e-05
2560.0,2.0812150978599675e-05
2816.0,-8.145520405378193e-05
3072.0,0.00024103735631797463
3328.0,-0.0002831463934853673
3584.0,8.645303023513407e-05
3840.0,-3.9731494325678796e-05
4096.0,-3.4676791983656585e-05
4608.0,7.20270472811535e-05
5120.0,-8.972359501058236e-05
5632.0,5.978450644761324e-05
6144.0,1.7390477296430618e-05
6656.0,-0.00011293829447822645
7168.0,-6.778602983104065e-05
7680.0,0.00010603234841255471
8192.0,-9.681738447397947e-05
9216.0,8.181735029211268e-05
10240.0,-7.826799264876172e-05
11264.0,-3.5626464523375034e-05
12288.0,-2.617092468426563e-05
13312.0,6.047444912837818e-05
14336.0,0.00012065484770573676
end
