version,3.0
numOfCh,1
type,point
parent_name,400-cuts
ch_type,1_1
kcount,1
numberNandB,1
brightnessNandB,1
carpet pos,0
pc,0
Time (ms),CH1 Auto-Correlation
1.0,0.024194220080971718
2.0,0.019087763503193855
3.0,0.01566348224878311
4.0,0.013090139254927635
5.0,0.011178502812981606
6.0,0.009564295411109924
7.0,0.008404048159718513
8.0,0.007484384812414646
9.0,0.00659326883032918
10.0,0.005773565731942654
11.0,0.0051934244111180305
12.0,0.004810420796275139
13.0,0.004349523223936558
14.0,0.004054302349686623
15.0,0.00378678971901536
16.0,0.003389340126886964
18.0,0.0024468773044645786
20.0,0.001592267770320177
22.0,0.0012051903177052736
24.0,0.0010730177164077759
26.0,0.000912326795514673
28.0,0.0009559325408190489
30.0,0.0011871288297697902
32.0,0.0010436316952109337
36.0,0.0006954799755476415
40.0,0.0006632987060584128
44.0,0.0010419401805847883
48.0,0.0005607210332527757
52.0,0.00017484783893451095
56.0,0.0003374373191036284
60.0,0.00018080032896250486
64.0,0.00020192381634842604
72.0,6.2103845266392455e-06
80.0,0.0002680918260011822
88.0,0.001097931177355349
96.0,0.0010454972507432103
104.0,0.0005987026379443705
112.0,0.00028878386365249753
120.0,0.00011908667511306703
128.0,0.0004332888056524098
144.0,0.0004270851204637438
160.0,0.0009656858164817095
176.0,0.0011236590798944235
192.0,0.0009578895987942815
208.0,0.0004342895408626646
224.0,4.9022099119611084e-05
240.0,8.141518628690392e-05
256.0,-0.0006594019941985607
288.0,9.59182289079763e-05
320.0,0.0007208632305264473
352.0,0.000262317102169618
384.0,0.00029865760006941855
416.0,4.4215441448614e-05
448.0,0.0004181712574791163
480.0,-1.9841418179566972e-05
512.0,0.00024027295876294374
576.0,-0.00010333038517273962
640.0,0.000403020327212289
704.0,0.00033429000177420676
768.0,0.0007293637609109282
832.0,0.00011385627294657752
896.0,-0.0005441495450213552
960.0,9.537677397020161e-05
1024.0,-0.000325705244904384
1152.0,5.6779710575938225e-05
1280.0,8.393306052312255e-05
1408.0,9.263979154638946e-05
1536.0,-9.237183803634252e-06
1664.0,8.60509171616286e-05
1792.0,-0.00035744119668379426
1920.0,7.465010276064277e-05
2048.0,0.0005019433447159827
2304.0,0.00024332781322300434
2560.0,-0.00016467100067529827
2816.0,0.00010216423106612638
3072.0,3.856776311295107e-05
3328.0,0.0002963373262900859
3584.0,0.00045709440018981695
3840.0,1.4258333976613358e-05
4096.0,2.6798365070135333e-05
4608.0,-0.00015088504005689174
5120.0,-0.00020683988987002522
5632.0,0.00031943057547323406
6144.0,7.167806188590475e-07
6656.0,-6.375550583470613e-05
7168.0,-0.00021901358559262007
7680.0,6.36860859231092e-05
8192.0,-0.00011513478239066899
9216.0,-0.0001366937649436295
10240.0,-0.0002221867471234873
11264.0,-0.0006225001416169107
12288.0,-0.00036656358861364424
13312.0,-0.00031662662513554096
14336.0,-0.00019602997053880244
end
