version,3.0
numOfCh,1
type,point
parent_name,400-cuts
ch_type,1_1
kcount,1
numberNandB,1
brightnessNandB,1
carpet pos,0
pc,0
Time (ms),CH1 Auto-Correlation
1.0,0.016886355355381966
2.0,0.013607022352516651
3.0,0.011216438375413418
4.0,0.009518194943666458
5.0,0.008178929798305035
6.0,0.007239904720336199
7.0,0.006491662003099918
8.0,0.005905698053538799
9.0,0.005361390300095081
10.0,0.004882318899035454
11.0,0.004372184164822102
12.0,0.003907191567122936
13.0,0.0034847098868340254
14.0,0.003193898592144251
15.0,0.0028306206222623587
16.0,0.0025061490014195442
18.0,0.002329885261133313
20.0,0.0020700793247669935
22.0,0.001959867076948285
24.0,0.0017378863412886858
26.0,0.0015179493930190802
28.0,0.0014483954291790724
30.0,0.0012961842585355043
32.0,0.0010842792689800262
36.0,0.0008633396355435252
40.0,0.0003690711746457964
44.0,0.00018835066293831915
48.0,5.696854350389913e-05
52.0,0.00020910636521875858
56.0,-0.00012372533092275262
60.0,-0.00018349163292441517
64.0,-0.00020151240460108966
72.0,-0.00010201246914220974
80.0,-0.00020859176584053785
88.0,-0.0006407086621038616
96.0,-0.0004943398525938392
104.0,-8.727861131774262e-05
112.0,-0.00012246903497725725
120.0,-0.00024310246226377785
128.0,-0.00011747210373869166
144.0,-0.00048751523718237877
160.0,-0.0009113491396419704
176.0,-0.0006074276752769947
192.0,-0.0001930724101839587
208.0,-0.0001662129652686417
224.0,-0.0003081361937802285
240.0,-0.0004233315121382475
256.0,-0.0003378726541996002
288.0,-0.0006919183069840074
320.0,-0.0003619137278292328
352.0,-0.00016219484678003937
384.0,0.0003006054612342268
416.0,0.00014354364247992635
448.0,0.0001346758654108271
480.0,-0.00015612744027748704
512.0,-4.028682815260254e-05
576.0,-3.19968894473277e-05
640.0,0.00015217994223348796
704.0,-0.0003856509574688971
768.0,-0.00023661140585318208
832.0,-9.917272109305486e-05
896.0,8.53886449476704e-05
960.0,-3.0181048714439385e-05
1024.0,0.00012888874334748834
1152.0,-2.0628855054383166e-05
1280.0,0.00010526206460781395
1408.0,3.315736830700189e-05
1536.0,-0.000304762099403888
1664.0,6.230058352230117e-05
1792.0,8.468745363643393e-05
1920.0,0.00018944554904010147
2048.0,-3.614387605921365e-05
2304.0,-2.406444400548935e-05
2560.0,-8.477981464238837e-05
2816.0,0.0001626909797778353
3072.0,2.1967558495816775e-05
3328.0,-0.00011182321759406477
3584.0,9.50030516833067e-06
3840.0,8.275055733975023e-06
4096.0,-7.908530096756294e-05
4608.0,8.437119686277583e-05
5120.0,-2.2476659069070593e-05
5632.0,7.155411003623158e-05
6144.0,-4.434143556864001e-05
6656.0,-3.190558709320612e-05
7168.0,8.264951611636207e-05
7680.0,-1.6223773855017498e-05
8192.0,-9.744679118739441e-05
9216.0,3.839197233901359e-05
10240.0,5.466153652378125e-06
11264.0,-5.293436333886348e-05
12288.0,3.248738357797265e-05
13312.0,-4.0966886444948614e-05
14336.0,-4.466287646209821e-05
end
