version,3.0
numOfCh,1
type,point
parent_name,400-cuts
ch_type,1_1
kcount,1
numberNandB,1
brightnessNandB,1
carpet pos,0
pc,0
Time (ms),CH1 Auto-Correlation
1.0,0.016114499419927597
2.0,0.012961103580892086
3.0,0.010785788297653198
4.0,0.009086411446332932
5.0,0.007681598886847496
6.0,0.006593282800167799
7.0,0.00583249144256115
8.0,0.005157115403562784
9.0,0.004678712226450443
10.0,0.004245912190526724
11.0,0.003907268866896629
12.0,0.003581073833629489
13.0,0.0033376652281731367
14.0,0.002945274580270052
15.0,0.002583122346550226
16.0,0.002313984092324972
18.0,0.0018036956898868084
20.0,0.0015274285105988383
22.0,0.001316273002885282
24.0,0.0012423379812389612
26.0,0.0011231977259740233
28.0,0.0010528079001232982
30.0,0.0009443385642953217
32.0,0.00087238714331761
36.0,0.0008521307609044015
40.0,0.0007523885578848422
44.0,0.0007748262723907828
48.0,0.0007492650765925646
52.0,0.0007740244618616998
56.0,0.0008383147069253027
60.0,0.0007758275605738163
64.0,0.0005404250114224851
72.0,0.0006413423107005656
80.0,0.00041881410288624465
88.0,6.286953430389985e-05
96.0,-0.0001233638176927343
104.0,4.915641693514772e-05
112.0,0.0004871519922744483
120.0,0.0008750634151510894
128.0,0.0008881355752237141
144.0,0.0008663878543302417
160.0,0.0002959047560580075
176.0,-0.00012027800403302535
192.0,-4.8002839321270585e-05
208.0,-0.00046024605398997664
224.0,-0.00041898770723491907
240.0,-0.0001397745218127966
256.0,0.0006938922451809049
288.0,0.000190221777302213
320.0,-0.00023260194575414062
352.0,-0.00010228059545625001
384.0,0.0002605826302897185
416.0,0.00017655137344263494
448.0,0.00016056225285865366
480.0,4.140742930758279e-06
512.0,7.847575034247711e-05
576.0,3.78847835236229e-05
640.0,-0.0002711591077968478
704.0,2.7683116059051827e-05
768.0,-2.3157281248131767e-05
832.0,0.0005394803592935205
896.0,0.0001896003377623856
960.0,0.00025697576347738504
1024.0,-0.00011016582720912993
1152.0,-6.520717761304695e-06
1280.0,0.00011624002218013629
1408.0,-0.0005430163000710309
1536.0,-0.0005255821743048728
1664.0,-0.00011699099559336901
1792.0,-0.00024366730940528214
1920.0,-0.0003424657043069601
2048.0,0.00017704939818941057
2304.0,-0.00021474104141816497
2560.0,-0.000341270788339898
2816.0,-0.00012063759641023353
3072.0,3.49629954143893e-05
3328.0,5.200204032007605e-05
3584.0,-0.00046331738121807575
3840.0,-0.00021373304480221123
4096.0,0.00028874428244307637
4608.0,1.4691152500745375e-05
5120.0,0.0005358951166272163
5632.0,-0.00011514126526890323
6144.0,0.00023330695694312453
6656.0,-0.00025609234580770135
7168.0,0.00014152521907817572
7680.0,-0.00041310343658551574
8192.0,-4.80364979011938e-05
9216.0,0.00012293389590922743
10240.0,5.895050344406627e-05
11264.0,-0.0001012767170323059
12288.0,3.496221688692458e-05
13312.0,5.7505581935402006e-05
14336.0,-6.289380689850077e-05
end
