version,3.0
numOfCh,1
type,point
parent_name,400-cuts
ch_type,1_1
kcount,1
numberNandB,1
brightnessNandB,1
carpet pos,0
pc,0
Time (ms),CH1 Auto-Correlation
1.0,0.015461391769349575
2.0,0.012494848109781742
3.0,0.010432309471070766
4.0,0.008839424699544907
5.0,0.007631274871528149
6.0,0.006500633899122477
7.0,0.005657637026160955
8.0,0.0050123599357903
9.0,0.004465705715119839
10.0,0.003886854974552989
11.0,0.003435233375057578
12.0,0.0030249350238591433
13.0,0.002707546576857567
14.0,0.0024101121816784143
15.0,0.002104835817590356
16.0,0.0018241271609440446
18.0,0.0014235663693398237
20.0,0.0011371569707989693
22.0,0.0009377006208524108
24.0,0.000696989824064076
26.0,0.0004913476877845824
28.0,0.00022180481755640358
30.0,0.0002728310355450958
32.0,0.00024986459175124764
36.0,0.00025993582676164806
40.0,0.0002814163744915277
44.0,9.952930122381076e-05
48.0,-0.00019929166592191905
52.0,-0.0002771504514385015
56.0,-0.0001390253601130098
60.0,-0.0004558931977953762
64.0,-0.00016467331442981958
72.0,1.169808365375502e-05
80.0,0.00012850989878643304
88.0,-0.00022643567353952676
96.0,-0.0004813859413843602
104.0,-0.0005132834776304662
112.0,-0.0003691861347761005
120.0,-0.00010774408292490989
128.0,1.5415755115100183e-05
144.0,0.0004171320179011673
160.0,0.00011773086589528248
176.0,0.0001280339201912284
192.0,0.00030945445178076625
208.0,-0.00010289131751051173
224.0,-3.637063127825968e-05
240.0,0.0006287559517659247
256.0,0.0008611449738964438
288.0,-0.00019916033488698304
320.0,-0.0003552428097464144
352.0,-0.00040330522460862994
384.0,-3.6174133128952235e-05
416.0,0.0006523037445731461
448.0,0.000530153454747051
480.0,1.486070573264442e-06
512.0,-0.00019252645142842084
576.0,-0.0001098667926271446
640.0,-6.712561298627406e-05
704.0,1.8665283278096467e-05
768.0,-0.0002676529693417251
832.0,-7.666593592148274e-05
896.0,5.079061884316616e-05
960.0,-0.00013691130152437836
1024.0,3.25789528687892e-06
1152.0,0.0001371201651636511
1280.0,0.00025345393805764616
1408.0,6.591324199689552e-05
1536.0,-8.997091072160401e-07
1664.0,0.00015035732940305024
1792.0,0.0001214964795508422
1920.0,-8.096848614513874e-05
2048.0,4.8044283175840974e-05
2304.0,-0.00012062097812304273
2560.0,2.2724812879459932e-05
2816.0,-0.00022877917217556387
3072.0,5.8159577747574076e-05
3328.0,-6.036904960637912e-05
3584.0,5.399648216553032e-06
3840.0,6.802125426474959e-05
4096.0,-4.118562173971441e-06
4608.0,-0.00010746899351943284
5120.0,-9.331396540801506e-06
5632.0,1.1828104106825776e-05
6144.0,-0.0001354785927105695
6656.0,2.156722439394798e-05
7168.0,5.80120031372644e-05
7680.0,4.22811099269893e-05
8192.0,-1.5978886949596927e-05
9216.0,1.4528067367791664e-05
10240.0,-6.451551598729566e-05
11264.0,-3.932104664272629e-05
12288.0,-0.00014103378634899855
13312.0,-4.59682778455317e-05
14336.0,-7.846985681680962e-06
end
