version,3.0
numOfCh,1
type,point
parent_name,400-cuts
ch_type,1_1
kcount,1
numberNandB,1
brightnessNandB,1
carpet pos,0
pc,0
Time (ms),CH1 Auto-Correlation
1.0,0.014882880263030529
2.0,0.011719917878508568
3.0,0.009527224116027355
4.0,0.008134758099913597
5.0,0.006894481368362904
6.0,0.005898586008697748
7.0,0.0051336875185370445
8.0,0.00440614391118288
9.0,0.003714607562869787
10.0,0.003152565099298954
11.0,0.00273812934756279
12.0,0.002357922261580825
13.0,0.002105488209053874
14.0,0.0018661313224583864
15.0,0.0016897560562938452
16.0,0.0016068972181528807
18.0,0.0012686296831816435
20.0,0.0009149352554231882
22.0,0.0006282287067733705
24.0,0.0005905584548600018
26.0,0.0006295354105532169
28.0,0.0006910045049153268
30.0,0.0007697041728533804
32.0,0.0005156109691597521
36.0,0.0003239940560888499
40.0,0.0002477022644598037
44.0,0.00035056189517490566
48.0,0.0003594959853217006
52.0,0.0004984458792023361
56.0,0.0005750211421400309
60.0,0.000438108661910519
64.0,2.5206643840647303e-05
72.0,-0.0003613055741880089
80.0,-0.0004752380773425102
88.0,-1.4563054719474167e-05
96.0,0.0002883400593418628
104.0,0.00032751518301665783
112.0,1.9861045075231232e-05
120.0,0.00011641614401014522
128.0,-7.235247176140547e-05
144.0,-0.0004937222111038864
160.0,-0.00015767586592119187
176.0,0.0003563638310879469
192.0,0.0002981254074256867
208.0,0.0001807936205295846
224.0,8.551363862352446e-05
240.0,0.00028236681828275323
256.0,-0.00018281700613442808
288.0,-0.00013281451538205147
320.0,-0.00018065133190248162
352.0,0.00018656454631127417
384.0,-0.00020361236238386482
416.0,6.99029624229297e-05
448.0,0.00025742303114384413
480.0,0.0003961087786592543
512.0,0.00021303385437931865
576.0,-0.00012150312977610156
640.0,4.3687457946361974e-05
704.0,0.00022877822630107403
768.0,-6.822525028837845e-05
832.0,-0.00010331358498660848
896.0,0.00021590679534710944
960.0,0.00016369373770430684
1024.0,-0.0002629808441270143
1152.0,-0.00014793734590057284
1280.0,-0.00014607387129217386
1408.0,0.00017446413403376937
1536.0,-1.4818778254266363e-05
1664.0,-7.556166383437812e-05
1792.0,2.9758637538179755e-05
1920.0,8.261655602836981e-05
2048.0,0.00011506865848787129
2304.0,5.154499740456231e-05
2560.0,2.1368221496231854e-05
2816.0,-0.00015574398275930434
3072.0,-8.924464782467112e-05
3328.0,6.620545173063874e-05
3584.0,-0.00022135829203762114
3840.0,-6.249178113648668e-05
4096.0,-0.00023553539358545095
4608.0,-6.773584755137563e-05
5120.0,-2.6088218874065205e-05
5632.0,-4.3492891563801095e-05
6144.0,8.583182534493972e-06
6656.0,3.737675797310658e-05
7168.0,3.7314530345611274e-05
7680.0,0.00018049076606985182
8192.0,-9.192025027005002e-05
9216.0,0.0001931687002070248
10240.0,-0.0001973165199160576
11264.0,-6.814987864345312e-05
12288.0,0.00023879842774476856
13312.0,-0.0003934803535230458
14336.0,0.0004802023759111762
end
