version,3.0
numOfCh,1
type,point
parent_name,400-cuts
ch_type,1_1
kcount,1
numberNandB,1
brightnessNandB,1
carpet pos,0
pc,0
Time (ms),CH1 Auto-Correlation
1.0,0.026547668501734734
2.0,0.021332088857889175
3.0,0.01766047067940235
4.0,0.014904866926372051
5.0,0.012776955962181091
6.0,0.01118380669504404
7.0,0.009923589415848255
8.0,0.008732086978852749
9.0,0.007746363058686256
10.0,0.007017279975116253
11.0,0.006681082304567099
12.0,0.006217820104211569
13.0,0.005701846908777952
14.0,0.005174710880964994
15.0,0.0047759986482560635
16.0,0.004334884230047464
18.0,0.0034816786646842957
20.0,0.002913440577685833
22.0,0.0027460502460598946
24.0,0.002747461898252368
26.0,0.0026216732803732157
28.0,0.0023607464972883463
30.0,0.0021066530607640743
32.0,0.0020284431520849466
36.0,0.001322303549386561
40.0,0.0013322575250640512
44.0,0.0015169053804129362
48.0,0.0012020361609756947
52.0,0.0011129301274195313
56.0,0.0008281758637167513
60.0,0.0007996326312422752
64.0,0.0004154510097578168
72.0,0.0001245806342922151
80.0,0.0002103365259245038
88.0,-0.00033595968852750957
96.0,-0.00010432799899717793
104.0,-8.974073716672137e-05
112.0,0.00031382503220811486
120.0,0.0002857767976820469
128.0,0.001013503409922123
144.0,0.000357038778020069
160.0,0.0004779685696121305
176.0,0.0002901270054280758
192.0,0.0006304641719907522
208.0,0.00025501707568764687
224.0,0.00040929875103756785
240.0,0.0009217474143952131
256.0,0.0008278012974187732
288.0,0.00042882704292424023
320.0,0.0002019779640249908
352.0,0.000520656700246036
384.0,0.0004992574104107916
416.0,0.0005949517362751067
448.0,0.00019994071044493467
480.0,0.0006706896238029003
512.0,-0.00014004208787810057
576.0,-8.90051742317155e-05
640.0,0.0006733261398039758
704.0,0.0002347776317037642
768.0,-0.00031048181699588895
832.0,-0.0002670786634553224
896.0,-0.00029687280766665936
960.0,0.00025891439872793853
1024.0,-0.0003677054191939533
1152.0,-0.00024195006699301302
1280.0,-0.000652977847494185
1408.0,0.0006133088609203696
1536.0,-0.00044658363913185894
1664.0,0.00019579390936996788
1792.0,0.00020833186863455921
1920.0,-0.0002491897903382778
2048.0,0.00018264606478624046
2304.0,5.873887857887894e-05
2560.0,0.0002711105043999851
2816.0,-0.0001591664185980335
3072.0,-0.0003869604261126369
3328.0,-0.0005157888517715037
3584.0,-0.00023515935754403472
3840.0,-0.0003240496153011918
4096.0,7.107201963663101e-05
4608.0,0.00029428035486489534
5120.0,4.065491521032527e-05
5632.0,-0.0002937129174824804
6144.0,-3.9548314816784114e-05
6656.0,-1.7177646441268735e-05
7168.0,-0.000227709038881585
7680.0,-0.0003597894392441958
8192.0,-0.00016382592730224133
9216.0,0.00016679552209097892
10240.0,-7.197756349341944e-05
11264.0,0.0004355274431873113
12288.0,-0.00011979587725363672
13312.0,0.0002726711391005665
14336.0,-0.0004690184141509235
end
