version,3.0
numOfCh,1
type,point
parent_name,400-cuts
ch_type,1_1
kcount,1
numberNandB,1
brightnessNandB,1
carpet pos,0
pc,0
Time (ms),CH1 Auto-Correlation
1.0,0.025842877104878426
2.0,0.020578786730766296
3.0,0.01693108305335045
4.0,0.01456930860877037
5.0,0.012608958408236504
6.0,0.011031704023480415
7.0,0.009802132844924927
8.0,0.008456234820187092
9.0,0.007468550466001034
10.0,0.006509012542665005
11.0,0.005981347989290953
12.0,0.005520612932741642
13.0,0.005259593483060598
14.0,0.004743048921227455
15.0,0.00432179169729352
16.0,0.00400799885392189
18.0,0.0037030628882348537
20.0,0.0037994650192558765
22.0,0.003591983113437891
24.0,0.00351390871219337
26.0,0.003263679565861821
28.0,0.00317248422652483
30.0,0.0030222286004573107
32.0,0.00274110259488225
36.0,0.002395053394138813
40.0,0.001954554347321391
44.0,0.0019919383339583874
48.0,0.002101395046338439
52.0,0.0014512591296806931
56.0,0.0009284632978960872
60.0,0.0004953885218128562
64.0,0.0003881748707499355
72.0,0.00041384572978131473
80.0,0.00022976586478762329
88.0,-1.1637332136160694e-05
96.0,-0.0003960522881243378
104.0,-0.0005868133157491684
112.0,-0.0006685603875666857
120.0,-4.5913195208413526e-05
128.0,-0.0004198428650852293
144.0,-4.712718691735063e-06
160.0,-0.0009579199249856174
176.0,-0.0007437269669026136
192.0,-0.00045465456787496805
208.0,-0.0008586591575294733
224.0,-2.7154272174811922e-05
240.0,9.449179196963087e-05
256.0,-0.00031522507197223604
288.0,0.0006580285844393075
320.0,0.0004315527912694961
352.0,0.001043185475282371
384.0,1.8924576579593122e-05
416.0,0.00018231714784633368
448.0,-0.00020817946642637253
480.0,0.000587485556025058
512.0,0.0005873878835700452
576.0,-0.0006595012964680791
640.0,-0.000284001202089712
704.0,-0.0001994723716052249
768.0,0.00027833509375341237
832.0,0.0003830504429060966
896.0,0.00013663542631547898
960.0,-5.502661952050403e-05
1024.0,-5.021011475037085e-06
1152.0,0.0004547483113128692
1280.0,-0.00039081290015019476
1408.0,0.0008144667954184115
1536.0,-7.055186870275065e-05
1664.0,-0.00011463800183264539
1792.0,0.00017295863653998822
1920.0,0.0002550361678004265
2048.0,-3.6610035749617964e-05
2304.0,-0.00015046028420329094
2560.0,-3.5580101211962756e-06
2816.0,-0.0002708778192754835
3072.0,0.0003773373900912702
3328.0,0.0001655480737099424
3584.0,-0.00037572134169749916
3840.0,-0.0002282677887706086
4096.0,-4.846820229431614e-05
4608.0,5.665692879119888e-05
5120.0,-0.00015626031381543726
5632.0,-0.0005623440956696868
6144.0,0.00010409145033918321
6656.0,-0.0003568948886822909
7168.0,-0.0006684261024929583
7680.0,-0.00011599557910813019
8192.0,0.0002638493024278432
9216.0,-0.00015740477829240263
10240.0,0.00033795629860833287
11264.0,-0.00024254950403701514
12288.0,0.0003975541330873966
13312.0,-0.00017895571363624185
14336.0,0.0004479560593608767
end
