version,3.0
numOfCh,1
type,point
parent_name,400-cuts
ch_type,1_1
kcount,1
numberNandB,1
brightnessNandB,1
carpet pos,0
pc,0
Time (ms),CH1 Auto-Correlation
1.0,0.025002866983413696
2.0,0.01996546797454357
3.0,0.016522420570254326
4.0,0.014077610336244106
5.0,0.012083143927156925
6.0,0.010613386519253254
7.0,0.009389286860823631
8.0,0.008276260457932949
9.0,0.007523681502789259
10.0,0.0067054396495223045
11.0,0.005997912958264351
12.0,0.0053906990215182304
13.0,0.0049806260503828526
14.0,0.004596654791384935
15.0,0.004319559317082167
16.0,0.004372443538159132
18.0,0.0041625299490988255
20.0,0.003810941707342863
22.0,0.003251678077504039
24.0,0.0029385024681687355
26.0,0.0027013272047042847
28.0,0.002520245034247637
30.0,0.0022920581977814436
32.0,0.002146028680726886
36.0,0.0017498284578323364
40.0,0.0012902732705697417
44.0,0.0011864942498505116
48.0,0.000821167544927448
52.0,0.0006606426904909313
56.0,0.00042533883242867887
60.0,0.00013701451825909317
64.0,-0.00032323147752322257
72.0,-0.0004810972313862294
80.0,-0.00044162580161355436
88.0,-0.0007501749787479639
96.0,-0.0008316964958794415
104.0,-0.0005740585620515049
112.0,0.00010505696991458535
120.0,0.00011298784374957904
128.0,0.0002890590112656355
144.0,-0.0003088151861447841
160.0,-3.55090742232278e-06
176.0,0.0003247153654228896
192.0,0.0004680715501308441
208.0,0.00015977794828359038
224.0,0.0005328339175321162
240.0,0.00016632580081932247
256.0,1.1648253348539583e-05
288.0,-0.00023278985463548452
320.0,-6.832870712969452e-05
352.0,-0.000391413108445704
384.0,-8.070539479376748e-05
416.0,-0.00012194598821224645
448.0,0.00036198669113218784
480.0,0.0007369098602794111
512.0,-0.00042118222336284816
576.0,-0.00018151830590795726
640.0,-0.00016840141324792057
704.0,0.0006568931858055294
768.0,0.0008461588877253234
832.0,-0.0003479640872683376
896.0,0.00035393325379118323
960.0,-9.452809172216803e-05
1024.0,0.00017503739218227565
1152.0,-0.00034851787495426834
1280.0,-0.00012435165990609676
1408.0,0.0005612191162072122
1536.0,1.3975422916701064e-05
1664.0,0.00010535053297644481
1792.0,7.793083932483569e-05
1920.0,-0.0007160361274145544
2048.0,-6.443608435802162e-05
2304.0,0.0002164332545362413
2560.0,2.5242170522687957e-05
2816.0,0.00021479568385984749
3072.0,3.7280344258761033e-05
3328.0,-5.265206709736958e-05
3584.0,-0.0002394728799117729
3840.0,-0.00020883722754660994
4096.0,0.00011198838910786435
4608.0,-0.00041196210077032447
5120.0,-6.952041439944878e-05
5632.0,-0.00011476962390588596
6144.0,-0.00015724591503385454
6656.0,-0.00031570487772114575
7168.0,-0.0003754320496227592
7680.0,-8.790514402789995e-05
8192.0,0.00015826092567294836
9216.0,1.4156510133034317e-06
10240.0,0.00021003030997235328
11264.0,0.00016564098768867552
12288.0,0.00022653551422990859
13312.0,-4.7301520680775866e-05
14336.0,-0.0002628133224789053
end
