version,3.0
numOfCh,1
type,point
parent_name,400-cuts
ch_type,1_1
kcount,1
numberNandB,1
brightnessNandB,1
carpet pos,0
pc,0
Time (ms),CH1 Auto-Correlation
1.0,0.01694457046687603
2.0,0.013709749095141888
3.0,0.01140502281486988
4.0,0.009634856134653091
5.0,0.008104601874947548
6.0,0.0068939076736569405
7.0,0.0059678819961845875
8.0,0.005361879710108042
9.0,0.004736991599202156
10.0,0.004271703772246838
11.0,0.003831832902505994
12.0,0.0035251257941126823
13.0,0.0032961817923933268
14.0,0.0029226269107311964
15.0,0.002688368782401085
16.0,0.0026036477647721767
18.0,0.002318890066817403
20.0,0.002088795183226466
22.0,0.0018646182725206017
24.0,0.0015897556440904737
26.0,0.0013339257566258311
28.0,0.0013595279306173325
30.0,0.0013879804173484445
32.0,0.0013383675832301378
36.0,0.0008380798390135169
40.0,9.98101822915487e-05
44.0,-0.00020611120271496475
48.0,-0.00021480517170857638
52.0,1.5153447748161852e-05
56.0,0.0002399686345597729
60.0,0.00024482057779096067
64.0,4.5590928493766114e-05
72.0,-0.00020935747306793928
80.0,0.00015576624718960375
88.0,0.00033066541072912514
96.0,0.0002291007258463651
104.0,0.0002249445824418217
112.0,0.0003971680998802185
120.0,0.00047311425441876054
128.0,0.00018773306510411203
144.0,-0.00038658056291751564
160.0,-0.00039518694393336773
176.0,-0.0005319307674653828
192.0,-0.0006893830723129213
208.0,-0.00031430309172719717
224.0,0.0001551870518596843
240.0,0.00042049435433000326
256.0,0.0003852034860756248
288.0,-0.00043761212145909667
320.0,1.3864399079466239e-05
352.0,-0.0002849746379069984
384.0,-0.00039147798088379204
416.0,0.00011715886648744345
448.0,-0.0003535597934387624
480.0,0.00017954730719793588
512.0,0.00012451724614948034
576.0,-0.00019639995298348367
640.0,0.00034614602918736637
704.0,0.00018814853683579713
768.0,0.00020466606656555086
832.0,-0.00027438823599368334
896.0,-0.0003256346972193569
960.0,-4.053330485476181e-05
1024.0,-7.360304152825847e-06
1152.0,-1.7824297174229287e-05
1280.0,0.00019202157272957265
1408.0,5.865258208359592e-05
1536.0,8.561455615563318e-05
1664.0,-0.00014905992429703474
1792.0,0.00024615449365228415
1920.0,-0.00018763102707453072
2048.0,-0.00031182231032289565
2304.0,2.042208143393509e-05
2560.0,-2.6815756427822635e-05
2816.0,-0.0001788908411981538
3072.0,-5.120182322571054e-05
3328.0,-8.877311483956873e-05
3584.0,-0.00022106444521341473
3840.0,-4.032380456919782e-05
4096.0,-1.4563186596205924e-05
4608.0,7.986444688867778e-05
5120.0,-2.7448710170574486e-05
5632.0,8.226087811635807e-05
6144.0,2.5567434931872413e-05
6656.0,5.44127105968073e-05
7168.0,-3.873559762723744e-05
7680.0,-1.2118784070480615e-05
8192.0,5.358751877793111e-05
9216.0,-8.318737673107535e-05
10240.0,-8.0112848081626e-05
11264.0,3.415107858018018e-05
12288.0,5.6198554375441745e-05
13312.0,1.1612880371103529e-05
14336.0,-3.143861022181227e-06
end
