version,3.0
numOfCh,1
type,point
parent_name,400-cuts
ch_type,1_1
kcount,1
numberNandB,1
brightnessNandB,1
carpet pos,0
pc,0
Time (ms),CH1 Auto-Correlation
1.0,0.015724994242191315
2.0,0.012478625401854515
3.0,0.010203467682003975
4.0,0.008668988011777401
5.0,0.007438645698130131
6.0,0.006542471703141928
7.0,0.005769589450210333
8.0,0.005082646384835243
9.0,0.0045680152252316475
10.0,0.004029855597764254
11.0,0.003621032228693366
12.0,0.003348869038745761
13.0,0.0030748513527214527
14.0,0.0027986408676952124
15.0,0.002620160346850753
16.0,0.002444524085149169
18.0,0.002030707197263837
20.0,0.0017610194627195597
22.0,0.0013535856269299984
24.0,0.0010944210225716233
26.0,0.0008801610092632473
28.0,0.0007594567723572254
30.0,0.0006528044468723238
32.0,0.0004893112927675247
36.0,0.0002729921252466738
40.0,0.00013677145761903375
44.0,-4.548854485619813e-05
48.0,-0.00015186540258582681
52.0,-0.0003443370806053281
56.0,-0.00036698352778330445
60.0,-0.0001322596363024786
64.0,-0.00010003865463659167
72.0,-8.224928023992106e-05
80.0,6.435958493966609e-05
88.0,0.00013057798787485808
96.0,-0.00018028548220172524
104.0,-0.0003499648009892553
112.0,-0.0003049854130949825
120.0,-0.0004491551371756941
128.0,-0.00016490413690917194
144.0,0.0002919722755905241
160.0,0.0004886683309450746
176.0,-0.0002253733982797712
192.0,-0.00021949758229311556
208.0,-7.305125473067164e-05
224.0,-0.0003027310885954648
240.0,-0.0002892887277994305
256.0,-0.00027617538580670953
288.0,0.00018878831178881228
320.0,0.00020733496057800949
352.0,0.00021295204351190478
384.0,-0.000122394529171288
416.0,3.0026905733393505e-05
448.0,-5.974506620987086e-06
480.0,-0.00038116928772069514
512.0,-0.0004884355585090816
576.0,0.0002140078431693837
640.0,0.00025017530424520373
704.0,0.00042801318340934813
768.0,0.00012718960351776332
832.0,-0.00033897938556037843
896.0,-0.00030373220215551555
960.0,-0.00027820339892059565
1024.0,-0.00026985074509866536
1152.0,-0.0002474486827850342
1280.0,-0.00020733191922772676
1408.0,0.00013917633623350412
1536.0,-0.00022940168855711818
1664.0,2.9761813493678346e-05
1792.0,-0.00024379952810704708
1920.0,9.178685286315158e-05
2048.0,0.0003762349078897387
2304.0,-7.70493716117926e-06
2560.0,3.52680217474699e-05
2816.0,0.00014893269690219313
3072.0,2.7270809368928894e-05
3328.0,0.00016226715524680912
3584.0,-3.690186349558644e-05
3840.0,-0.00021331945026759058
4096.0,9.872886039374862e-06
4608.0,-5.305918875819771e-06
5120.0,4.7684548917459324e-05
5632.0,-2.9891214580857195e-05
6144.0,-0.00013580676750279963
6656.0,3.7455294659594074e-05
7168.0,3.058507718378678e-05
7680.0,-4.72094034194015e-05
8192.0,-5.195730409468524e-06
9216.0,-0.00012235432222951204
10240.0,2.8771710276487283e-05
11264.0,2.8078806280973367e-05
12288.0,-2.2309257019514916e-06
13312.0,-5.745849193772301e-05
14336.0,9.271489398088306e-05
end
