version,3.0
numOfCh,1
type,point
parent_name,400-cuts
ch_type,1_1
kcount,1
numberNandB,1
brightnessNandB,1
carpet pos,0
pc,0
Time (ms),CH1 Auto-Correlation
1.0,0.016624758020043373
2.0,0.013460483402013779
3.0,0.01124635525047779
4.0,0.00950474850833416
5.0,0.008208929561078548
6.0,0.007244863081723452
7.0,0.006425868254154921
8.0,0.0057682618498802185
9.0,0.005270491819828749
10.0,0.004709960427135229
11.0,0.004352973774075508
12.0,0.003984849900007248
13.0,0.0037185922265052795
14.0,0.00351933971978724
15.0,0.0032555044163018465
16.0,0.003126249648630619
18.0,0.002736733527854085
20.0,0.0025698698591440916
22.0,0.0024265237152576447
24.0,0.0022156494669616222
26.0,0.002078357385471463
28.0,0.0018771274480968714
30.0,0.001515860902145505
32.0,0.0012930973898619413
36.0,0.0008575424435548484
40.0,0.0005089703481644392
44.0,0.0001480362843722105
48.0,0.00014376483159139752
52.0,0.00022041602642275393
56.0,0.00030190194956958294
60.0,0.0001980984816327691
64.0,0.0002750277053564787
72.0,-1.0973107237077784e-05
80.0,-3.10502655338496e-05
88.0,-6.573311111424118e-05
96.0,2.456958100083284e-06
104.0,4.185834768577479e-05
112.0,-0.00022126655676402152
120.0,-0.0003557643503881991
128.0,-0.00028069509426131845
144.0,0.00020287100051064044
160.0,0.0006808466278016567
176.0,0.0005804002285003662
192.0,2.951851456600707e-05
208.0,-0.0002447432780172676
224.0,-0.0004902299260720611
240.0,-0.0004136273928452283
256.0,-0.00023627518385183066
288.0,0.00036716583417728543
320.0,0.00016182994295377284
352.0,5.967355900793336e-05
384.0,-1.791528848116286e-05
416.0,-0.0001030463317874819
448.0,-0.0003870298678521067
480.0,-0.00019865744980052114
512.0,3.2249830837827176e-05
576.0,0.000148600825923495
640.0,-0.0004493380547501147
704.0,0.00022469110263045877
768.0,-0.0001811484689824283
832.0,6.918334838701412e-05
896.0,-0.0001981050445465371
960.0,-0.00036818181979469955
1024.0,-0.00044601515401154757
1152.0,0.00019793266255874187
1280.0,-0.0001369867386529222
1408.0,-0.00029469316359609365
1536.0,-8.72875807544915e-06
1664.0,-0.00016230106120929122
1792.0,0.00018547459330875427
1920.0,2.038098045886727e-06
2048.0,0.00012649240670725703
2304.0,-0.00022035736765246838
2560.0,-0.000546888040844351
2816.0,-6.139855395304039e-05
3072.0,8.013073238544166e-05
3328.0,0.000360973208444193
3584.0,0.00014699733583256602
3840.0,0.00041445341776125133
4096.0,3.2308485970133916e-05
4608.0,-0.0001879387127701193
5120.0,5.21289803145919e-05
5632.0,-8.167575288098305e-05
6144.0,-0.00014929840108379722
6656.0,-0.00021111927344463766
7168.0,0.000448510458227247
7680.0,4.934167372994125e-05
8192.0,-0.00022795121185481548
9216.0,0.0001911082217702642
10240.0,-0.00025031110271811485
11264.0,0.00010774746624520048
12288.0,4.313470981287537e-06
13312.0,-0.0003499301674310118
14336.0,0.00026378946495242417
end
