version,3.0
numOfCh,1
type,point
parent_name,400-cuts
ch_type,1_1
kcount,1
numberNandB,1
brightnessNandB,1
carpet pos,0
pc,0
Time (ms),CH1 Auto-Correlation
1.0,0.01630333624780178
2.0,0.013106881640851498
3.0,0.010842442512512207
4.0,0.009137946180999279
5.0,0.007736564613878727
6.0,0.006649043411016464
7.0,0.005783680826425552
8.0,0.005122365429997444
9.0,0.004550672136247158
10.0,0.0040299477986991405
11.0,0.00351633969694376
12.0,0.003181968815624714
13.0,0.0028516787569969893
14.0,0.002635158598423004
15.0,0.0024792365729808807
16.0,0.002322740387171507
18.0,0.0018088434590026736
20.0,0.0015059326542541385
22.0,0.0013069001724943519
24.0,0.0009835107484832406
26.0,0.0007035298040136695
28.0,0.00030456887907348573
30.0,9.519903687760234e-05
32.0,-6.229453720152378e-05
36.0,-0.00020057146321050823
40.0,-7.877084135543555e-05
44.0,0.00031567589030601084
48.0,0.000359840429155156
52.0,0.00034193109604530036
56.0,0.000613078533206135
60.0,0.0005755298188887537
64.0,0.0006130759138613939
72.0,0.000430290587246418
80.0,0.00020910834427922964
88.0,2.7060037609771825e-05
96.0,1.2783751117240172e-05
104.0,-0.0003366315795574337
112.0,9.679088543634862e-05
120.0,-9.263852552976459e-05
128.0,-0.0002798034984152764
144.0,-5.40402288606856e-05
160.0,0.0003526745713315904
176.0,0.0006143588689155877
192.0,0.0004928434500470757
208.0,0.00029283040203154087
224.0,-0.0003312503104098141
240.0,-0.000694938120432198
256.0,-4.255680687492713e-05
288.0,-2.4512446543667465e-05
320.0,-0.00032882177038118243
352.0,-0.00023476376372855157
384.0,7.706417090957984e-05
416.0,0.0002027252339757979
448.0,-1.464742763346294e-05
480.0,0.0001632487983442843
512.0,-0.00020078322268091142
576.0,-0.00024857182870619
640.0,7.727479533059523e-05
704.0,0.0003600373456720263
768.0,8.98635116755031e-05
832.0,0.00017997082613874227
896.0,-3.17979502142407e-05
960.0,0.0005480226245708764
1024.0,0.0003545951913110912
1152.0,0.000132301080157049
1280.0,-0.00026101229013875127
1408.0,-2.563844645919744e-05
1536.0,-0.0001204790678457357
1664.0,-0.00010359653242630884
1792.0,-0.00037232853355817497
1920.0,4.99226116517093e-05
2048.0,-0.00012136689474573359
2304.0,-7.027950778137892e-05
2560.0,-0.00016966529074124992
2816.0,0.00017254117119591683
3072.0,5.5884051107568666e-05
3328.0,-4.8902023991104215e-05
3584.0,3.682900933199562e-05
3840.0,0.0003205638495273888
4096.0,-7.801571337040514e-05
4608.0,3.672986349556595e-05
5120.0,-2.041684820142109e-05
5632.0,-7.898741750977933e-05
6144.0,-0.00010716253746068105
6656.0,6.8759145506192e-05
7168.0,-0.00024009597836993635
7680.0,-2.025606772804167e-05
8192.0,-0.00018149567767977715
9216.0,2.041190782620106e-05
10240.0,8.052782504819334e-05
11264.0,-5.46890078112483e-05
12288.0,-0.00017304284847341478
13312.0,7.513559830840677e-05
14336.0,5.145600516698323e-05
end
