version,3.0
numOfCh,1
type,point
parent_name,400-cuts
ch_type,1_1
kcount,1
numberNandB,1
brightnessNandB,1
carpet pos,0
pc,0
Time (ms),CH1 Auto-Correlation
1.0,0.01753254234790802
2.0,0.014185006730258465
3.0,0.011819222941994667
4.0,0.010012740269303322
5.0,0.008777442388236523
6.0,0.007779108826071024
7.0,0.006876942235976458
8.0,0.006053101271390915
9.0,0.0052987453527748585
10.0,0.004728732164949179
11.0,0.004192402586340904
12.0,0.0038230514619499445
13.0,0.0034564409870654345
14.0,0.0031404532492160797
15.0,0.002796539105474949
16.0,0.0025760254357010126
18.0,0.0023854172322899103
20.0,0.002237637061625719
22.0,0.0019485622178763151
24.0,0.0016296355752274394
26.0,0.001534556970000267
28.0,0.001403398928232491
30.0,0.0011760853230953217
32.0,0.0010114018805325031
36.0,0.0007953722961246967
40.0,0.0004543928662315011
44.0,0.0002880373504012823
48.0,0.00019706574676092714
52.0,0.00012016602704534307
56.0,0.00025413549155928195
60.0,0.0002839950902853161
64.0,0.00028725399170070887
72.0,0.0002653923584148288
80.0,0.0004926688270643353
88.0,0.00018821345292963088
96.0,-0.00033446954330429435
104.0,-0.00047342159086838365
112.0,-0.0006127271917648613
120.0,-0.001163184060715139
128.0,-0.0008317827596329153
144.0,-0.00016903098730836064
160.0,0.00019201182294636965
176.0,-0.0006050430238246918
192.0,-0.0001374293933622539
208.0,-5.083853466203436e-05
224.0,4.399835961521603e-05
240.0,0.00026310159591957927
256.0,0.0005933761713095009
288.0,1.3725843018619344e-05
320.0,0.00015485483163502067
352.0,-0.00027483791927807033
384.0,0.00017509165627416223
416.0,0.00019395200069993734
448.0,-0.00032558749080635607
480.0,-0.00013714161468669772
512.0,0.0002434384950902313
576.0,-0.00013081538781989366
640.0,8.039285603445023e-05
704.0,9.067994142242242e-06
768.0,0.0005296431481838226
832.0,0.00027709314599633217
896.0,-3.2571952033322304e-05
960.0,0.0002865262213163078
1024.0,0.00040537212044000626
1152.0,-0.00042544628377072513
1280.0,-7.834855205146596e-05
1408.0,0.0001560960809001699
1536.0,6.308971933322027e-05
1664.0,-0.00014804631064180285
1792.0,0.00016580696683377028
1920.0,4.465817619347945e-05
2048.0,-0.00030696045723743737
2304.0,-2.3674687327002175e-05
2560.0,4.950983930029906e-05
2816.0,-0.00019206864817533642
3072.0,-0.00012589112157002091
3328.0,2.655056960065849e-05
3584.0,7.142301183193922e-05
3840.0,-8.639707084512338e-05
4096.0,-0.0002808004792314023
4608.0,-3.586898310459219e-05
5120.0,1.3460750778904185e-05
5632.0,5.2659830544143915e-05
6144.0,-0.0001425260998075828
6656.0,-0.00010773565736599267
7168.0,1.8008977349381894e-05
7680.0,-3.766727968468331e-05
8192.0,-6.394715455826372e-06
9216.0,2.922634666902013e-05
10240.0,0.00010237358219455928
11264.0,0.00017229744116775692
12288.0,6.865517434562207e-07
13312.0,-0.00018607066886033863
14336.0,-0.0003810215857811272
end
