version,3.0
numOfCh,1
type,point
parent_name,400-cuts
ch_type,1_1
kcount,1
numberNandB,1
brightnessNandB,1
carpet pos,0
pc,0
Time (ms),CH1 Auto-Correlation
1.0,0.016076164320111275
2.0,0.012802591547369957
3.0,0.010504728183150291
4.0,0.008685539476573467
5.0,0.00735997362062335
6.0,0.006357850506901741
7.0,0.00548322731629014
8.0,0.004705561324954033
9.0,0.004186764359474182
10.0,0.0037280039396137
11.0,0.003242669627070427
12.0,0.0029093469493091106
13.0,0.0026592027861624956
14.0,0.002492607804015279
15.0,0.002359969774261117
16.0,0.0023619821295142174
18.0,0.0021060779690742493
20.0,0.0018402058631181717
22.0,0.0017401794902980328
24.0,0.0015273557510226965
26.0,0.0012740393867716193
28.0,0.001061406102962792
30.0,0.000842014909721911
32.0,0.0007073553861118853
36.0,0.0006378949619829655
40.0,0.000447868078481406
44.0,0.00021136715076863766
48.0,0.00010282051516696811
52.0,0.00012395164230838418
56.0,-3.709265001816675e-05
60.0,0.00010713638766901568
64.0,3.61791935574729e-05
72.0,7.215404184535146e-05
80.0,5.945399607298896e-06
88.0,-0.0004845458024647087
96.0,-0.0003433561942074448
104.0,1.802248698368203e-05
112.0,0.0002862992696464062
120.0,1.1736427950381767e-05
128.0,-0.00010346994531573728
144.0,-0.00027588632656261325
160.0,-0.0001857690222095698
176.0,-0.0004597610968630761
192.0,-0.00024069611390586942
208.0,-0.0005756699247285724
224.0,-0.0002522995346225798
240.0,-8.310996781801805e-05
256.0,-0.0005882132682017982
288.0,-2.265650255139917e-05
320.0,0.00011886125867022201
352.0,-0.0003850762150250375
384.0,-0.00024392749764956534
416.0,0.00016823502664919943
448.0,0.0006294409977272153
480.0,0.0002723773941397667
512.0,-7.502379594370723e-05
576.0,0.00018993130652233958
640.0,-0.0001975438790395856
704.0,-1.1362055374775082e-05
768.0,-7.902459765318781e-05
832.0,-9.545929788146168e-05
896.0,-0.0002264567301608622
960.0,-7.82219649408944e-06
1024.0,-2.602094718895387e-05
1152.0,-4.5209966629045084e-05
1280.0,-5.554752715397626e-05
1408.0,-0.00029844752862118185
1536.0,-1.4369897144206334e-05
1664.0,0.00018137934966944158
1792.0,-0.00017022658721543849
1920.0,-8.620504377176985e-05
2048.0,-0.0001696395775070414
2304.0,-2.455870526318904e-05
2560.0,-0.00016007629164960235
2816.0,-4.5228440285427496e-05
3072.0,0.00013058345939498395
3328.0,-1.9952416550950147e-05
3584.0,2.7911197321373038e-05
3840.0,-5.052277265349403e-05
4096.0,4.6307766751851887e-05
4608.0,-0.00012166069791419432
5120.0,7.14680427336134e-05
5632.0,3.030220977962017e-05
6144.0,0.0001132404722739011
6656.0,5.2034105465281755e-05
7168.0,0.00011594457464525476
7680.0,-8.9055291027762e-05
8192.0,-0.00010948424460366368
9216.0,-4.549359800876118e-05
10240.0,2.017830229306128e-05
11264.0,4.844577415497042e-05
12288.0,3.899459625245072e-05
13312.0,-6.739419040968642e-05
14336.0,-3.993306745542213e-05
end
