version,3.0
numOfCh,1
type,point
parent_name,400-cuts
ch_type,1_1
kcount,1
numberNandB,1
brightnessNandB,1
carpet pos,0
pc,0
Time (ms),CH1 Auto-Correlation
1.0,0.025230200961232185
2.0,0.020174989476799965
3.0,0.01631864719092846
4.0,0.013634195551276207
5.0,0.011610685847699642
6.0,0.010126079432666302
7.0,0.008877981454133987
8.0,0.00769095029681921
9.0,0.0066822487860918045
10.0,0.005720889195799828
11.0,0.005053319968283176
12.0,0.004432434216141701
13.0,0.004031681921333075
14.0,0.0036389760207384825
15.0,0.003444877453148365
16.0,0.0031245178543031216
18.0,0.0025207246653735638
20.0,0.002420796314254403
22.0,0.002182683441787958
24.0,0.00173193181399256
26.0,0.0013351927045732737
28.0,0.001272903522476554
30.0,0.0009478286956436932
32.0,0.00041706490446813405
36.0,-0.00012151456030551344
40.0,-0.0004415532457642257
44.0,-0.0006685469998046756
48.0,-0.0007685376913286746
52.0,-0.0007190079777501523
56.0,-0.0006730299210175872
60.0,-0.0008026193245314062
64.0,-0.0007526972331106663
72.0,-0.0011599967256188393
80.0,-0.0007234900840558112
88.0,-0.0005249683163128793
96.0,0.0004327713686507195
104.0,0.0004572666948661208
112.0,0.0001954372855834663
120.0,0.0004827341763302684
128.0,0.0006048937793821096
144.0,0.0002492144121788442
160.0,0.00037942887865938246
176.0,0.0005592625821009278
192.0,-0.00045328287524171174
208.0,-0.0006086917710490525
224.0,0.00013594755728263408
240.0,0.00012613058788701892
256.0,0.0011543299769982696
288.0,0.0005259219906292856
320.0,-0.0006806045421399176
352.0,-0.0007018193718977273
384.0,-5.3090527217136696e-05
416.0,0.0004514393222052604
448.0,0.0005275672301650047
480.0,0.00017575989477336407
512.0,-0.00033289959537796676
576.0,-9.530718671157956e-05
640.0,0.000525717216078192
704.0,-0.000522538844961673
768.0,-8.557811088394374e-05
832.0,-0.0004956098855473101
896.0,0.0005238221492618322
960.0,-0.0003801406710408628
1024.0,0.00043045281199738383
1152.0,7.801302126608789e-05
1280.0,-1.3829128874931484e-05
1408.0,-0.00038863217923790216
1536.0,-0.00022516910394188017
1664.0,-0.000345634703990072
1792.0,-0.000319665385177359
1920.0,-0.00017663181643001735
2048.0,-0.0003566846717149019
2304.0,-5.8017252740683034e-05
2560.0,0.00015867910406086594
2816.0,-0.00018219780758954585
3072.0,-0.00014961928536649793
3328.0,0.00015725134289823472
3584.0,0.00018248030391987413
3840.0,6.561146437888965e-05
4096.0,0.00015470868675038218
4608.0,1.7392179870512336e-05
5120.0,-5.8302983234170824e-05
5632.0,-4.7252073272829875e-05
6144.0,0.0002246022195322439
6656.0,0.00016194485942833126
7168.0,-4.8330886784242466e-05
7680.0,-8.247996447607875e-05
8192.0,7.273298251675442e-05
9216.0,-0.00017738564929459244
10240.0,-0.0001947940036188811
11264.0,0.0002841510286089033
12288.0,0.0001561901008244604
13312.0,-0.00024382969422731549
14336.0,-7.147261931095272e-05
end
