version,3.0
numOfCh,1
type,point
parent_name,400-cuts
ch_type,1_1
kcount,1
numberNandB,1
brightnessNandB,1
carpet pos,0
pc,0
Time (ms),CH1 Auto-Correlation
1.0,0.016559788957238197
2.0,0.013280549086630344
3.0,0.01095101423561573
4.0,0.009269898757338524
5.0,0.008023785427212715
6.0,0.007001074962317944
7.0,0.00622407253831625
8.0,0.005508052185177803
9.0,0.004905769135802984
10.0,0.004568102769553661
11.0,0.0042707230895757675
12.0,0.003949479665607214
13.0,0.003684017574414611
14.0,0.0034657500218600035
15.0,0.003363613039255142
16.0,0.0031893884297460318
18.0,0.0028953603468835354
20.0,0.002514604711905122
22.0,0.0021365380380302668
24.0,0.0019688145257532597
26.0,0.0019153294852003455
28.0,0.0018698753556236625
30.0,0.0016751099610701203
32.0,0.0012192931026220322
36.0,0.0007711449288763106
40.0,0.0006409566849470139
44.0,0.00026384953525848687
48.0,0.00023466887068934739
52.0,0.000341478968039155
56.0,0.0002955122326966375
60.0,0.00030115412664599717
64.0,0.00023994875664357096
72.0,0.000233739847317338
80.0,0.00012238099589012563
88.0,0.0002637178113218397
96.0,0.00023437949130311608
104.0,0.00035742914769798517
112.0,0.0005196571000851691
120.0,0.0003507189976517111
128.0,-6.004116130498005e-06
144.0,-2.0761504856636748e-05
160.0,-9.415442764293402e-05
176.0,-0.0006500741001218557
192.0,-0.0001493564632255584
208.0,-0.0001372036786051467
224.0,-8.961468120105565e-05
240.0,-0.00025654048658907413
256.0,-0.00016714955563656986
288.0,-6.429316272260621e-05
320.0,-0.0001992199249798432
352.0,0.0001293043460464105
384.0,0.00021928295609541237
416.0,-7.96401309344219e-06
448.0,0.00014575627574231476
480.0,0.0003935723507311195
512.0,0.00038824218790978193
576.0,0.00028775029932148755
640.0,0.00028494239086285233
704.0,2.8762191504938528e-05
768.0,0.0003335475630592555
832.0,0.00013309597852639854
896.0,-0.00018346688011661172
960.0,0.0004026079550385475
1024.0,0.0003962565097026527
1152.0,-0.00011822426313301548
1280.0,9.022938320413232e-05
1408.0,4.772992178914137e-05
1536.0,0.0001761432649800554
1664.0,0.00025418694713152945
1792.0,0.0001858943869592622
1920.0,-0.0003160191990900785
2048.0,9.912391396937892e-05
2304.0,8.019063534447923e-05
2560.0,0.00020169593335594982
2816.0,-7.632789493072778e-05
3072.0,9.696788038127124e-05
3328.0,-7.785676280036569e-05
3584.0,-8.355842874152586e-05
3840.0,-2.9293069019331597e-05
4096.0,-2.090538873744663e-05
4608.0,-8.891404831956606e-06
5120.0,-0.00018095574341714382
5632.0,-3.931254104827531e-05
6144.0,-0.00019900614279322326
6656.0,-0.00023786575184203684
7168.0,5.34148421138525e-05
7680.0,-0.00011022557009709999
8192.0,-0.00016302327276207507
9216.0,-0.00015329390589613467
10240.0,-4.978109791409224e-05
11264.0,1.7177793779410422e-05
12288.0,0.00011211267701582983
13312.0,-4.768819417222403e-05
14336.0,-0.00020998342370148748
end
