version,3.0
numOfCh,1
type,point
parent_name,400-cuts
ch_type,1_1
kcount,1
numberNandB,1
brightnessNandB,1
carpet pos,0
pc,0
Time (ms),CH1 Auto-Correlation
1.0,0.015464466996490955
2.0,0.01235241536051035
3.0,0.010205859318375587
4.0,0.008554890751838684
5.0,0.007382000796496868
6.0,0.006471718195825815
7.0,0.005697417538613081
8.0,0.004937501158565283
9.0,0.004333642311394215
10.0,0.0038230624049901962
11.0,0.00347177404910326
12.0,0.0031644958071410656
13.0,0.0028481849003583193
14.0,0.002588955918326974
15.0,0.0023900580126792192
16.0,0.0022173405159264803
18.0,0.0019092855509370565
20.0,0.0015922070015221834
22.0,0.001366743235848844
24.0,0.0013930002460256219
26.0,0.0013369278749451041
28.0,0.0013084469828754663
30.0,0.0011041646357625723
32.0,0.0009575430885888636
36.0,0.0009400949347764254
40.0,0.0007826891960576177
44.0,0.00048755950410850346
48.0,0.0002706644299905747
52.0,-2.1529658624785952e-05
56.0,-0.00027359608793631196
60.0,-0.0004954541218467057
64.0,-0.0005410267040133476
72.0,-0.00032808660762384534
80.0,-0.00010586634743958712
88.0,0.00046777373063378036
96.0,0.0004984855768270791
104.0,0.00015018928388599306
112.0,-0.00017816688341554254
120.0,-0.0002870997122954577
128.0,-0.00019094640447292477
144.0,2.1840798581251875e-05
160.0,0.0003161597123835236
176.0,0.0007653439533896744
192.0,0.0008681673207320273
208.0,0.00045331750879995525
224.0,0.0003406512551009655
240.0,0.00012755527859553695
256.0,9.443515591556206e-05
288.0,-0.00015514797996729612
320.0,0.00023921308456920087
352.0,0.0002604513138066977
384.0,-0.00018964652554132044
416.0,-0.00011099763651145622
448.0,0.0002257816377095878
480.0,0.00024310036678798497
512.0,0.00024989404482766986
576.0,0.00019520155910868198
640.0,0.00039407977601513267
704.0,-0.0005890534957870841
768.0,-0.0001779328886186704
832.0,0.0003714594931807369
896.0,-0.00018375736544840038
960.0,0.0001833665301091969
1024.0,6.898479477968067e-05
1152.0,-0.00024902087170630693
1280.0,-0.0001576174545334652
1408.0,-0.00020253243565093726
1536.0,0.00022661032562609762
1664.0,-2.0885861886199564e-05
1792.0,-0.00023627260816283524
1920.0,-0.00021244863455649465
2048.0,-0.00010693132207961753
2304.0,7.078968337737024e-05
2560.0,4.4827251258539036e-05
2816.0,-1.4656699931947514e-05
3072.0,0.000276555452728644
3328.0,-0.0002329036215087399
3584.0,-0.00034281410626135767
3840.0,-2.8093911168980412e-05
4096.0,5.1408016588538885e-05
4608.0,-9.196986502502114e-05
5120.0,-7.516882033087313e-05
5632.0,0.00030591103131882846
6144.0,8.992438779387157e-06
6656.0,-2.1184550860198215e-05
7168.0,-0.00023598111874889582
7680.0,-0.0002347263798583299
8192.0,2.2709464246872813e-05
9216.0,-0.00011626178456936032
10240.0,-9.3635986559093e-05
11264.0,0.00019219410023652017
12288.0,0.0002403024845989421
13312.0,0.00011479925160529092
14336.0,3.8213212974369526e-05
end
