version,3.0
numOfCh,1
type,point
parent_name,400-cuts
ch_type,1_1
kcount,1
numberNandB,1
brightnessNandB,1
carpet pos,0
pc,0
Time (ms),CH1 Auto-Correlation
1.0,0.02646988071501255
2.0,0.021040424704551697
3.0,0.017236875370144844
4.0,0.014328029938042164
5.0,0.012148389592766762
6.0,0.010376482270658016
7.0,0.008999963290989399
8.0,0.00783592276275158
9.0,0.006911981385201216
10.0,0.006156859919428825
11.0,0.005453656427562237
12.0,0.004885076079517603
13.0,0.004302437417209148
14.0,0.003855305491015315
15.0,0.0035127911251038313
16.0,0.0032044462859630585
18.0,0.002942799124866724
20.0,0.002967470558360219
22.0,0.0028141101356595755
24.0,0.002777653746306896
26.0,0.0025123455561697483
28.0,0.0022900772746652365
30.0,0.0017913038609549403
32.0,0.0012820400297641754
36.0,0.0012174687581136823
40.0,0.0006813802756369114
44.0,0.0005506210145540535
48.0,0.0006847162148915231
52.0,0.00044760096352547407
56.0,0.000480386835988611
60.0,0.0005487530143000185
64.0,0.00028917513554915786
72.0,-5.8766403526533395e-05
80.0,-0.0003765012661460787
88.0,-0.00015192858700174838
96.0,0.00025991350412368774
104.0,0.0003554928407538682
112.0,0.0006648183916695416
120.0,0.0006476198323071003
128.0,-8.33547383081168e-05
144.0,-0.0002081762650050223
160.0,-0.0003881278389599174
176.0,0.0001586451689945534
192.0,0.0006633677985519171
208.0,0.00032632212969474494
224.0,0.0003703681577462703
240.0,0.0005649070371873677
256.0,0.0006896172999404371
288.0,0.0006308814627118409
320.0,0.0004709401400759816
352.0,0.00011173333041369915
384.0,-0.0001713211095193401
416.0,-0.00036910403287038207
448.0,-0.00044335133861750364
480.0,2.114815742970677e-06
512.0,3.2618059776723385e-05
576.0,7.948742859298363e-05
640.0,-0.00024214034783653915
704.0,-0.000573167868424207
768.0,-0.0003360749105922878
832.0,-0.00020194669195916504
896.0,-4.200523471808992e-05
960.0,-9.968457015929744e-05
1024.0,-0.0015459021087735891
1152.0,0.00010489590931683779
1280.0,-0.00031265878351405263
1408.0,0.00015773187624290586
1536.0,-1.938610694196541e-05
1664.0,0.0006661243387497962
1792.0,-0.0005054842331446707
1920.0,3.299985110061243e-05
2048.0,0.00022896578593645245
2304.0,0.00023647831403650343
2560.0,-0.00016425024659838527
2816.0,0.00010416490113129839
3072.0,0.0003933729894924909
3328.0,-0.00020465321722440422
3584.0,-0.0003532643604557961
3840.0,-0.0003145958762615919
4096.0,-0.00044244813034310937
4608.0,0.0004515136533882469
5120.0,-5.212084579397924e-05
5632.0,-0.0004600432002916932
6144.0,0.00019808695651590824
6656.0,4.261416324879974e-05
7168.0,-0.00010093870514538139
7680.0,1.5926329069770873e-05
8192.0,-0.000148603183333762
9216.0,-5.475402304000454e-06
10240.0,-5.467846494866535e-05
11264.0,3.75432864530012e-05
12288.0,-0.0001730292715365067
13312.0,9.349759056931362e-05
14336.0,0.0002356506884098053
end
