version,3.0
numOfCh,1
type,point
parent_name,400-cuts
ch_type,1_1
kcount,1
numberNandB,1
brightnessNandB,1
carpet pos,0
pc,0
Time (ms),CH1 Auto-Correlation
1.0,0.026010625064373016
2.0,0.020865265280008316
3.0,0.01745188795030117
4.0,0.014690933749079704
5.0,0.012766987085342407
6.0,0.011263471096754074
7.0,0.009703741408884525
8.0,0.00838033203035593
9.0,0.007414936553686857
10.0,0.00665282690897584
11.0,0.00601131422445178
12.0,0.005395319312810898
13.0,0.004955595824867487
14.0,0.00460392702370882
15.0,0.004338755272328854
16.0,0.0041318717412650585
18.0,0.0035450360737740993
20.0,0.003099575638771057
22.0,0.002605965593829751
24.0,0.0024048383347690105
26.0,0.0023905830457806587
28.0,0.002404251368716359
30.0,0.002317989943549037
32.0,0.0020343619398772717
36.0,0.001256647752597928
40.0,0.0008251260733231902
44.0,0.00046623838716186583
48.0,0.0006900291191413999
52.0,0.000892277923412621
56.0,0.0011277305893599987
60.0,0.0011310608824715018
64.0,0.001149643212556839
72.0,0.0012554763816297054
80.0,0.0009297051001340151
88.0,-9.147047967417166e-05
96.0,-0.0006149610271677375
104.0,-0.00021089930669404566
112.0,0.0003067709330935031
120.0,-0.00044109602458775043
128.0,-0.0006124880746938288
144.0,0.0005005032871849835
160.0,-0.00025605931296013296
176.0,-0.0008214118424803019
192.0,-0.0007030944689176977
208.0,-0.0006279025692492723
224.0,3.244020263082348e-05
240.0,5.151477307663299e-05
256.0,-0.0008876326610334218
288.0,-0.0012864266755059361
320.0,-0.0006431970396079123
352.0,-0.0004247597244102508
384.0,0.00015363671991508454
416.0,-0.00033151585375890136
448.0,-0.00012838964175898582
480.0,-0.00039278523763641715
512.0,-0.00043834256939589977
576.0,0.00024232410942204297
640.0,0.00032147043384611607
704.0,0.000264221424004063
768.0,0.00010865299555007368
832.0,-0.00015171135601121932
896.0,-0.0008004852570593357
960.0,-0.0005535247037187219
1024.0,-0.00010858873429242522
1152.0,9.578452591085806e-07
1280.0,0.0007098326459527016
1408.0,0.0001235284289577976
1536.0,-0.0003678757057059556
1664.0,-8.609353244537488e-05
1792.0,4.0180857467930764e-05
1920.0,0.00018895475659519434
2048.0,-1.453313416277524e-05
2304.0,4.443036232260056e-05
2560.0,3.7293928471626714e-05
2816.0,-0.00018534202536102384
3072.0,7.658617687411606e-05
3328.0,-6.744882557541132e-05
3584.0,-0.00012522687029559165
3840.0,0.0001804804487619549
4096.0,-0.0004546313430182636
4608.0,-4.1924886318156496e-06
5120.0,-6.890147778904065e-05
5632.0,1.7047617802745663e-05
6144.0,6.054903496988118e-05
6656.0,-2.8122718504164368e-05
7168.0,-8.663297194289044e-05
7680.0,0.0002534972154535353
8192.0,-0.00013166657299734652
9216.0,-4.429347609402612e-05
10240.0,-0.00011586039909161627
11264.0,6.096456490922719e-05
12288.0,-0.0001905196695588529
13312.0,0.0003469448711257428
14336.0,7.915471360320225e-05
end
