version,3.0
numOfCh,1
type,point
parent_name,400-cuts
ch_type,1_1
kcount,1
numberNandB,1
brightnessNandB,1
carpet pos,0
pc,0
Time (ms),CH1 Auto-Correlation
1.0,0.025822145864367485
2.0,0.02036910131573677
3.0,0.01686394028365612
4.0,0.014270864427089691
5.0,0.012281750328838825
6.0,0.010663805529475212
7.0,0.009362264536321163
8.0,0.008395859971642494
9.0,0.007547548972070217
10.0,0.00673727598041296
11.0,0.005930623039603233
12.0,0.005310792941600084
13.0,0.004759588278830051
14.0,0.004522132687270641
15.0,0.004288652446120977
16.0,0.004023958928883076
18.0,0.0033799256198108196
20.0,0.003106507705524564
22.0,0.002873177407309413
24.0,0.0024905232712626457
26.0,0.0023162509314715862
28.0,0.002242271788418293
30.0,0.002405722625553608
32.0,0.0023600980639457703
36.0,0.0022378070279955864
40.0,0.002020717365667224
44.0,0.0014230982633307576
48.0,0.001147042028605938
52.0,0.0015520479064434767
56.0,0.0012805801816284657
60.0,0.0010324480244889855
64.0,0.0010462631471455097
72.0,0.00019095116294920444
80.0,0.00016997380589600652
88.0,0.0001985488343052566
96.0,0.0002367797278566286
104.0,-2.5872182959574275e-05
112.0,-8.471557521261275e-05
120.0,0.0005063845892436802
128.0,0.0006984565407037735
144.0,-0.0003903693868778646
160.0,8.085346053121611e-05
176.0,0.00022375676780939102
192.0,0.00030009745387360454
208.0,0.0003941963368561119
224.0,0.0007678433321416378
240.0,0.00012908338976558298
256.0,0.0001756789570208639
288.0,0.0005306669045239687
320.0,0.00028495732112787664
352.0,0.0004482816148083657
384.0,0.0009930487722158432
416.0,0.0006962852203287184
448.0,0.0006878404528833926
480.0,4.630908006220125e-05
512.0,8.18984626675956e-05
576.0,-0.0004289841162972152
640.0,-0.00021950434893369675
704.0,2.676920985322795e-06
768.0,-0.0008073269855231047
832.0,-9.682189556770027e-05
896.0,-0.00041518016951158643
960.0,-0.0011381697840988636
1024.0,-0.0009201138745993376
1152.0,0.00035824510268867016
1280.0,-0.0003446448245085776
1408.0,7.898548210505396e-05
1536.0,0.0006491372478194535
1664.0,0.00020234774274285883
1792.0,0.0002563434827607125
1920.0,0.0004280107968952507
2048.0,-0.0002690849651116878
2304.0,-0.00038088264409452677
2560.0,-0.0006777389207854867
2816.0,-0.00012471906666178256
3072.0,0.00039510830538347363
3328.0,0.00033863334101624787
3584.0,-0.0003178682236466557
3840.0,-0.0003010364016517997
4096.0,-0.0004142018733546138
4608.0,0.00047269705100916326
5120.0,6.99721131240949e-05
5632.0,-0.0003464980982244015
6144.0,0.0001788892986951396
6656.0,3.6724228266393766e-05
7168.0,-0.00025326284230686724
7680.0,9.636901813792065e-05
8192.0,-0.0001712594530545175
9216.0,7.849840039853007e-05
10240.0,0.0002576047263573855
11264.0,6.049421426723711e-05
12288.0,-0.00016011230763979256
13312.0,0.00010775354894576594
14336.0,-0.0009733730112202466
end
