version,3.0
numOfCh,1
type,point
parent_name,400-cuts
ch_type,1_1
kcount,1
numberNandB,1
brightnessNandB,1
carpet pos,0
pc,0
Time (ms),CH1 Auto-Correlation
1.0,0.016305889934301376
2.0,0.013026440516114235
3.0,0.010799212381243706
4.0,0.009227787144482136
5.0,0.007907425984740257
6.0,0.006849624682217836
7.0,0.0060175880789756775
8.0,0.005356369540095329
9.0,0.004709317348897457
10.0,0.0041467417031526566
11.0,0.003768377937376499
12.0,0.003330833511427045
13.0,0.003031772095710039
14.0,0.0027671093121170998
15.0,0.002438751980662346
16.0,0.002145018894225359
18.0,0.0016022378113120794
20.0,0.0011926001170650125
22.0,0.0009673471213318408
24.0,0.0009159122710116208
26.0,0.0007887828396633267
28.0,0.0006610715063288808
30.0,0.0005642970209009945
32.0,0.0005573296220973134
36.0,0.0006253498722799122
40.0,0.0005245249485597014
44.0,0.0003662867529783398
48.0,0.00010577751527307555
52.0,-3.0478649932774715e-05
56.0,0.00020865410624537617
60.0,0.00029442444792948663
64.0,0.0005397847853600979
72.0,0.0005223404732532799
80.0,0.0003624911478254944
88.0,-7.688972254982218e-05
96.0,-1.5350242392742075e-05
104.0,-0.00013224549184087664
112.0,-4.063154847244732e-06
120.0,0.00014073090278543532
128.0,-7.899398042354733e-05
144.0,-0.0001307502097915858
160.0,-0.00033852222259156406
176.0,-0.00018656268366612494
192.0,0.00015776680083945394
208.0,0.0003465525805950165
224.0,0.00017970499175135046
240.0,2.8058188036084175e-05
256.0,-0.0002831986639648676
288.0,-0.00013743901217821985
320.0,-0.00015323521802201867
352.0,-0.00013336559641174972
384.0,-8.921964763430879e-05
416.0,-0.0004715306858997792
448.0,-0.00015858971164561808
480.0,-0.0005571891670115292
512.0,-0.0003448974748607725
576.0,-4.411015470395796e-05
640.0,3.1726191082270816e-05
704.0,1.696458821243141e-05
768.0,3.9192549593281e-05
832.0,0.00017221567395608872
896.0,-0.00015627329412382096
960.0,-1.1907451153092552e-05
1024.0,-6.297348591033369e-05
1152.0,-0.00015266312402673066
1280.0,8.377410267712548e-05
1408.0,6.853132072137669e-05
1536.0,-0.0001727457420201972
1664.0,-0.00015600494225509465
1792.0,-0.0001729732466628775
1920.0,-3.0338494980242103e-05
2048.0,-0.0002201753668487072
2304.0,0.00017294473946094513
2560.0,0.0001710832439130172
2816.0,-0.00027824012795463204
3072.0,-0.00014063867274671793
3328.0,7.772500975988805e-05
3584.0,1.4028785699338187e-05
3840.0,0.00015050254296511412
4096.0,-0.00013020337792113423
4608.0,-9.775176295079291e-05
5120.0,0.00017283174383919686
5632.0,5.231968771113316e-06
6144.0,-1.646378768782597e-05
6656.0,-0.00019415892893448472
7168.0,0.00014973744691815227
7680.0,-6.403242150554433e-05
8192.0,4.080258349858923e-06
9216.0,-6.707642751280218e-05
10240.0,-7.68460231483914e-05
11264.0,-0.00014733152056578547
12288.0,9.306244464823976e-05
13312.0,1.9957289623562247e-05
14336.0,9.662735101301223e-05
end
