version,3.0
numOfCh,1
type,point
parent_name,400-cuts
ch_type,1_1
kcount,1
numberNandB,1
brightnessNandB,1
carpet pos,0
pc,0
Time (ms),CH1 Auto-Correlation
1.0,0.015206691808998585
2.0,0.012131230905652046
3.0,0.009889451786875725
4.0,0.008305327966809273
5.0,0.007046721410006285
6.0,0.006063724402338266
7.0,0.005275029223412275
8.0,0.00465460866689682
9.0,0.00416632741689682
10.0,0.003781520063057542
11.0,0.003476848127320409
12.0,0.0031310187187045813
13.0,0.002792815677821636
14.0,0.002467656508088112
15.0,0.0021109790541231632
16.0,0.0018548129592090845
18.0,0.0014804764650762081
20.0,0.0011388269485905766
22.0,0.0007482616929337382
24.0,0.0007726957555860281
26.0,0.0008895642822608352
28.0,0.0010120426304638386
30.0,0.0009544763015583158
32.0,0.0009592713904567063
36.0,0.000921948638278991
40.0,0.000791767961345613
44.0,0.0006383382133208215
48.0,0.00038784847129136324
52.0,0.0001423581998096779
56.0,-0.00014113065844867378
60.0,-0.00013931569992564619
64.0,-6.075966666685417e-06
72.0,8.261193579528481e-05
80.0,8.406363485846668e-05
88.0,-7.323399040615186e-05
96.0,-3.769986142287962e-05
104.0,-0.00011365111276973039
112.0,-0.00011945897131226957
120.0,-1.9496876120683737e-05
128.0,6.772066990379244e-05
144.0,-0.0001169611350633204
160.0,-0.0002139959397027269
176.0,-0.0004333298420533538
192.0,-0.00013909836707171053
208.0,-5.4969470511423424e-05
224.0,-0.0002849307784345001
240.0,-0.00019485548546072096
256.0,-0.00021225122327450663
288.0,-0.0003458830469753593
320.0,-0.00034810922807082534
352.0,-0.00033285803510807455
384.0,0.0002079587138723582
416.0,0.000272780453087762
448.0,9.15440105018206e-05
480.0,0.0003447882190812379
512.0,0.00030239386251196265
576.0,-0.00023912863980513066
640.0,-0.00019304944726172835
704.0,2.0301537006162107e-05
768.0,0.0001190348993986845
832.0,0.000301793945254758
896.0,5.149533171788789e-05
960.0,-5.1260023610666394e-05
1024.0,0.0001982136454898864
1152.0,-0.00027285460964776576
1280.0,0.00012753644841723144
1408.0,-8.353263183380477e-06
1536.0,-7.76766610215418e-05
1664.0,-6.409557681763545e-05
1792.0,5.006192441214807e-05
1920.0,-0.00036991885281167924
2048.0,-0.00020794279407709837
2304.0,6.105128704803064e-05
2560.0,-4.0321669075638056e-05
2816.0,7.820656719559338e-06
3072.0,7.244363223435357e-05
3328.0,-0.0002094057999784127
3584.0,-4.6221855882322416e-05
3840.0,6.038497667759657e-05
4096.0,0.00016939685156103224
4608.0,-0.00011204160546185449
5120.0,0.0001072124287020415
5632.0,-7.427181117236614e-05
6144.0,-5.618994327960536e-05
6656.0,3.2558706152485684e-05
7168.0,-5.690952093573287e-06
7680.0,-3.826848842436448e-05
8192.0,3.406255927984603e-05
9216.0,6.784934521419927e-05
10240.0,0.0001108726064558141
11264.0,-4.2539253627182916e-05
12288.0,-9.972280531655997e-05
13312.0,7.810389070073143e-05
14336.0,4.7728302888572216e-05
end
