version,3.0
numOfCh,1
type,point
parent_name,400-cuts
ch_type,1_1
kcount,1
numberNandB,1
brightnessNandB,1
carpet pos,0
pc,0
Time (ms),CH1 Auto-Correlation
1.0,0.01555587351322174
2.0,0.012318174354732037
3.0,0.010110730305314064
4.0,0.008462619967758656
5.0,0.007185416296124458
6.0,0.00620647519826889
7.0,0.005558455362915993
8.0,0.0050680930726230145
9.0,0.004500939976423979
10.0,0.004091992974281311
11.0,0.0036849554162472486
12.0,0.0033134636469185352
13.0,0.0029313473496586084
14.0,0.0027130560483783484
15.0,0.00242609903216362
16.0,0.0021087052300572395
18.0,0.0015884527238085866
20.0,0.001197854639030993
22.0,0.0007979343645274639
24.0,0.0007498689228668809
26.0,0.000801191374193877
28.0,0.0007268504123203456
30.0,0.0008395762997679412
32.0,0.0008902541012503207
36.0,0.0006164941587485373
40.0,0.00042864898568950593
44.0,0.00037152261938899755
48.0,0.0003019761061295867
52.0,0.0005696499138139188
56.0,0.0006884458125568926
60.0,0.0005592270754277706
64.0,0.000259508058661595
72.0,0.00017480053065810353
80.0,-6.78107826388441e-05
88.0,-6.92325847921893e-05
96.0,1.1397584785299841e-05
104.0,0.00011893198097823188
112.0,0.0002767069381661713
120.0,-0.00014704902423545718
128.0,-0.00026247731875628233
144.0,-5.1412058382993564e-05
160.0,-0.00031048868549987674
176.0,-0.0002525874297134578
192.0,8.886602154234424e-05
208.0,-2.6732830519904383e-05
224.0,6.509924423880875e-05
240.0,-0.00010016781743615866
256.0,0.00015548009832855314
288.0,0.0005219841259531677
320.0,0.0003895826521329582
352.0,-0.00031659481464885175
384.0,1.9909628463210538e-05
416.0,-7.348985673161224e-05
448.0,-0.00014210095105227083
480.0,8.64731555338949e-05
512.0,0.0001277928240597248
576.0,-0.00017334472795482725
640.0,0.00024087871133815497
704.0,-0.0002447824226692319
768.0,-0.0001686767936917022
832.0,-7.887662832217757e-06
896.0,-0.0004124604456592351
960.0,6.106610817369074e-05
1024.0,0.000146226811921224
1152.0,-0.00032628944609314203
1280.0,-2.8005884814774618e-05
1408.0,-3.469473813311197e-05
1536.0,-8.904641435947269e-05
1664.0,0.00011619365977821872
1792.0,4.294236714486033e-05
1920.0,0.00024025079619605094
2048.0,0.00035539426608011127
2304.0,-2.4443916117888875e-05
2560.0,2.9110407922416925e-05
2816.0,-5.9688678447855636e-05
3072.0,-5.5392600188497454e-05
3328.0,-0.00013477641914505512
3584.0,-8.574099047109485e-05
3840.0,-0.0002720221527852118
4096.0,4.5538825361290947e-05
4608.0,0.0001359695743303746
5120.0,-0.00013156322529539466
5632.0,-0.0002466404694132507
6144.0,0.00017806746473070234
6656.0,0.00018894973618444055
7168.0,-4.4878637709189206e-05
7680.0,4.359149534138851e-05
8192.0,7.087706762831658e-05
9216.0,6.340570689644665e-05
10240.0,-0.00020663496979977936
11264.0,3.9832593756727874e-05
12288.0,-1.8606458979775198e-05
13312.0,-0.00033351362799294293
14336.0,0.00012477338896133006
end
