version,3.0
numOfCh,1
type,point
parent_name,400-cuts
ch_type,1_1
kcount,1
numberNandB,1
brightnessNandB,1
carpet pos,0
pc,0
Time (ms),CH1 Auto-Correlation
1.0,0.0269700288772583
2.0,0.021793285384774208
3.0,0.0181711558252573
4.0,0.015494126826524734
5.0,0.013490921817719936
6.0,0.011844783090054989
7.0,0.010587402619421482
8.0,0.00938369706273079
9.0,0.008282089605927467
10.0,0.007431293372064829
11.0,0.006678713019937277
12.0,0.00608183816075325
13.0,0.005504703614860773
14.0,0.0049089910462498665
15.0,0.004495654720813036
16.0,0.004058624617755413
18.0,0.003349422477185726
20.0,0.002984768245369196
22.0,0.002557800617069006
24.0,0.0022028214298188686
26.0,0.0018570591928437352
28.0,0.0013331627706065774
30.0,0.0010520461946725845
32.0,0.0009797640377655625
36.0,0.0008213958353735507
40.0,0.0005530049093067646
44.0,0.0004612300544977188
48.0,0.00024181602930184454
52.0,8.212882676161826e-05
56.0,-6.517936708405614e-05
60.0,-0.00022551730216946453
64.0,-0.0008406743872910738
72.0,-0.001962078735232353
80.0,-0.0020897118374705315
88.0,-0.0015280937077477574
96.0,-0.0012918133288621902
104.0,-0.0007537257042713463
112.0,-0.0004396050062496215
120.0,2.3587308533024043e-05
128.0,5.35283152203192e-06
144.0,0.0011162649607285857
160.0,0.00113563216291368
176.0,0.00031853746622800827
192.0,-0.0006920091691426933
208.0,-0.0003405184543225914
224.0,-0.0013149965088814497
240.0,-0.0007244014996103942
256.0,-0.00037536234594881535
288.0,-5.696956941392273e-05
320.0,0.00013782843598164618
352.0,0.0006576379528269172
384.0,-4.1147115553030744e-05
416.0,0.00019255129154771566
448.0,-0.00012871914077550173
480.0,1.1410480738049955e-06
512.0,2.012047298194375e-05
576.0,-0.00027781131211668253
640.0,-0.00023777552996762097
704.0,0.00027357300859875977
768.0,0.0007081145304255188
832.0,0.0003985127550549805
896.0,-0.0002769923012237996
960.0,-0.000509154109749943
1024.0,-3.894380643032491e-05
1152.0,-3.413098738747067e-06
1280.0,-6.91681561875157e-05
1408.0,0.0001953591563506052
1536.0,-0.0005992379738017917
1664.0,-5.419788067229092e-05
1792.0,-0.00017205459880642593
1920.0,0.00018598615133669227
2048.0,0.00029857977642677724
2304.0,-6.860926077933982e-05
2560.0,-0.00013017903256695718
2816.0,0.0003230474831070751
3072.0,-0.0002522412105463445
3328.0,-0.00014164009189698845
3584.0,9.963390039047226e-05
3840.0,-0.0001541195815661922
4096.0,0.00010992771422024816
4608.0,-6.929533265065402e-05
5120.0,-0.00016825903730932623
5632.0,-0.00011341874778736383
6144.0,-0.00011694065324263647
6656.0,0.00031840865267440677
7168.0,0.0001084994655684568
7680.0,2.2996560801402666e-05
8192.0,-3.653704698081128e-05
9216.0,-9.25262356759049e-05
10240.0,-0.00012928051000926644
11264.0,2.6758887543110177e-05
12288.0,-0.00020019129442516714
13312.0,3.777356323553249e-05
14336.0,0.00023030556621961296
end
