version,3.0
numOfCh,1
type,point
parent_name,400-cuts
ch_type,1_1
kcount,1
numberNandB,1
brightnessNandB,1
carpet pos,0
pc,0
Time (ms),CH1 Auto-Correlation
1.0,0.027842318639159203
2.0,0.022556791082024574
3.0,0.018667394295334816
4.0,0.015542554669082165
5.0,0.013007468543946743
6.0,0.011027944274246693
7.0,0.00954379327595234
8.0,0.008423020131886005
9.0,0.0076305014081299305
10.0,0.006967207416892052
11.0,0.006444049533456564
12.0,0.005915817804634571
13.0,0.005511697381734848
14.0,0.004935176577419043
15.0,0.004506418481469154
16.0,0.004246842581778765
18.0,0.003758018836379051
20.0,0.003326345467939973
22.0,0.0026774208527058363
24.0,0.002282175002619624
26.0,0.002178535098209977
28.0,0.0019069132395088673
30.0,0.0015644931700080633
32.0,0.0015904945321381092
36.0,0.0018205103697255254
40.0,0.0013914150185883045
44.0,0.0007834695279598236
48.0,0.00041149085154756904
52.0,0.0006039213621988893
56.0,0.0007124807452782989
60.0,0.0006527933874167502
64.0,0.0008258667658083141
72.0,0.000471679144538939
80.0,-0.00015657373296562582
88.0,-0.00011801131040556356
96.0,3.0386106573132565e-06
104.0,-4.653402356780134e-05
112.0,0.00029653022647835314
120.0,0.0010022480273619294
128.0,0.00035291965468786657
144.0,-0.00042201991891488433
160.0,0.0001895939785754308
176.0,0.000566101458389312
192.0,0.00011715777509380132
208.0,-0.0004470008716452867
224.0,-0.0005117345135658979
240.0,-0.0005321288481354713
256.0,-0.0002148361672880128
288.0,-0.00033244170481339097
320.0,-0.0007768066716380417
352.0,-0.00046741371625103056
384.0,-0.0007588101434521377
416.0,7.54673674236983e-05
448.0,-0.001339638140052557
480.0,-0.0007435758598148823
512.0,-0.00046616847976110876
576.0,0.0002479817485436797
640.0,0.00038301380118355155
704.0,0.0004095852200407535
768.0,0.00013210263568907976
832.0,-0.0002202513860538602
896.0,-0.0003667694400064647
960.0,-0.0004882285720668733
1024.0,-0.00042968688649125397
1152.0,-0.00040686369175091386
1280.0,0.0001804625935619697
1408.0,0.00023688712099101394
1536.0,-0.0003353122156113386
1664.0,-0.0004529466386884451
1792.0,-7.274168456206098e-05
1920.0,-7.098845526343212e-05
2048.0,6.0873131587868556e-05
2304.0,0.00011283789353910834
2560.0,-0.00026255857665091753
2816.0,-0.00029579686815850437
3072.0,0.0001707873889245093
3328.0,0.00017715169815346599
3584.0,-9.829092596191913e-05
3840.0,0.0003105106297880411
4096.0,5.508676258614287e-05
4608.0,0.00011538229591678828
5120.0,-5.165504990145564e-05
5632.0,-0.00010653679055394605
6144.0,2.166863123420626e-05
6656.0,-4.7165485739242285e-05
7168.0,-5.264713036012836e-05
7680.0,0.0002009600430028513
8192.0,-5.347786645870656e-05
9216.0,-1.701515975582879e-05
10240.0,-6.422989099519327e-05
11264.0,3.7250571040203795e-05
12288.0,0.0001773795811459422
13312.0,-0.00024862875579856336
14336.0,0.00014554534573107958
end
