version,3.0
numOfCh,1
type,point
parent_name,400-cuts
ch_type,1_1
kcount,1
numberNandB,1
brightnessNandB,1
carpet pos,0
pc,0
Time (ms),CH1 Auto-Correlation
1.0,0.016294356435537338
2.0,0.01306921523064375
3.0,0.0108355563133955
4.0,0.009098638780415058
5.0,0.007741263136267662
6.0,0.006748017389327288
7.0,0.006044318433851004
8.0,0.005477379076182842
9.0,0.004910074174404144
10.0,0.00442352844402194
11.0,0.003964097239077091
12.0,0.003585030557587743
13.0,0.003196542849764228
14.0,0.0029526709113270044
15.0,0.002623405773192644
16.0,0.0022404477931559086
18.0,0.0020926010329276323
20.0,0.0020185320172458887
22.0,0.001781603554263711
24.0,0.0015571541152894497
26.0,0.001348665333352983
28.0,0.0011437826324254274
30.0,0.0010718009434640408
32.0,0.0008892614278011024
36.0,0.0005859914235770702
40.0,0.0004728322383016348
44.0,0.00012912976671941578
48.0,0.00014400313375517726
52.0,0.0003004207101184875
56.0,0.0006062790052965283
60.0,0.0007433415739797056
64.0,0.0006335764192044735
72.0,0.0005203996552154422
80.0,3.76017669623252e-05
88.0,-0.0004012216522824019
96.0,6.05952154728584e-05
104.0,0.00015709844592493027
112.0,0.0003204924869351089
120.0,0.0002892822667490691
128.0,0.00026430192519910634
144.0,8.215771231334656e-05
160.0,0.00016806276107672602
176.0,-8.263665222330019e-06
192.0,-7.972457387950271e-05
208.0,-0.0005275706062093377
224.0,-0.00019104121020063758
240.0,-0.00015762860130053014
256.0,0.00012765820429194719
288.0,-0.0002341176732443273
320.0,0.00039800532977096736
352.0,-0.00020058439986314625
384.0,0.00042558860150165856
416.0,-0.0009366634767502546
448.0,-0.0004800201568286866
480.0,-0.00032311142422258854
512.0,-0.00022563620586879551
576.0,-0.0007550672744400799
640.0,-0.0004068204725626856
704.0,-0.00010638531239237636
768.0,-3.823333372565685e-06
832.0,0.0004380306345410645
896.0,0.0001770771195879206
960.0,-0.00014565695892088115
1024.0,-1.4190903129929211e-05
1152.0,0.0004480620555114001
1280.0,0.00026389837148599327
1408.0,-4.426028681336902e-05
1536.0,1.6909429177758284e-05
1664.0,-1.143445297202561e-05
1792.0,-0.0005116336978971958
1920.0,-0.0002057536185020581
2048.0,0.00018062848539557308
2304.0,0.0004465137026272714
2560.0,-0.00015555688878521323
2816.0,-0.00018225634994450957
3072.0,0.0002634816919453442
3328.0,-0.0001410424883943051
3584.0,5.508533286047168e-05
3840.0,0.00029363547218963504
4096.0,-0.00040549630648456514
4608.0,0.00010532695159781724
5120.0,1.3971332009532489e-05
5632.0,-0.00012653587327804416
6144.0,0.00020459531515371054
6656.0,-0.00014339004701469094
7168.0,-1.7794569430407137e-05
7680.0,1.2749009329127148e-05
8192.0,-4.745660589833278e-06
9216.0,-0.0001094757390092127
10240.0,-1.6334490283043124e-05
11264.0,-6.451701483456418e-05
12288.0,-0.0001374057901557535
13312.0,0.00013128544378560036
14336.0,-0.00017865392146632075
end
