version,3.0
numOfCh,1
type,point
parent_name,400-cuts
ch_type,1_1
kcount,1
numberNandB,1
brightnessNandB,1
carpet pos,0
pc,0
Time (ms),CH1 Auto-Correlation
1.0,0.014532477594912052
2.0,0.011472453363239765
3.0,0.009460363537073135
4.0,0.007931428030133247
5.0,0.006775251589715481
6.0,0.005832793656736612
7.0,0.005140839610248804
8.0,0.004544119816273451
9.0,0.003928614314645529
10.0,0.0033857133239507675
11.0,0.0029929988086223602
12.0,0.0026920863892883062
13.0,0.002428977517411113
14.0,0.0022598146460950375
15.0,0.002053363947197795
16.0,0.0018463835585862398
18.0,0.0014367043040692806
20.0,0.0012499280273914337
22.0,0.0009930080268532038
24.0,0.0006347732269205153
26.0,0.0002241619222331792
28.0,0.00013605105050373822
30.0,8.202376920962706e-05
32.0,-6.706175918225199e-05
36.0,-5.1886610890505835e-05
40.0,9.119106834987178e-05
44.0,-0.00015814007201697677
48.0,-0.0001843046338763088
52.0,3.360108530614525e-05
56.0,-6.731871690135449e-05
60.0,-5.184176188777201e-05
64.0,-0.00014083227142691612
72.0,-0.00021712473244406283
80.0,-0.0005539970006793737
88.0,-0.0005605212645605206
96.0,-0.00016958167543634772
104.0,6.367158493958414e-05
112.0,0.0001750778901623562
120.0,0.0002727875835262239
128.0,0.0005202566389925778
144.0,0.0005579521530307829
160.0,0.0002701265038922429
176.0,3.8347421650541946e-05
192.0,-1.5320287275244482e-05
208.0,-0.0002971881185658276
224.0,-0.00035057711647823453
240.0,7.556722994195297e-05
256.0,3.09248935081996e-05
288.0,-4.617613376467489e-05
320.0,0.0004192256601527333
352.0,0.00032598120742477477
384.0,0.0004601944820024073
416.0,0.00021598144667223096
448.0,0.00019198916561435908
480.0,2.0262683392502367e-05
512.0,5.252601476968266e-05
576.0,-5.738313848269172e-05
640.0,5.189136936678551e-05
704.0,-0.00010554616892477497
768.0,-2.2017411538399756e-06
832.0,4.8055702791316435e-05
896.0,4.685581006924622e-05
960.0,9.846875764196739e-05
1024.0,-9.850950300460681e-05
1152.0,-7.01555036357604e-05
1280.0,-6.894293619552627e-05
1408.0,3.64787024409452e-06
1536.0,-5.8560719480738044e-05
1664.0,-5.672890620189719e-05
1792.0,0.00015488411008846015
1920.0,-0.00011421656381571665
2048.0,-0.00012193252769066021
2304.0,-4.4005773816024885e-05
2560.0,-0.00011423371324781328
2816.0,-0.00013794949336443096
3072.0,9.63717102422379e-05
3328.0,-1.1339884622429963e-05
3584.0,0.00010647203453117982
3840.0,-0.00024984587798826396
4096.0,5.9650879848049954e-05
4608.0,6.226947880350053e-05
5120.0,-1.7124217265518382e-05
5632.0,-0.00011728150275303051
6144.0,-3.6345354601508006e-05
6656.0,5.058012538938783e-05
7168.0,-2.762633994279895e-05
7680.0,-1.3936909454059787e-05
8192.0,-0.0001923650415847078
9216.0,4.020685810246505e-05
10240.0,0.00016821158351376653
11264.0,-3.731648757820949e-05
12288.0,-0.0001554634072817862
13312.0,-3.841216312139295e-05
14336.0,0.00016504325321875513
end
