version,3.0
numOfCh,1
type,point
parent_name,400-cuts
ch_type,1_1
kcount,1
numberNandB,1
brightnessNandB,1
carpet pos,0
pc,0
Time (ms),CH1 Auto-Correlation
1.0,0.015819231048226357
2.0,0.012786541134119034
3.0,0.010583559051156044
4.0,0.00904013216495514
5.0,0.007873493246734142
6.0,0.006827223114669323
7.0,0.005967891309410334
8.0,0.005320799071341753
9.0,0.0047068120911717415
10.0,0.004221946932375431
11.0,0.0037942177150398493
12.0,0.0034062080085277557
13.0,0.0030303115490823984
14.0,0.0027614329010248184
15.0,0.002512756735086441
16.0,0.00226508523337543
18.0,0.0018453400116413832
20.0,0.001507163280621171
22.0,0.0012984906788915396
24.0,0.0009908016072586179
26.0,0.0008579460554756224
28.0,0.0009286677232012153
30.0,0.0008465118007734418
32.0,0.0007979794754646719
36.0,0.0007387594669125974
40.0,0.0007271850481629372
44.0,0.0005287251551635563
48.0,0.00045065185986459255
52.0,0.000476284563774243
56.0,0.000450924679171294
60.0,0.0003425281320232898
64.0,0.00040836326661519706
72.0,0.0005242243059910834
80.0,0.00030873037758283317
88.0,-0.00010660142288543284
96.0,-0.0004997666692361236
104.0,-0.00041050362051464617
112.0,-0.00015611884009558707
120.0,9.514472912997007e-05
128.0,-0.00019365163461770862
144.0,0.00018654949963092804
160.0,0.0004303172172512859
176.0,0.0001350601523881778
192.0,0.0002504456788301468
208.0,0.0004071254516020417
224.0,9.70617838902399e-05
240.0,-0.00014911718608345836
256.0,-0.00012232823064550757
288.0,-0.0002230238023912534
320.0,-9.459306602366269e-05
352.0,0.00038257238338701427
384.0,-5.8213769079884514e-05
416.0,3.394803570699878e-05
448.0,-0.0004443385696504265
480.0,0.00015793813508935273
512.0,0.0001570643944432959
576.0,-4.806662764167413e-05
640.0,-7.206507871160284e-05
704.0,-0.0004369052476249635
768.0,-4.9974332796409726e-05
832.0,0.00011734350118786097
896.0,-0.00017908909649122506
960.0,-0.00014231965178623796
1024.0,-7.774042751407251e-05
1152.0,4.633289427147247e-05
1280.0,-4.987250122212572e-06
1408.0,0.00011969903425779194
1536.0,-0.00021628313697874546
1664.0,-0.00044035172322764993
1792.0,-0.00014080930850468576
1920.0,-0.0002507598837837577
2048.0,5.636401328956708e-05
2304.0,-4.651465133065358e-06
2560.0,4.586655995808542e-05
2816.0,0.0003147341776639223
3072.0,-1.1220724445593078e-05
3328.0,7.139464287320152e-05
3584.0,5.258475084701786e-06
3840.0,-0.00022544575040228665
4096.0,6.396044773282483e-05
4608.0,-0.00028119634953327477
5120.0,-1.7353017028653994e-05
5632.0,0.00014571144129149616
6144.0,-7.515240577049553e-05
6656.0,-4.659776095650159e-05
7168.0,7.082621596055105e-05
7680.0,7.070467108860612e-05
8192.0,-1.7614171156310476e-05
9216.0,2.4471817596349865e-05
10240.0,8.396143675781786e-05
11264.0,-8.566424367018044e-05
12288.0,-9.62808117037639e-05
13312.0,0.0004934176104143262
14336.0,-0.00021269320859573781
end
