version,3.0
numOfCh,1
type,point
parent_name,400-cuts
ch_type,1_1
kcount,1
numberNandB,1
brightnessNandB,1
carpet pos,0
pc,0
Time (ms),CH1 Auto-Correlation
1.0,0.025025520473718643
2.0,0.01979309506714344
3.0,0.0161947850137949
4.0,0.013561026193201542
5.0,0.011568678542971611
6.0,0.010121301747858524
7.0,0.009021801874041557
8.0,0.008100507780909538
9.0,0.00712039927020669
10.0,0.006238456349819899
11.0,0.005637284368276596
12.0,0.005184519104659557
13.0,0.004832169972360134
14.0,0.004439981188625097
15.0,0.004163543693721294
16.0,0.003997275605797768
18.0,0.003629919607192278
20.0,0.003236115677282214
22.0,0.0030148865189403296
24.0,0.00295108905993402
26.0,0.002585605951026082
28.0,0.001838297233916819
30.0,0.0013357297284528613
32.0,0.0008263064664788544
36.0,0.0004279878339730203
40.0,0.00059926463291049
44.0,0.000851066317409277
48.0,0.0013067068066447973
52.0,0.0011856709606945515
56.0,0.0008051767363213003
60.0,0.00017223821487277746
64.0,-0.00013745325850322843
72.0,4.6944704081397504e-05
80.0,-0.00012025210162391886
88.0,0.00013340885925572366
96.0,0.0008419719524681568
104.0,0.0007304618484340608
112.0,0.0006082268664613366
120.0,2.169425533793401e-05
128.0,-0.0007278072880581021
144.0,-0.000314778764732182
160.0,0.0002848563017323613
176.0,0.0002917411911766976
192.0,-0.00015642563812434673
208.0,0.00023615868121851236
224.0,-9.452791709918529e-05
240.0,0.00022659965907223523
256.0,0.00046959606697782874
288.0,0.00036243745125830173
320.0,0.00023535729269497097
352.0,0.0003617067413870245
384.0,0.00020903555559925735
416.0,0.0004758401191793382
448.0,0.0008490449981763959
480.0,0.000526148418430239
512.0,0.0010515102185308933
576.0,-0.0004429898108355701
640.0,-0.0008864501141943038
704.0,-0.0007325708284042776
768.0,-0.00014566222671419382
832.0,-0.0001687529729679227
896.0,4.214199725538492e-05
960.0,-6.932736869202927e-05
1024.0,-0.0007463337387889624
1152.0,-0.0007558661163784564
1280.0,0.0003940353635698557
1408.0,0.00027741954545490444
1536.0,-7.468058174708858e-05
1664.0,-2.8624199330806732e-05
1792.0,0.0008008211734704673
1920.0,-0.000135476904688403
2048.0,-5.074475848232396e-05
2304.0,1.4242210454540327e-05
2560.0,-0.0002628140791784972
2816.0,-0.0003807618631981313
3072.0,-0.00015165221702773124
3328.0,-0.0002879321400541812
3584.0,0.0001651616330491379
3840.0,0.00023765789228491485
4096.0,9.141654300037771e-05
4608.0,4.8845846322365105e-05
5120.0,-0.00018153044220525771
5632.0,-0.0001683227310422808
6144.0,0.0002551765355747193
6656.0,0.000383884267648682
7168.0,-0.0005634006229229271
7680.0,-4.0224436816060916e-05
8192.0,0.00017890174058265984
9216.0,-0.00034668060834519565
10240.0,0.00048219392192550004
11264.0,-0.0001104618568206206
12288.0,0.0001935837062774226
13312.0,-0.0005368203273974359
14336.0,0.0006524213240481913
end
