version,3.0
numOfCh,1
type,point
parent_name,400-cuts
ch_type,1_1
kcount,1
numberNandB,1
brightnessNandB,1
carpet pos,0
pc,0
Time (ms),CH1 Auto-Correlation
1.0,0.016438186168670654
2.0,0.013324141502380371
3.0,0.011107285507023335
4.0,0.009429601021111012
5.0,0.008100844919681549
6.0,0.007064875680953264
7.0,0.006240684539079666
8.0,0.005636077374219894
9.0,0.005085318349301815
10.0,0.004491844214498997
11.0,0.0039122565649449825
12.0,0.0035824324004352093
13.0,0.00321889016777277
14.0,0.002951020374894142
15.0,0.0027756618801504374
16.0,0.0025236133951693773
18.0,0.0022596106864511967
20.0,0.002010602969676256
22.0,0.0017218434950336814
24.0,0.0014860957162454724
26.0,0.0013306051259860396
28.0,0.0011374019086360931
30.0,0.0010653509525582194
32.0,0.0010096251498907804
36.0,0.0009275370975956321
40.0,0.001086783711798489
44.0,0.0011587420012801886
48.0,0.0008620273438282311
52.0,0.0005469141178764403
56.0,0.0002291459677508101
60.0,0.00034138577757403255
64.0,-2.7480986318551004e-05
72.0,-0.00013735005632042885
80.0,-0.00010564196418272331
88.0,5.125817551743239e-05
96.0,0.0003790529735852033
104.0,0.00010311833466403186
112.0,-0.00024242674408014864
120.0,6.230104190763086e-05
128.0,0.00036027334863319993
144.0,0.0001929945865413174
160.0,5.933410284342244e-05
176.0,0.0001524285617051646
192.0,0.00046103436034172773
208.0,1.0909440788964275e-05
224.0,-0.00016925405361689627
240.0,-0.00044393600546754897
256.0,6.189897248987108e-05
288.0,0.00020885953563265502
320.0,-0.00010104937973665074
352.0,7.327221828745678e-05
384.0,-6.181118078529835e-05
416.0,-0.00013703601143788546
448.0,-0.00012222406803630292
480.0,0.0001481192302890122
512.0,8.700773469172418e-05
576.0,-0.00025792428641580045
640.0,0.00016998786304611713
704.0,-0.00024844289873726666
768.0,-0.00025298213586211205
832.0,6.913062679814175e-05
896.0,0.00043230567825958133
960.0,-0.00034327435423620045
1024.0,9.742817928781733e-05
1152.0,2.813083028740948e-06
1280.0,0.00016592493921052665
1408.0,0.0003024725301656872
1536.0,2.1300655134837143e-05
1664.0,-0.00029449345311149955
1792.0,3.5759139791480266e-06
1920.0,-0.00010541793017182499
2048.0,0.00013487701653502882
2304.0,0.0003797697718255222
2560.0,0.0003052694664802402
2816.0,5.3754156397189945e-05
3072.0,-0.0001624181168153882
3328.0,-0.0004207176680210978
3584.0,0.0001986293646041304
3840.0,0.00010367865615990013
4096.0,-1.3726341421715915e-05
4608.0,-0.00010544895485509187
5120.0,0.00012382456043269485
5632.0,-0.00027722580125555396
6144.0,2.0484283595578745e-05
6656.0,8.582105510868132e-05
7168.0,-2.833415419445373e-05
7680.0,-4.040976273245178e-05
8192.0,-0.000217895329114981
9216.0,-2.6177156541962177e-05
10240.0,-6.419161218218505e-05
11264.0,-0.00016314252570737153
12288.0,-1.551929562992882e-05
13312.0,-0.000244954222580418
14336.0,1.029457871482009e-05
end
