version,3.0
numOfCh,1
type,point
parent_name,400-cuts
ch_type,1_1
kcount,1
numberNandB,1
brightnessNandB,1
carpet pos,0
pc,0
Time (ms),CH1 Auto-Correlation
1.0,0.01772794872522354
2.0,0.014396727085113525
3.0,0.012119016610085964
4.0,0.01040229108184576
5.0,0.00900629349052906
6.0,0.007850739173591137
7.0,0.006907641887664795
8.0,0.006133971735835075
9.0,0.005300582852214575
10.0,0.004698054865002632
11.0,0.0043102470226585865
12.0,0.0039676460437476635
13.0,0.0035754991695284843
14.0,0.003471620613709092
15.0,0.0034237359650433064
16.0,0.003275507828220725
18.0,0.0028906159568578005
20.0,0.0026844805106520653
22.0,0.0023674943950027227
24.0,0.0020098001696169376
26.0,0.0017812264850363135
28.0,0.0014962165150791407
30.0,0.0012602388160303235
32.0,0.0012527314247563481
36.0,0.0009521165047772229
40.0,0.0008515042718499899
44.0,0.0007749592186883092
48.0,0.0006005035829730332
52.0,0.0005009882734157145
56.0,0.000890466442797333
60.0,0.0009523874032311141
64.0,0.000871828815434128
72.0,-5.8963607443729416e-05
80.0,-0.0005403220420703292
88.0,-0.0005259126191958785
96.0,-0.0007259789854288101
104.0,-0.0007962857489474118
112.0,-0.00032014722819440067
120.0,7.921626092866063e-05
128.0,0.0002528064069338143
144.0,-0.0001170918476418592
160.0,-5.234965556155657e-06
176.0,1.5751278624520637e-05
192.0,0.0001125585549743846
208.0,-5.406753643910633e-06
224.0,0.0004855449660681188
240.0,7.996988279046491e-05
256.0,0.00016159587539732456
288.0,8.157028787536547e-05
320.0,-0.0001993643381865695
352.0,-0.0001479411730542779
384.0,-0.00011911147885257378
416.0,-0.00016125394904520363
448.0,0.0005724168149754405
480.0,0.0002766521938610822
512.0,0.00042415919597260654
576.0,1.5357634765678085e-05
640.0,-1.445335874450393e-05
704.0,0.00013572875468526036
768.0,-0.00011274128337390721
832.0,0.00013056382886134088
896.0,-2.5189263396896422e-05
960.0,0.00032797036692500114
1024.0,7.327423372771591e-05
1152.0,-8.833634637994692e-05
1280.0,7.114977779565379e-05
1408.0,0.00027024405426345766
1536.0,3.33146563207265e-05
1664.0,-6.598390609724447e-05
1792.0,0.00014502690464723855
1920.0,7.37809605197981e-05
2048.0,-2.7818681701319292e-05
2304.0,-0.00019802174938376993
2560.0,-0.000198660054593347
2816.0,-2.2381153030437417e-05
3072.0,-0.0001479233178542927
3328.0,-0.00020890387531835586
3584.0,9.342448902316391e-05
3840.0,-8.314401929965243e-05
4096.0,1.720279033179395e-05
4608.0,8.68854476721026e-06
5120.0,-0.00013783165195491165
5632.0,7.111732702469453e-05
6144.0,-5.191946456761798e-06
6656.0,-0.00023446138948202133
7168.0,-7.88160105003044e-06
7680.0,-4.146987976128003e-06
8192.0,-0.00018718185310717672
9216.0,-4.284319584257901e-05
10240.0,0.0001997877552639693
11264.0,0.00013098247291054577
12288.0,-0.0001460005878470838
13312.0,-0.00014514164649881423
14336.0,-8.774223533691838e-05
end
