version,3.0
numOfCh,1
type,point
parent_name,400-cuts
ch_type,1_1
kcount,1
numberNandB,1
brightnessNandB,1
carpet pos,0
pc,0
Time (ms),CH1 Auto-Correlation
1.0,0.025260165333747864
2.0,0.019975785166025162
3.0,0.016467520967125893
4.0,0.01379843708127737
5.0,0.011772938072681427
6.0,0.010097780264914036
7.0,0.008731408976018429
8.0,0.0076837195083498955
9.0,0.00694146566092968
10.0,0.0064651551656425
11.0,0.006059650797396898
12.0,0.00557344127446413
13.0,0.005089710466563702
14.0,0.004557563457638025
15.0,0.004146795719861984
16.0,0.003763144835829735
18.0,0.0030829021707177162
20.0,0.0027550836093723774
22.0,0.0026965972501784563
24.0,0.0025035145226866007
26.0,0.0025378335267305374
28.0,0.0025459567550569773
30.0,0.0023613579105585814
32.0,0.002126529812812805
36.0,0.0020926983561366796
40.0,0.0017789111007004976
44.0,0.0016245209844782948
48.0,0.00184506899677217
52.0,0.002318205777555704
56.0,0.002439748262986541
60.0,0.0018767175497487187
64.0,0.0015973019180819392
72.0,0.0009146468946710229
80.0,0.001231664908118546
88.0,0.0014203997561708093
96.0,0.0008138210978358984
104.0,0.0006001529982313514
112.0,0.00020504696294665337
120.0,0.0004894115845672786
128.0,-0.0003460277512203902
144.0,-0.0006847942131571472
160.0,4.776916466653347e-05
176.0,0.00010756280244095251
192.0,7.852646376704797e-05
208.0,0.00038092496106401086
224.0,0.0006140129407867789
240.0,-0.0002328101109014824
256.0,-0.0004588247393257916
288.0,-0.0008104040753096342
320.0,-0.0006746014696545899
352.0,-0.0012199956690892577
384.0,-0.0008400261285714805
416.0,-0.0006305106217041612
448.0,-0.000627115776296705
480.0,-0.0008871031459420919
512.0,-0.00021678931079804897
576.0,0.0003319326788187027
640.0,0.00046640579239465296
704.0,-9.121287439484149e-05
768.0,-5.3672447393182665e-06
832.0,-6.552283139171777e-06
896.0,-0.0003599983174353838
960.0,0.00013959976786281914
1024.0,0.00033485100721009076
1152.0,-0.0002634694392327219
1280.0,-0.0002239743625978008
1408.0,-0.00038425307138822973
1536.0,-0.0004754224792122841
1664.0,0.0005231237155385315
1792.0,3.7888356018811464e-05
1920.0,-0.0001937330380314961
2048.0,-7.795347482897341e-05
2304.0,2.9619641281897202e-05
2560.0,0.0003264269034843892
2816.0,-0.00042901886627078056
3072.0,-0.000304276414681226
3328.0,0.0003927960351575166
3584.0,-0.0003273637848906219
3840.0,0.00026733477716334164
4096.0,-7.63343705330044e-05
4608.0,-6.980773468967527e-05
5120.0,1.758134203555528e-06
5632.0,-0.00022949546109884977
6144.0,-0.00011232758697587997
6656.0,0.00018743322289083153
7168.0,3.15652578137815e-05
7680.0,6.11259529250674e-05
8192.0,-7.658170216018334e-05
9216.0,-2.4735880288062617e-05
10240.0,-0.00012746873835567385
11264.0,-0.00011860471568070352
12288.0,0.00020792894065380096
13312.0,3.904278128175065e-05
14336.0,0.00011701642506523058
end
