version,3.0
numOfCh,1
type,point
parent_name,400-cuts
ch_type,1_1
kcount,1
numberNandB,1
brightnessNandB,1
carpet pos,0
pc,0
Time (ms),CH1 Auto-Correlation
1.0,0.015583619475364685
2.0,0.012563349679112434
3.0,0.010458399541676044
4.0,0.008927182294428349
5.0,0.007731732912361622
6.0,0.006799242924898863
7.0,0.00611567497253418
8.0,0.00545094907283783
9.0,0.004899157211184502
10.0,0.004514691885560751
11.0,0.004196248948574066
12.0,0.003805293468758464
13.0,0.0034752185456454754
14.0,0.0032576224766671658
15.0,0.0030177466105669737
16.0,0.0029293899424374104
18.0,0.002466756384819746
20.0,0.0020568117033690214
22.0,0.0018305695848539472
24.0,0.0016221494879573584
26.0,0.001531601999886334
28.0,0.0014064637944102287
30.0,0.001255023293197155
32.0,0.0011724443174898624
36.0,0.0010646142764016986
40.0,0.0008282475173473358
44.0,0.0006768229068256915
48.0,0.000677052594255656
52.0,0.0006233361200429499
56.0,0.0004012316931039095
60.0,0.00025336359976790845
64.0,0.00017875774938147515
72.0,3.548362656147219e-05
80.0,0.0004748766077682376
88.0,7.52926425775513e-05
96.0,-0.000141351149068214
104.0,-0.00043244799599051476
112.0,-0.00023565327865071595
120.0,5.230984606896527e-05
128.0,0.0002661492326296866
144.0,0.0004607018199749291
160.0,0.00046122187632136047
176.0,0.00021050132636446506
192.0,5.011183748138137e-05
208.0,-0.00015673480811528862
224.0,-0.00032618912518955767
240.0,-0.00021455317619256675
256.0,2.2731113858753815e-05
288.0,0.0006787701277062297
320.0,0.00035832964931614697
352.0,-4.0714239730732515e-05
384.0,-0.00020127222524024546
416.0,-8.761224307818338e-05
448.0,-5.279343167785555e-05
480.0,0.00013679637049790472
512.0,-0.0002690521359909326
576.0,0.0001404135546181351
640.0,2.3218197384267114e-05
704.0,-0.00032954293419606984
768.0,-0.00041126375435851514
832.0,-0.0002339107741136104
896.0,-7.511423609685153e-05
960.0,-3.409451528568752e-05
1024.0,-7.446319068549201e-05
1152.0,0.00012005424650851637
1280.0,-0.00013683449651580304
1408.0,-7.169202581280842e-05
1536.0,-0.00016833182598929852
1664.0,0.00012396214879117906
1792.0,5.643086115014739e-05
1920.0,7.133177132345736e-05
2048.0,0.00030524659086950123
2304.0,7.151974568841979e-05
2560.0,-0.00020602178119588643
2816.0,-0.00016371734091080725
3072.0,-0.0004473107401281595
3328.0,-0.00021952282986603677
3584.0,1.5223840819089673e-05
3840.0,-8.095653356576804e-06
4096.0,-8.922738197725266e-05
4608.0,-0.00020884453260805458
5120.0,8.219334267778322e-05
5632.0,0.00016922614304348826
6144.0,-4.206965968478471e-06
6656.0,-7.2455350164091215e-06
7168.0,0.00013017159653827548
7680.0,0.00015586351219099015
8192.0,-4.367559449747205e-05
9216.0,9.666792902862653e-05
10240.0,-0.0001665759045863524
11264.0,1.0417535122542176e-05
12288.0,-9.706433047540486e-05
13312.0,5.879148011445068e-05
14336.0,3.8012371078366414e-05
end
