version,3.0
numOfCh,1
type,point
parent_name,400-cuts
ch_type,1_1
kcount,1
numberNandB,1
brightnessNandB,1
carpet pos,0
pc,0
Time (ms),CH1 Auto-Correlation
1.0,0.025297611951828003
2.0,0.020044466480612755
3.0,0.016369974240660667
4.0,0.0136943981051445
5.0,0.011633685790002346
6.0,0.009883969090878963
7.0,0.0084123145788908
8.0,0.007335701957345009
9.0,0.006367103662341833
10.0,0.005585167557001114
11.0,0.005047031678259373
12.0,0.004501150455325842
13.0,0.004094431176781654
14.0,0.0037532669957727194
15.0,0.003397296881303191
16.0,0.003172349650412798
18.0,0.0025378279387950897
20.0,0.0018871668726205826
22.0,0.0015350476605817676
24.0,0.0012881667353212833
26.0,0.0011855373159050941
28.0,0.0013937585754320025
30.0,0.0013198470696806908
32.0,0.0011732070706784725
36.0,0.0006056831916794181
40.0,0.0005679673631675541
44.0,0.000684573664329946
48.0,0.0008698087185621262
52.0,0.001112524070776999
56.0,0.000919274752959609
60.0,0.000845430651679635
64.0,0.001164858927950263
72.0,0.0010026824893429875
80.0,0.00043621924123726785
88.0,-0.00021598945022560656
96.0,0.00014577896217815578
104.0,0.0007326012710109353
112.0,0.0010047148680314422
120.0,0.0008948963368311524
128.0,0.0011246795766055584
144.0,0.0006325608701445162
160.0,0.000428335159085691
176.0,0.00027624209178611636
192.0,0.0002246806543553248
208.0,0.0005053392378613353
224.0,0.00031705174478702247
240.0,-0.00017502167611382902
256.0,-0.0002594045945443213
288.0,2.4184097128454596e-05
320.0,0.0005788948619738221
352.0,0.000205816570087336
384.0,-0.0003249813453294337
416.0,2.7052039513364434e-05
448.0,9.460760338697582e-06
480.0,-0.0004524495452642441
512.0,-0.0005257959710434079
576.0,-0.00018143170746043324
640.0,-0.00023473594046663493
704.0,-0.00035378438769839704
768.0,0.0005385215044952929
832.0,2.9108647140674293e-05
896.0,-9.870329085970297e-05
960.0,6.88886793795973e-05
1024.0,0.00040038168663159013
1152.0,3.2577568163105752e-06
1280.0,-8.966076711658388e-05
1408.0,2.882603439502418e-05
1536.0,-0.00027084254543296993
1664.0,0.0002771466679405421
1792.0,0.00040310356416739523
1920.0,0.0005948399775661528
2048.0,0.0003026832710020244
2304.0,0.00022962488583289087
2560.0,-0.00027112761745229363
2816.0,-0.00013918185140937567
3072.0,-0.0004747103957924992
3328.0,-0.00020943816343788058
3584.0,-0.0001375131105305627
3840.0,0.00024243778898380697
4096.0,-2.085641972371377e-05
4608.0,-0.0001325057091889903
5120.0,-0.0002783078816719353
5632.0,0.00024278026830870658
6144.0,0.000365714862709865
6656.0,-0.0001260930293938145
7168.0,-0.00016001563926693052
7680.0,0.0004395402502268553
8192.0,4.6494074013025966e-06
9216.0,-0.00012648744450416416
10240.0,-0.0003878088027704507
11264.0,-0.00019376470299903303
12288.0,-0.00022071316197980195
13312.0,-4.2260464397259057e-05
14336.0,-0.00031509206746704876
end
