version,3.0
numOfCh,1
type,point
parent_name,400-cuts
ch_type,1_1
kcount,1
numberNandB,1
brightnessNandB,1
carpet pos,0
pc,0
Time (ms),CH1 Auto-Correlation
1.0,0.02682330831885338
2.0,0.021429596468806267
3.0,0.017728224396705627
4.0,0.014828150160610676
5.0,0.012893498875200748
6.0,0.011170447804033756
7.0,0.009869909845292568
8.0,0.008729511871933937
9.0,0.007798328995704651
10.0,0.007265481166541576
11.0,0.006801662500947714
12.0,0.00642031105235219
13.0,0.005974894389510155
14.0,0.005578265059739351
15.0,0.005154653452336788
16.0,0.004869775380939245
18.0,0.0038916284684091806
20.0,0.003308042883872986
22.0,0.0029195763636380434
24.0,0.003083283081650734
26.0,0.0032110887113958597
28.0,0.0028251204639673233
30.0,0.002250273711979389
32.0,0.0016035832231864333
36.0,0.0010122723178938031
40.0,0.0006744501879438758
44.0,0.0008583119488321245
48.0,0.0008587726624682546
52.0,0.0006777903763577342
56.0,0.00017325827502645552
60.0,-0.00047846921370364726
64.0,-0.000229441502597183
72.0,0.0007045324891805649
80.0,0.0012597425375133753
88.0,0.001350568374618888
96.0,0.0003495755372568965
104.0,0.00029248048667795956
112.0,0.0002282900968566537
120.0,0.0005260122707113624
128.0,-0.0002551160578150302
144.0,-6.508782098535448e-05
160.0,0.0003438264538999647
176.0,-0.00035787743399851024
192.0,0.00026848824927583337
208.0,0.0007292950176633894
224.0,0.000541440851520747
240.0,0.000679973338264972
256.0,0.00035171923809684813
288.0,-0.0004292173543944955
320.0,0.0005636817659251392
352.0,0.0002684867358766496
384.0,-5.649223385262303e-05
416.0,-0.0001323589967796579
448.0,-5.297395091474755e-06
480.0,0.0002007787552429363
512.0,0.0004419999895617366
576.0,0.0002659887832123786
640.0,-0.000150433334056288
704.0,2.1446890059451107e-06
768.0,0.001143723027780652
832.0,0.00021819336689077318
896.0,0.0007418948225677013
960.0,-7.647029997315258e-05
1024.0,0.00014919186651241034
1152.0,0.0003864738973788917
1280.0,0.0005208327202126384
1408.0,0.0004237069224473089
1536.0,0.00015756854554638267
1664.0,0.0005673956475220621
1792.0,-1.9069528207182884e-05
1920.0,-0.0005634130793623626
2048.0,0.0003870024811476469
2304.0,6.112172559369355e-05
2560.0,2.5428873414057307e-05
2816.0,5.417612919700332e-05
3072.0,1.1599528988881502e-05
3328.0,9.542326552036684e-06
3584.0,-0.00013407625374384224
3840.0,-4.531860031420365e-05
4096.0,-3.8568319723708555e-05
4608.0,-0.00037518085446208715
5120.0,-0.0005523714935407043
5632.0,-0.00031019089510664344
6144.0,-0.0003650114231277257
6656.0,-0.0002925659064203501
7168.0,-0.0004194212961010635
7680.0,-9.495794802205637e-05
8192.0,-0.00023101405531633645
9216.0,6.052333446859848e-06
10240.0,0.0001947786659002304
11264.0,0.00040563990478403866
12288.0,0.00023759237956255674
13312.0,-0.000195491302292794
14336.0,-0.0001900976203614846
end
