version,3.0
numOfCh,1
type,point
parent_name,400-cuts
ch_type,1_1
kcount,1
numberNandB,1
brightnessNandB,1
carpet pos,0
pc,0
Time (ms),CH1 Auto-Correlation
1.0,0.02546241506934166
2.0,0.0205070823431015
3.0,0.0167425237596035
4.0,0.014190101996064186
5.0,0.012078541330993176
6.0,0.010751713067293167
7.0,0.009642321616411209
8.0,0.008651788346469402
9.0,0.007834860123693943
10.0,0.00702574010938406
11.0,0.0063979532569646835
12.0,0.005898917093873024
13.0,0.00549748819321394
14.0,0.005109024234116077
15.0,0.004691018722951412
16.0,0.004170483909547329
18.0,0.0033954766113311052
20.0,0.0026695544365793467
22.0,0.0022975376341491938
24.0,0.001802288112230599
26.0,0.0016691578784957528
28.0,0.0017894486663863063
30.0,0.0014205743791535497
32.0,0.0013266659807413816
36.0,0.001270947977900505
40.0,0.0014163774903863668
44.0,0.0006203041994012892
48.0,9.205409878632054e-05
52.0,0.00023680730373598635
56.0,0.0003629326238296926
60.0,-3.4072993457812117e-06
64.0,-0.00015181904018390924
72.0,-4.267478652764112e-05
80.0,0.00024440165725536644
88.0,3.398420085432008e-05
96.0,-0.000317588506732136
104.0,-0.0003929500235244632
112.0,-0.00046181591460481286
120.0,2.484130163793452e-05
128.0,-0.0007321308366954327
144.0,-0.00023277483705896884
160.0,-0.00031308498000726104
176.0,0.0005467472947202623
192.0,0.001218968303874135
208.0,0.0008615365368314087
224.0,0.0004462601791601628
240.0,-0.00042138848220929503
256.0,-0.00010294187086401507
288.0,-0.00041284930193796754
320.0,-0.00029057214851491153
352.0,-0.000350271729985252
384.0,2.8482929337769747e-05
416.0,0.0004572382022161037
448.0,-0.0003005309554282576
480.0,-0.00016022016643546522
512.0,-1.3565589824793278e-06
576.0,6.0707763623213395e-05
640.0,-0.00027157572912983596
704.0,-0.00013159406080376357
768.0,0.00012233690358698368
832.0,-0.0002365352847846225
896.0,0.0004449048137757927
960.0,0.0007645764271728694
1024.0,0.00011313820868963376
1152.0,-0.000124827231047675
1280.0,-0.00024447726900689304
1408.0,-0.0002833301550708711
1536.0,-0.0001249508059117943
1664.0,-9.67114174272865e-05
1792.0,0.0007944045937620103
1920.0,0.00020389590645208955
2048.0,-5.9527563280425966e-05
2304.0,6.794043292757124e-05
2560.0,-0.00012806328595615923
2816.0,0.0001405293442076072
3072.0,4.075792821822688e-05
3328.0,1.5632880604243837e-05
3584.0,-0.00015591517149005085
3840.0,2.0870735170319676e-05
4096.0,0.0001976199564523995
4608.0,2.443717312416993e-05
5120.0,-0.00018200892372988164
5632.0,4.759506191476248e-05
6144.0,-7.36400397727266e-05
6656.0,-0.00017607146583031863
7168.0,-4.2867392039624974e-05
7680.0,-0.00030706977122463286
8192.0,-9.464217146160081e-05
9216.0,-0.00010615904466249049
10240.0,-0.00014887069119140506
11264.0,5.470143150887452e-05
12288.0,0.0001756535202730447
13312.0,6.155156734166667e-05
14336.0,-0.00012679201608989388
end
