version,3.0
numOfCh,1
type,point
parent_name,400-cuts
ch_type,1_1
kcount,1
numberNandB,1
brightnessNandB,1
carpet pos,0
pc,0
Time (ms),CH1 Auto-Correlation
1.0,0.01627153344452381
2.0,0.013092860579490662
3.0,0.010814615525305271
4.0,0.009045923128724098
5.0,0.007683923467993736
6.0,0.0066933417692780495
7.0,0.005803118459880352
8.0,0.0051016416400671005
9.0,0.004513606429100037
10.0,0.004171866923570633
11.0,0.003653941210359335
12.0,0.003261276986449957
13.0,0.0029775635339319706
14.0,0.0027152104303240776
15.0,0.0025898106396198273
16.0,0.0024561849422752857
18.0,0.002197279827669263
20.0,0.001909948419779539
22.0,0.0015615822048857808
24.0,0.0012291016755625606
26.0,0.00104718713555485
28.0,0.0010708970949053764
30.0,0.0009735313360579312
32.0,0.0009418074623681605
36.0,0.0006945520872250199
40.0,0.000532622798345983
44.0,0.00012828566832467914
48.0,-0.00017533711798023432
52.0,-0.0006365881999954581
56.0,-0.0009142639464698732
60.0,-0.0008532630745321512
64.0,-0.0006748824380338192
72.0,-0.0006217831978574395
80.0,-0.0004891259595751762
88.0,-0.0005265995860099792
96.0,-0.0005926293670199811
104.0,-0.0005910216714255512
112.0,-0.0004479934577830136
120.0,-0.0004911150317639112
128.0,-0.0005203929031267762
144.0,4.231980346958153e-05
160.0,7.333333633141592e-05
176.0,0.00033960348810069263
192.0,0.00028867731452919543
208.0,0.00034182629315182567
224.0,-0.0001318844297202304
240.0,-0.00013210315955802798
256.0,7.382405442513118e-07
288.0,0.00010774118709377944
320.0,-0.00015323760453611612
352.0,-0.00030610570684075356
384.0,-0.0002860406239051372
416.0,-0.00027217058232054114
448.0,-6.413740294419767e-08
480.0,0.00014558338443748653
512.0,1.8679005734156817e-05
576.0,-0.0001287148625124246
640.0,-9.9081480584573e-05
704.0,0.00027807356673292816
768.0,0.0002475564833730459
832.0,-0.00043080744217149913
896.0,-0.00025802821619436145
960.0,7.77707391534932e-05
1024.0,-0.0008014956838451326
1152.0,0.00030501082073897123
1280.0,0.0001973215548787266
1408.0,0.0002938657416962087
1536.0,-9.345944999950007e-05
1664.0,1.562374563945923e-06
1792.0,-0.0003994357248302549
1920.0,0.0003726855502463877
2048.0,-8.644666377222165e-05
2304.0,-0.0001144860580097884
2560.0,0.00011547675239853561
2816.0,3.647460471256636e-05
3072.0,-0.00016011347179301083
3328.0,1.162328203463403e-06
3584.0,-1.512153812655015e-05
3840.0,-5.817363125970587e-05
4096.0,0.00021766952704638243
4608.0,-0.00012183051876490936
5120.0,-0.0001482310617575422
5632.0,0.00020887945720460266
6144.0,1.3269333976495545e-05
6656.0,2.5009232558659278e-05
7168.0,-2.9202387850091327e-06
7680.0,0.00011495258513605222
8192.0,-4.90752026962582e-05
9216.0,-2.90235966531327e-05
10240.0,-8.877560321707278e-05
11264.0,-1.9234325009165332e-05
12288.0,3.8400597986765206e-05
13312.0,0.0001412469136994332
14336.0,-0.00039268971886485815
end
