version,3.0
numOfCh,1
type,point
parent_name,400-cuts
ch_type,1_1
kcount,1
numberNandB,1
brightnessNandB,1
carpet pos,0
pc,0
Time (ms),CH1 Auto-Correlation
1.0,0.02668829821050167
2.0,0.021269023418426514
3.0,0.01750830188393593
4.0,0.014950594864785671
5.0,0.013020379468798637
6.0,0.011549502611160278
7.0,0.010205546393990517
8.0,0.009065976366400719
9.0,0.008175002411007881
10.0,0.0076071396470069885
11.0,0.0069795032031834126
12.0,0.006433253176510334
13.0,0.005818892735987902
14.0,0.005201317835599184
15.0,0.004819424357265234
16.0,0.004767690319567919
18.0,0.004581581335514784
20.0,0.004287126008421183
22.0,0.004059672821313143
24.0,0.0037956093437969685
26.0,0.0036021049600094557
28.0,0.003426559502258897
30.0,0.0030861797276884317
32.0,0.0027869727928191423
36.0,0.0019502959912642837
40.0,0.0010828786762431264
44.0,0.0006900604348629713
48.0,0.00032382027711719275
52.0,-5.950667764409445e-05
56.0,-0.0002443075063638389
60.0,-0.00016110615979414433
64.0,-0.00011120244744233787
72.0,-0.00042292216676287353
80.0,-0.0006746159633621573
88.0,-0.000218111090362072
96.0,0.0007645481382496655
104.0,0.0010243976721540093
112.0,0.00111693749204278
120.0,0.0007366564241237938
128.0,0.0017909570597112179
144.0,0.0006652747979387641
160.0,0.0003754023346118629
176.0,7.822870247764513e-05
192.0,-0.00018749792070593685
208.0,-9.9993783805985e-05
224.0,0.00010903690417762846
240.0,0.0005327819962985814
256.0,0.00039066551835276186
288.0,8.375634934054688e-06
320.0,0.0005014333291910589
352.0,0.0011233894620090723
384.0,0.0005996107356622815
416.0,-0.00037968854303471744
448.0,-0.0011171894147992134
480.0,0.00013146345736458898
512.0,0.0013156417990103364
576.0,-0.0005381572991609573
640.0,-0.0004611222248058766
704.0,0.0007399768801406026
768.0,-0.00031213037436828017
832.0,-0.0006131635163910687
896.0,0.0005011442117393017
960.0,-0.0007032383582554758
1024.0,-4.74678490718361e-05
1152.0,-0.0003440518630668521
1280.0,-0.0005512897623702884
1408.0,-0.00032272498356178403
1536.0,-0.00028440228197723627
1664.0,-0.0005982182919979095
1792.0,0.00017749816470313817
1920.0,0.0001669562770985067
2048.0,-0.0002895924844779074
2304.0,0.00015767199511174113
2560.0,1.1607343367359135e-05
2816.0,0.00013499861233867705
3072.0,0.00017815160390455276
3328.0,-0.00014085936709307134
3584.0,0.00016095108003355563
3840.0,0.0003157989413011819
4096.0,-0.0002957872347906232
4608.0,-0.0007557610515505075
5120.0,-0.00018007674952968955
5632.0,0.00025604714755900204
6144.0,0.00021112807735335082
6656.0,4.7426263336092234e-05
7168.0,-0.00022896491282153875
7680.0,-7.3697192419786e-05
8192.0,3.4982473152922466e-05
9216.0,0.00012970782699994743
10240.0,-0.00011480256216600537
11264.0,6.367702735587955e-05
12288.0,-1.380574190079642e-06
13312.0,-0.00031729182228446007
14336.0,-0.00023414340103045106
end
