version,3.0
numOfCh,1
type,point
parent_name,400-cuts
ch_type,1_1
kcount,1
numberNandB,1
brightnessNandB,1
carpet pos,0
pc,0
Time (ms),CH1 Auto-Correlation
1.0,0.027824172750115395
2.0,0.02255670353770256
3.0,0.018987534567713737
4.0,0.016141559928655624
5.0,0.014057427644729614
6.0,0.012463062070310116
7.0,0.011033647693693638
8.0,0.009984495118260384
9.0,0.009198365733027458
10.0,0.008293872699141502
11.0,0.007227834779769182
12.0,0.006561308167874813
13.0,0.00599596556276083
14.0,0.005441664252430201
15.0,0.004898172337561846
16.0,0.004250271711498499
18.0,0.0031531662680208683
20.0,0.0022795931436121464
22.0,0.0015292965108528733
24.0,0.0010477373143658042
26.0,0.0005487196613103151
28.0,0.0003266842686571181
30.0,0.0001176676232717
32.0,0.00011460519453976303
36.0,0.00029146537417545915
40.0,0.0002804644755087793
44.0,0.0007020641351118684
48.0,0.0007226774469017982
52.0,0.0005469093448482454
56.0,0.000672514084726572
60.0,0.00047635383089073
64.0,0.0003508554946165532
72.0,-2.3316097212955356e-05
80.0,-0.00017506504082120955
88.0,-0.000316859019221738
96.0,6.6895363488583826e-06
104.0,0.000211251390282996
112.0,0.00043661525705829263
120.0,0.0006935010314919055
128.0,0.0008819884387776256
144.0,0.0009826328605413437
160.0,0.0007953199092298746
176.0,0.00023397257609758526
192.0,-0.0002326427784282714
208.0,3.524895873852074e-05
224.0,0.00026938237715512514
240.0,-4.134984556003474e-05
256.0,-0.0007071177824400365
288.0,-0.00012331100879237056
320.0,-0.0001288167550228536
352.0,-0.0004669353074859828
384.0,-0.0010837495792657137
416.0,-0.000717037299182266
448.0,0.00010783427569549531
480.0,0.00021733285393565893
512.0,-0.00040571828139945865
576.0,0.0004670020716730505
640.0,3.176942118443549e-05
704.0,2.8004884370602667e-05
768.0,-0.00021672681032214314
832.0,-0.0003834290837403387
896.0,7.022139470791444e-05
960.0,0.00022193057520780712
1024.0,-2.5357014237670228e-05
1152.0,0.0004247672331985086
1280.0,-0.00025171306333504617
1408.0,-0.0007766482885926962
1536.0,-0.00018744863336905837
1664.0,-0.0005601061275228858
1792.0,-0.00022741316934116185
1920.0,-7.272797665791586e-05
2048.0,8.575898391427472e-06
2304.0,-0.00042200827738270164
2560.0,0.00030988227808848023
2816.0,4.167254519416019e-05
3072.0,-8.571640501031652e-05
3328.0,0.00022586692648474127
3584.0,0.000380637968191877
3840.0,0.0001639927359065041
4096.0,9.6275114628952e-05
4608.0,-0.00013124577526468784
5120.0,-0.00038818854955025017
5632.0,-0.0001551013847347349
6144.0,0.0001344698539469391
6656.0,9.853749361354858e-05
7168.0,0.00025159178767353296
7680.0,-0.00016669787873979658
8192.0,0.00018857605755329132
9216.0,-0.00015289911243598908
10240.0,9.319515811512247e-05
11264.0,-2.782183582894504e-05
12288.0,4.8914653234533034e-06
13312.0,7.313503010664135e-05
14336.0,0.0001469876733608544
end
