version,3.0
numOfCh,1
type,point
parent_name,400-cuts
ch_type,1_1
kcount,1
numberNandB,1
brightnessNandB,1
carpet pos,0
pc,0
Time (ms),CH1 Auto-Correlation
1.0,0.016612758859992027
2.0,0.013533893041312695
3.0,0.011342719197273254
4.0,0.009742877446115017
5.0,0.008525103330612183
6.0,0.00748015521094203
7.0,0.0066456724889576435
8.0,0.005891820415854454
9.0,0.005283210426568985
10.0,0.004715075716376305
11.0,0.004120751284062862
12.0,0.003680770518258214
13.0,0.0032272993121296167
14.0,0.0029501982498914003
15.0,0.0028035964351147413
16.0,0.002639516955241561
18.0,0.002308417111635208
20.0,0.002131825080141425
22.0,0.001897689769975841
24.0,0.0017475502099841833
26.0,0.0015589456306770444
28.0,0.0011118717957288027
30.0,0.0008891848847270012
32.0,0.000715232512447983
36.0,0.0005057859234511852
40.0,0.0005371093284338713
44.0,0.0006043266039341688
48.0,0.0007298385608009994
52.0,0.0007072765147313476
56.0,0.0005267607630230486
60.0,0.0004876522289123386
64.0,0.00022955588065087795
72.0,0.0005076333764009178
80.0,0.0002703592472244054
88.0,-0.00011902410915354267
96.0,-1.2603343748196494e-05
104.0,-5.127182157593779e-05
112.0,-0.00015739469381514937
120.0,2.076408600260038e-05
128.0,0.00026989434263668954
144.0,-0.0002508835750631988
160.0,-0.000499987683724612
176.0,-0.00024781771935522556
192.0,-0.00015239288040902466
208.0,8.313270518556237e-05
224.0,-0.0002349580026930198
240.0,-0.0004407393862493336
256.0,-0.0005455211503431201
288.0,-0.0005285172373987734
320.0,4.4924196117790416e-05
352.0,9.486312046647072e-05
384.0,0.00045511251664720476
416.0,0.0004366812645457685
448.0,0.0006393720977939665
480.0,7.481527063646354e-06
512.0,-0.00018397935491520911
576.0,0.00018589748651720583
640.0,3.9069480408215895e-05
704.0,-6.479645435319981e-06
768.0,9.086771024158224e-05
832.0,0.0001695099490461871
896.0,-0.00013343449973035604
960.0,-0.0003282776160631329
1024.0,-0.00010590036254143342
1152.0,-0.0001919239293783903
1280.0,-3.331678090034984e-05
1408.0,-0.00013930202112533152
1536.0,-0.00014738987374585122
1664.0,-4.976897616870701e-05
1792.0,0.00017235397535841912
1920.0,-8.831403829390183e-05
2048.0,-0.0001252523361472413
2304.0,0.00012307378347031772
2560.0,7.896253009676002e-06
2816.0,0.00020098063396289945
3072.0,-2.3986096493899822e-05
3328.0,-0.00010125277185579762
3584.0,0.0001667463220655918
3840.0,-0.0002431192551739514
4096.0,-9.327928273705766e-05
4608.0,-0.0001060286522260867
5120.0,1.0339036634832155e-05
5632.0,-8.350690040970221e-05
6144.0,-2.621868952701334e-05
6656.0,-0.0002274627477163449
7168.0,-5.521320417756215e-05
7680.0,-5.658918962581083e-05
8192.0,5.735764716519043e-05
9216.0,0.00014002389798406512
10240.0,-5.937433888902888e-05
11264.0,0.00014454402844421566
12288.0,6.098488665884361e-05
13312.0,-0.0002623994369059801
14336.0,0.00013227533781901002
end
