version,3.0
numOfCh,1
type,point
parent_name,400-cuts
ch_type,1_1
kcount,1
numberNandB,1
brightnessNandB,1
carpet pos,0
pc,0
Time (ms),CH1 Auto-Correlation
1.0,0.015087414532899857
2.0,0.011991829611361027
3.0,0.009853937663137913
4.0,0.008253958076238632
5.0,0.007036787923425436
6.0,0.006152049638330936
7.0,0.005400176625698805
8.0,0.00486112292855978
9.0,0.004423656966537237
10.0,0.004032123368233442
11.0,0.003702510381117463
12.0,0.0033279163762927055
13.0,0.0030212269630283117
14.0,0.002753001870587468
15.0,0.0025870020035654306
16.0,0.002406541956588626
18.0,0.0021769511513412
20.0,0.001990647055208683
22.0,0.0018711646553128958
24.0,0.0019536048639565706
26.0,0.0019555864855647087
28.0,0.001867053797468543
30.0,0.001756268204189837
32.0,0.001579845673404634
36.0,0.001193695468828082
40.0,0.001143758767284453
44.0,0.0007968991412781179
48.0,0.0006458759889937937
52.0,0.000505554024130106
56.0,0.0006190697313286364
60.0,0.0006631877040490508
64.0,0.0006134883151389658
72.0,0.0004854945291299373
80.0,0.0004314887919463217
88.0,0.00030254852026700974
96.0,0.00011047860607504845
104.0,-3.367122553754598e-05
112.0,-0.0002967816835734993
120.0,-0.00034532180870883167
128.0,-0.000248229771386832
144.0,0.00015689396241214126
160.0,-4.6498807932948694e-05
176.0,-9.240543295163661e-05
192.0,-0.00021878209372516721
208.0,0.00028411566745489836
224.0,0.0001777427241904661
240.0,0.0002622773463372141
256.0,0.0001322586031164974
288.0,5.4289055697154254e-05
320.0,0.00013776941341347992
352.0,0.0003714336780831218
384.0,0.0003223921521566808
416.0,-3.409448254387826e-05
448.0,2.1283456590026617e-05
480.0,3.631591607700102e-05
512.0,0.000480394548503682
576.0,-0.00013222754932940006
640.0,4.752912718686275e-05
704.0,3.694026236189529e-05
768.0,7.602394907735288e-05
832.0,5.0422808271832764e-05
896.0,-7.851413101889193e-05
960.0,-0.00024018899421207607
1024.0,0.00016384987975470722
1152.0,-4.1749961383175105e-05
1280.0,-0.00019555097969714552
1408.0,3.873375680996105e-05
1536.0,0.00031309123733080924
1664.0,6.564836075995117e-05
1792.0,0.0002691128174774349
1920.0,-8.597088162787259e-05
2048.0,-8.44043170218356e-05
2304.0,-0.00020930220489390194
2560.0,-6.499067967524752e-05
2816.0,0.00014823298261035234
3072.0,0.00017644099716562778
3328.0,8.987193723442033e-05
3584.0,-0.00018215632007922977
3840.0,-0.00019754156528506428
4096.0,-0.00013456660963129252
4608.0,7.680663429709966e-07
5120.0,-0.00017008349823299795
5632.0,-0.00013230793410912156
6144.0,-0.00012964813504368067
6656.0,-0.00033966489718295634
7168.0,-0.00018576625734567642
7680.0,5.238182711764239e-05
8192.0,0.00011494520003907382
9216.0,6.342149572446942e-05
10240.0,3.1548403057968244e-05
11264.0,0.0001305229088757187
12288.0,9.081917960429564e-05
13312.0,0.00030373831395991147
14336.0,-0.00016026011144276708
end
