version,3.0
numOfCh,1
type,point
parent_name,400-cuts
ch_type,1_1
kcount,1
numberNandB,1
brightnessNandB,1
carpet pos,0
pc,0
Time (ms),CH1 Auto-Correlation
1.0,0.01657923310995102
2.0,0.013326839543879032
3.0,0.011155707761645317
4.0,0.009526190347969532
5.0,0.008246446028351784
6.0,0.007085555233061314
7.0,0.006208548787981272
8.0,0.005448240786790848
9.0,0.004787200130522251
10.0,0.00429523503407836
11.0,0.003905809950083494
12.0,0.0035243502352386713
13.0,0.003137864638119936
14.0,0.0027906415052711964
15.0,0.0025762913282960653
16.0,0.002323616063222289
18.0,0.0019367930945008993
20.0,0.0016251850174739957
22.0,0.0013437507441267371
24.0,0.001188250258564949
26.0,0.0010941416257992387
28.0,0.0011505981674417853
30.0,0.0009559987811371684
32.0,0.0006518938462249935
36.0,0.0003151696582790464
40.0,9.448241326026618e-05
44.0,1.6479573616834386e-07
48.0,-6.43254752503708e-05
52.0,-0.00027078259154222906
56.0,3.632952211773954e-05
60.0,0.00010736026160884649
64.0,0.00018337246729061007
72.0,0.0006109934765845537
80.0,0.00021730219305027276
88.0,0.00017398878117091954
96.0,0.0005237599834799767
104.0,0.0008228373480960727
112.0,0.0011686820071190596
120.0,0.0006004501483403146
128.0,0.0004779114678967744
144.0,-6.619471969315782e-05
160.0,0.000332661293214187
176.0,9.237832273356616e-05
192.0,-0.000163389413501136
208.0,-0.00016552869055885822
224.0,8.848516881698743e-05
240.0,0.00011282970808679238
256.0,0.0002407762367511168
288.0,-7.468646072084084e-05
320.0,0.00013426558871287853
352.0,0.0004262993752490729
384.0,-0.00022890014224685729
416.0,-0.00016172502364497632
448.0,0.00012951319513376802
480.0,1.8939250367111526e-05
512.0,-0.0004316202539484948
576.0,8.095790690276772e-05
640.0,7.49730970710516e-05
704.0,4.8286106903105974e-05
768.0,-4.5569326175609604e-05
832.0,0.00010845172801055014
896.0,-0.00015471964434254915
960.0,-6.316752842394635e-05
1024.0,0.00022083694057073444
1152.0,-0.0002734338922891766
1280.0,0.00012160553160356358
1408.0,-0.00022546996478922665
1536.0,-0.00023235649859998375
1664.0,0.00023472697648685426
1792.0,5.3177540394244716e-05
1920.0,8.768132829573005e-06
2048.0,-0.00027085220790468156
2304.0,0.00020387656695675105
2560.0,0.00010084798122989014
2816.0,0.00016004798817448318
3072.0,-0.0004507798294071108
3328.0,0.00022910776897333562
3584.0,1.612608139112126e-05
3840.0,0.00027632989804260433
4096.0,1.1898076991201378e-05
4608.0,5.502990461536683e-05
5120.0,-5.881133984075859e-05
5632.0,-0.00030541172600351274
6144.0,-2.7049459276895504e-06
6656.0,-0.0001138558509410359
7168.0,-0.00010752458911156282
7680.0,4.266080941306427e-05
8192.0,0.00016039429465308785
9216.0,-0.00022423380869440734
10240.0,-1.0759709766716696e-05
11264.0,-1.7459975424571894e-05
12288.0,-1.2559051356220152e-05
13312.0,-0.0001979359658434987
14336.0,-0.00012573276762850583
end
