version,3.0
numOfCh,1
type,point
parent_name,400-cuts
ch_type,1_1
kcount,1
numberNandB,1
brightnessNandB,1
carpet pos,0
pc,0
Time (ms),CH1 Auto-Correlation
1.0,0.026637902483344078
2.0,0.021378828212618828
3.0,0.017608610913157463
4.0,0.014794541522860527
5.0,0.012738005258142948
6.0,0.01111799106001854
7.0,0.009770584292709827
8.0,0.008886263705790043
9.0,0.008031894452869892
10.0,0.007174362428486347
11.0,0.006396863143891096
12.0,0.005770124029368162
13.0,0.0053298594430089
14.0,0.005016431678086519
15.0,0.004770404193550348
16.0,0.004490636754781008
18.0,0.004062982276082039
20.0,0.003810734488070011
22.0,0.003459128551185131
24.0,0.002828603144735098
26.0,0.0023885963018983603
28.0,0.00224907323718071
30.0,0.0022736480459570885
32.0,0.002341365674510598
36.0,0.002427946077659726
40.0,0.0021465113386511803
44.0,0.0018606203375384212
48.0,0.001832006499171257
52.0,0.0018336448119953275
56.0,0.0016980422660708427
60.0,0.0013556374469771981
64.0,0.0010728812776505947
72.0,0.0006109571550041437
80.0,9.598890756024048e-05
88.0,-7.482168257411104e-06
96.0,0.0005002484540455043
104.0,0.0006885299226269126
112.0,0.0005211473326198757
120.0,0.0007071412983350456
128.0,0.000434443965787068
144.0,-9.342883276985958e-05
160.0,-0.0008972668438218534
176.0,-0.0008726919186301529
192.0,-0.0010520863579586148
208.0,-0.0003592047141864896
224.0,-0.0004633827193174511
240.0,-0.00038227695040404797
256.0,-0.0012614671140909195
288.0,8.041339606279507e-05
320.0,-0.0001714331010589376
352.0,0.0007336011622101068
384.0,-0.00010067427501780912
416.0,-0.00012308708392083645
448.0,0.00020264016347937286
480.0,-0.0004673930234275758
512.0,-0.0006441881996579468
576.0,0.0004449794359970838
640.0,0.0002431833854643628
704.0,-0.00010669248877093196
768.0,-0.00046596949687227607
832.0,-0.0001807931112125516
896.0,0.0006449638749472797
960.0,0.00040745423757471144
1024.0,-0.00021569924138020724
1152.0,-0.0007420530891977251
1280.0,-0.0002729062980506569
1408.0,0.00010922558431047946
1536.0,0.0006606414099223912
1664.0,-0.00024260679492726922
1792.0,6.947305519133806e-05
1920.0,0.0006553334533236921
2048.0,-0.00040731881745159626
2304.0,4.064977019879734e-06
2560.0,-0.0004112096503376961
2816.0,0.00022055124281905591
3072.0,-8.75527985044755e-05
3328.0,-0.00011852074385387823
3584.0,0.0003285827988293022
3840.0,0.00018532657122705132
4096.0,-2.8035528885084204e-06
4608.0,-0.0005041398108005524
5120.0,0.00020103515998926014
5632.0,0.00028730579651892185
6144.0,-0.00044730279478244483
6656.0,0.00015465040632989258
7168.0,0.0004293367965146899
7680.0,-0.0004693237424362451
8192.0,-0.0004955314216203988
9216.0,1.1597800266827107e-06
10240.0,0.00010839971218956634
11264.0,1.4495456525764894e-05
12288.0,-0.0004005748778581619
13312.0,-0.00013895561278332025
14336.0,6.833945371909067e-05
end
