version,3.0
numOfCh,1
type,point
parent_name,400-cuts
ch_type,1_1
kcount,1
numberNandB,1
brightnessNandB,1
carpet pos,0
pc,0
Time (ms),CH1 Auto-Correlation
1.0,0.014436165802180767
2.0,0.01148863323032856
3.0,0.009403872303664684
4.0,0.007862959988415241
5.0,0.006661948282271624
6.0,0.005768107250332832
7.0,0.00497374776750803
8.0,0.004286704584956169
9.0,0.003745116526260972
10.0,0.0033724759705364704
11.0,0.0031349044293165207
12.0,0.002884790301322937
13.0,0.0027286137919873
14.0,0.0024459396954625845
15.0,0.002213867846876383
16.0,0.001989893615245819
18.0,0.0017999312840402126
20.0,0.0015411810018122196
22.0,0.0014508524909615517
24.0,0.0013127048732712865
26.0,0.0011540030827745795
28.0,0.0009231107542291284
30.0,0.0007056753966026008
32.0,0.00048779454664327204
36.0,0.0002440536773065105
40.0,0.0003093075647484511
44.0,0.0001393161655869335
48.0,0.00024884342565201223
52.0,0.0005673198029398918
56.0,0.0006153331487439573
60.0,0.0003748239832930267
64.0,5.6683980801608413e-05
72.0,-0.00014159048441797495
80.0,-0.00021667730470653623
88.0,-4.8894282372202724e-05
96.0,-0.0001451307034585625
104.0,1.0650861440808512e-05
112.0,-7.69479083828628e-05
120.0,-0.00022542939404956996
128.0,9.792343917069957e-06
144.0,0.0002831825113389641
160.0,1.936038097483106e-05
176.0,0.0001216079035657458
192.0,0.0003550081455614418
208.0,7.230131450342014e-05
224.0,-0.00023243535542860627
240.0,-0.0003370574559085071
256.0,-0.00013397690781857818
288.0,-2.0462409793253755e-06
320.0,-0.000295572099275887
352.0,-7.720858411630616e-05
384.0,-1.1862525752803776e-06
416.0,0.00011983486183453351
448.0,0.00014831159205641598
480.0,0.00018892844673246145
512.0,0.0002910075709223747
576.0,0.00010940598440356553
640.0,-0.0001881530915852636
704.0,0.00020018887880723923
768.0,0.00013459267211146653
832.0,-6.26220426056534e-05
896.0,0.0003168037219438702
960.0,0.00014921861293260008
1024.0,-0.00047892285510897636
1152.0,-0.0001902715303003788
1280.0,-0.0001255566457984969
1408.0,-1.0578080946288537e-05
1536.0,-3.845730680041015e-05
1664.0,3.07409864035435e-05
1792.0,-0.00015907704073470086
1920.0,-0.00026200275169685483
2048.0,-0.00012448750203475356
2304.0,-7.278682460309938e-05
2560.0,-0.00014727968664374202
2816.0,6.317192310234532e-05
3072.0,3.810348061961122e-05
3328.0,-9.977629815693945e-05
3584.0,-0.0001076729386113584
3840.0,8.076708763837814e-05
4096.0,-0.00014408124843612313
4608.0,-6.944038614165038e-05
5120.0,5.192080425331369e-05
5632.0,4.510256621870212e-05
6144.0,0.00014743866631761193
6656.0,7.593113696202636e-05
7168.0,-0.00013291322102304548
7680.0,-1.074933879863238e-05
8192.0,-4.122623067814857e-05
9216.0,4.082720352016622e-06
10240.0,-4.2192717955913395e-05
11264.0,-3.0151619284879416e-05
12288.0,8.965208689915016e-05
13312.0,5.038027302362025e-05
14336.0,-9.792188211577013e-05
end
