version,3.0
numOfCh,1
type,point
parent_name,400-cuts
ch_type,1_1
kcount,1
numberNandB,1
brightnessNandB,1
carpet pos,0
pc,0
Time (ms),CH1 Auto-Correlation
1.0,0.025091545656323433
2.0,0.019858092069625854
3.0,0.016168346628546715
4.0,0.013517298735678196
5.0,0.011304627172648907
6.0,0.009717275388538837
7.0,0.008605686016380787
8.0,0.007659091614186764
9.0,0.006946374662220478
10.0,0.0062672458589077
11.0,0.005645093508064747
12.0,0.005105776246637106
13.0,0.0046478318981826305
14.0,0.004357355646789074
15.0,0.0038510828744620085
16.0,0.0033092149533331394
18.0,0.002648743335157633
20.0,0.002053316216915846
22.0,0.0015838190447539091
24.0,0.0014215355040505528
26.0,0.0014613501261919737
28.0,0.0014348304830491543
30.0,0.0012183436192572117
32.0,0.0011825496330857277
36.0,0.0006581523339264095
40.0,0.0005418008076958358
44.0,0.0007851332193240523
48.0,0.0005753312143497169
52.0,0.0004310349759180099
56.0,0.0006559251924045384
60.0,0.00038388880784623325
64.0,3.457940329099074e-05
72.0,-9.116512956097722e-05
80.0,0.0005020375247113407
88.0,0.0006099166930653155
96.0,0.0010010465048253536
104.0,0.0007285859901458025
112.0,-0.0005048366147093475
120.0,-0.000618850055616349
128.0,-0.0006840023561380804
144.0,-0.0008256538421846926
160.0,-0.0010043991496786475
176.0,-0.000763276475481689
192.0,-0.00019582897948566824
208.0,0.0002056829835055396
224.0,-6.125189884187421e-06
240.0,9.647627302911133e-05
256.0,0.00026092299958691
288.0,-0.0002238118031527847
320.0,7.147058204282075e-05
352.0,0.00031611169106326997
384.0,0.0005362742231227458
416.0,-0.00031918141758069396
448.0,-0.00034082739148288965
480.0,-0.0005223336047492921
512.0,-0.000593453471083194
576.0,0.00016979458450805396
640.0,0.0008534017251804471
704.0,0.0005642794421873987
768.0,-6.5969092247542e-05
832.0,-0.0007105860859155655
896.0,-0.000295367935905233
960.0,0.00043236027704551816
1024.0,7.2759750764817e-05
1152.0,-0.0006038224673829973
1280.0,5.241188046056777e-05
1408.0,3.6375477066030726e-05
1536.0,-0.0002620041195768863
1664.0,0.00018332732724957168
1792.0,-0.0006091548129916191
1920.0,0.0002217098226537928
2048.0,-0.0007851251284591854
2304.0,0.00013644903083331883
2560.0,-9.314460476161912e-05
2816.0,-0.0001238812255905941
3072.0,0.0004005514783784747
3328.0,0.0001578862575115636
3584.0,8.247986988862976e-05
3840.0,-0.00043141134665347636
4096.0,-8.405834523728117e-05
4608.0,5.198353755986318e-05
5120.0,-9.015380055643618e-05
5632.0,-0.00017177250992972404
6144.0,7.211662159534171e-05
6656.0,9.21549872145988e-05
7168.0,0.0003108867967966944
7680.0,0.00018178351456299424
8192.0,-0.00021705430117435753
9216.0,4.090914080734365e-05
10240.0,7.724532042630017e-05
11264.0,-0.00034673913614824414
12288.0,0.0002669207169674337
13312.0,-4.000061744591221e-05
14336.0,-0.0003204793611075729
end
