version,3.0
numOfCh,1
type,point
parent_name,400-cuts
ch_type,1_1
kcount,1
numberNandB,1
brightnessNandB,1
carpet pos,0
pc,0
Time (ms),CH1 Auto-Correlation
1.0,0.02593974769115448
2.0,0.020684225484728813
3.0,0.016954330727458
4.0,0.014306423254311085
5.0,0.012257703579962254
6.0,0.010496973991394043
7.0,0.00932750478386879
8.0,0.008367065340280533
9.0,0.007445151451975107
10.0,0.00668281689286232
11.0,0.006157021503895521
12.0,0.005599783733487129
13.0,0.005108089651912451
14.0,0.004863379523158073
15.0,0.004546945448964834
16.0,0.004310109652578831
18.0,0.003943538758903742
20.0,0.0036754629109054804
22.0,0.0033459803089499474
24.0,0.0028489010874181986
26.0,0.0025542210787534714
28.0,0.00232794601470232
30.0,0.0021658858750015497
32.0,0.002163489116355777
36.0,0.001556713948957622
40.0,0.0010381920728832483
44.0,0.0008448537555523217
48.0,0.00048530453932471573
52.0,0.0002653032133821398
56.0,0.0002804127288982272
60.0,0.0001238776312675327
64.0,0.00040641811210662127
72.0,-9.283327926823404e-06
80.0,-0.0004433978465385735
88.0,-0.0007915014866739511
96.0,-0.0008822481613606215
104.0,-0.00026959876413457096
112.0,0.0003802180290222168
120.0,-0.00033956224797293544
128.0,-0.0002663990599103272
144.0,0.0003503560437820852
160.0,-0.00015422690194100142
176.0,-0.0005065157893113792
192.0,-0.0006122146733105183
208.0,-0.00011315625306451693
224.0,0.00046031014062464237
240.0,0.00010539071809034795
256.0,-0.00018971071403939277
288.0,-0.00038518678047694266
320.0,-0.0004371827526483685
352.0,-0.00019893667194992304
384.0,0.00041459963540546596
416.0,0.0003684397670440376
448.0,1.031531337503111e-05
480.0,-0.00015157305460888892
512.0,-0.0007821903564035892
576.0,-0.0001469256094424054
640.0,-0.0002430806343909353
704.0,0.00014884854317642748
768.0,0.0007112854509614408
832.0,0.0010356104467064142
896.0,-2.3612867153133266e-05
960.0,0.0007546246633864939
1024.0,-0.00015570357209071517
1152.0,-6.67655112920329e-05
1280.0,-0.0003763087443076074
1408.0,-6.855416722828522e-05
1536.0,-0.0005788998096249998
1664.0,-7.983212708495557e-05
1792.0,0.00012792674533557147
1920.0,2.9762875783490017e-05
2048.0,6.376599776558578e-05
2304.0,-0.0002226570650236681
2560.0,-0.0002124872407875955
2816.0,-0.00017095218936447054
3072.0,-0.00023716245777904987
3328.0,-1.1559289305296261e-05
3584.0,-0.00010195980576099828
3840.0,2.0297073206165805e-05
4096.0,0.0003086650394834578
4608.0,8.552430517738685e-05
5120.0,0.00010058942280011252
5632.0,0.0003408034681342542
6144.0,-0.0004132481408305466
6656.0,0.00010246351303067058
7168.0,-0.0005690876278094947
7680.0,0.00013304418826010078
8192.0,-0.0006014496320858598
9216.0,0.00014826952246949077
10240.0,-3.487265303192544e-06
11264.0,-4.293705569580197e-05
12288.0,2.0327934180386364e-05
13312.0,2.838628824974876e-05
14336.0,0.0001936875778483227
end
