version,3.0
numOfCh,1
type,point
parent_name,400-cuts
ch_type,1_1
kcount,1
numberNandB,1
brightnessNandB,1
carpet pos,0
pc,0
Time (ms),CH1 Auto-Correlation
1.0,0.015369003638625145
2.0,0.012315796688199043
3.0,0.0100441575050354
4.0,0.0084477998316288
5.0,0.007330598309636116
6.0,0.006308084353804588
7.0,0.00552354333922267
8.0,0.004910111892968416
9.0,0.004348910879343748
10.0,0.003979263361543417
11.0,0.0036150654777884483
12.0,0.0033539538271725178
13.0,0.003219077130779624
14.0,0.0030782599933445454
15.0,0.0028159418143332005
16.0,0.0026743041817098856
18.0,0.0022799340076744556
20.0,0.0020370865240693092
22.0,0.001753588323481381
24.0,0.0012877335539087653
26.0,0.0010298878187313676
28.0,0.00086960633052513
30.0,0.0007781910826452076
32.0,0.0006342919659800828
36.0,0.00032670420478098094
40.0,-0.00014262340846471488
44.0,-0.00015814678044989705
48.0,7.54219145164825e-05
52.0,0.00045881213736720383
56.0,0.0006407392211258411
60.0,0.0007721306174062192
64.0,0.0005308762192726135
72.0,0.0002777431218419224
80.0,5.176694321562536e-05
88.0,-6.818641122663394e-05
96.0,-0.00020699496963061392
104.0,-0.00020258109725546092
112.0,-9.577729360898957e-05
120.0,-9.546061482978985e-05
128.0,-0.00014536207891069353
144.0,-0.0005167762283235788
160.0,-0.0006988256936892867
176.0,-0.0006303954287432134
192.0,-0.0005545929889194667
208.0,-0.00023264699848368764
224.0,4.978203378414037e-07
240.0,-0.00028395801200531423
256.0,-5.133277227287181e-06
288.0,-0.00022108147095423192
320.0,5.9594349295366555e-05
352.0,0.00033376089413650334
384.0,0.0001680741406744346
416.0,-0.00022747079492546618
448.0,-0.0001412224373780191
480.0,0.00010942822700599208
512.0,0.00011051097681047395
576.0,-4.352203632151941e-06
640.0,0.0001951821323018521
704.0,6.160538032418117e-05
768.0,-0.00019658364180941135
832.0,-8.278551104012877e-05
896.0,-4.2695428419392556e-05
960.0,0.0004757010319735855
1024.0,0.0005211927928030491
1152.0,-9.486693306826055e-05
1280.0,-7.916000322438776e-05
1408.0,1.8142813132726587e-05
1536.0,-8.312896534334868e-05
1664.0,-1.3396702343015932e-05
1792.0,-0.00041317418799735606
1920.0,6.376355304382741e-05
2048.0,9.812208008952439e-05
2304.0,-1.3594606571132317e-05
2560.0,0.00023632353986613452
2816.0,-0.0002744713856372982
3072.0,0.00011436475324444473
3328.0,6.264113471843302e-05
3584.0,0.00014370163262356073
3840.0,-0.00022939445625524968
4096.0,7.919903509900905e-06
4608.0,-5.4035997891332954e-05
5120.0,-2.2025653379387222e-05
5632.0,-8.335897291544825e-05
6144.0,0.00015700892254244536
6656.0,-2.215075073763728e-05
7168.0,0.00015922101738397032
7680.0,-0.00016624499403405935
8192.0,1.685131564954645e-06
9216.0,-2.937747740361374e-05
10240.0,-0.00024478271370753646
11264.0,-8.177295239875093e-05
12288.0,6.0173191741341725e-05
13312.0,5.6757646234473214e-05
14336.0,0.0001321787858614698
end
