version,3.0
numOfCh,1
type,point
parent_name,400-cuts
ch_type,1_1
kcount,1
numberNandB,1
brightnessNandB,1
carpet pos,0
pc,0
Time (ms),CH1 Auto-Correlation
1.0,0.015369764529168606
2.0,0.012088609859347343
3.0,0.009902901016175747
4.0,0.008264325559139252
5.0,0.007018662057816982
6.0,0.006133206654340029
7.0,0.005423074122518301
8.0,0.004829378332942724
9.0,0.004219387657940388
10.0,0.003648586105555296
11.0,0.003162455977872014
12.0,0.0028773522935807705
13.0,0.0026409721467643976
14.0,0.0023954680655151606
15.0,0.0020854405593127012
16.0,0.0018132729455828667
18.0,0.0014930121833458543
20.0,0.0013263649307191372
22.0,0.0009173658909276128
24.0,0.0006363230640999973
26.0,0.0006413734517991543
28.0,0.0004373728879727423
30.0,0.0003566196537576616
32.0,0.0002275589940836653
36.0,0.00036156378337182105
40.0,0.0003981401678174734
44.0,0.00018929385987576097
48.0,0.00012539219460450113
52.0,0.00020001882512588054
56.0,0.00040494449785910547
60.0,0.00014823854144196957
64.0,-1.4671051758341491e-05
72.0,-2.64740865532076e-05
80.0,7.153312617447227e-05
88.0,2.7160864192410372e-05
96.0,-0.00019068150140810758
104.0,9.355117072118446e-05
112.0,0.00017103120626416057
120.0,0.00039466298767365515
128.0,0.0005696371663361788
144.0,0.0002457881346344948
160.0,0.00034443484037183225
176.0,-1.4879161426506471e-05
192.0,-0.0005223191110417247
208.0,-0.0002678237506188452
224.0,-0.00011942548007937148
240.0,0.00043930669198744
256.0,0.00044701789738610387
288.0,0.0001996956270886585
320.0,-0.00011650571832433343
352.0,0.00022922294738236815
384.0,0.00046701179235242307
416.0,8.414241892751306e-05
448.0,-0.00011282286868663505
480.0,7.273359369719401e-05
512.0,0.0002244467323180288
576.0,-8.89408984221518e-05
640.0,0.0001422347704647109
704.0,4.778717993758619e-05
768.0,-0.00020147929899394512
832.0,-0.0002899068349506706
896.0,-0.00010718310659285635
960.0,-8.042767876759171e-05
1024.0,9.365413461637218e-06
1152.0,1.597090704308357e-05
1280.0,-0.0002667136141099036
1408.0,-7.316432311199605e-05
1536.0,3.104101415374316e-05
1664.0,-1.2128981325076893e-05
1792.0,2.2061913114157505e-05
1920.0,-9.956583380699158e-05
2048.0,0.00021769129671156406
2304.0,-0.00011301876656943932
2560.0,-0.00010062917863251641
2816.0,-0.0002913447970058769
3072.0,-0.00016491579299326986
3328.0,-0.00033913555671460927
3584.0,-0.00010947926784865558
3840.0,7.874380389694124e-05
4096.0,0.00026051385793834925
4608.0,6.426183244911954e-05
5120.0,-3.410351928323507e-05
5632.0,0.00014330240082927048
6144.0,0.000316224351990968
6656.0,0.00011882738181157038
7168.0,-0.000106624691397883
7680.0,-0.00029063172405585647
8192.0,-1.5445677490788512e-05
9216.0,-0.0001829854300012812
10240.0,6.444068276323378e-05
11264.0,0.0002386383421253413
12288.0,4.7793051635380834e-05
13312.0,-0.00020698826119769365
14336.0,-8.043166599236429e-05
end
