version,3.0
numOfCh,1
type,point
parent_name,400-cuts
ch_type,1_1
kcount,1
numberNandB,1
brightnessNandB,1
carpet pos,0
pc,0
Time (ms),CH1 Auto-Correlation
1.0,0.015056238509714603
2.0,0.011963467113673687
3.0,0.00975407287478447
4.0,0.00829610787332058
5.0,0.007149001117795706
6.0,0.006119977682828903
7.0,0.005272983107715845
8.0,0.004684935789555311
9.0,0.004217477515339851
10.0,0.003867505816742778
11.0,0.00345320301130414
12.0,0.003068349091336131
13.0,0.0027362066321074963
14.0,0.0024492978118360043
15.0,0.0021769364830106497
16.0,0.001948805758729577
18.0,0.001645795302465558
20.0,0.0014348237309604883
22.0,0.001304039964452386
24.0,0.0012438582489266992
26.0,0.0011859063524752855
28.0,0.0011729749385267496
30.0,0.0010032103164121509
32.0,0.0008891017059795558
36.0,0.001072932151146233
40.0,0.0012944013578817248
44.0,0.0009540297323837876
48.0,0.0008499509422108531
52.0,0.0007763616158626974
56.0,0.0008540263515897095
60.0,0.00092956522712484
64.0,0.0006852029473520815
72.0,0.000527408963534981
80.0,0.00016091554425656796
88.0,-4.3554598960326985e-05
96.0,-0.00010391919204266742
104.0,-0.00013615710486192256
112.0,0.00031693768687546253
120.0,0.00041055335896089673
128.0,3.401450885576196e-05
144.0,-9.497927385382354e-05
160.0,-0.0004109226574655622
176.0,6.552108243340626e-05
192.0,0.00010819429735420272
208.0,-0.00012455730757210404
224.0,-0.00017900487000588328
240.0,-0.0003549839311745018
256.0,0.00013822977780364454
288.0,-0.0002150877844542265
320.0,-0.00011940367403440177
352.0,-0.0003987493400927633
384.0,7.365231431322172e-05
416.0,0.0002667751396074891
448.0,0.00013029480760451406
480.0,-8.798244380159304e-05
512.0,-0.00013487617252394557
576.0,-0.00015317692304961383
640.0,-1.0089465831697453e-05
704.0,-0.0002143057790817693
768.0,-0.00034674396738409996
832.0,0.0001394010178046301
896.0,0.00034831915399990976
960.0,0.00031181404483504593
1024.0,1.1220178748772014e-05
1152.0,-0.0003757350496016443
1280.0,-1.0370316886110231e-05
1408.0,0.00017209723591804504
1536.0,-0.00022976959007792175
1664.0,-0.00011209228250663728
1792.0,0.00017443059186916798
1920.0,0.00046224004472605884
2048.0,-4.455244925338775e-05
2304.0,0.00019895494915544987
2560.0,-0.00012647137918975204
2816.0,4.750704829348251e-05
3072.0,-0.00017802832007873803
3328.0,2.535018211347051e-05
3584.0,2.591952943475917e-05
3840.0,-0.00012025573232676834
4096.0,-2.0295836293371394e-05
4608.0,4.123433609493077e-05
5120.0,-0.00014235851995181292
5632.0,-0.00012238440103828907
6144.0,-1.2474374671000987e-05
6656.0,2.120667886629235e-05
7168.0,8.13543374533765e-05
7680.0,-0.00014070891484152526
8192.0,-9.378636605106294e-05
9216.0,-1.827117921493482e-05
10240.0,4.327146598370746e-05
11264.0,-2.9523020202759653e-05
12288.0,8.763028017710894e-05
13312.0,-3.836676842183806e-05
14336.0,3.359469701536e-05
end
