version,3.0
numOfCh,1
type,point
parent_name,400-cuts
ch_type,1_1
kcount,1
numberNandB,1
brightnessNandB,1
carpet pos,0
pc,0
Time (ms),CH1 Auto-Correlation
1.0,0.02752656675875187
2.0,0.022271497175097466
3.0,0.01863473653793335
4.0,0.016103945672512054
5.0,0.01407747995108366
6.0,0.012584911659359932
7.0,0.011099003255367279
8.0,0.009799222461879253
9.0,0.008673539385199547
10.0,0.007860520854592323
11.0,0.007284002844244242
12.0,0.006623209919780493
13.0,0.006198232527822256
14.0,0.005775087047368288
15.0,0.005366040859371424
16.0,0.004913977812975645
18.0,0.0042756590992212296
20.0,0.003752701682969928
22.0,0.0034254956990480423
24.0,0.003066666191443801
26.0,0.0023128599859774113
28.0,0.001949138124473393
30.0,0.0016750595532357693
32.0,0.0013142168754711747
36.0,0.0009511210373602808
40.0,0.0007321338634938002
44.0,0.00036932496004737914
48.0,0.0005030064494349062
52.0,0.00014770800771657377
56.0,0.00022324116434901953
60.0,-5.908417369937524e-05
64.0,-0.0003873874375130981
72.0,-0.0001579820818733424
80.0,0.00028718559769913554
88.0,0.0005217972211539745
96.0,0.00047594180796295404
104.0,0.0001440248015569523
112.0,0.00024328350264113396
120.0,0.0006223824457265437
128.0,0.0004259097040630877
144.0,-0.00022126462135929614
160.0,0.0002388264110777527
176.0,-6.318546365946531e-05
192.0,-0.0007145851850509644
208.0,-0.00024777266662567854
224.0,-0.0002981623983941972
240.0,0.00042050553020089865
256.0,0.001231134869158268
288.0,0.0010070655262097716
320.0,0.0005822720704600215
352.0,0.0002761086798273027
384.0,0.0006755212671123445
416.0,0.0004195093351881951
448.0,7.086224650265649e-05
480.0,5.341585347196087e-05
512.0,-7.465857925126329e-05
576.0,0.00010981848026858643
640.0,0.0003101228503510356
704.0,0.00013896443124394864
768.0,2.0328052414697595e-05
832.0,4.356291174190119e-05
896.0,-0.0004059479688294232
960.0,-0.0008116043172776699
1024.0,-0.0003479397273622453
1152.0,5.655491986544803e-05
1280.0,-0.00030666548991575837
1408.0,-0.00043497837032191455
1536.0,5.478288949234411e-05
1664.0,-5.315540329320356e-05
1792.0,0.00016707309987396002
1920.0,0.0002887727750930935
2048.0,-2.348450379940914e-06
2304.0,-0.00018807170272339135
2560.0,-0.0003534078714437783
2816.0,-3.032816130144056e-05
3072.0,-0.0002527740434743464
3328.0,0.00018751916650217026
3584.0,0.000499012996442616
3840.0,0.000392516260035336
4096.0,7.268376066349447e-05
4608.0,-0.00024632446002215147
5120.0,-0.00046102917985990644
5632.0,-0.0002836260537151247
6144.0,6.819133704993874e-05
6656.0,-0.00010801106691360474
7168.0,0.0004125361447222531
7680.0,0.00032264358014799654
8192.0,-0.00043511897092685103
9216.0,0.0003406707546673715
10240.0,-2.355504511797335e-05
11264.0,0.0004789717495441437
12288.0,-0.0008688404341228306
13312.0,0.00028290299815125763
14336.0,-0.0009738441440276802
end
