version,3.0
numOfCh,1
type,point
parent_name,400-cuts
ch_type,1_1
kcount,1
numberNandB,1
brightnessNandB,1
carpet pos,0
pc,0
Time (ms),CH1 Auto-Correlation
1.0,0.015764812007546425
2.0,0.012675061821937561
3.0,0.010405806824564934
4.0,0.008620345033705235
5.0,0.007327753584831953
6.0,0.006261201575398445
7.0,0.005415429826825857
8.0,0.0047636330127716064
9.0,0.004203903488814831
10.0,0.003772926749661565
11.0,0.0033560225274413824
12.0,0.0031258089002221823
13.0,0.0028665855061262846
14.0,0.0027075407560914755
15.0,0.002565820934250951
16.0,0.002454156754538417
18.0,0.002191297011449933
20.0,0.0018714258912950754
22.0,0.0014920261455699801
24.0,0.0012398051330819726
26.0,0.001157487160526216
28.0,0.0012257362250238657
30.0,0.001205984503030777
32.0,0.0011191560188308358
36.0,0.0008541467832401395
40.0,0.0008282597409561276
44.0,0.0008217668510042131
48.0,0.000501885253470391
52.0,0.0004351995012257248
56.0,0.00042299076449126005
60.0,0.0003435015387367457
64.0,7.771245145704597e-05
72.0,-0.0002157262497348711
80.0,-9.867610788205639e-05
88.0,-0.00029019080102443695
96.0,0.0004444479418452829
104.0,0.000816769665107131
112.0,0.0008186845807358623
120.0,0.0009157288004644215
128.0,0.0009744995040819049
144.0,0.0005516692181117833
160.0,0.0002468360180500895
176.0,9.512554970569909e-05
192.0,3.4674852940952405e-05
208.0,6.156416930025443e-05
224.0,4.1952120227506384e-05
240.0,0.00026461645029485226
256.0,-0.00025036861188709736
288.0,-7.35108187654987e-05
320.0,1.5199963854684029e-05
352.0,0.00021275920153129846
384.0,8.939393592299893e-05
416.0,-8.367430564248934e-05
448.0,3.027869388461113e-05
480.0,-0.0004314987745601684
512.0,-0.0005628726212307811
576.0,-0.00012811121996492147
640.0,-0.0004132661269977689
704.0,0.0001627652527531609
768.0,-0.00021428574109449983
832.0,-0.0002820035151671618
896.0,-0.00021329143783077598
960.0,0.00020780318300239742
1024.0,-0.0002504883741494268
1152.0,1.8417073079035617e-05
1280.0,0.00046804043813608587
1408.0,0.00029459642246365547
1536.0,0.00019351052469573915
1664.0,7.867029489716515e-05
1792.0,-0.00024684504023753107
1920.0,7.833239942556247e-05
2048.0,-5.99485902057495e-05
2304.0,-0.0002343701053177938
2560.0,0.00013244869478512555
2816.0,8.186046761693433e-05
3072.0,0.0001824027276597917
3328.0,7.896414899732918e-05
3584.0,-0.0004756987909786403
3840.0,4.2863764974754304e-05
4096.0,4.9813457735581324e-05
4608.0,-0.00012213665468152612
5120.0,-0.0001254125963896513
5632.0,-0.00017990963533520699
6144.0,-5.082910865894519e-05
6656.0,-0.0002432391920592636
7168.0,-7.169017771957442e-05
7680.0,9.318369848188013e-05
8192.0,-3.609148916439153e-05
9216.0,-6.969931564526632e-05
10240.0,3.430939250392839e-05
11264.0,9.737140499055386e-05
12288.0,6.826367462053895e-05
13312.0,5.4522486607311293e-05
14336.0,-9.16097778826952e-05
end
