version,3.0
numOfCh,1
type,point
parent_name,400-cuts
ch_type,1_1
kcount,1
numberNandB,1
brightnessNandB,1
carpet pos,0
pc,0
Time (ms),CH1 Auto-Correlation
1.0,0.027641991153359413
2.0,0.022430986166000366
3.0,0.018746640533208847
4.0,0.016042442992329597
5.0,0.014102318324148655
6.0,0.012609075754880905
7.0,0.011263989843428135
8.0,0.010188860818743706
9.0,0.009300515986979008
10.0,0.008508069440722466
11.0,0.0077912029810249805
12.0,0.007262974977493286
13.0,0.006726184859871864
14.0,0.006354155018925667
15.0,0.005884046666324139
16.0,0.005454207770526409
18.0,0.0046234652400016785
20.0,0.003890330670401454
22.0,0.0034280025865882635
24.0,0.00322133582085371
26.0,0.003196891862899065
28.0,0.003029498038813472
30.0,0.002714867237955332
32.0,0.002001779153943062
36.0,0.0012632643338292837
40.0,0.0013033095747232437
44.0,0.0012635102029889822
48.0,0.0010325944749638438
52.0,0.0010763134341686964
56.0,0.0009710649610497057
60.0,0.0004947951529175043
64.0,0.00039835768984630704
72.0,0.000381377583835274
80.0,0.00042038573883473873
88.0,-0.00026354187866672873
96.0,0.0004266860487405211
104.0,-0.00027269343263469636
112.0,-0.0006253444589674473
120.0,-0.0008558157715015113
128.0,-0.0010796601418405771
144.0,0.0002650744281709194
160.0,0.0001661135902395472
176.0,-0.00040585576789453626
192.0,0.000537519168574363
208.0,0.0005949626793153584
224.0,0.00045490721822716296
240.0,0.0002715920563787222
256.0,-0.00011793547309935093
288.0,0.0002584373578429222
320.0,9.944889461621642e-05
352.0,6.077595753595233e-05
384.0,-0.00016113132005557418
416.0,0.0003820470010396093
448.0,0.0005081776180304587
480.0,-0.00018555138376541436
512.0,-0.0002110105997417122
576.0,0.0011231438256800175
640.0,0.0009308403823524714
704.0,3.5158140235580504e-05
768.0,-0.00011233630357310176
832.0,-4.086560511495918e-05
896.0,-0.00013681584096048027
960.0,0.00028601623489521444
1024.0,0.000499879417475313
1152.0,-0.00017719747847877443
1280.0,-0.00047305409680120647
1408.0,7.405316137010232e-05
1536.0,-0.00019062042701989412
1664.0,6.242641120479675e-06
1792.0,0.00025176789495162666
1920.0,0.0001836112787714228
2048.0,0.00044504451216198504
2304.0,0.00046660349471494555
2560.0,-0.00010941038635792211
2816.0,0.000541909015737474
3072.0,-0.00037943219649605453
3328.0,-2.325840341654839e-06
3584.0,-0.00022275044466368854
3840.0,-0.0001745892222970724
4096.0,-0.0008223133045248687
4608.0,-0.00022657474619336426
5120.0,-0.00026432875893078744
5632.0,-4.9917205615201965e-05
6144.0,-0.00012473296374082565
6656.0,-0.00039888027822598815
7168.0,-0.00019180863455403596
7680.0,-8.029439050005749e-05
8192.0,0.0002765768440440297
9216.0,-0.0001154102137661539
10240.0,-3.985350122093223e-05
11264.0,0.00025595349143259227
12288.0,-0.0005317237810231745
13312.0,0.0004396684526000172
14336.0,-0.00039167021168395877
end
