version,3.0
numOfCh,1
type,point
parent_name,400-cuts
ch_type,1_1
kcount,1
numberNandB,1
brightnessNandB,1
carpet pos,0
pc,0
Time (ms),CH1 Auto-Correlation
1.0,0.015738515183329582
2.0,0.012623882852494717
3.0,0.010388350114226341
4.0,0.008635278791189194
5.0,0.007388256955891848
6.0,0.006382937077432871
7.0,0.005537800956517458
8.0,0.004872109740972519
9.0,0.004305162932723761
10.0,0.0038766395300626755
11.0,0.003648187732324004
12.0,0.00341798341833055
13.0,0.0032367133535444736
14.0,0.0030248502735048532
15.0,0.00280035100877285
16.0,0.0025496629532426596
18.0,0.0022220418322831392
20.0,0.0020527734886854887
22.0,0.0017967494204640388
24.0,0.0014689596137031913
26.0,0.0012252418091520667
28.0,0.0010428640525788069
30.0,0.0008347744005732238
32.0,0.0006529555539600551
36.0,0.000893749063834548
40.0,0.0010817473521456122
44.0,0.0009742478141561151
48.0,0.0009266395354643464
52.0,0.0006565249059349298
56.0,0.00038841506466269493
60.0,0.00019540562061592937
64.0,-1.096020332624903e-05
72.0,-1.2003564734186511e-05
80.0,1.5213934602797963e-05
88.0,0.00017349452537018806
96.0,3.849178938253317e-06
104.0,-0.00012076517305104062
112.0,-0.00011972452921327204
120.0,0.00017076675430871546
128.0,9.694159962236881e-05
144.0,6.843338633188978e-05
160.0,0.0006741097895428538
176.0,0.0007844974752515554
192.0,0.00022366823395714164
208.0,0.0005118187400512397
224.0,0.00020256380958016962
240.0,0.00026189678465016186
256.0,0.0005269036628305912
288.0,-5.945260272710584e-05
320.0,2.1933721654932015e-05
352.0,-0.000132966524688527
384.0,1.7134236259153113e-05
416.0,-0.00014792582078371197
448.0,5.2420356951188296e-05
480.0,3.6558034480549395e-05
512.0,0.0001943794050021097
576.0,0.000153283603140153
640.0,0.0003150342672597617
704.0,0.00025810347869992256
768.0,-0.0004883008077740669
832.0,1.6244723155978136e-05
896.0,-0.00018179140170104802
960.0,-0.00041703079477883875
1024.0,-0.00048160410369746387
1152.0,-0.00029499782249331474
1280.0,-0.00025586201809346676
1408.0,-0.00045402717660181224
1536.0,-0.00011703400377882645
1664.0,-0.0002917912497650832
1792.0,4.6243185352068394e-05
1920.0,-9.35917705646716e-06
2048.0,-1.1662643373711035e-05
2304.0,0.00024908562772907317
2560.0,0.00019392876129131764
2816.0,0.00014882297546137124
3072.0,4.724576137959957e-05
3328.0,-0.00023627378686796874
3584.0,-0.0002602842287160456
3840.0,-0.00028409052174538374
4096.0,-0.00014273481792770326
4608.0,8.871213503880426e-05
5120.0,-3.8604259316343814e-05
5632.0,-1.4491984074993525e-06
6144.0,2.2156104023451917e-05
6656.0,0.0001334651024080813
7168.0,-0.00017474019841756672
7680.0,-0.0003799982077907771
8192.0,0.00012546390644274652
9216.0,8.048878953559324e-05
10240.0,-6.697781645925716e-05
11264.0,0.0003423654125072062
12288.0,-0.00024078432761598378
13312.0,5.261823025648482e-05
14336.0,-0.00040475541027262807
end
