version,3.0
numOfCh,1
type,point
parent_name,400-cuts
ch_type,1_1
kcount,1
numberNandB,1
brightnessNandB,1
carpet pos,0
pc,0
Time (ms),CH1 Auto-Correlation
1.0,0.026009896770119667
2.0,0.020683491602540016
3.0,0.016847923398017883
4.0,0.014180131256580353
5.0,0.012163384817540646
6.0,0.010586738586425781
7.0,0.00917449127882719
8.0,0.008039028383791447
9.0,0.0070729004219174385
10.0,0.006265521049499512
11.0,0.0055747139267623425
12.0,0.005016984883695841
13.0,0.004770293366163969
14.0,0.004364579450339079
15.0,0.0038094937335699797
16.0,0.0034506998490542173
18.0,0.0027086823247373104
20.0,0.002189348917454481
22.0,0.001820703619159758
24.0,0.0012885888572782278
26.0,0.001020126393996179
28.0,0.0008325614035129547
30.0,0.000865190988406539
32.0,0.0011404859833419323
36.0,0.000911111303139478
40.0,0.0006523629417642951
44.0,0.00038175893132574856
48.0,0.0007226971792988479
52.0,0.0005657096044160426
56.0,0.0003481330059003085
60.0,0.0009077592403627932
64.0,0.0009084748453460634
72.0,-0.00022184148838277906
80.0,-0.0002541918074712157
88.0,0.0001675873645581305
96.0,-0.00016186140419449657
104.0,0.0003771951887756586
112.0,0.0002449744788464159
120.0,-4.5228905946714804e-05
128.0,0.000485656491946429
144.0,-0.0006794587825424969
160.0,-0.00039505664608441293
176.0,0.0002508626494091004
192.0,-0.0002548679185565561
208.0,-0.0006751471664756536
224.0,-0.0002118636475643143
240.0,-5.765969490312273e-06
256.0,-0.0002329480048501864
288.0,-0.00020472091273404658
320.0,0.0002587533963378519
352.0,-4.014295700471848e-05
384.0,0.0001743067114148289
416.0,0.0004201851843390614
448.0,0.00037433020770549774
480.0,0.0006543651106767356
512.0,0.00030845761648379266
576.0,-1.9289205738459714e-05
640.0,-0.0005959225818514824
704.0,-0.0005185720510780811
768.0,-0.0005966969183646142
832.0,-0.0003455571422819048
896.0,0.00040475328569300473
960.0,0.00013014084834139794
1024.0,-8.506006997777149e-05
1152.0,-0.00025688644382171333
1280.0,0.00020243041217327118
1408.0,0.00012028236233163625
1536.0,0.00048231062828563154
1664.0,0.00010290757927577943
1792.0,5.336528192856349e-05
1920.0,0.00043347408063709736
2048.0,-0.00013152016617823392
2304.0,0.00018862153228837997
2560.0,-0.0003904531477019191
2816.0,1.4967034076107666e-05
3072.0,-3.8154808862600476e-05
3328.0,-0.0001124810878536664
3584.0,-0.0002794451138470322
3840.0,7.765522605041042e-05
4096.0,-6.20195351075381e-05
4608.0,-5.5126693041529506e-05
5120.0,-3.8037651393096894e-06
5632.0,-0.00028450973331928253
6144.0,1.4733908756170422e-05
6656.0,-6.229257996892557e-05
7168.0,2.4946193661889993e-05
7680.0,0.00011123157310066745
8192.0,0.0001194926371681504
9216.0,-0.00012924721522722393
10240.0,-9.208391020365525e-06
11264.0,-9.406452591065317e-05
12288.0,-7.743650348857045e-05
13312.0,-7.315587572520599e-05
14336.0,0.00026468595024198294
end
