version,3.0
numOfCh,1
type,point
parent_name,400-cuts
ch_type,1_1
kcount,1
numberNandB,1
brightnessNandB,1
carpet pos,0
pc,0
Time (ms),CH1 Auto-Correlation
1.0,0.01588263176381588
2.0,0.012574927881360054
3.0,0.010217622853815556
4.0,0.008481635712087154
5.0,0.007154121529310942
6.0,0.006256279069930315
7.0,0.005489408504217863
8.0,0.00481949420645833
9.0,0.004288339056074619
10.0,0.00379167846404016
11.0,0.0033832404296845198
12.0,0.0029906665440648794
13.0,0.0025766363833099604
14.0,0.0023415968753397465
15.0,0.002046311507001519
16.0,0.001776542398147285
18.0,0.0013669232139363885
20.0,0.0010580935049802065
22.0,0.0008718997123651206
24.0,0.0007725845789536834
26.0,0.0007072777952998877
28.0,0.0007358633447438478
30.0,0.0006683584069833159
32.0,0.0004863116191700101
36.0,0.0005482002743519843
40.0,0.000430611107731238
44.0,0.0004269281344022602
48.0,0.0005270391702651978
52.0,0.00037470890674740076
56.0,-1.8344715499551967e-05
60.0,-9.389665501657873e-05
64.0,-0.00017368669796269387
72.0,0.00017317569290753454
80.0,0.0002216539141954854
88.0,0.0001260836434084922
96.0,-0.0002976846299134195
104.0,-0.00030812114709988236
112.0,-0.0002804886025842279
120.0,-0.0003463452449068427
128.0,5.8452125813346356e-05
144.0,8.972785872174427e-05
160.0,-0.0001114970218623057
176.0,-0.00011625699698925018
192.0,-0.0003649959107860923
208.0,-0.00019921625789720565
224.0,-9.309585584560409e-05
240.0,0.0003043357573915273
256.0,0.00017480530368629843
288.0,-0.0002491323684807867
320.0,6.425712490454316e-05
352.0,-5.701010377379134e-05
384.0,-1.7684258637018502e-05
416.0,-0.0001629813341423869
448.0,-0.0003482622269075364
480.0,-0.0005627716309390962
512.0,0.00020004213729407638
576.0,0.00016914724255912006
640.0,0.0005330307758413255
704.0,-0.0002347203844692558
768.0,4.5598833821713924e-05
832.0,0.00021788298909086734
896.0,0.00021444544836413115
960.0,-0.00013253021461423486
1024.0,-9.770903125172481e-05
1152.0,-0.0003188078699167818
1280.0,-9.414467785973102e-05
1408.0,-0.00014446952263824642
1536.0,0.00020145403686910868
1664.0,-5.422061440185644e-05
1792.0,0.0002419999655103311
1920.0,0.00012048258213326335
2048.0,7.280759018613026e-05
2304.0,0.00018878630362451077
2560.0,9.572677663527429e-05
2816.0,-2.8480038963607512e-05
3072.0,6.919100997038186e-05
3328.0,-0.00015677210467401892
3584.0,-0.00011930988694075495
3840.0,3.211848525097594e-05
4096.0,0.00021476759866345674
4608.0,9.345346188638359e-05
5120.0,-1.7725393263390288e-05
5632.0,-0.0001154336059698835
6144.0,-1.0636803381203208e-05
6656.0,-2.0292281988076866e-07
7168.0,9.895505172607955e-06
7680.0,-1.697949119261466e-05
8192.0,-7.344532059505582e-05
9216.0,7.354155968641862e-05
10240.0,-0.0001548181171528995
11264.0,-2.2562278900295496e-05
12288.0,-0.00017646353808231652
13312.0,-9.788958413992077e-05
14336.0,-0.0001903494558064267
end
