version,3.0
numOfCh,1
type,point
parent_name,400-cuts
ch_type,1_1
kcount,1
numberNandB,1
brightnessNandB,1
carpet pos,0
pc,0
Time (ms),CH1 Auto-Correlation
1.0,0.02734258584678173
2.0,0.021892208606004715
3.0,0.018126821145415306
4.0,0.01527459267526865
5.0,0.013008495792746544
6.0,0.011334436945617199
7.0,0.010074228048324585
8.0,0.008791721425950527
9.0,0.007638807408511639
10.0,0.006681203376501799
11.0,0.005743689835071564
12.0,0.004832986276596785
13.0,0.003971719183027744
14.0,0.0032828717958182096
15.0,0.0029852576553821564
16.0,0.002702785888686776
18.0,0.002582225948572159
20.0,0.0019577788189053535
22.0,0.0011003961553797126
24.0,0.0007237037061713636
26.0,0.0004458129988051951
28.0,0.0005432010511867702
30.0,0.0004630744515452534
32.0,0.0002965252206195146
36.0,0.00021735204791184515
40.0,0.00011623978207353503
44.0,-0.00013397437578532845
48.0,0.00028707116143777966
52.0,0.0001871194108389318
56.0,0.00027736087213270366
60.0,0.0002170707011828199
64.0,-8.952695679909084e-06
72.0,0.0007962072268128395
80.0,0.001348988153040409
88.0,0.0008118417463265359
96.0,0.00023670204973313957
104.0,-0.00032733543775975704
112.0,-0.00030028403853066266
120.0,-0.00031740980921313167
128.0,-0.0004986809799447656
144.0,0.00013625348219648004
160.0,-6.285424024099484e-05
176.0,-0.00033833953784778714
192.0,-0.0003536730364430696
208.0,-0.0012601043563336134
224.0,-0.00048282992793247104
240.0,0.0005918683600611985
256.0,-0.0004378760058898479
288.0,-0.0004371194227132946
320.0,-0.000907639623619616
352.0,0.0002488988102413714
384.0,0.001092136255465448
416.0,0.00026307161897420883
448.0,0.0005528460023924708
480.0,-6.443577876780182e-05
512.0,0.00047844837536104023
576.0,-0.0003243017417844385
640.0,-3.945344724343158e-05
704.0,-0.00022263373830355704
768.0,2.6587782485876232e-05
832.0,0.00012002905714325607
896.0,0.00042810311424545944
960.0,7.78576941229403e-05
1024.0,6.62021484458819e-05
1152.0,0.0005063951248303056
1280.0,0.00013122582458890975
1408.0,2.459870847815182e-05
1536.0,0.00026708573568612337
1664.0,-0.00033083430025726557
1792.0,7.848104814911494e-07
1920.0,-4.883130895905197e-05
2048.0,-0.00012724896077997983
2304.0,0.00021764387201983482
2560.0,-0.0001408059906680137
2816.0,-0.0004018189792986959
3072.0,-2.439608761051204e-05
3328.0,0.00024394929641857743
3584.0,7.518025086028501e-05
3840.0,-0.00039655837463214993
4096.0,0.00013123372627887875
4608.0,7.410201942548156e-05
5120.0,-7.420247857226059e-05
5632.0,-6.698475317534758e-06
6144.0,-0.0001336734276264906
6656.0,5.966862590867095e-05
7168.0,-0.00027102907188236713
7680.0,0.0001478176418459043
8192.0,-0.0002205515484092757
9216.0,8.222760516218841e-05
10240.0,-9.127642988460138e-05
11264.0,-0.00019058868929278105
12288.0,-0.00031255322392098606
13312.0,-9.318515594713972e-07
14336.0,-0.0004260959103703499
end
