version,3.0
numOfCh,1
type,point
parent_name,400-cuts
ch_type,1_1
kcount,1
numberNandB,1
brightnessNandB,1
carpet pos,0
pc,0
Time (ms),CH1 Auto-Correlation
1.0,0.018392357975244522
2.0,0.015170050784945488
3.0,0.012831946834921837
4.0,0.010938995517790318
5.0,0.009621054865419865
6.0,0.008525821380317211
7.0,0.007654966786503792
8.0,0.006893120240420103
9.0,0.006248180288821459
10.0,0.005734838079661131
11.0,0.005431319121271372
12.0,0.0051161604933440685
13.0,0.004854672588407993
14.0,0.004577768500894308
15.0,0.004228304605931044
16.0,0.003936548717319965
18.0,0.003439470659941435
20.0,0.0030253848526626825
22.0,0.00271569169126451
24.0,0.002496833447366953
26.0,0.0022584586404263973
28.0,0.0017605011817067862
30.0,0.0013233034405857325
32.0,0.0010362471221014857
36.0,0.0008160167490132153
40.0,0.0006058004219084978
44.0,0.0005767032853327692
48.0,0.0006097742007113993
52.0,0.0003127588424831629
56.0,0.00026249742950312793
60.0,0.00036078953417018056
64.0,0.0005106421303935349
72.0,0.0006047746865078807
80.0,0.00027474210946820676
88.0,0.00028472646954469383
96.0,0.000586533104069531
104.0,0.0006020308355800807
112.0,0.0008906268049031496
120.0,0.0012073767138645053
128.0,0.0009561069891788065
144.0,0.0008510890766046941
160.0,0.0005856324569322169
176.0,0.0002531676145736128
192.0,-0.0002953088260255754
208.0,-0.0002242709742859006
224.0,-8.1261430750601e-05
240.0,0.00011417306814109907
256.0,-6.094770287745632e-05
288.0,0.0007891843561083078
320.0,0.0009047603234648705
352.0,0.0009057034039869905
384.0,0.0001826060761231929
416.0,0.0006409039488062263
448.0,0.000840203370898962
480.0,0.0004096220654901117
512.0,7.771023228997365e-05
576.0,-3.3368512504239334e-06
640.0,7.173425547080114e-05
704.0,-0.00012405631423462182
768.0,0.00014497969823423773
832.0,-0.0002862174587789923
896.0,0.0002389714791206643
960.0,2.0662264432758093e-05
1024.0,-0.00018616496527101845
1152.0,1.2378747669572476e-05
1280.0,0.0004570329620037228
1408.0,0.0006214557215571404
1536.0,6.231816223589703e-05
1664.0,0.0005170913645997643
1792.0,0.0006445233593694866
1920.0,0.00045841169776394963
2048.0,0.00011364775855327025
2304.0,-0.00034542137291282415
2560.0,-0.00027168786618858576
2816.0,-1.464016895624809e-05
3072.0,0.00017988707986660302
3328.0,0.00034914095886051655
3584.0,-3.0021892598597333e-05
3840.0,-0.00025451910914853215
4096.0,-5.799490463687107e-05
4608.0,0.0002954628726001829
5120.0,0.00027016646345146
5632.0,9.817123645916581e-05
6144.0,0.00014275102876126766
6656.0,9.373628563480452e-05
7168.0,-0.00046904280316084623
7680.0,-4.568537406157702e-06
8192.0,-0.00022563873790204525
9216.0,-0.00020127114839851856
10240.0,-0.00032888943678699434
11264.0,5.493802382261492e-05
12288.0,-0.0007378441514447331
13312.0,-0.0007152928155846894
14336.0,-0.0006910254014655948
end
