version,3.0
numOfCh,1
type,point
parent_name,400-cuts
ch_type,1_1
kcount,1
numberNandB,1
brightnessNandB,1
carpet pos,0
pc,0
Time (ms),CH1 Auto-Correlation
1.0,0.01730971224606037
2.0,0.014085184782743454
3.0,0.011741678230464458
4.0,0.010095218196511269
5.0,0.008768619038164616
6.0,0.007719343062490225
7.0,0.006822881754487753
8.0,0.006221435964107513
9.0,0.005725677125155926
10.0,0.005220581311732531
11.0,0.004852627404034138
12.0,0.0045227729715406895
13.0,0.004207340069115162
14.0,0.003977609798312187
15.0,0.0038254044484347105
16.0,0.00367147009819746
18.0,0.0034393963869661093
20.0,0.003093979088589549
22.0,0.0026256951969116926
24.0,0.002354443771764636
26.0,0.00215868279337883
28.0,0.0019923497457057238
30.0,0.0019525123061612248
32.0,0.0018622400239109993
36.0,0.001819679164327681
40.0,0.0016587827121838927
44.0,0.0014065492432564497
48.0,0.0010253277141600847
52.0,0.0007751228986307979
56.0,0.0009109569364227355
60.0,0.0009227431146427989
64.0,0.0009371859487146139
72.0,0.000703965313732624
80.0,0.0005532184150069952
88.0,0.0008492529159411788
96.0,0.0007612485205754638
104.0,0.0008327625109814107
112.0,0.0002837846986949444
120.0,0.00047258383710868657
128.0,-0.00019972694281022996
144.0,-0.0005523213767446578
160.0,-0.0004334428231231868
176.0,-0.0005213322583585978
192.0,-0.0005916515365242958
208.0,-0.0002019685780396685
224.0,-0.00035389509866945446
240.0,-0.00046202095109038055
256.0,-0.0001757059508236125
288.0,-6.152607238618657e-05
320.0,-3.3441439882153645e-05
352.0,4.028362309327349e-05
384.0,-0.00023759572650305927
416.0,-0.0003016622213181108
448.0,-0.00023499218514189124
480.0,-0.00011481426190584898
512.0,-0.00027149010566063225
576.0,-0.00042092904914170504
640.0,-0.0004201304982416332
704.0,0.00014917652879375964
768.0,-8.092838470474817e-06
832.0,8.507150050718337e-05
896.0,-0.00024489176576025784
960.0,0.00019735799287445843
1024.0,-4.215793524053879e-05
1152.0,-0.0002739361661951989
1280.0,0.00046791177010163665
1408.0,0.0003313307242933661
1536.0,-0.00024132034741342068
1664.0,9.298162694904022e-06
1792.0,-0.0001462731306673959
1920.0,8.932161290431395e-05
2048.0,-0.0005146270268596709
2304.0,-0.0003275024064350873
2560.0,0.00028054663562215865
2816.0,0.0004287547490093857
3072.0,-9.409031190443784e-05
3328.0,-0.00017895591736305505
3584.0,0.00029425910906866193
3840.0,-0.00024181022308766842
4096.0,-6.511535320896655e-05
4608.0,-0.00022061516938265413
5120.0,-0.0002460078976582736
5632.0,4.989330591342878e-06
6144.0,0.0002919901453424245
6656.0,0.00013688504986930639
7168.0,0.00011990079656243324
7680.0,-0.0002064381551463157
8192.0,-3.1429703085450456e-05
9216.0,1.9586092037116032e-07
10240.0,-0.00019907578825950623
11264.0,-1.7818550986703485e-05
12288.0,8.870101009961218e-05
13312.0,-1.8742872271104716e-05
14336.0,6.177747854962945e-05
end
