version,3.0
numOfCh,1
type,point
parent_name,400-cuts
ch_type,1_1
kcount,1
numberNandB,1
brightnessNandB,1
carpet pos,0
pc,0
Time (ms),CH1 Auto-Correlation
1.0,0.015236626379191875
2.0,0.01202305220067501
3.0,0.009858926758170128
4.0,0.008233461529016495
5.0,0.007072474341839552
6.0,0.006185482256114483
7.0,0.005459088832139969
8.0,0.004781005904078484
9.0,0.004308780655264854
10.0,0.0038589045871049166
11.0,0.0034456192515790462
12.0,0.0030562959145754576
13.0,0.0027030552737414837
14.0,0.0024380600079894066
15.0,0.002217573579400778
16.0,0.002045439090579748
18.0,0.00163911038544029
20.0,0.0013847709633409977
22.0,0.0012789552565664053
24.0,0.001100975088775158
26.0,0.0009126968798227608
28.0,0.0008441722602583468
30.0,0.0008008172735571861
32.0,0.0008122599683701992
36.0,0.0011569479247555137
40.0,0.0011877367505803704
44.0,0.0011039042146876454
48.0,0.0011081966804340482
52.0,0.0008569959318265319
56.0,0.0008669426315464079
60.0,0.0009804018773138523
64.0,0.0008973334915935993
72.0,0.0002642871404532343
80.0,5.640293693431886e-06
88.0,-7.179324165917933e-05
96.0,0.0002231114631285891
104.0,0.0002048015157924965
112.0,0.0001062665251083672
120.0,-5.162118213775102e-06
128.0,2.1399057004600763e-05
144.0,0.00019295068341307342
160.0,0.00031161357765085995
176.0,-7.494130841223523e-05
192.0,-7.738981366856024e-05
208.0,-0.00022677720698993653
224.0,-0.0006648851558566093
240.0,-0.0005329917767085135
256.0,-0.00034542923094704747
288.0,0.00013287246110849082
320.0,-0.00014514420763589442
352.0,-0.0003161203640047461
384.0,-1.3692439097212628e-05
416.0,3.494090196909383e-05
448.0,-0.00022490839182864875
480.0,-0.0002498566755093634
512.0,-0.0006163442158140242
576.0,-0.00012833665823563933
640.0,-3.129056858597323e-05
704.0,7.319043652387336e-05
768.0,7.950865983730182e-05
832.0,0.00032618484692648053
896.0,0.0003157572355121374
960.0,0.00025780440773814917
1024.0,-1.3650665096065495e-05
1152.0,2.067333844024688e-05
1280.0,0.0001452125288778916
1408.0,-1.1047050065826625e-05
1536.0,0.00012951702228747308
1664.0,5.572459485847503e-05
1792.0,-0.00022518550395034254
1920.0,-8.913061174098402e-05
2048.0,0.0003360290720593184
2304.0,-0.00028872163966298103
2560.0,-0.0002079286059597507
2816.0,-2.6161847927141935e-05
3072.0,8.444132981821895e-05
3328.0,-1.4844138604530599e-05
3584.0,-0.00033575508859939873
3840.0,-8.169615466613322e-05
4096.0,2.677851080079563e-05
4608.0,-2.7222669814364053e-05
5120.0,-1.5409179468406364e-05
5632.0,0.0001367753284284845
6144.0,0.00017462001414969563
6656.0,4.4071387605981727e-07
7168.0,4.1554476410965435e-06
7680.0,2.9669239665963687e-05
8192.0,-0.00011434200132498518
9216.0,-0.0001642394345253706
10240.0,-6.424546882044524e-05
11264.0,4.541387897916138e-05
12288.0,5.247654189588502e-05
13312.0,-6.767300510546193e-05
14336.0,-0.0002193226682720706
end
