version,3.0
numOfCh,1
type,point
parent_name,400-cuts
ch_type,1_1
kcount,1
numberNandB,1
brightnessNandB,1
carpet pos,0
pc,0
Time (ms),CH1 Auto-Correlation
1.0,0.01538167055696249
2.0,0.012355349026620388
3.0,0.010233904235064983
4.0,0.008662969805300236
5.0,0.007379358168691397
6.0,0.006442453246563673
7.0,0.005772625561803579
8.0,0.005179509054869413
9.0,0.0047109080478549
10.0,0.004266784526407719
11.0,0.003729867748916149
12.0,0.0034780872520059347
13.0,0.003071931190788746
14.0,0.002667293418198824
15.0,0.002422517165541649
16.0,0.002281604800373316
18.0,0.0019284301670268178
20.0,0.0015101695898920298
22.0,0.0010749547509476542
24.0,0.0007721019792370498
26.0,0.0006720012170262635
28.0,0.0007995373453013599
30.0,0.0007332317181862891
32.0,0.00055314862402156
36.0,0.00038567109731957316
40.0,0.00037368785706348717
44.0,0.0003119361645076424
48.0,0.0003683298418764025
52.0,0.00030307116685435176
56.0,0.00032697984715923667
60.0,2.8899541575810872e-05
64.0,-3.4844939364120364e-05
72.0,0.00012406983296386898
80.0,1.2556265573948622e-05
88.0,0.00031867949292063713
96.0,0.0005088210455141962
104.0,0.0007211531046777964
112.0,0.0005052778287790716
120.0,0.0002420658856863156
128.0,-2.336523266421864e-06
144.0,-0.00016800164303276688
160.0,-0.0005561859579756856
176.0,-0.00047920402721501887
192.0,-0.0006224405951797962
208.0,-0.00022134347818791866
224.0,0.0002443601260893047
240.0,0.00018073522369377315
256.0,-0.00035754364216700196
288.0,-0.00019833679834846407
320.0,9.654772293288261e-05
352.0,0.00030817967490293086
384.0,-5.772048461949453e-05
416.0,-5.6806715292623267e-05
448.0,6.392598152160645e-05
480.0,-0.00011296289449092001
512.0,-0.0003217812336515635
576.0,-0.00020103326824028045
640.0,-1.9416269424255006e-05
704.0,0.00023415658506564796
768.0,0.000430736574344337
832.0,0.00022197150974534452
896.0,0.00032801617635414004
960.0,-0.00016543756646569818
1024.0,0.0003103147028014064
1152.0,1.7721169569995254e-05
1280.0,6.01384999754373e-05
1408.0,-0.0001620151160750538
1536.0,0.0003375609521754086
1664.0,0.00012347519805189222
1792.0,2.362430450375541e-06
1920.0,1.9999455616925843e-05
2048.0,-0.00010635348007781431
2304.0,-2.166492231481243e-05
2560.0,-8.909065945772454e-05
2816.0,0.0001261290453840047
3072.0,-0.00033704127417877316
3328.0,0.00018906715558841825
3584.0,1.7995413145399652e-05
3840.0,-0.00026452550082467496
4096.0,-4.938101483276114e-05
4608.0,-0.00010198132804362103
5120.0,-8.974911906989291e-05
5632.0,-0.0001394129212712869
6144.0,5.748588955611922e-05
6656.0,-4.428056126926094e-05
7168.0,4.6874440158717334e-05
7680.0,0.00018571564578451216
8192.0,-3.0609435270889662e-06
9216.0,0.00015843581059016287
10240.0,1.571179564052727e-05
11264.0,-8.818072092253715e-05
12288.0,-0.00017008846043609083
13312.0,-0.00025891527184285223
14336.0,-0.00022831532987765968
end
