version,3.0
numOfCh,1
type,point
parent_name,400-cuts
ch_type,1_1
kcount,1
numberNandB,1
brightnessNandB,1
carpet pos,0
pc,0
Time (ms),CH1 Auto-Correlation
1.0,0.016723405569791794
2.0,0.013393139466643333
3.0,0.011100785806775093
4.0,0.00936678797006607
5.0,0.007952642627060413
6.0,0.006963168270885944
7.0,0.006191097665578127
8.0,0.005712886806577444
9.0,0.00528450682759285
10.0,0.004916005302220583
11.0,0.004490331280976534
12.0,0.004083576146513224
13.0,0.0038234416861087084
14.0,0.0035818901378661394
15.0,0.0031754302326589823
16.0,0.0029813002329319715
18.0,0.0025777905248105526
20.0,0.0021090132649987936
22.0,0.0017643929459154606
24.0,0.0015721105737611651
26.0,0.001408050418831408
28.0,0.0013353613903746009
30.0,0.0012608300894498825
32.0,0.0012853227090090513
36.0,0.0008931657066568732
40.0,0.0006330445175990462
44.0,0.0007215393707156181
48.0,0.0005979772540740669
52.0,0.0003449471259955317
56.0,0.00036328111309558153
60.0,0.0006331097101792693
64.0,0.0006576300947926939
72.0,0.0005468799499794841
80.0,0.00014815102622378618
88.0,0.0003013081441167742
96.0,0.00046425426262430847
104.0,0.0004123775870539248
112.0,0.0001668448094278574
120.0,6.469433719757944e-05
128.0,-0.0003454395628068596
144.0,-0.00012594151485245675
160.0,0.0004398510209284723
176.0,0.00021517282584682107
192.0,-6.473013058894139e-07
208.0,6.665325054200366e-05
224.0,-2.8206509341544006e-06
240.0,-0.00038714491529390216
256.0,-9.804553701542318e-05
288.0,-4.673725925385952e-05
320.0,-4.861977504333481e-05
352.0,-0.0003196428588125855
384.0,-0.0003590800624806434
416.0,-0.0005639484152197838
448.0,-7.733156235190108e-05
480.0,6.632453005295247e-05
512.0,5.38984895683825e-05
576.0,0.00020953018974978477
640.0,-0.0001136593273258768
704.0,0.00029308340162970126
768.0,-9.340904944110662e-05
832.0,-5.219680315349251e-05
896.0,-5.5470113693445455e-06
960.0,4.301341687096283e-05
1024.0,-9.391135245095938e-05
1152.0,8.929634350351989e-05
1280.0,-7.760487642372027e-05
1408.0,0.00026606800383888185
1536.0,-0.00023152540961746126
1664.0,-0.00010077204933622852
1792.0,-0.0005367792909964919
1920.0,0.0001653075887588784
2048.0,-1.3206608855398372e-05
2304.0,-0.00018496389384381473
2560.0,0.00017044816922862083
2816.0,2.3537601009593345e-05
3072.0,0.00012567261001095176
3328.0,0.00020228131324984133
3584.0,-9.632715955376625e-05
3840.0,9.583426435710862e-05
4096.0,2.5500250558252446e-05
4608.0,0.00013222040433902293
5120.0,-9.185705130221322e-05
5632.0,-6.805628800066188e-05
6144.0,-4.804797572433017e-05
6656.0,-0.00023036643688101321
7168.0,0.0002889837196562439
7680.0,9.194493941322435e-06
8192.0,3.370689114490233e-07
9216.0,-0.0001801439793780446
10240.0,-0.00011061783152399585
11264.0,4.8243913624901325e-05
12288.0,-5.4493350035045296e-05
13312.0,-0.00011866495333379135
14336.0,-5.39491193194408e-05
end
