version,3.0
numOfCh,1
type,point
parent_name,400-cuts
ch_type,1_1
kcount,1
numberNandB,1
brightnessNandB,1
carpet pos,0
pc,0
Time (ms),CH1 Auto-Correlation
1.0,0.02726593054831028
2.0,0.02168731763958931
3.0,0.017922796308994293
4.0,0.015237616375088692
5.0,0.012924062088131905
6.0,0.011259405873715878
7.0,0.00991846714168787
8.0,0.008627912029623985
9.0,0.007659212686121464
10.0,0.006848940160125494
11.0,0.006301026791334152
12.0,0.00569209223613143
13.0,0.005149190779775381
14.0,0.004606686066836119
15.0,0.004136430565267801
16.0,0.0036784056574106216
18.0,0.0029356901068240404
20.0,0.0023530868347734213
22.0,0.0018554968992248178
24.0,0.0017831563018262386
26.0,0.0016794748371466994
28.0,0.0015890621580183506
30.0,0.0016730147181078792
32.0,0.0014874836197122931
36.0,0.0010772200766950846
40.0,0.0012613756116479635
44.0,0.0009028875501826406
48.0,0.0003892960667144507
52.0,1.078761306416709e-05
56.0,0.00013717215915676206
60.0,0.00014242446923162788
64.0,-0.0001974907936528325
72.0,-0.00031888176454231143
80.0,5.4015243222238496e-05
88.0,0.00038340198807418346
96.0,9.188700641971081e-05
104.0,-0.0002749142295215279
112.0,-0.0006231418228708208
120.0,-0.00017866078997030854
128.0,-0.00035178053076379
144.0,0.00024195581499952823
160.0,0.00018034884124062955
176.0,-0.00021469859348144382
192.0,-0.0003793373762164265
208.0,-0.001095719519071281
224.0,-0.0005370822618715465
240.0,-0.00044720349251292646
256.0,-0.0006626557442359626
288.0,9.191691060550511e-05
320.0,-0.0003044379409402609
352.0,-9.406167373526841e-05
384.0,0.00010155705967918038
416.0,0.00024044942983891815
448.0,4.436342351255007e-05
480.0,8.904387505026534e-05
512.0,-0.0009742730180732906
576.0,-0.0003828174667432904
640.0,6.44223255221732e-05
704.0,-9.666384721640497e-05
768.0,0.00022593415633309633
832.0,0.00014627812197431922
896.0,0.00011233779514441267
960.0,-0.00036636204458773136
1024.0,0.00027943236636929214
1152.0,-3.584290971048176e-05
1280.0,-0.00016721976862754673
1408.0,0.00018737987556960434
1536.0,-1.1600258176258649e-06
1664.0,-0.0002566774492152035
1792.0,-0.0002243276685476303
1920.0,-1.61500065587461e-05
2048.0,0.00037947334931232035
2304.0,-0.00019213515042793006
2560.0,-0.0003922554606106132
2816.0,-0.0003364232834428549
3072.0,0.0004014490987174213
3328.0,-0.00012040492583764717
3584.0,0.00012866550241596997
3840.0,-3.9424623537342995e-05
4096.0,0.00034288226743228734
4608.0,8.873302249412518e-06
5120.0,5.555863754125312e-05
5632.0,1.890377461677417e-05
6144.0,-2.8042166377417743e-05
6656.0,-0.00040435069240629673
7168.0,0.00018386452575214207
7680.0,-5.4302276112139225e-05
8192.0,1.0669531320672831e-06
9216.0,0.00013419505557976663
10240.0,-6.214182212715968e-05
11264.0,-0.00010683460277505219
12288.0,-8.313748548971489e-05
13312.0,0.00019733046065084636
14336.0,0.00012296954810153693
end
