version,3.0
numOfCh,1
type,point
parent_name,400-cuts
ch_type,1_1
kcount,1
numberNandB,1
brightnessNandB,1
carpet pos,0
pc,0
Time (ms),CH1 Auto-Correlation
1.0,0.01557141076773405
2.0,0.012367667630314827
3.0,0.010074605233967304
4.0,0.00834231823682785
5.0,0.007048097439110279
6.0,0.00596381351351738
7.0,0.005086125805974007
8.0,0.004359612241387367
9.0,0.003845266764983535
10.0,0.0034325134474784136
11.0,0.0031323570292443037
12.0,0.0028736682143062353
13.0,0.0027170900721102953
14.0,0.0025321783032268286
15.0,0.0023492539767175913
16.0,0.002161464188247919
18.0,0.0019224068382754922
20.0,0.0017298870952799916
22.0,0.0014747829409316182
24.0,0.001328100566752255
26.0,0.0013202258851379156
28.0,0.0012769360328093171
30.0,0.0013574392069131136
32.0,0.0011606381740421057
36.0,0.0006783818826079369
40.0,0.0005562003934755921
44.0,0.00039654216379858553
48.0,0.00028638055664487183
52.0,5.865988350706175e-05
56.0,-0.0001053563246387057
60.0,-0.00018713677127379924
64.0,-0.00037898117443546653
72.0,-0.00031434171251021326
80.0,-0.00016775046242401004
88.0,-0.00026712860562838614
96.0,-6.632909207837656e-05
104.0,-0.0004781541647389531
112.0,-0.00017519149696454406
120.0,-0.00012046714255120605
128.0,-7.100206130417064e-05
144.0,6.192286673467606e-05
160.0,4.08444793720264e-05
176.0,0.00019469502149149776
192.0,0.00012443485320545733
208.0,-3.1562290132569615e-06
224.0,0.0004900226485915482
240.0,0.00040137095493264496
256.0,0.00038927735295146704
288.0,-6.164372462080792e-05
320.0,-0.0002514435618650168
352.0,9.663745731813833e-05
384.0,0.00044658270780928433
416.0,2.472948472131975e-05
448.0,-0.000155573696247302
480.0,-0.0004011510463897139
512.0,3.4009350201813504e-05
576.0,2.3608779883943498e-05
640.0,-0.00010588253644527867
704.0,-0.00042726812534965575
768.0,0.0002511113998480141
832.0,0.0006370097398757935
896.0,-7.454491424141452e-05
960.0,8.843765681376681e-05
1024.0,0.0004880023479927331
1152.0,0.000201880291569978
1280.0,-7.576381176477298e-05
1408.0,-9.476074774283916e-05
1536.0,-0.00016397907165810466
1664.0,-0.0002065279259113595
1792.0,-0.0001479906786698848
1920.0,0.00012853053340222687
2048.0,0.0003134702565148473
2304.0,-6.0237311117816716e-05
2560.0,-1.9651439288281836e-05
2816.0,0.00019572186283767223
3072.0,0.00025050429394468665
3328.0,8.758654439589009e-05
3584.0,-0.00022539532801602036
3840.0,0.00023369815608020872
4096.0,0.00014813081361353397
4608.0,-0.00018621217168401927
5120.0,0.00014539201220031828
5632.0,-8.380034705623984e-05
6144.0,0.00011221942986594513
6656.0,-6.405296880984679e-05
7168.0,6.518668669741601e-05
7680.0,-0.0001318133290624246
8192.0,-8.361781510757282e-05
9216.0,-8.303125650854781e-05
10240.0,-2.4329994630534202e-05
11264.0,-0.00010154317715205252
12288.0,-0.0002827067219186574
13312.0,-0.00022564941900782287
14336.0,-0.00016047031385824084
end
