version,3.0
numOfCh,1
type,point
parent_name,400-cuts
ch_type,1_1
kcount,1
numberNandB,1
brightnessNandB,1
carpet pos,0
pc,0
Time (ms),CH1 Auto-Correlation
1.0,0.028362445533275604
2.0,0.023070961236953735
3.0,0.01934780366718769
4.0,0.016588855534791946
5.0,0.014529055915772915
6.0,0.013185461051762104
7.0,0.011827956885099411
8.0,0.010585575364530087
9.0,0.009565441869199276
10.0,0.008617439307272434
11.0,0.007964902557432652
12.0,0.007415418513119221
13.0,0.006828410550951958
14.0,0.006421652156859636
15.0,0.005943517666310072
16.0,0.005508237984031439
18.0,0.0046064602211117744
20.0,0.0038094455376267433
22.0,0.0032127078156918287
24.0,0.0029231880325824022
26.0,0.0024787583388388157
28.0,0.0019923080690205097
30.0,0.001701091299764812
32.0,0.0011218306608498096
36.0,0.0006888831849209964
40.0,0.0009129432146437466
44.0,0.0012277098139747977
48.0,0.000924834341276437
52.0,0.000812281621620059
56.0,0.0004544092225842178
60.0,0.00026980010443367064
64.0,0.00015450843784492463
72.0,0.00017582089640200138
80.0,9.029240754898638e-05
88.0,0.000738558592274785
96.0,0.0008935763034969568
104.0,0.0005666599026881158
112.0,0.00019294396042823792
120.0,0.00075974699575454
128.0,0.0008617540006525815
144.0,0.0010179501259699464
160.0,0.0004011593700852245
176.0,0.00023530850012321025
192.0,-0.0010765251936390996
208.0,-0.0012262169038876891
224.0,-0.0006392934592440724
240.0,-0.0010108185233548284
256.0,-0.0009230009745806456
288.0,0.00021864072186872363
320.0,0.0006626247777603567
352.0,0.0004881645436398685
384.0,0.00041201338171958923
416.0,0.00015167650417424738
448.0,-0.0005968324257992208
480.0,-0.0006633645389229059
512.0,-0.0007759536383673549
576.0,-0.0006457437993958592
640.0,-0.0003885306359734386
704.0,6.755129288649186e-05
768.0,0.00016500243509653956
832.0,0.0002926109009422362
896.0,0.0006204309756867588
960.0,1.831679946917575e-05
1024.0,0.0006563616916537285
1152.0,-0.00032263866160064936
1280.0,-0.0003900899610016495
1408.0,0.0007110668229870498
1536.0,0.0007870775298215449
1664.0,-0.000113280228106305
1792.0,-8.073482604231685e-05
1920.0,0.0003096821892540902
2048.0,-0.0005062369164079428
2304.0,0.00013106942060403526
2560.0,0.00019046920351684093
2816.0,0.0002490223851054907
3072.0,-0.0001404199138050899
3328.0,0.0002610929077491164
3584.0,-0.00012795260408893228
3840.0,-7.200729305623099e-05
4096.0,-0.00012146458175266162
4608.0,-0.000467945181299001
5120.0,0.00017096975352615118
5632.0,-0.00034420215524733067
6144.0,-0.00014696698053739965
6656.0,-0.000281758897472173
7168.0,-0.00033235474256798625
7680.0,-0.0005186900380067527
8192.0,-4.275669562048279e-05
9216.0,-8.111674833344296e-05
10240.0,-7.788578659528866e-05
11264.0,-4.51223058917094e-05
12288.0,0.00030945090111345053
13312.0,0.00020421222143340856
14336.0,0.00024308533465955406
end
