version,3.0
numOfCh,1
type,point
parent_name,400-cuts
ch_type,1_1
kcount,1
numberNandB,1
brightnessNandB,1
carpet pos,0
pc,0
Time (ms),CH1 Auto-Correlation
1.0,0.01694868691265583
2.0,0.013727795332670212
3.0,0.01141724456101656
4.0,0.009621943347156048
5.0,0.008256236091256142
6.0,0.007210450246930122
7.0,0.006433223374187946
8.0,0.0058165681548416615
9.0,0.005170948337763548
10.0,0.004715542308986187
11.0,0.004276068415492773
12.0,0.003927768208086491
13.0,0.003618974704295397
14.0,0.0033231487032026052
15.0,0.003089707111939788
16.0,0.0029691183008253574
18.0,0.0027343942783772945
20.0,0.002477446338161826
22.0,0.002222483279183507
24.0,0.002082090824842453
26.0,0.00209409324452281
28.0,0.0019301362335681915
30.0,0.0018012264044955373
32.0,0.001731582568027079
36.0,0.001686734496615827
40.0,0.0016547802370041609
44.0,0.0013692768989130855
48.0,0.0013143518008291721
52.0,0.001061701332218945
56.0,0.0009405955788679421
60.0,0.0007687877514399588
64.0,0.0005485622095875442
72.0,0.0001365177013212815
80.0,-0.0002454770146869123
88.0,-0.0004143111000303179
96.0,-9.662443335400894e-05
104.0,0.00015735519991721958
112.0,0.0003442111483309418
120.0,0.0007462964858859777
128.0,0.0006263585528358817
144.0,6.250881415326148e-05
160.0,0.00030187107040546834
176.0,8.743004400457721e-06
192.0,-9.5326395239681e-05
208.0,0.0001980878587346524
224.0,-0.00012758441152982414
240.0,0.0006988589884713292
256.0,0.000203971954761073
288.0,-0.0005782374646514654
320.0,0.0001820340839913115
352.0,-0.0001347473298665136
384.0,0.00019630652968771756
416.0,0.00017997916438616812
448.0,-1.847665225795936e-05
480.0,-0.00023808717378415167
512.0,-0.0003338601964060217
576.0,0.00011234478006372228
640.0,1.7954385839402676e-05
704.0,-0.00019234475621487945
768.0,-7.732542871963233e-05
832.0,-4.774588524014689e-05
896.0,-0.0004776951973326504
960.0,-0.00036001132684759796
1024.0,-0.00039005838334560394
1152.0,-3.549701068550348e-05
1280.0,-2.652886360010598e-05
1408.0,0.00020358554320409894
1536.0,-0.00014815448957961053
1664.0,0.00016967375995591283
1792.0,0.00023133851937018335
1920.0,-3.0356644856510684e-05
2048.0,-0.0005476209917105734
2304.0,-2.3357290046988055e-05
2560.0,5.2568913815775886e-05
2816.0,-2.0443347239051946e-05
3072.0,6.899779691593722e-05
3328.0,-0.00011709554382832721
3584.0,-9.999627218348905e-05
3840.0,-0.00039291821303777397
4096.0,3.308201121399179e-05
4608.0,7.892237044870853e-05
5120.0,6.199294875841588e-05
5632.0,-0.00025952651049010456
6144.0,-4.056590114487335e-05
6656.0,4.831683691008948e-05
7168.0,-4.843197893933393e-05
7680.0,6.852309161331505e-05
8192.0,-0.00020101407426409423
9216.0,0.00015405881276819855
10240.0,9.639904601499438e-05
11264.0,-0.00013634348579216748
12288.0,-3.609040140872821e-05
13312.0,7.893805741332471e-05
14336.0,5.1733877626247704e-05
end
