version,3.0
numOfCh,1
type,point
parent_name,400-cuts
ch_type,1_1
kcount,1
numberNandB,1
brightnessNandB,1
carpet pos,0
pc,0
Time (ms),CH1 Auto-Correlation
1.0,0.016807010397315025
2.0,0.01358546782284975
3.0,0.011250953190028667
4.0,0.009439907036721706
5.0,0.008183022029697895
6.0,0.007269952446222305
7.0,0.006560992915183306
8.0,0.00596237787976861
9.0,0.005376745481044054
10.0,0.005128818564116955
11.0,0.004556611180305481
12.0,0.004037677310407162
13.0,0.003559525590389967
14.0,0.003317151917144656
15.0,0.003029985586181283
16.0,0.0027993398252874613
18.0,0.0025824683252722025
20.0,0.002448481507599354
22.0,0.0023627248592674732
24.0,0.0021783276461064816
26.0,0.0020466435234993696
28.0,0.0017075861105695367
30.0,0.0014140306739136577
32.0,0.0011104276636615396
36.0,0.0006843787850812078
40.0,0.0002884560963138938
44.0,0.00020291506370995194
48.0,0.00035015263711102307
52.0,0.00023519214300904423
56.0,-0.000192694686120376
60.0,9.782744018593803e-05
64.0,0.0003766087465919554
72.0,0.000495997432153672
80.0,0.00019224450807087123
88.0,0.0005062001291662455
96.0,0.0005478436360135674
104.0,0.00021339069644454867
112.0,5.3379237215267494e-05
120.0,0.00015686928236391395
128.0,-0.00031318882247433066
144.0,-0.0011218462605029345
160.0,-0.0009448210475966334
176.0,-0.0007004296639934182
192.0,-0.0005612921086139977
208.0,-7.149322482291609e-05
224.0,0.00011538591206772253
240.0,-6.782598939025775e-05
256.0,-5.278856770019047e-05
288.0,0.00033451206400059164
320.0,0.00014874392945785075
352.0,6.107942317612469e-05
384.0,8.498002716805786e-05
416.0,0.0001864938240032643
448.0,-0.00020186248002573848
480.0,-0.00010289024066878483
512.0,-7.728799573669676e-06
576.0,-0.0003333689528517425
640.0,0.0003738333471119404
704.0,-4.936543064104626e-06
768.0,-0.000433431938290596
832.0,-0.0004514972388278693
896.0,-0.0001769963273545727
960.0,0.0003287155705038458
1024.0,-7.840467878850177e-05
1152.0,8.001818059710786e-05
1280.0,4.315740807214752e-05
1408.0,0.00024276558542624116
1536.0,-7.56032532081008e-05
1664.0,-1.6723748558433726e-05
1792.0,-8.182882447727025e-05
1920.0,0.00010210805339738727
2048.0,-0.00019612441246863455
2304.0,-0.00016157403297256678
2560.0,0.0001362701295875013
2816.0,-0.00014022545656189322
3072.0,-9.810404299059883e-05
3328.0,-8.935792720876634e-05
3584.0,0.0001311859377892688
3840.0,3.441786611801945e-05
4096.0,5.3588650189340115e-05
4608.0,2.202358518843539e-05
5120.0,0.0001371233374811709
5632.0,-0.0002027488371822983
6144.0,0.00015086369239725173
6656.0,-1.162603894044878e-05
7168.0,1.3072323781671003e-05
7680.0,3.918312359019183e-06
8192.0,-0.0001077807683032006
9216.0,-5.499035614775494e-05
10240.0,-8.761095159570687e-06
11264.0,0.0002395031915511936
12288.0,-8.377458289032802e-05
13312.0,0.00010563851537881419
14336.0,-0.00014033479965291917
end
