version,3.0
numOfCh,1
type,point
parent_name,400-cuts
ch_type,1_1
kcount,1
numberNandB,1
brightnessNandB,1
carpet pos,0
pc,0
Time (ms),CH1 Auto-Correlation
1.0,0.026770884171128273
2.0,0.021358365193009377
3.0,0.01753593049943447
4.0,0.01481067668646574
5.0,0.012450353242456913
6.0,0.010633381083607674
7.0,0.00930499192327261
8.0,0.008323851972818375
9.0,0.007413574494421482
10.0,0.006466514430940151
11.0,0.005709335673600435
12.0,0.0050856927409768105
13.0,0.004714873153716326
14.0,0.004286178387701511
15.0,0.004125418607145548
16.0,0.004090018104761839
18.0,0.0034691921900957823
20.0,0.0029635794926434755
22.0,0.0025403499603271484
24.0,0.002208493882790208
26.0,0.001864441204816103
28.0,0.0013741378206759691
30.0,0.0010588495060801506
32.0,0.0007054168963804841
36.0,1.881111165857874e-05
40.0,-0.00024022239085752517
44.0,-0.00030998015427030623
48.0,-0.00023616575344931334
52.0,-0.00017963733989745378
56.0,-0.00030669031548313797
60.0,-0.0003196470788680017
64.0,-0.0002114837698172778
72.0,-0.00010692787327570841
80.0,1.0412895790068433e-05
88.0,-0.00025070179253816605
96.0,-0.00043141678906977177
104.0,-0.00016993175086099654
112.0,0.0004883515066467226
120.0,0.0008795943576842546
128.0,0.0005647853249683976
144.0,0.0003399842244107276
160.0,-0.00024016303359530866
176.0,-0.0003557718882802874
192.0,3.6852070479653776e-05
208.0,0.0006644945242442191
224.0,0.0015676973853260279
240.0,0.0007790468516759574
256.0,9.997332381317392e-05
288.0,0.0002919348771683872
320.0,-0.00044521954259835184
352.0,-0.00046509315143339336
384.0,-0.0004345915513113141
416.0,0.0012028366327285767
448.0,0.0003721864486578852
480.0,-0.00017432209278922528
512.0,-0.00033372390316799283
576.0,0.00013259099796414375
640.0,0.000366675085388124
704.0,0.0004395790456328541
768.0,-3.850084249279462e-05
832.0,-0.00013452568964567035
896.0,-2.739863884926308e-05
960.0,-0.00011886622087331489
1024.0,-0.0002271405974170193
1152.0,0.00013726059114560485
1280.0,-0.00012456088734325022
1408.0,-0.00031429450609721243
1536.0,-4.242991781211458e-05
1664.0,-0.0001253363734576851
1792.0,-0.00018317274225410074
1920.0,-0.0006126717780716717
2048.0,-0.0003619411145336926
2304.0,-7.633370842086151e-05
2560.0,-0.00025139746139757335
2816.0,0.00018530372472014278
3072.0,0.00022131498553790152
3328.0,0.00017415848560631275
3584.0,-0.0002245408686576411
3840.0,0.00010351276432629675
4096.0,0.0003765926230698824
4608.0,0.0002190448867622763
5120.0,3.942424518754706e-05
5632.0,-3.054266926483251e-05
6144.0,-0.00016642910486552864
6656.0,-0.00015055743278935552
7168.0,2.621756721055135e-05
7680.0,0.00013672048225998878
8192.0,0.00014311734412331134
9216.0,-0.00012018085544696078
10240.0,-0.00025693458155728877
11264.0,1.823111051635351e-05
12288.0,0.0004086568660568446
13312.0,-0.0003472730459179729
14336.0,-0.0008901769178919494
end
