version,3.0
numOfCh,1
type,point
parent_name,400-cuts
ch_type,1_1
kcount,1
numberNandB,1
brightnessNandB,1
carpet pos,0
pc,0
Time (ms),CH1 Auto-Correlation
1.0,0.027012398466467857
2.0,0.02172723039984703
3.0,0.0180414579808712
4.0,0.015354641713202
5.0,0.01328367367386818
6.0,0.011647876352071762
7.0,0.010440602898597717
8.0,0.009337819181382656
9.0,0.008409450761973858
10.0,0.0076060001738369465
11.0,0.0067974962294101715
12.0,0.006240692920982838
13.0,0.005610871594399214
14.0,0.004955523181706667
15.0,0.0046157208271324635
16.0,0.004368314053863287
18.0,0.0039773304015398026
20.0,0.00353776547126472
22.0,0.00309396767988801
24.0,0.002744432771578431
26.0,0.00266287662088871
28.0,0.0022619261872023344
30.0,0.0019559997599571943
32.0,0.0019118349300697446
36.0,0.0013667079620063305
40.0,0.0014239562442526221
44.0,0.0013953766319900751
48.0,0.001314513385295868
52.0,0.0012049863580614328
56.0,0.0012564428616315126
60.0,0.0006275490741245449
64.0,0.00011682844342431054
72.0,-0.00043765551527030766
80.0,-9.52022455749102e-05
88.0,-0.00013352629321161658
96.0,-4.933640593662858e-05
104.0,-5.656915163854137e-05
112.0,-0.00032957663643173873
120.0,-0.0002031329058809206
128.0,0.0006278491346165538
144.0,0.0007832472329027951
160.0,0.0006002461304888129
176.0,0.0001539201766718179
192.0,0.00023469779989682138
208.0,-6.644515451625921e-06
224.0,-0.0010425677755847573
240.0,-0.0013768253847956657
256.0,-0.001571629079990089
288.0,-0.0003411552752368152
320.0,0.0003996292653027922
352.0,0.000743268639780581
384.0,-1.6725192836020142e-05
416.0,-0.0002525611489545554
448.0,-5.3606698202202097e-05
480.0,0.0002984166785608977
512.0,-0.00023179550771601498
576.0,-0.000507194607052952
640.0,-0.0009217551560141146
704.0,-0.0006971588591113687
768.0,-0.000894335622433573
832.0,-0.0006786141893826425
896.0,-4.215992885292508e-05
960.0,0.0002371418959228322
1024.0,-1.4636410924140364e-05
1152.0,-3.6711828670377145e-06
1280.0,0.00013268816110212356
1408.0,0.00028100673807784915
1536.0,0.00010096848563989624
1664.0,0.00014701006875839084
1792.0,0.0005897947121411562
1920.0,0.00011327038373565301
2048.0,0.000202153401914984
2304.0,-0.00031431595562025905
2560.0,-0.0004900383064523339
2816.0,-0.00012919088476337492
3072.0,0.00016147096175700426
3328.0,0.0003932108811568469
3584.0,0.0003175889141857624
3840.0,-6.98336007189937e-05
4096.0,-0.000463799195131287
4608.0,8.869128942023963e-05
5120.0,4.564984465105226e-06
5632.0,-0.0002624505141284317
6144.0,-2.7868176402989775e-05
6656.0,0.0003186776884831488
7168.0,-0.00032757315784692764
7680.0,-0.0002046759327640757
8192.0,0.00028083319193683565
9216.0,-0.0002656692813616246
10240.0,0.00022132864978630096
11264.0,-0.00025344666210003197
12288.0,8.986873581307009e-05
13312.0,-0.00017154542729258537
14336.0,0.0008071071933954954
end
