version,3.0
numOfCh,1
type,point
parent_name,400-cuts
ch_type,1_1
kcount,1
numberNandB,1
brightnessNandB,1
carpet pos,0
pc,0
Time (ms),CH1 Auto-Correlation
1.0,0.015842298045754433
2.0,0.012643891386687756
3.0,0.010357996448874474
4.0,0.008634100668132305
5.0,0.0073189279064536095
6.0,0.006390377879142761
7.0,0.005545553285628557
8.0,0.004874797537922859
9.0,0.004321683198213577
10.0,0.003927022218704224
11.0,0.0036415639333426952
12.0,0.003339526941999793
13.0,0.003126490628346801
14.0,0.0028758898843079805
15.0,0.00271047605201602
16.0,0.002452125772833824
18.0,0.0021382153499871492
20.0,0.001916299806907773
22.0,0.0019032696727663279
24.0,0.0017610659124329686
26.0,0.0014517647214233875
28.0,0.001175076118670404
30.0,0.000989762251265347
32.0,0.0010793099645525217
36.0,0.001163537846878171
40.0,0.0007183761917985976
44.0,0.00023064730339683592
48.0,0.00021324427507352084
52.0,0.0003544328501448035
56.0,9.557582961861044e-05
60.0,0.0001782206672942266
64.0,0.00015450369392056018
72.0,-8.795535904937424e-06
80.0,0.00021256790205370635
88.0,0.00047472500591538846
96.0,0.0006231729639694095
104.0,0.0005540597485378385
112.0,0.00012874367530457675
120.0,-0.0001498176861787215
128.0,8.983213047031313e-05
144.0,5.228828376857564e-05
160.0,8.379671635339037e-05
176.0,6.430334906326607e-05
192.0,0.00020868067804258317
208.0,0.0006717580836266279
224.0,0.00037796300603076816
240.0,2.0631865481846035e-05
256.0,9.96968665276654e-05
288.0,0.0004620971449185163
320.0,0.0006916751735843718
352.0,0.0001743238535709679
384.0,-7.440667832270265e-05
416.0,0.00030404527205973864
448.0,7.647327583981678e-05
480.0,-0.0002273612772114575
512.0,-0.0003621459472924471
576.0,9.854861855274066e-05
640.0,0.000595706282183528
704.0,-3.2669307984178886e-05
768.0,1.592930311744567e-05
832.0,-0.00020828509877901524
896.0,9.279204823542386e-05
960.0,0.0004229527257848531
1024.0,0.00024524511536583304
1152.0,-6.64271938148886e-05
1280.0,0.00016902160132303834
1408.0,-2.9875758627895266e-05
1536.0,-0.000364527601050213
1664.0,-0.0003538104647304863
1792.0,-0.00010924834350589663
1920.0,-0.0002236707805423066
2048.0,-0.00011040826211683452
2304.0,-3.9552527596242726e-05
2560.0,-0.00013615100760944188
2816.0,-0.0001733516837703064
3072.0,2.653155752341263e-05
3328.0,0.00014870153972879052
3584.0,0.00020999590924475342
3840.0,0.0001968866854440421
4096.0,-0.00012256672198418528
4608.0,-4.94759478897322e-05
5120.0,-0.00019626670109573752
5632.0,3.9793329051462933e-05
6144.0,-0.00015312443429138511
6656.0,0.0001758678408805281
7168.0,4.615158832166344e-05
7680.0,0.00024235236924141645
8192.0,-0.00021618288883473724
9216.0,-4.856899977312423e-06
10240.0,0.00010246376041322947
11264.0,-7.072994048940018e-05
12288.0,-0.00021081553131807595
13312.0,4.5554086682386696e-05
14336.0,-0.00026811103452928364
end
