version,3.0
numOfCh,1
type,point
parent_name,400-cuts
ch_type,1_1
kcount,1
numberNandB,1
brightnessNandB,1
carpet pos,0
pc,0
Time (ms),CH1 Auto-Correlation
1.0,0.017012767493724823
2.0,0.013743054121732712
3.0,0.011480076238512993
4.0,0.009850014932453632
5.0,0.00860280729830265
6.0,0.007520780898630619
7.0,0.006622519344091415
8.0,0.00589060690253973
9.0,0.005384025629609823
10.0,0.004938826430588961
11.0,0.004527830518782139
12.0,0.004230328369885683
13.0,0.003975162282586098
14.0,0.0038188884500414133
15.0,0.0035287030041217804
16.0,0.0032400924246758223
18.0,0.002756022149696946
20.0,0.0024267947301268578
22.0,0.002150160726159811
24.0,0.001829140237532556
26.0,0.001534213195554912
28.0,0.0014400044456124306
30.0,0.0013077452313154936
32.0,0.0012126826914027333
36.0,0.001123613677918911
40.0,0.0010525800753384829
44.0,0.0009886326733976603
48.0,0.0009047092753462493
52.0,0.0007319902651943266
56.0,0.0008356578764505684
60.0,0.000973413756582886
64.0,0.0009549008682370186
72.0,0.000939376768656075
80.0,0.0007570551242679358
88.0,0.0005099529516883194
96.0,0.0005216597928665578
104.0,0.0009767828742042184
112.0,0.0008517630631104112
120.0,0.0004548676370177418
128.0,0.0002619448641780764
144.0,0.0003428338677622378
160.0,0.0001444382796762511
176.0,-0.00022288427862804383
192.0,-0.00016510217392351478
208.0,5.808957575936802e-05
224.0,-0.00029314946732483804
240.0,-0.00022198361693881452
256.0,1.9581990272854455e-05
288.0,0.0002810365695040673
320.0,-0.0002307427057530731
352.0,-0.00021240471687633544
384.0,-0.00019382478785701096
416.0,-0.0003182396467309445
448.0,-0.00014451697643380612
480.0,0.00011978098336840048
512.0,0.0004418176831677556
576.0,0.0003735833161044866
640.0,0.00037520870682783425
704.0,-0.0001930621947394684
768.0,-6.513447442557663e-05
832.0,-0.00033650308614596725
896.0,-0.0005135666579008102
960.0,0.00034547297400422394
1024.0,-4.978183642379008e-05
1152.0,-0.0007520147482864559
1280.0,-6.724738341290504e-05
1408.0,-0.00016472047718707472
1536.0,0.0006614799494855106
1664.0,-0.0002285198133904487
1792.0,-0.00037798602716065943
1920.0,-0.0003621467330958694
2048.0,-0.00010130223381565884
2304.0,4.147323124925606e-05
2560.0,0.00010432918497826904
2816.0,-0.00023885599512141198
3072.0,-9.449819481233135e-05
3328.0,-0.000512817467097193
3584.0,3.2204512535827234e-05
3840.0,-2.727954779402353e-05
4096.0,0.00019385587074793875
4608.0,-6.239979120437056e-05
5120.0,0.0001524511753814295
5632.0,8.48461568239145e-05
6144.0,0.00011665961937978864
6656.0,9.823746950132772e-05
7168.0,7.284084131242707e-05
7680.0,-8.723856444703415e-05
8192.0,-0.0003312807821203023
9216.0,-5.34143291588407e-05
10240.0,0.00011888763401657343
11264.0,-0.0001298103597946465
12288.0,0.00033623911440372467
13312.0,-0.00019457412417978048
14336.0,-0.00016110674187075347
end
