version,3.0
numOfCh,1
type,point
parent_name,400-cuts
ch_type,1_1
kcount,1
numberNandB,1
brightnessNandB,1
carpet pos,0
pc,0
Time (ms),CH1 Auto-Correlation
1.0,0.01523625385016203
2.0,0.011986859142780304
3.0,0.009736517444252968
4.0,0.008096856065094471
5.0,0.006815094500780106
6.0,0.00586867006495595
7.0,0.005026735365390778
8.0,0.004388763103634119
9.0,0.0039527458138763905
10.0,0.003587622195482254
11.0,0.0032844950910657644
12.0,0.0029430713038891554
13.0,0.002643994055688381
14.0,0.0023688352666795254
15.0,0.002285282127559185
16.0,0.0020004387479275465
18.0,0.0015680310316383839
20.0,0.001174185425043106
22.0,0.000905571156181395
24.0,0.0007723977323621511
26.0,0.0007681806455366313
28.0,0.0007202396518550813
30.0,0.0006448426283895969
32.0,0.0005618840805254877
36.0,0.00032326174550689757
40.0,0.0006690490408800542
44.0,0.0010122084058821201
48.0,0.00102346355561167
52.0,0.00043519085738807917
56.0,2.0753306671394967e-05
60.0,1.3628779015562031e-05
64.0,0.00016002923075575382
72.0,-0.0001284075842704624
80.0,-3.681522503029555e-05
88.0,1.0197771189268678e-05
96.0,-0.00032783288042992353
104.0,-0.00038405449595302343
112.0,-0.00013050770212430507
120.0,-0.0002674156567081809
128.0,-0.0006812172359786928
144.0,-0.0005957852117717266
160.0,-0.00038031089934520423
176.0,0.00010631944314809516
192.0,0.00024427121388725936
208.0,0.00025693411589600146
224.0,0.00010968059359584004
240.0,0.0009032159578055143
256.0,0.00041550485184416175
288.0,-0.00011044614075217396
320.0,7.469845877494663e-05
352.0,-0.0002089231857098639
384.0,-0.00023987883469089866
416.0,0.00014732906129211187
448.0,-0.0002551718207541853
480.0,-0.0005215125274844468
512.0,-0.00035678528365679085
576.0,-0.0003856336115859449
640.0,3.8366437365766615e-05
704.0,-0.00037985839298926294
768.0,-0.0003901027957908809
832.0,0.00012172816059319302
896.0,0.000157544098328799
960.0,0.00034365427563898265
1024.0,-0.00012498474097810686
1152.0,-5.445391434477642e-05
1280.0,1.0391730029368773e-05
1408.0,5.261026308289729e-05
1536.0,-0.00011294629803160205
1664.0,7.272954098880291e-05
1792.0,-0.000235904983128421
1920.0,-0.0001668952318141237
2048.0,0.0002630717644933611
2304.0,-4.7713820094941184e-05
2560.0,1.6591879102634266e-05
2816.0,2.170406332879793e-05
3072.0,-2.9667247872566804e-05
3328.0,-0.0003701866662595421
3584.0,0.00014240422751754522
3840.0,0.00013490360288415104
4096.0,0.00011475657811388373
4608.0,0.0001694517704891041
5120.0,-0.00014777625619899482
5632.0,3.594526424421929e-05
6144.0,-0.00012209510896354914
6656.0,0.0001389403478242457
7168.0,-0.0002343498490517959
7680.0,6.693730392726138e-05
8192.0,-4.3050586100434884e-05
9216.0,-1.389072167512495e-05
10240.0,-1.2650682037929073e-05
11264.0,-3.179803752573207e-05
12288.0,3.1972795113688335e-05
13312.0,3.1074934668140486e-05
14336.0,-2.7403089916333556e-05
end
