version,3.0
numOfCh,1
type,point
parent_name,400-cuts
ch_type,1_1
kcount,1
numberNandB,1
brightnessNandB,1
carpet pos,0
pc,0
Time (ms),CH1 Auto-Correlation
1.0,0.016141608357429504
2.0,0.01290394552052021
3.0,0.0107053117826581
4.0,0.009082978591322899
5.0,0.007770352531224489
6.0,0.006840412504971027
7.0,0.006060784216970205
8.0,0.005382298957556486
9.0,0.004852043464779854
10.0,0.004338336642831564
11.0,0.0038878952618688345
12.0,0.0035901800729334354
13.0,0.003299697767943144
14.0,0.0029359059408307076
15.0,0.002659153426066041
16.0,0.002411428838968277
18.0,0.0020073805935680866
20.0,0.00175177538767457
22.0,0.001610203762538731
24.0,0.0016320660943165421
26.0,0.001571337808854878
28.0,0.00133200129494071
30.0,0.0010897541651502252
32.0,0.0009724171250127256
36.0,0.0007008854881860316
40.0,0.0007309242500923574
44.0,0.0009285487467423081
48.0,0.0008541070856153965
52.0,0.0008077126112766564
56.0,0.0004883757210336626
60.0,0.0001644987496547401
64.0,0.00014993328659329563
72.0,0.00024169421521946788
80.0,8.866735151968896e-05
88.0,-5.812579547637142e-05
96.0,-0.00026669775252230465
104.0,-0.00027655428857542574
112.0,-0.0005761111970059574
120.0,-0.000444196630269289
128.0,-7.619663665536791e-05
144.0,-0.00012679830251727253
160.0,-0.0005766808171756566
176.0,-0.0004345709166955203
192.0,-0.00012090186646673828
208.0,-5.131859870743938e-05
224.0,3.7702960980823264e-05
240.0,4.275216269888915e-05
256.0,0.00038688399945385754
288.0,1.0902365829679184e-05
320.0,-3.2036714401328936e-05
352.0,5.49349351786077e-05
384.0,-5.193212200538255e-05
416.0,1.172778593172552e-05
448.0,7.22659460734576e-05
480.0,-0.00026680418523028493
512.0,-6.719664088450372e-05
576.0,6.452893558162032e-06
640.0,-0.00026962553965859115
704.0,-9.943690383806825e-05
768.0,0.00021218111214693636
832.0,3.643035961431451e-05
896.0,-1.6618520248812274e-06
960.0,-3.0516590413753875e-05
1024.0,-5.093012987344991e-06
1152.0,5.341310679796152e-05
1280.0,-7.602848199894652e-05
1408.0,-6.891480734338984e-05
1536.0,-8.902608533389866e-05
1664.0,0.00014294733409769833
1792.0,-0.00041849532863125205
1920.0,4.8249505198327824e-05
2048.0,-0.0003423760936129838
2304.0,-3.921333700418472e-05
2560.0,0.00010143424151465297
2816.0,-0.000247336458414793
3072.0,-0.000255143124377355
3328.0,0.0002709764230530709
3584.0,0.0001601676776772365
3840.0,-3.495276905596256e-05
4096.0,1.9080747733823955e-05
4608.0,-8.44551032059826e-05
5120.0,-0.00010512229346204549
5632.0,1.7052727343980223e-05
6144.0,3.6008299503009766e-05
6656.0,0.00012712662282865494
7168.0,0.0001771068200469017
7680.0,-0.00011656748392852023
8192.0,3.861632285406813e-05
9216.0,-0.00017538182146381587
10240.0,4.34438516094815e-05
11264.0,3.0773029720876366e-05
12288.0,-8.519650873495266e-05
13312.0,-8.827937563182786e-05
14336.0,6.858073174953461e-05
end
