version,3.0
numOfCh,1
type,point
parent_name,400-cuts
ch_type,1_1
kcount,1
numberNandB,1
brightnessNandB,1
carpet pos,0
pc,0
Time (ms),CH1 Auto-Correlation
1.0,0.02563752979040146
2.0,0.02031503990292549
3.0,0.016710827127099037
4.0,0.014056381769478321
5.0,0.01206246018409729
6.0,0.010525641031563282
7.0,0.00942746177315712
8.0,0.008435748517513275
9.0,0.00738361245021224
10.0,0.006523484829813242
11.0,0.005712357349693775
12.0,0.005065799690783024
13.0,0.004416113719344139
14.0,0.003934775944799185
15.0,0.003623491618782282
16.0,0.003412531455978751
18.0,0.0027368366718292236
20.0,0.002368516754359007
22.0,0.002163563622161746
24.0,0.0018757657380774617
26.0,0.001730499672703445
28.0,0.0013339169090613723
30.0,0.0013552905293181539
32.0,0.0016244378639385104
36.0,0.0017179379938170314
40.0,0.0017090985784307122
44.0,0.0019615511409938335
48.0,0.0015907480847090483
52.0,0.0012032539816573262
56.0,0.0007745571783743799
60.0,0.00046056273276917636
64.0,0.00044680037535727024
72.0,0.00028266452136449516
80.0,0.0002942033461295068
88.0,0.000720844604074955
96.0,0.00023235005210153759
104.0,0.0007834856514818966
112.0,0.00016294886881951243
120.0,-0.0009358946117572486
128.0,-0.0004947982961311936
144.0,-1.89280544873327e-05
160.0,-0.0007713648374192417
176.0,-0.00033580587478354573
192.0,-0.00041983340634033084
208.0,-0.0005229077651165426
224.0,-7.503350207116455e-05
240.0,-0.00035660702269524336
256.0,-0.0009516568388789892
288.0,-0.0004591156612150371
320.0,-0.00030843200511299074
352.0,-0.0003557032032404095
384.0,0.0007006541709415615
416.0,0.0003168103867210448
448.0,0.0003480730811133981
480.0,7.004573853919283e-05
512.0,0.00022987952979747206
576.0,0.00018549335072748363
640.0,-0.0004753326065838337
704.0,8.049423195188865e-05
768.0,-0.0008548747864551842
832.0,-0.00029473184258677065
896.0,0.0002891540352720767
960.0,0.00042066691094078124
1024.0,-2.5030010874615982e-05
1152.0,-0.00016608803707640618
1280.0,-0.00012852500367444009
1408.0,-0.00033501218422316015
1536.0,0.00028379049035720527
1664.0,0.0003481625171843916
1792.0,-4.5756372855976224e-05
1920.0,-0.0007685583550482988
2048.0,1.7482790326539543e-06
2304.0,-0.0005134429666213691
2560.0,0.0003195209428668022
2816.0,-0.0002972817455884069
3072.0,0.00021030014613643289
3328.0,-1.565479760756716e-05
3584.0,-0.00029290153179317713
3840.0,-0.00011579850252019241
4096.0,-0.0003318029339425266
4608.0,-4.989387889509089e-05
5120.0,0.00033155089477077127
5632.0,1.7317612218903378e-05
6144.0,8.832785533741117e-05
6656.0,-0.00020584322919603437
7168.0,-0.00012944458285346627
7680.0,0.0004550130106508732
8192.0,-0.00012929736112710088
9216.0,7.451065175700933e-05
10240.0,-8.661051651870366e-06
11264.0,-7.444489165209234e-05
12288.0,-0.0003101475886069238
13312.0,0.00044387290836311877
14336.0,0.0002585270849522203
end
