version,3.0
numOfCh,1
type,point
parent_name,400-cuts
ch_type,1_1
kcount,1
numberNandB,1
brightnessNandB,1
carpet pos,0
pc,0
Time (ms),CH1 Auto-Correlation
1.0,0.026377256959676743
2.0,0.020965080708265305
3.0,0.017119484022259712
4.0,0.014461319893598557
5.0,0.01230237539857626
6.0,0.010698460042476654
7.0,0.00941480416804552
8.0,0.00833749957382679
9.0,0.007336275652050972
10.0,0.006282611284404993
11.0,0.005681073293089867
12.0,0.0052556237205863
13.0,0.004818246699869633
14.0,0.004479678813368082
15.0,0.004095439333468676
16.0,0.003773273667320609
18.0,0.003397995373234153
20.0,0.003223208012059331
22.0,0.0032005312386900187
24.0,0.002906927838921547
26.0,0.0026297681033611298
28.0,0.0021935217082500458
30.0,0.0019605073612183332
32.0,0.0017406664555892348
36.0,0.0008704432402737439
40.0,0.0007823932683095336
44.0,0.0005638894508592784
48.0,0.0004488479462452233
52.0,0.00033097947016358376
56.0,0.00015502846508752555
60.0,-0.0002599272411316633
64.0,-0.00022861942125018686
72.0,0.0005548390909098089
80.0,0.0006742719560861588
88.0,-0.0003044030163437128
96.0,-0.0007720126886852086
104.0,-0.0005924656870774925
112.0,-0.0007555689080618322
120.0,-0.0003570896515157074
128.0,-9.451532969251275e-05
144.0,-0.0006124925566837192
160.0,-0.000601781124714762
176.0,0.00042093679076060653
192.0,-0.00015723104297649115
208.0,-7.50307081034407e-05
224.0,-0.0010743823368102312
240.0,-0.0005740367923863232
256.0,0.0002030198957072571
288.0,-0.0002808625577017665
320.0,-8.951107156462967e-05
352.0,-0.00043434309191070497
384.0,-0.00020081874390598387
416.0,0.0004943634266965091
448.0,0.0004930353024974465
480.0,-8.46803595777601e-05
512.0,-7.153202022891492e-05
576.0,7.954685133881867e-05
640.0,-0.00021140073658898473
704.0,-0.0008967879693955183
768.0,-0.0005083259893581271
832.0,-0.00018614203145261854
896.0,-0.00046802687575109303
960.0,0.0003655149776022881
1024.0,0.00019020523177459836
1152.0,-0.00014939441462047398
1280.0,-9.707405115477741e-05
1408.0,-0.0008681660983711481
1536.0,0.0005225628847256303
1664.0,5.887387305847369e-05
1792.0,0.00032913009636104107
1920.0,-8.490849722875282e-05
2048.0,0.0003932032850570977
2304.0,0.00019544476526789367
2560.0,-9.313501504948363e-05
2816.0,0.0002039327082457021
3072.0,-0.0004012010176666081
3328.0,-6.213427695911378e-05
3584.0,7.082299271132797e-05
3840.0,4.178790914011188e-05
4096.0,-0.0001347569195786491
4608.0,3.7377023545559496e-05
5120.0,0.00018343815463595092
5632.0,-0.0001927818957483396
6144.0,5.3363975894171745e-05
6656.0,0.00010374438716098666
7168.0,3.498518708511256e-05
7680.0,0.00010397749429102987
8192.0,-0.00016400414460804313
9216.0,-4.125185660086572e-05
10240.0,-0.00014596746768802404
11264.0,0.00013016219600103796
12288.0,0.00011091782653238624
13312.0,-7.517467747675255e-05
14336.0,-0.00012782757403329015
end
