version,3.0
numOfCh,1
type,point
parent_name,400-cuts
ch_type,1_1
kcount,1
numberNandB,1
brightnessNandB,1
carpet pos,0
pc,0
Time (ms),CH1 Auto-Correlation
1.0,0.02621329575777054
2.0,0.02126583829522133
3.0,0.017936866730451584
4.0,0.015368045307695866
5.0,0.013193519786000252
6.0,0.01158756110817194
7.0,0.010038841515779495
8.0,0.008885009214282036
9.0,0.008072028867900372
10.0,0.007307223044335842
11.0,0.0064981551840901375
12.0,0.0058265021070837975
13.0,0.0053740995936095715
14.0,0.005066258832812309
15.0,0.004488856066018343
16.0,0.004087875597178936
18.0,0.003585433354601264
20.0,0.0030166928190737963
22.0,0.0027414339128881693
24.0,0.0022886069491505623
26.0,0.0018402632558718324
28.0,0.0017855055630207062
30.0,0.0017439569346606731
32.0,0.0015232762088999152
36.0,0.0013185041025280952
40.0,0.001051904633641243
44.0,0.0005695490399375558
48.0,0.0002364642859902233
52.0,-7.657622336409986e-05
56.0,-0.0001576647482579574
60.0,-0.0002238614542875439
64.0,3.6316610930953175e-05
72.0,0.0004637574020307511
80.0,0.00020011121523566544
88.0,-0.0004486686084419489
96.0,-0.0007475615129806101
104.0,-9.808990580495447e-05
112.0,0.00039815923082642257
120.0,0.0003183475637342781
128.0,-4.6693283366039395e-05
144.0,0.0008314048172906041
160.0,0.0020968804601579905
176.0,0.0017745801014825702
192.0,0.00039766039117239416
208.0,1.954987965291366e-05
224.0,3.9689901313977316e-05
240.0,5.12633096150239e-06
256.0,1.6465415683342144e-05
288.0,0.0001418970205122605
320.0,0.00037699867971241474
352.0,0.0007108545396476984
384.0,0.0003839598794002086
416.0,-7.028593245195225e-05
448.0,-0.0007027977844700217
480.0,-0.00032917779753915966
512.0,0.0003296211361885071
576.0,-0.0008603539899922907
640.0,-0.0007263331790454686
704.0,0.00048516588867641985
768.0,-0.0006080663879401982
832.0,-3.3340231311740354e-05
896.0,0.00037476359284482896
960.0,-0.0008938958635553718
1024.0,-4.433074718690477e-05
1152.0,0.0005678735906258225
1280.0,0.00011717846064129844
1408.0,0.0003080712049268186
1536.0,-0.00015243145753629506
1664.0,-0.0003406070463825017
1792.0,-0.00024559960002079606
1920.0,-0.0006827621255069971
2048.0,-0.0005516266101039946
2304.0,-3.552167981979437e-05
2560.0,0.00018530602392274886
2816.0,8.798562703304924e-06
3072.0,-0.0008070882176980376
3328.0,-0.0004497258341871202
3584.0,0.00015638205513823777
3840.0,0.0005336577305570245
4096.0,0.00044006097596138716
4608.0,-0.00019243304268456995
5120.0,0.0004097531200386584
5632.0,-0.00034529773984104395
6144.0,-0.000492304447107017
6656.0,0.0001444889057893306
7168.0,-0.00029878964414820075
7680.0,0.0004202697309665382
8192.0,0.00014199265569914132
9216.0,0.00036527603515423834
10240.0,-0.0004549605946522206
11264.0,-0.00035557959927245975
12288.0,0.00022945138334762305
13312.0,0.00039114823448471725
14336.0,0.00011805661051766947
end
