version,3.0
numOfCh,1
type,point
parent_name,400-cuts
ch_type,1_1
kcount,1
numberNandB,1
brightnessNandB,1
carpet pos,0
pc,0
Time (ms),CH1 Auto-Correlation
1.0,0.01612515188753605
2.0,0.013058602809906006
3.0,0.010715954937040806
4.0,0.009071105159819126
5.0,0.007893718779087067
6.0,0.0069164736196398735
7.0,0.006181897129863501
8.0,0.005591224413365126
9.0,0.005040779244154692
10.0,0.004641278646886349
11.0,0.004334747325628996
12.0,0.004007162060588598
13.0,0.003639230504631996
14.0,0.0032072931062430143
15.0,0.0028941005002707243
16.0,0.0027283257804811
18.0,0.002522262977436185
20.0,0.0021762195974588394
22.0,0.0018957173451781273
24.0,0.0016470587579533458
26.0,0.0015718821668997407
28.0,0.001646648277528584
30.0,0.0015866555040702224
32.0,0.0014844126999378204
36.0,0.0010638820240274072
40.0,0.0008664403576403856
44.0,0.0005447553121484816
48.0,0.0003802200953941792
52.0,6.306419527390972e-05
56.0,-8.68516435730271e-05
60.0,0.00015713012544438243
64.0,0.00015236466424539685
72.0,9.437625703867525e-05
80.0,0.0002391251764493063
88.0,0.0002982537553180009
96.0,0.0001284704339923337
104.0,0.00030444024014286697
112.0,0.0006959423772059381
120.0,0.0005589104839600623
128.0,0.00022175638878252357
144.0,-0.0002856019709724933
160.0,-7.544810068793595e-05
176.0,-0.00013920081255491823
192.0,-0.0003569939872249961
208.0,-0.00012674085155595094
224.0,6.679271791654173e-06
240.0,-6.246162229217589e-05
256.0,-0.0005331722204573452
288.0,-8.022000838536769e-05
320.0,-8.966014866018668e-05
352.0,0.00029394926968961954
384.0,0.0004102554521523416
416.0,0.00047253165394067764
448.0,0.00020993615908082575
480.0,-4.740787062473828e-06
512.0,0.00021451935754157603
576.0,-0.00023715707357041538
640.0,-0.00013643686543218791
704.0,-8.941303531173617e-05
768.0,0.0001344531774520874
832.0,0.00019313664233777672
896.0,4.448916297405958e-05
960.0,0.00021658511832356453
1024.0,0.00017447701247874647
1152.0,-1.939667527040001e-05
1280.0,6.858864253445063e-06
1408.0,3.830956484307535e-05
1536.0,-9.922462049871683e-05
1664.0,0.00018169390386901796
1792.0,4.066555993631482e-05
1920.0,0.0003030468651559204
2048.0,-0.0003490362432785332
2304.0,-8.669884118717164e-05
2560.0,0.00019946166139561683
2816.0,-6.42363665974699e-05
3072.0,-0.00020218933059368283
3328.0,0.00010936381295323372
3584.0,0.0001496084441896528
3840.0,-0.00023446900013368577
4096.0,0.00017907412257045507
4608.0,-5.910202889936045e-05
5120.0,5.53650243091397e-05
5632.0,-0.00014021173410583287
6144.0,-5.9247639001114294e-05
6656.0,0.00015413595247082412
7168.0,-0.00029623767477460206
7680.0,-0.0001068433266482316
8192.0,7.891077984822914e-05
9216.0,-4.32105443906039e-05
10240.0,-0.0001881683274405077
11264.0,-0.0002154853573301807
12288.0,8.173260539479088e-06
13312.0,0.0002574286190792918
14336.0,0.000576914579141885
end
