version,3.0
numOfCh,1
type,point
parent_name,400-cuts
ch_type,1_1
kcount,1
numberNandB,1
brightnessNandB,1
carpet pos,0
pc,0
Time (ms),CH1 Auto-Correlation
1.0,0.01590919867157936
2.0,0.012809311039745808
3.0,0.010744989849627018
4.0,0.009240007027983665
5.0,0.008005436509847641
6.0,0.007022862322628498
7.0,0.006275643594563007
8.0,0.005655171349644661
9.0,0.0051004886627197266
10.0,0.004646781366318464
11.0,0.004341280087828636
12.0,0.004096809308975935
13.0,0.0037979907356202602
14.0,0.003552151843905449
15.0,0.0033863342832773924
16.0,0.0031744197476655245
18.0,0.0026633061934262514
20.0,0.0022901089396327734
22.0,0.002058383310213685
24.0,0.0017824906390160322
26.0,0.0016217810334637761
28.0,0.001612358377315104
30.0,0.0016477195313200355
32.0,0.0014533143257722259
36.0,0.001194552518427372
40.0,0.0009318856755271554
44.0,0.0007130644517019391
48.0,0.00042676343582570553
52.0,0.00020057219080626965
56.0,0.00020957630476914346
60.0,-8.398349018534645e-05
64.0,-0.00011553048534551635
72.0,-0.00010987174755427986
80.0,1.9701741621247493e-05
88.0,-4.7341964091174304e-05
96.0,-3.379861368557613e-07
104.0,0.0002728167164605111
112.0,6.34079406154342e-05
120.0,0.0003034686960745603
128.0,-0.00013918790500611067
144.0,-0.00011783576337620616
160.0,-3.643792661023326e-05
176.0,0.0005542417638935149
192.0,2.3756339942337945e-05
208.0,-0.0003406079486012459
224.0,-0.0003222363884560764
240.0,-0.00042784513789229095
256.0,-0.0005285213701426983
288.0,-0.0003175176680088043
320.0,-4.934751632390544e-05
352.0,-0.00017720312462188303
384.0,-0.00035560308606363833
416.0,7.647224265383556e-05
448.0,0.00031360870343632996
480.0,0.00040368951158598065
512.0,8.376663026865572e-05
576.0,0.00021719580399803817
640.0,-1.3994730579725001e-05
704.0,0.0001476262550568208
768.0,-0.00014056928921490908
832.0,-0.00011036610521841794
896.0,-0.00042246069642715156
960.0,-0.00046884629409760237
1024.0,0.00018979707965627313
1152.0,-9.644449164625257e-06
1280.0,-0.0002737918694037944
1408.0,-6.133543502073735e-05
1536.0,0.00020989205222576857
1664.0,3.465808185865171e-05
1792.0,5.289727414492518e-05
1920.0,-0.00017071256297640502
2048.0,-1.4135372111923061e-05
2304.0,-3.2063111575553194e-05
2560.0,2.4918099938986416e-07
2816.0,0.00019028162932954729
3072.0,4.993787297280505e-05
3328.0,-0.0001004078148980625
3584.0,4.705234459834173e-05
3840.0,-0.00012421126302797347
4096.0,0.00010107237903866917
4608.0,2.7714811494661262e-06
5120.0,-0.0001843164791353047
5632.0,-0.0001565031852805987
6144.0,0.00011427753634052351
6656.0,9.334056085208431e-05
7168.0,1.6423648048657924e-05
7680.0,-9.260152728529647e-05
8192.0,2.6591635560180293e-06
9216.0,0.00015274166071321815
10240.0,-0.00013091557775624096
11264.0,4.219029870000668e-05
12288.0,5.768536721006967e-05
13312.0,-0.00019513245206326246
14336.0,-0.000736394664272666
end
