version,3.0
numOfCh,1
type,point
parent_name,400-cuts
ch_type,1_1
kcount,1
numberNandB,1
brightnessNandB,1
carpet pos,0
pc,0
Time (ms),CH1 Auto-Correlation
1.0,0.016048381105065346
2.0,0.012833652086555958
3.0,0.010588162578642368
4.0,0.008956904523074627
5.0,0.007715427782386541
6.0,0.006658861413598061
7.0,0.005824079737067223
8.0,0.00526291923597455
9.0,0.004709932953119278
10.0,0.0043829516507685184
11.0,0.0040660155937075615
12.0,0.0038066699635237455
13.0,0.0035727948416024446
14.0,0.003312024986371398
15.0,0.0031201569363474846
16.0,0.002919646678492427
18.0,0.0025259805843234062
20.0,0.002111211186274886
22.0,0.0018264526734128594
24.0,0.001495550386607647
26.0,0.0013363603502511978
28.0,0.0011720723705366254
30.0,0.000980433076620102
32.0,0.0008843711693771183
36.0,0.0004841534828301519
40.0,0.0002873251214623451
44.0,0.0006041575106792152
48.0,0.0006030462682247162
52.0,0.0005391827435232699
56.0,0.0004851984849665314
60.0,0.0004161768301855773
64.0,0.0005179217550903559
72.0,0.00034516569576226175
80.0,0.00028335556271485984
88.0,0.00011454833293100819
96.0,-0.000246469076955691
104.0,-0.0006379252881743014
112.0,-0.0005235052085481584
120.0,-0.00018206360982730985
128.0,0.0001254303497262299
144.0,0.0003053113759960979
160.0,-6.175782618811354e-05
176.0,0.00019939902995247394
192.0,0.00032497584470547736
208.0,0.0003456479462329298
224.0,0.0003240175428800285
240.0,-0.00011076843657065183
256.0,4.588441879604943e-05
288.0,-0.0001940062502399087
320.0,-0.000350189016899094
352.0,-0.0002126914623659104
384.0,0.0004073921008966863
416.0,7.253314834088087e-05
448.0,-0.00019928401161450893
480.0,-0.00023295216669794172
512.0,-0.00031493717688135803
576.0,-0.00035906763514503837
640.0,-0.00011545765300979838
704.0,-7.503826054744422e-05
768.0,9.236666664946824e-05
832.0,0.00023794481239747256
896.0,-2.8570730137289502e-05
960.0,2.1859152639081003e-06
1024.0,0.00022834294941276312
1152.0,-0.00012472383968997747
1280.0,-0.00016208647866733372
1408.0,-0.00018933016690425575
1536.0,-0.0003011960943695158
1664.0,0.0001422750938218087
1792.0,0.00018480580183677375
1920.0,8.390608127228916e-05
2048.0,-6.409286288544536e-05
2304.0,-2.1076008124509826e-05
2560.0,3.817490869550966e-05
2816.0,-0.00027416739612817764
3072.0,-0.000148370090755634
3328.0,9.671752923168242e-05
3584.0,0.00034708582097664475
3840.0,-3.0129396691336296e-05
4096.0,8.619841537438333e-05
4608.0,-6.343554559862241e-05
5120.0,-1.6808568261694745e-06
5632.0,4.15490212617442e-05
6144.0,-0.00010278343688696623
6656.0,-0.00012379126565065235
7168.0,-2.7341155146132223e-05
7680.0,0.0001384093047818169
8192.0,2.5949171686079353e-05
9216.0,3.513007322908379e-05
10240.0,-0.00014236658171284944
11264.0,0.00018141602049581707
12288.0,2.1216588720562868e-05
13312.0,0.00012943420733790845
14336.0,-0.00039043804281391203
end
