version,3.0
numOfCh,1
type,point
parent_name,400-cuts
ch_type,1_1
kcount,1
numberNandB,1
brightnessNandB,1
carpet pos,0
pc,0
Time (ms),CH1 Auto-Correlation
1.0,0.0161987766623497
2.0,0.013147418387234211
3.0,0.010910100303590298
4.0,0.00920564029365778
5.0,0.007908196188509464
6.0,0.006826944649219513
7.0,0.006117709446698427
8.0,0.005553471390157938
9.0,0.005035105627030134
10.0,0.004551422316581011
11.0,0.004027551505714655
12.0,0.0035506312269717455
13.0,0.0032033640891313553
14.0,0.00285780499689281
15.0,0.002653101459145546
16.0,0.00246125808916986
18.0,0.002066291170194745
20.0,0.0017228591023012996
22.0,0.0015169389080256224
24.0,0.0012306628050282598
26.0,0.0010210949694737792
28.0,0.0007914672023616731
30.0,0.0005252668051980436
32.0,0.0005842876271344721
36.0,0.0007798249134793878
40.0,0.00046999886399134994
44.0,0.00012428670015651733
48.0,-2.1379393729148433e-05
52.0,-0.00016632404003757983
56.0,-5.1261260523460805e-05
60.0,0.00025494632427580655
64.0,5.1233579142717645e-05
72.0,-8.884590351954103e-05
80.0,-0.0002668052911758423
88.0,-0.00019223950221203268
96.0,-0.0002865823043975979
104.0,-0.00028151387232355773
112.0,-0.0004388882080093026
120.0,-0.0002796619664877653
128.0,-0.0006994588184170425
144.0,-0.0004698654229287058
160.0,-0.0004253299266565591
176.0,3.8494566979352385e-05
192.0,0.0001229804620379582
208.0,0.00021779543021693826
224.0,5.786808742413996e-06
240.0,-0.00017994166410062462
256.0,-0.00014295052096713334
288.0,-0.0004613715864252299
320.0,-0.00016993690223898739
352.0,0.00040134298615157604
384.0,9.861854050541297e-05
416.0,-0.0003729734162334353
448.0,-0.00015159317990764976
480.0,-0.00030096821137703955
512.0,-0.00030171917751431465
576.0,-0.0002889666648115963
640.0,1.1553285730769858e-05
704.0,0.00033076468389481306
768.0,0.0004386227228678763
832.0,0.00013987720012664795
896.0,-5.935025910730474e-05
960.0,0.00012083753972547129
1024.0,0.00014802379882894456
1152.0,-0.00035878506605513394
1280.0,-0.000307408714434132
1408.0,0.00018348447338212281
1536.0,-0.00026688145590014756
1664.0,-5.5557979067089036e-05
1792.0,-7.482898945454508e-05
1920.0,-0.00047205909504555166
2048.0,-0.00010593921615509316
2304.0,0.00020166214380878955
2560.0,2.424426202196628e-05
2816.0,7.336922863032669e-05
3072.0,0.0003013725217897445
3328.0,-6.338832463370636e-05
3584.0,-0.00017643325554672629
3840.0,0.00012199663615319878
4096.0,-2.820367444655858e-05
4608.0,-0.00012059426080668345
5120.0,0.00014185738109517843
5632.0,0.0001038744521792978
6144.0,-2.207462785008829e-05
6656.0,-0.0002079690748360008
7168.0,-4.871117926086299e-05
7680.0,3.54041185346432e-05
8192.0,0.00019658866222016513
9216.0,-5.075138687971048e-06
10240.0,-7.217731035780162e-05
11264.0,4.304395042709075e-05
12288.0,5.627796326734824e-06
13312.0,-1.2465378858905751e-05
14336.0,1.242279449797934e-05
end
