version,3.0
numOfCh,1
type,point
parent_name,400-cuts
ch_type,1_1
kcount,1
numberNandB,1
brightnessNandB,1
carpet pos,0
pc,0
Time (ms),CH1 Auto-Correlation
1.0,0.015205703675746918
2.0,0.012101875618100166
3.0,0.010048387572169304
4.0,0.00859165471047163
5.0,0.007479134947061539
6.0,0.006618938408792019
7.0,0.005866338033229113
8.0,0.005302668083459139
9.0,0.004681162536144257
10.0,0.004055833909660578
11.0,0.00349265499971807
12.0,0.0030062927398830652
13.0,0.002667941153049469
14.0,0.0024124791380017996
15.0,0.002217025961726904
16.0,0.0021042029839009047
18.0,0.0018170869443565607
20.0,0.001562206307426095
22.0,0.001302379765547812
24.0,0.0011108365142717957
26.0,0.0007997339707799256
28.0,0.0005786516121588647
30.0,0.00028907490195706487
32.0,0.00018635994638316333
36.0,-0.0001454922166885808
40.0,-0.0003070671809837222
44.0,-0.00015406549209728837
48.0,-6.510358161904151e-06
52.0,6.503961776616052e-05
56.0,-0.00014844071120023727
60.0,-0.00010577729699434713
64.0,-0.00012746719585265964
72.0,7.991924212547019e-05
80.0,-0.0001320765441050753
88.0,-0.0002626808709464967
96.0,-0.00014763942454010248
104.0,-0.00020441663218662143
112.0,-0.000304030574625358
120.0,0.00019736778631340712
128.0,0.00021032561198808253
144.0,-0.0002024225686909631
160.0,0.00023963813146110624
176.0,0.00025280218687839806
192.0,-9.200278873322532e-05
208.0,-0.00031240200041793287
224.0,-0.0001901121431728825
240.0,-0.0002677862357813865
256.0,0.0002869767777156085
288.0,0.0002599908912088722
320.0,0.00011480465764179826
352.0,0.00041355605935677886
384.0,-0.0003422890149522573
416.0,2.2362657546182163e-05
448.0,-0.0002781300281640142
480.0,-0.00015888757479842752
512.0,9.866379696177319e-05
576.0,-8.371735020773485e-05
640.0,0.0002275000442750752
704.0,-3.336649024276994e-05
768.0,-3.8948161090957e-05
832.0,2.9680171792278998e-05
896.0,0.0002819768851622939
960.0,0.0004205428122077137
1024.0,0.00011241613538004458
1152.0,0.00011003050167346373
1280.0,0.0001803786726668477
1408.0,-8.357924525626004e-05
1536.0,-6.23185551376082e-05
1664.0,-0.0002930339251179248
1792.0,-0.0001146188733400777
1920.0,-4.927835470880382e-05
2048.0,-7.857572927605361e-05
2304.0,-1.286256610910641e-05
2560.0,-2.6636605980456807e-05
2816.0,-0.00015376372903119773
3072.0,-0.00010210593609372154
3328.0,-9.271237649954855e-05
3584.0,0.00011370525317033753
3840.0,5.884260190214263e-06
4096.0,-3.904589902958833e-05
4608.0,-1.7828015188570134e-05
5120.0,-2.075131851597689e-05
5632.0,-3.5422977816779166e-05
6144.0,3.271433524787426e-05
6656.0,0.00011250248644500971
7168.0,-9.165916708298028e-05
7680.0,4.592158074956387e-05
8192.0,-0.00016282951401080936
9216.0,-1.856443668657448e-05
10240.0,2.8838334401370957e-05
11264.0,-0.00011448396980995312
12288.0,-0.00010716596443671733
13312.0,2.101523023156915e-06
14336.0,0.00016568035061936826
end
