version,3.0
numOfCh,1
type,point
parent_name,400-cuts
ch_type,1_1
kcount,1
numberNandB,1
brightnessNandB,1
carpet pos,0
pc,0
Time (ms),CH1 Auto-Correlation
1.0,0.02883892133831978
2.0,0.02352309413254261
3.0,0.019582075998187065
4.0,0.016556138172745705
5.0,0.014157824218273163
6.0,0.012341062538325787
7.0,0.010656255297362804
8.0,0.009342829696834087
9.0,0.008204154670238495
10.0,0.007383990567177534
11.0,0.006803021300584078
12.0,0.006069308612495661
13.0,0.005544994026422501
14.0,0.005140432622283697
15.0,0.004672403447329998
16.0,0.004097233060747385
18.0,0.0030006931629031897
20.0,0.00225347513332963
22.0,0.0017836126498878002
24.0,0.001614769222214818
26.0,0.0013207331066951156
28.0,0.0011101232375949621
30.0,0.0011232978431507945
32.0,0.0009115696302615106
36.0,0.0007425768999382854
40.0,0.0007789284572936594
44.0,0.0007161583635024726
48.0,0.0003009377687703818
52.0,0.0004083515959791839
56.0,0.00031417800346389413
60.0,0.00010346197086619213
64.0,-1.1488591553643346e-05
72.0,-7.449409895343706e-05
80.0,-0.0008059528772719204
88.0,-0.00043714261846616864
96.0,-0.00030154321575537324
104.0,-0.0005869813612662256
112.0,-0.00015256252663675696
120.0,-3.020677286258433e-05
128.0,-8.38460837258026e-05
144.0,0.0002168006612919271
160.0,8.65681140567176e-05
176.0,-0.0003362928400747478
192.0,-1.5236533727147616e-05
208.0,-0.00018596895097289234
224.0,9.312281326856464e-05
240.0,-0.0004673316434491426
256.0,-0.0009443954331800342
288.0,-0.0007484726957045496
320.0,-0.00036672994610853493
352.0,-3.1559309718431905e-05
384.0,0.0004318474093452096
416.0,0.0002978350385092199
448.0,0.0009966930374503136
480.0,0.0003637046611402184
512.0,-0.00038847190444357693
576.0,0.0002006416325457394
640.0,-2.1526506316149607e-05
704.0,-0.000553227320779115
768.0,-0.00020630794460885227
832.0,0.0007293498492799699
896.0,-0.0005907709710299969
960.0,-7.504750828957185e-05
1024.0,0.000373436720110476
1152.0,-0.00042663022759370506
1280.0,0.0002054704091278836
1408.0,-8.496080408804119e-05
1536.0,-0.00033577490830793977
1664.0,-0.000348484463756904
1792.0,0.00035585055593401194
1920.0,-2.8829925213358365e-05
2048.0,-3.199582715751603e-05
2304.0,0.0003107604570686817
2560.0,1.5537931176368147e-05
2816.0,0.00010518622730160132
3072.0,0.0001331306411884725
3328.0,-0.0001449826086172834
3584.0,-0.0001791674440028146
3840.0,-0.00015898884157650173
4096.0,-0.00010273229418089613
4608.0,-3.726188515429385e-05
5120.0,0.00011305831139907241
5632.0,7.584776176372543e-05
6144.0,-9.495505219092593e-05
6656.0,-0.0001464190863771364
7168.0,-0.00017783287330530584
7680.0,-0.0001315076369792223
8192.0,0.00012988441449124366
9216.0,-9.018743003252894e-05
10240.0,-3.477908467175439e-05
11264.0,5.806173066957854e-05
12288.0,-0.00016926175158005208
13312.0,6.204802775755525e-05
14336.0,0.00018975985585711896
end
