version,3.0
numOfCh,1
type,point
parent_name,400-cuts
ch_type,1_1
kcount,1
numberNandB,1
brightnessNandB,1
carpet pos,0
pc,0
Time (ms),CH1 Auto-Correlation
1.0,0.025412684306502342
2.0,0.020069025456905365
3.0,0.016444964334368706
4.0,0.01378682255744934
5.0,0.012028499506413937
6.0,0.01053950097411871
7.0,0.009235273115336895
8.0,0.008110667578876019
9.0,0.007218470796942711
10.0,0.006456533446907997
11.0,0.005874635186046362
12.0,0.005394886247813702
13.0,0.005157110281288624
14.0,0.005065612494945526
15.0,0.004694986157119274
16.0,0.00433045020326972
18.0,0.0034960038028657436
20.0,0.002768024569377303
22.0,0.0020959083922207355
24.0,0.0018297246424481273
26.0,0.0018672783626243472
28.0,0.0017868377035483718
30.0,0.0016178403748199344
32.0,0.0012547591468319297
36.0,0.0011942724231630564
40.0,0.0009484518668614328
44.0,0.0007685082964599133
48.0,0.0006226350087672472
52.0,0.00047107107820920646
56.0,5.673170380759984e-05
60.0,-0.0003193991433363408
64.0,-0.0005183268222026527
72.0,-0.000771829392760992
80.0,-8.151614747475833e-05
88.0,-0.00010837339505087584
96.0,-0.0006271711899898946
104.0,-0.00022121466463431716
112.0,-0.00014901503163855523
120.0,-0.000612243777140975
128.0,-0.0007708960911259055
144.0,-0.00010690723865991458
160.0,0.00042368084541521966
176.0,-0.0001348042715108022
192.0,0.0004610084288287908
208.0,4.5883349230280146e-05
224.0,0.0005224765627644956
240.0,-0.00013557162310462445
256.0,-0.00046004803152754903
288.0,-0.0005750699783675373
320.0,-0.0007210436160676181
352.0,-3.8246904296102e-05
384.0,0.0004077210614923388
416.0,0.0003177730250172317
448.0,-0.0005925243603996933
480.0,-0.0012867347104474902
512.0,0.0001330025406787172
576.0,2.465631769155152e-05
640.0,0.00032188830664381385
704.0,-8.923692075768486e-05
768.0,-0.00016787947970442474
832.0,-0.0002883137494791299
896.0,0.0004377126751933247
960.0,-9.637520997785032e-05
1024.0,-0.0001440273190382868
1152.0,-0.00022761899163015187
1280.0,0.0003681774251163006
1408.0,0.00013796609709970653
1536.0,-0.00017213818500749767
1664.0,-3.5163044231012464e-05
1792.0,-0.0009796280646696687
1920.0,0.0002828653377946466
2048.0,0.0004902294022031128
2304.0,0.0001064118550857529
2560.0,-0.0004663455474656075
2816.0,0.00024066033074632287
3072.0,-7.937639020383358e-05
3328.0,-7.576380448881537e-05
3584.0,0.00039360372466035187
3840.0,-0.00042960885912179947
4096.0,0.00015728350263088942
4608.0,-0.00016637187218293548
5120.0,9.69221000559628e-05
5632.0,-0.00010732870578067377
6144.0,-4.0440831071464345e-05
6656.0,-2.1529558580368757e-05
7168.0,-6.623211083933711e-05
7680.0,-0.0001391811529174447
8192.0,5.28798454979551e-06
9216.0,-0.0001095100087695755
10240.0,-4.79054288007319e-05
11264.0,-0.00010241482232231647
12288.0,0.000546636525541544
13312.0,-0.0005173915415070951
14336.0,0.0001020040363073349
end
