version,3.0
numOfCh,1
type,point
parent_name,400-cuts
ch_type,1_1
kcount,1
numberNandB,1
brightnessNandB,1
carpet pos,0
pc,0
Time (ms),CH1 Auto-Correlation
1.0,0.026875343173742294
2.0,0.02163226157426834
3.0,0.01779765449464321
4.0,0.015151606872677803
5.0,0.013077706098556519
6.0,0.011392082087695599
7.0,0.010135982185602188
8.0,0.008924552239477634
9.0,0.007967125624418259
10.0,0.007051357068121433
11.0,0.0063955215737223625
12.0,0.005986579228192568
13.0,0.005406650248914957
14.0,0.004933662712574005
15.0,0.004598200786858797
16.0,0.004328896291553974
18.0,0.004009700380265713
20.0,0.0033101127482950687
22.0,0.0025038698222488165
24.0,0.0019305545138195157
26.0,0.0012750517344102263
28.0,0.000703347148373723
30.0,0.00017871374438982457
32.0,2.6425403120811097e-05
36.0,-0.0004382662591524422
40.0,-0.0007335675763897598
44.0,-0.0007587329018861055
48.0,-0.0006677813362330198
52.0,5.64828296774067e-05
56.0,0.0006554643041454256
60.0,0.0009588567190803587
64.0,0.0010301880538463593
72.0,0.001268077059648931
80.0,0.0013732778606936336
88.0,0.000789306010119617
96.0,0.0003157147148158401
104.0,0.0005648509250022471
112.0,0.0005078142276033759
120.0,0.0004907434340566397
128.0,0.00038756694993935525
144.0,-0.0009064778569154441
160.0,-0.0008638724684715271
176.0,-0.0001610092876944691
192.0,0.0011264542117714882
208.0,0.0005745867383666337
224.0,-0.0007299071294255555
240.0,-0.0011790529824793339
256.0,-0.00021018520055804402
288.0,-0.0009680575458332896
320.0,0.00024262111401185393
352.0,-0.0007408845704048872
384.0,-0.0003649909340310842
416.0,-6.129091343609616e-05
448.0,0.0003593509900383651
480.0,0.0004254269297234714
512.0,0.0012919909786432981
576.0,0.0005930196493864059
640.0,-0.0005129212513566017
704.0,0.0001952182938111946
768.0,-0.0005182272288948298
832.0,-0.0005979911074973643
896.0,-0.0002291451091878116
960.0,-0.00011737975000869483
1024.0,0.00029426533728837967
1152.0,0.000298437662422657
1280.0,-0.00025730583001859486
1408.0,-0.0001820933393901214
1536.0,0.00031279216636903584
1664.0,0.0009280715021304786
1792.0,0.00015771217294968665
1920.0,-9.472129022469744e-05
2048.0,-0.0003509020316414535
2304.0,7.995220948942006e-05
2560.0,-0.00017008520080707967
2816.0,-0.00019190507009625435
3072.0,0.0002664922794792801
3328.0,-0.00017676902643870562
3584.0,6.495302659459412e-05
3840.0,-0.00024812945048324764
4096.0,0.0001637700042920187
4608.0,-2.6908468498731963e-05
5120.0,2.6747831725515425e-05
5632.0,-0.00027446317835710943
6144.0,-0.00013211350596975535
6656.0,0.000279717001831159
7168.0,-0.00016874566790647805
7680.0,-0.0002790992148220539
8192.0,0.00017178035341203213
9216.0,-4.1641083953436464e-05
10240.0,-0.00011482441914267838
11264.0,0.00021368524176068604
12288.0,0.00016533787129446864
13312.0,-0.0005080131231807172
14336.0,-0.00023506586148869246
end
