version,3.0
numOfCh,1
type,point
parent_name,400-cuts
ch_type,1_1
kcount,1
numberNandB,1
brightnessNandB,1
carpet pos,0
pc,0
Time (ms),CH1 Auto-Correlation
1.0,0.01571289636194706
2.0,0.01245249342173338
3.0,0.01031305268406868
4.0,0.00866212323307991
5.0,0.007537501398473978
6.0,0.006630427204072475
7.0,0.005818936973810196
8.0,0.0051703499630093575
9.0,0.0045294682495296
10.0,0.003980522509664297
11.0,0.0034167589619755745
12.0,0.003038214286789298
13.0,0.0025981091894209385
14.0,0.0022737327963113785
15.0,0.0020246354397386312
16.0,0.0017970929620787501
18.0,0.0015471292426809669
20.0,0.0013572308234870434
22.0,0.0011032138718292117
24.0,0.0010682413121685386
26.0,0.0012266546254977584
28.0,0.0011548622278496623
30.0,0.0010454761795699596
32.0,0.000995990470983088
36.0,0.0008735376177355647
40.0,0.0004964638501405716
44.0,0.00033047713804990053
48.0,0.00013155670603737235
52.0,0.00016897314344532788
56.0,0.0001438565377611667
60.0,0.0003105216601397842
64.0,0.0005852764006704092
72.0,0.00045656802831217647
80.0,0.00042550661601126194
88.0,0.0002640914171934128
96.0,0.0004112570604775101
104.0,0.000635880627669394
112.0,0.0005715535953640938
120.0,8.310258635901846e-06
128.0,0.0001967408461496234
144.0,0.0005244792555458844
160.0,6.358219980029389e-05
176.0,-0.00010154879419133067
192.0,9.084337943932042e-05
208.0,-0.00034006396890617907
224.0,-0.00028919620672240853
240.0,-0.0005044264835305512
256.0,-0.00011972333595622331
288.0,0.00011210026423214003
320.0,7.012025889707729e-05
352.0,-9.988679812522605e-05
384.0,6.7301107264938764e-06
416.0,0.00010376109275966883
448.0,0.00019177462672814727
480.0,-0.00010926596587523818
512.0,-0.0001246496249223128
576.0,-7.769360672682524e-05
640.0,0.00027617570594884455
704.0,0.00013743499584961683
768.0,-0.0002005286078201607
832.0,1.818864438973833e-05
896.0,-0.00011233305122004822
960.0,0.00022379952133633196
1024.0,9.153153769148048e-06
1152.0,4.72743486170657e-05
1280.0,6.768841558368877e-05
1408.0,0.00020153215155005455
1536.0,5.7069621107075363e-05
1664.0,6.327131995931268e-05
1792.0,1.0749127454801055e-07
1920.0,-0.00019642316328827292
2048.0,-0.00032173472573049366
2304.0,4.516750414040871e-05
2560.0,-0.00010699708946049213
2816.0,-0.00019500154303386807
3072.0,-4.2222527554258704e-05
3328.0,-7.638233512352599e-08
3584.0,-4.10069951612968e-05
3840.0,-0.0005129804485477507
4096.0,0.00011091178021160886
4608.0,0.00013798956933896989
5120.0,7.421800091833575e-06
5632.0,8.008348959265277e-05
6144.0,0.00022813973191659898
6656.0,-3.1443851185031235e-06
7168.0,0.00010614066559355706
7680.0,4.159179297857918e-05
8192.0,-7.555993943242356e-05
9216.0,-8.849114965414628e-05
10240.0,-0.00015845509187784046
11264.0,-8.645364141557366e-05
12288.0,0.00014474394265562296
13312.0,8.40740085550351e-06
14336.0,-0.0001182584383059293
end
