version,3.0
numOfCh,1
type,point
parent_name,400-cuts
ch_type,1_1
kcount,1
numberNandB,1
brightnessNandB,1
carpet pos,0
pc,0
Time (ms),CH1 Auto-Correlation
1.0,0.015887439250946045
2.0,0.01272406056523323
3.0,0.010373559780418873
4.0,0.0086722606793046
5.0,0.007468635682016611
6.0,0.006506283767521381
7.0,0.005752928089350462
8.0,0.00514781242236495
9.0,0.004696499556303024
10.0,0.004234065767377615
11.0,0.003833675989881158
12.0,0.0033390445169061422
13.0,0.0030030154157429934
14.0,0.0027318682987242937
15.0,0.002432071603834629
16.0,0.002132047200575471
18.0,0.0018443043809384108
20.0,0.0015713997418060899
22.0,0.0011958334362134337
24.0,0.001004660502076149
26.0,0.0009348820894956589
28.0,0.0007880173507146537
30.0,0.0008411576272919774
32.0,0.0007934655877761543
36.0,0.0006318397354334593
40.0,0.0007438979228027165
44.0,0.0007418352761305869
48.0,0.0004368866211734712
52.0,0.000265864742686972
56.0,7.374359847744927e-05
60.0,-0.00010023955110227689
64.0,-0.00020612581283785403
72.0,0.0001378242886858061
80.0,3.795364318648353e-05
88.0,0.000295811565592885
96.0,0.00017460402159485966
104.0,0.00021880546410102397
112.0,1.3642629710375331e-06
120.0,0.00023805091041140258
128.0,0.00041254423558712006
144.0,5.8527857618173584e-05
160.0,-1.2490354492911138e-05
176.0,-5.970764686935581e-05
192.0,6.74417897243984e-05
208.0,0.00013508125266525894
224.0,0.0002562313457019627
240.0,0.00024390338512603194
256.0,-0.000269387528533116
288.0,-0.00013678494724445045
320.0,-0.0002315969904884696
352.0,0.00010582390677882358
384.0,4.7307577915489674e-05
416.0,-5.148739001015201e-05
448.0,-9.701650560600683e-05
480.0,-0.0006077154539525509
512.0,-0.00010776718409033492
576.0,8.547707693651319e-05
640.0,0.00032987233134917915
704.0,-0.0001396837324136868
768.0,0.00018999622261617333
832.0,8.822936797514558e-05
896.0,-6.625887908739969e-05
960.0,-9.520079402136616e-06
1024.0,-0.0004459179181139916
1152.0,0.0004346166388131678
1280.0,0.00033870729384943843
1408.0,5.396280903369188e-05
1536.0,-0.00017416971968486905
1664.0,-0.00033912094659172
1792.0,-0.0001958078792085871
1920.0,8.543480362277478e-05
2048.0,2.788132633213536e-06
2304.0,-0.00020562447025440633
2560.0,1.922782939800527e-05
2816.0,-0.00021320712403394282
3072.0,1.2199643606436439e-05
3328.0,-0.00020150840282440186
3584.0,-0.00017964035214390606
3840.0,0.00010160750389331952
4096.0,4.024478403152898e-05
4608.0,-0.00010632909106789157
5120.0,0.00011010279558831826
5632.0,5.7430155720794573e-05
6144.0,-0.00015154604625422508
6656.0,0.00014457058568950742
7168.0,-0.00025226210709661245
7680.0,-5.755632446380332e-05
8192.0,-1.9109125787508674e-05
9216.0,0.00015091896057128906
10240.0,0.00023934933415148407
11264.0,8.159802382579073e-05
12288.0,-0.00020352259161882102
13312.0,-0.0002454725618008524
14336.0,-0.00019312890071887523
end
