version,3.0
numOfCh,1
type,point
parent_name,10-cuts
ch_type,1_1
kcount,1
numberNandB,1
brightnessNandB,1
carpet pos,0
pc,0
Time (ms),CH1 Auto-Correlation
1.0,0.02301964908838272
2.0,0.022604528814554214
3.0,0.022191451862454414
4.0,0.02179425209760666
5.0,0.02139979787170887
6.0,0.021016530692577362
7.0,0.020649515092372894
8.0,0.020295774564146996
9.0,0.019951481372117996
10.0,0.01961081102490425
11.0,0.01927175186574459
12.0,0.018928473815321922
13.0,0.01859854906797409
14.0,0.018282447010278702
15.0,0.017967455089092255
16.0,0.01766309142112732
18.0,0.01705366000533104
20.0,0.016494782641530037
22.0,0.01598489098250866
24.0,0.015483260154724121
26.0,0.01501229777932167
28.0,0.014549365267157555
30.0,0.014108575880527496
32.0,0.013683706521987915
36.0,0.01286756619811058
40.0,0.012129687704145908
44.0,0.011496893130242825
48.0,0.010906726121902466
52.0,0.010295220650732517
56.0,0.009756918996572495
60.0,0.009274928830564022
64.0,0.008796404115855694
72.0,0.00798838958144188
80.0,0.007223055697977543
88.0,0.006616651080548763
96.0,0.006018103566020727
104.0,0.005483006592839956
112.0,0.004843517672270536
120.0,0.004150840453803539
128.0,0.003523661522194743
144.0,0.0028158959466964006
160.0,0.002183492761105299
176.0,0.0019660890102386475
192.0,0.0020257767755538225
208.0,0.0020543362479656935
224.0,0.001566468388773501
240.0,0.0009334218921139836
256.0,0.000844988040626049
288.0,0.0010308598866686225
320.0,0.0008509201579727232
352.0,0.00016701135609764606
384.0,-0.00039856642251834273
416.0,-0.0010190096218138933
448.0,-0.0021484235767275095
480.0,-0.00364306615665555
512.0,-0.004308556672185659
576.0,-0.0035165566951036453
640.0,-0.0024031270295381546
704.0,-0.0019429678795859218
768.0,-0.0014246058417484164
832.0,-0.000980560202151537
896.0,-0.0007671784260310233
960.0,-0.0008413646137341857
1024.0,0.00010626071161823347
1152.0,9.43564809858799e-05
1280.0,-0.002060426864773035
1408.0,-0.0016733326483517885
1536.0,-0.001398922293446958
1664.0,-5.036631046095863e-05
1792.0,-0.00018611567793413997
1920.0,0.0005090420600026846
2048.0,0.0015024353051558137
2304.0,5.52053315914236e-05
2560.0,0.0006468616775237024
2816.0,-0.0009336750372312963
3072.0,-0.0030357285868376493
3328.0,0.0007384512573480606
3584.0,0.002940810052677989
3840.0,-2.9789232939947397e-05
4096.0,-0.0006282115937210619
4608.0,-0.00029721451574005187
5120.0,-0.0006762013654224575
5632.0,-0.0006076905992813408
6144.0,0.0011864607222378254
6656.0,-0.0003034659894183278
7168.0,1.2102485925424844e-05
7680.0,-0.0005906463484279811
8192.0,0.00013137914356775582
9216.0,-0.0007519696955569088
10240.0,0.0017898958176374435
11264.0,-0.002161741489544511
12288.0,0.0005862225079908967
13312.0,0.0007233713986352086
14336.0,-0.0005157175473868847
end
