version,3.0
numOfCh,1
type,point
parent_name,10-cuts
ch_type,1_1
kcount,1
numberNandB,1
brightnessNandB,1
carpet pos,0
pc,0
Time (ms),CH1 Auto-Correlation
1.0,0.07648882269859314
2.0,0.07524914294481277
3.0,0.07403438538312912
4.0,0.07287951558828354
5.0,0.07178327441215515
6.0,0.07072234153747559
7.0,0.0696880891919136
8.0,0.0686577707529068
9.0,0.06767604500055313
10.0,0.06672339886426926
11.0,0.0658184215426445
12.0,0.06498076766729355
13.0,0.0641707330942154
14.0,0.06339468061923981
15.0,0.06262380629777908
16.0,0.061858467757701874
18.0,0.06037965416908264
20.0,0.05900987237691879
22.0,0.057695332914590836
24.0,0.05641818791627884
26.0,0.05516595393419266
28.0,0.053956661373376846
30.0,0.052844490855932236
32.0,0.05175687372684479
36.0,0.04982847720384598
40.0,0.04815380275249481
44.0,0.046517763286828995
48.0,0.04488866403698921
52.0,0.0433633029460907
56.0,0.0420168936252594
60.0,0.04077071696519852
64.0,0.03962022438645363
72.0,0.03767651692032814
80.0,0.03620414808392525
88.0,0.03506537899374962
96.0,0.034347523003816605
104.0,0.03339836373925209
112.0,0.032364360988140106
120.0,0.03145487233996391
128.0,0.030628222972154617
144.0,0.028147773817181587
160.0,0.025232424959540367
176.0,0.023458652198314667
192.0,0.02170443721115589
208.0,0.020052470266819
224.0,0.018536707386374474
240.0,0.018015187233686447
256.0,0.01794995740056038
288.0,0.01588582433760166
320.0,0.012694478034973145
352.0,0.011466513387858868
384.0,0.011084338650107384
416.0,0.008253812789916992
448.0,0.004632540978491306
480.0,0.0037402671296149492
512.0,0.0032602485734969378
576.0,0.005314607173204422
640.0,0.004880118649452925
704.0,0.0018420601263642311
768.0,-0.002993235597386956
832.0,-0.00582075584679842
896.0,-0.004949151072651148
960.0,-0.006390169728547335
1024.0,-0.009213012643158436
1152.0,-0.006666947156190872
1280.0,-0.006272956728935242
1408.0,-0.005811294540762901
1536.0,-0.0053005339577794075
1664.0,-0.0035031139850616455
1792.0,0.00020359244081191719
1920.0,0.003771828021854162
2048.0,0.003356958506628871
2304.0,0.0036119534634053707
2560.0,0.006966115906834602
2816.0,0.005050303880125284
3072.0,0.005717211868613958
3328.0,0.008169290609657764
3584.0,0.0019275083905085921
3840.0,-0.009765329770743847
4096.0,-0.008586145006120205
4608.0,0.0007390560349449515
5120.0,0.0033290961291640997
5632.0,0.006267827469855547
6144.0,-0.005265267100185156
6656.0,-0.0003692260943353176
7168.0,-0.0032312804833054543
7680.0,-0.0027990657836198807
8192.0,-0.0016640942776575685
9216.0,-0.004827229306101799
10240.0,-0.000129585518152453
11264.0,-0.002125908387824893
12288.0,-0.006885859649628401
13312.0,-0.02026752009987831
14336.0,-0.009991966187953949
end
