version,3.0
numOfCh,1
type,point
parent_name,10-cuts
ch_type,1_1
kcount,1
numberNandB,1
brightnessNandB,1
carpet pos,0
pc,0
Time (ms),CH1 Auto-Correlation
1.0,0.06265577673912048
2.0,0.061561744660139084
3.0,0.060507867485284805
4.0,0.059475671499967575
5.0,0.05847805738449097
6.0,0.05752061679959297
7.0,0.056585341691970825
8.0,0.055659979581832886
9.0,0.05477365478873253
10.0,0.05391574278473854
11.0,0.05307568982243538
12.0,0.052273690700531006
13.0,0.05150343105196953
14.0,0.05072856694459915
15.0,0.049983832985162735
16.0,0.04926993325352669
18.0,0.0478246845304966
20.0,0.04643211141228676
22.0,0.045166488736867905
24.0,0.04400276392698288
26.0,0.04293251037597656
28.0,0.04190964251756668
30.0,0.04093664139509201
32.0,0.03998614847660065
36.0,0.03819417953491211
40.0,0.036484841257333755
44.0,0.03478066623210907
48.0,0.03301745653152466
52.0,0.031193366274237633
56.0,0.029495298862457275
60.0,0.027921751141548157
64.0,0.026481343433260918
72.0,0.02415718510746956
80.0,0.02239244058728218
88.0,0.020820166915655136
96.0,0.019224412739276886
104.0,0.017676278948783875
112.0,0.016303028911352158
120.0,0.01491263322532177
128.0,0.01369913574308157
144.0,0.010898320004343987
160.0,0.008957921527326107
176.0,0.006714870221912861
192.0,0.0048660943284630775
208.0,0.004185748752206564
224.0,0.003707565600052476
240.0,0.0039374614134430885
256.0,0.003997151739895344
288.0,0.0028349391650408506
320.0,0.0018799073295667768
352.0,0.002061426406726241
384.0,0.002738255774602294
416.0,0.0037662466056644917
448.0,0.003954700659960508
480.0,0.004435128998011351
512.0,0.004722327459603548
576.0,0.004182084929198027
640.0,0.0007760703447274864
704.0,-0.0028486743103712797
768.0,3.963320409638982e-07
832.0,0.0017168896738439798
896.0,0.0013249858748167753
960.0,0.001194790587760508
1024.0,-0.0011811894364655018
1152.0,-0.00328810210339725
1280.0,-0.004890337586402893
1408.0,-0.0023461966775357723
1536.0,0.0018265519756823778
1664.0,8.718217577552423e-05
1792.0,-0.004842447582632303
1920.0,-0.0009910289663821459
2048.0,0.0036508894991129637
2304.0,-0.002367790089920163
2560.0,-0.004108351655304432
2816.0,-0.004784070421010256
3072.0,-0.0017872402677312493
3328.0,-0.005387188401073217
3584.0,-0.0035015775356441736
3840.0,-0.0019809184595942497
4096.0,-0.0021351410541683435
4608.0,-0.003510385751724243
5120.0,0.0059404633939266205
5632.0,0.007840245962142944
6144.0,0.004608901217579842
6656.0,0.004896180238574743
7168.0,0.001328000915236771
7680.0,-0.004259287845343351
8192.0,-0.0028995024040341377
9216.0,-0.0055600181221961975
10240.0,-0.0017496960936114192
11264.0,0.0007548854919150472
12288.0,0.005197220016270876
13312.0,-0.002526976866647601
14336.0,-0.005935710854828358
end
