version,3.0
numOfCh,1
type,point
parent_name,10-cuts
ch_type,1_1
kcount,1
numberNandB,1
brightnessNandB,1
carpet pos,0
pc,0
Time (ms),CH1 Auto-Correlation
1.0,0.023248836398124695
2.0,0.02286442741751671
3.0,0.02249310351908207
4.0,0.02213120460510254
5.0,0.02178465947508812
6.0,0.02144842967391014
7.0,0.02111176773905754
8.0,0.020776167511940002
9.0,0.020438365638256073
10.0,0.020106781274080276
11.0,0.019788701087236404
12.0,0.01947539858520031
13.0,0.01917402818799019
14.0,0.018890194594860077
15.0,0.018605727702379227
16.0,0.018331944942474365
18.0,0.017818115651607513
20.0,0.017338266596198082
22.0,0.016879433766007423
24.0,0.016461392864584923
26.0,0.016063718125224113
28.0,0.01567424088716507
30.0,0.015305687673389912
32.0,0.01496332511305809
36.0,0.014327459037303925
40.0,0.01372968778014183
44.0,0.013128254562616348
48.0,0.012547366321086884
52.0,0.011987636797130108
56.0,0.011423002928495407
60.0,0.010875686071813107
64.0,0.010450771078467369
72.0,0.009716571308672428
80.0,0.009102866984903812
88.0,0.008537657558918
96.0,0.008049944415688515
104.0,0.007692573592066765
112.0,0.007315312512218952
120.0,0.007000437006354332
128.0,0.006634439807385206
144.0,0.006162458099424839
160.0,0.005711582023650408
176.0,0.005198670085519552
192.0,0.0046815453097224236
208.0,0.004098663572221994
224.0,0.0036194014828652143
240.0,0.0030615292489528656
256.0,0.002348795998841524
288.0,0.001299301628023386
320.0,0.0005979559500701725
352.0,0.00030855467775836587
384.0,-0.0003415054816287011
416.0,-2.6088080630870536e-05
448.0,0.0003336562658660114
480.0,0.0008354554302059114
512.0,0.0021074400283396244
576.0,0.001512720133177936
640.0,0.0006604278460144997
704.0,-0.00010857903544092551
768.0,-0.0007733632228337228
832.0,-0.0002559371932875365
896.0,-2.2707950847689062e-05
960.0,0.00017997370741795748
1024.0,0.001449957606382668
1152.0,0.0007437719614244998
1280.0,-0.0016049457481130958
1408.0,-0.0016012560809031129
1536.0,-0.0007759028812870383
1664.0,0.001270927838049829
1792.0,0.0006106479559093714
1920.0,0.0013922962825745344
2048.0,0.0023368881084024906
2304.0,0.0007093272870406508
2560.0,-0.0026893147733062506
2816.0,-0.00484590046107769
3072.0,-0.0031014499254524708
3328.0,-0.002472109394147992
3584.0,-0.0020212007220834494
3840.0,-0.0010158508084714413
4096.0,0.00084990996401757
4608.0,-0.0017651076195761561
5120.0,-0.0011356817558407784
5632.0,0.001096568419598043
6144.0,0.0021048332564532757
6656.0,0.0017699074232950807
7168.0,-0.0002526069583836943
7680.0,0.002328457310795784
8192.0,0.0011895655188709497
9216.0,-0.0008315820596180856
10240.0,-0.0008618177962489426
11264.0,-0.0007564172265119851
12288.0,-0.0004778937727678567
13312.0,-0.00042359522194601595
14336.0,0.0006934291450306773
end
