version,3.0
numOfCh,1
type,point
parent_name,10-cuts
ch_type,1_1
kcount,1
numberNandB,1
brightnessNandB,1
carpet pos,0
pc,0
Time (ms),CH1 Auto-Correlation
1.0,0.03311312943696976
2.0,0.03254625201225281
3.0,0.031997375190258026
4.0,0.03145875409245491
5.0,0.030949989333748817
6.0,0.03046409785747528
7.0,0.02999662421643734
8.0,0.02954171784222126
9.0,0.029104579240083694
10.0,0.028688225895166397
11.0,0.028293469920754433
12.0,0.027908053249120712
13.0,0.02752889320254326
14.0,0.027149152010679245
15.0,0.026779504492878914
16.0,0.02642928808927536
18.0,0.025754069909453392
20.0,0.02515268884599209
22.0,0.024608194828033447
24.0,0.024081623181700706
26.0,0.02354768104851246
28.0,0.023006975650787354
30.0,0.022481923922896385
32.0,0.021983254700899124
36.0,0.021070774644613266
40.0,0.020249731838703156
44.0,0.01953851617872715
48.0,0.01877729967236519
52.0,0.018016591668128967
56.0,0.01731007546186447
60.0,0.016638899222016335
64.0,0.0160101056098938
72.0,0.014697604812681675
80.0,0.013429057784378529
88.0,0.012385444715619087
96.0,0.011405031196773052
104.0,0.010613896884024143
112.0,0.009931325912475586
120.0,0.009340927936136723
128.0,0.00878410879522562
144.0,0.007596646901220083
160.0,0.006988374516367912
176.0,0.0065742130391299725
192.0,0.006210201885551214
208.0,0.005881413817405701
224.0,0.0054390267468988895
240.0,0.0050970409065485
256.0,0.004881224595010281
288.0,0.004564438946545124
320.0,0.00370209407992661
352.0,0.0027034382801502943
384.0,0.0016959875356405973
416.0,0.0010346564231440425
448.0,0.0016439302125945687
480.0,0.0026233536191284657
512.0,0.003634314052760601
576.0,0.0050686378963291645
640.0,0.005202095489948988
704.0,0.004415539093315601
768.0,0.0036704756785184145
832.0,0.0025510117411613464
896.0,0.0011652216780930758
960.0,0.0013708816841244698
1024.0,0.0016133295139297843
1152.0,1.8037981135421433e-05
1280.0,0.00028342287987470627
1408.0,-0.001071552629582584
1536.0,0.00035973332705907524
1664.0,0.00030112502281554043
1792.0,-0.00028391164960339665
1920.0,-0.0009795703226700425
2048.0,-0.0011703745694831014
2304.0,-1.618651549506467e-05
2560.0,-0.0015237623592838645
2816.0,-0.0017905373824760318
3072.0,-0.0029509407468140125
3328.0,-2.5528679543640465e-05
3584.0,0.00020952621707692742
3840.0,-0.0001837662566686049
4096.0,-0.00023493326443713158
4608.0,-0.000833083176985383
5120.0,-0.0031881830655038357
5632.0,-0.0034286805894225836
6144.0,-0.0033284181263297796
6656.0,-0.0017116782255470753
7168.0,0.0012867628829553723
7680.0,0.0004652563948184252
8192.0,-0.0003037303686141968
9216.0,0.0006223059608601034
10240.0,0.00018735499179456383
11264.0,-0.0010896578896790743
12288.0,0.00029322461341507733
13312.0,-0.0002514287189114839
14336.0,0.00013874565775040537
end
