version,3.0
numOfCh,1
type,point
parent_name,10-cuts
ch_type,1_1
kcount,1
numberNandB,1
brightnessNandB,1
carpet pos,0
pc,0
Time (ms),CH1 Auto-Correlation
1.0,0.043562985956668854
2.0,0.04292339086532593
3.0,0.04230661690235138
4.0,0.04171067848801613
5.0,0.041131000965833664
6.0,0.04057996720075607
7.0,0.040040746331214905
8.0,0.039529964327812195
9.0,0.03905777633190155
10.0,0.03860624134540558
11.0,0.03816940635442734
12.0,0.03773261234164238
13.0,0.03728991001844406
14.0,0.036875028163194656
15.0,0.03647325187921524
16.0,0.0360720269382
18.0,0.03534094616770744
20.0,0.03464463725686073
22.0,0.033957723528146744
24.0,0.033287275582551956
26.0,0.03266080841422081
28.0,0.03204704076051712
30.0,0.03141527250409126
32.0,0.03079153783619404
36.0,0.02969575673341751
40.0,0.028781739994883537
44.0,0.027938248589634895
48.0,0.027262097224593163
52.0,0.026616714894771576
56.0,0.02601010911166668
60.0,0.025436382740736008
64.0,0.024838807061314583
72.0,0.023617001250386238
80.0,0.022555869072675705
88.0,0.021729910746216774
96.0,0.021171677857637405
104.0,0.020722582936286926
112.0,0.020220503211021423
120.0,0.019732723012566566
128.0,0.019443269819021225
144.0,0.018842896446585655
160.0,0.01801581121981144
176.0,0.016665136441588402
192.0,0.015422373078763485
208.0,0.01487959548830986
224.0,0.01420633215457201
240.0,0.013391301035881042
256.0,0.012516587972640991
288.0,0.011045102961361408
320.0,0.010535654611885548
352.0,0.00985533557832241
384.0,0.009308061562478542
416.0,0.008312175050377846
448.0,0.0076891714707016945
480.0,0.007796233054250479
512.0,0.007726003881543875
576.0,0.00896496046334505
640.0,0.008019940927624702
704.0,0.006344422698020935
768.0,0.005588741507381201
832.0,0.0048497263342142105
896.0,0.0038090550806373358
960.0,0.002805673750117421
1024.0,0.0010080414358526468
1152.0,-0.0004585017741192132
1280.0,-0.004191497806459665
1408.0,-0.003876820905134082
1536.0,-0.001780287828296423
1664.0,-0.0019109641434624791
1792.0,-0.0011780601926147938
1920.0,-0.00021826846932526678
2048.0,-0.0007524649845436215
2304.0,0.0011903111590072513
2560.0,0.00276796892285347
2816.0,0.0019219423411414027
3072.0,1.5540763342869468e-05
3328.0,-0.0017398361815139651
3584.0,-0.006830611731857061
3840.0,-0.007775601930916309
4096.0,-0.007023570127785206
4608.0,-0.0030791074968874454
5120.0,-0.0013156940694898367
5632.0,-0.004939442500472069
6144.0,-0.005290626082569361
6656.0,-0.003451078198850155
7168.0,-0.002139268908649683
7680.0,0.0016118008643388748
8192.0,0.0027559949085116386
9216.0,0.002157323295250535
10240.0,-0.002644759137183428
11264.0,6.644845416303724e-05
12288.0,0.004687504377216101
13312.0,-0.004604489542543888
14336.0,0.0003476212441455573
end
