version,3.0
numOfCh,1
type,point
parent_name,10-cuts
ch_type,1_1
kcount,1
numberNandB,1
brightnessNandB,1
carpet pos,0
pc,0
Time (ms),CH1 Auto-Correlation
1.0,0.048698313534259796
2.0,0.047618646174669266
3.0,0.04654606431722641
4.0,0.04550975561141968
5.0,0.044485632330179214
6.0,0.04351014643907547
7.0,0.04255696013569832
8.0,0.041659917682409286
9.0,0.040781643241643906
10.0,0.03997284919023514
11.0,0.039191097021102905
12.0,0.03846747428178787
13.0,0.037766795605421066
14.0,0.03708489611744881
15.0,0.03642818704247475
16.0,0.0357750840485096
18.0,0.03455844521522522
20.0,0.03338135406374931
22.0,0.032218147069215775
24.0,0.031098632141947746
26.0,0.03002251125872135
28.0,0.029039088636636734
30.0,0.028086651116609573
32.0,0.027112649753689766
36.0,0.025192981585860252
40.0,0.023310011252760887
44.0,0.021410519257187843
48.0,0.01972689852118492
52.0,0.018247928470373154
56.0,0.0170516986399889
60.0,0.0160387996584177
64.0,0.015064453706145287
72.0,0.013360004872083664
80.0,0.01179273147135973
88.0,0.010290848091244698
96.0,0.008948440663516521
104.0,0.007868808694183826
112.0,0.007315220311284065
120.0,0.006885922513902187
128.0,0.0067177810706198215
144.0,0.006307116709649563
160.0,0.005952870473265648
176.0,0.005029228515923023
192.0,0.0031568242702633142
208.0,0.002700773999094963
224.0,0.003533345414325595
240.0,0.004452590364962816
256.0,0.005123861134052277
288.0,0.005825457628816366
320.0,0.004805128555744886
352.0,0.002090493915602565
384.0,0.0006090998067520559
416.0,0.0012327478034421802
448.0,0.002916372148320079
480.0,0.0029082647524774075
512.0,0.002285386435687542
576.0,0.0003381625283509493
640.0,-0.0004919900093227625
704.0,0.0023299171589314938
768.0,0.004594008903950453
832.0,0.0057836431078612804
896.0,0.004470244515687227
960.0,0.0009749314631335437
1024.0,-0.002412170637398958
1152.0,-0.005874612368643284
1280.0,-0.00489936163648963
1408.0,-0.0043737455271184444
1536.0,-0.007021459750831127
1664.0,-0.0026920968666672707
1792.0,-0.0018241374054923654
1920.0,0.00023145385785028338
2048.0,0.0027363449335098267
2304.0,0.000840664841234684
2560.0,0.0016170010203495622
2816.0,0.00888110976666212
3072.0,0.003956059459596872
3328.0,0.0016235032817348838
3584.0,-5.3581909014610574e-05
3840.0,-0.0010558589128777385
4096.0,-0.0008970404742285609
4608.0,-0.002666342770680785
5120.0,-0.0003045982157345861
5632.0,0.0015871343202888966
6144.0,0.0023700520396232605
6656.0,-0.0028591083828359842
7168.0,-0.002714756177738309
7680.0,-0.002296235878020525
8192.0,0.0016813620459288359
9216.0,-0.0029607031028717756
10240.0,-0.0011367215774953365
11264.0,2.439398485876154e-05
12288.0,-0.005157451145350933
13312.0,-0.002740754745900631
14336.0,0.0016107793198898435
end
