version,3.0
numOfCh,1
type,point
parent_name,10-cuts
ch_type,1_1
kcount,1
numberNandB,1
brightnessNandB,1
carpet pos,0
pc,0
Time (ms),CH1 Auto-Correlation
1.0,0.024323975667357445
2.0,0.023917781189084053
3.0,0.023517131805419922
4.0,0.023143870756030083
5.0,0.02278798818588257
6.0,0.022437194362282753
7.0,0.022100893780589104
8.0,0.02176106907427311
9.0,0.021433183923363686
10.0,0.021110819652676582
11.0,0.02080383151769638
12.0,0.020498760044574738
13.0,0.02020767703652382
14.0,0.019922306761145592
15.0,0.019635703414678574
16.0,0.01936347596347332
18.0,0.01888337731361389
20.0,0.018415162339806557
22.0,0.017971139401197433
24.0,0.01755397580564022
26.0,0.01715853065252304
28.0,0.016777299344539642
30.0,0.016389355063438416
32.0,0.0160041693598032
36.0,0.015286600217223167
40.0,0.014607864432036877
44.0,0.014024064876139164
48.0,0.013518313877284527
52.0,0.013006066903471947
56.0,0.01245291531085968
60.0,0.011898430064320564
64.0,0.01140956673771143
72.0,0.010602794587612152
80.0,0.009854339063167572
88.0,0.009150505065917969
96.0,0.008541865274310112
104.0,0.007932148873806
112.0,0.007482688408344984
120.0,0.0071059032343328
128.0,0.006819072179496288
144.0,0.006209142971783876
160.0,0.005780637729912996
176.0,0.0052882349118590355
192.0,0.004674264695495367
208.0,0.004118448588997126
224.0,0.003460813080891967
240.0,0.002802674425765872
256.0,0.0026146594900637865
288.0,0.0021802489645779133
320.0,0.001543124788440764
352.0,0.0010801724856719375
384.0,0.00045532759395428
416.0,-8.004443952813745e-05
448.0,-0.00029912948957644403
480.0,-0.00014806853141635656
512.0,9.065558515430894e-06
576.0,0.00016202979895751923
640.0,8.500793046550825e-05
704.0,-0.0008151538786478341
768.0,-0.0005825617699883878
832.0,-0.00024542200844734907
896.0,-0.0013671012129634619
960.0,-0.0022252071648836136
1024.0,-0.0025975380558520555
1152.0,-0.0018657030304893851
1280.0,-0.0014198271092027426
1408.0,-0.001588423503562808
1536.0,-0.0017395952017977834
1664.0,0.00012237532064318657
1792.0,0.001695765182375908
1920.0,0.0020459515508264303
2048.0,0.001447407528758049
2304.0,0.0006358956452459097
2560.0,0.0001006776510621421
2816.0,-0.0015745431883260608
3072.0,0.00016006542136892676
3328.0,-0.0013466818490996957
3584.0,-0.0022827766370028257
3840.0,-0.0023451196029782295
4096.0,-0.0029160005506128073
4608.0,0.002167089842259884
5120.0,0.0018744043773040175
5632.0,-0.0014708671951666474
6144.0,-0.002001077402383089
6656.0,0.0012430805945768952
7168.0,0.0007778711733408272
7680.0,0.0003786327433772385
8192.0,0.0003296262875664979
9216.0,-0.0011377539485692978
10240.0,-0.0008848417783156037
11264.0,0.00012185695231892169
12288.0,0.0011619965080171824
13312.0,0.0008710125694051385
14336.0,-0.0002467731246724725
end
