version,3.0
numOfCh,1
type,point
parent_name,10-cuts
ch_type,1_1
kcount,1
numberNandB,1
brightnessNandB,1
carpet pos,0
pc,0
Time (ms),CH1 Auto-Correlation
1.0,0.018210316076874733
2.0,0.01781812123954296
3.0,0.017429843544960022
4.0,0.017051376402378082
5.0,0.016691679134964943
6.0,0.016349637880921364
7.0,0.016020281240344048
8.0,0.015701517462730408
9.0,0.015392899513244629
10.0,0.01510384026914835
11.0,0.014829780906438828
12.0,0.014557364396750927
13.0,0.014303243719041348
14.0,0.01405632495880127
15.0,0.01382969319820404
16.0,0.013617843389511108
18.0,0.013230633921921253
20.0,0.012848854064941406
22.0,0.012463739141821861
24.0,0.012080729007720947
26.0,0.01170763373374939
28.0,0.011329014785587788
30.0,0.01099228672683239
32.0,0.01065091509371996
36.0,0.010015327483415604
40.0,0.0093976566568017
44.0,0.008787269704043865
48.0,0.00823313556611538
52.0,0.0077137816697359085
56.0,0.007214689161628485
60.0,0.006771081127226353
64.0,0.006404670886695385
72.0,0.005785686895251274
80.0,0.005179932340979576
88.0,0.004589555319398642
96.0,0.004175714682787657
104.0,0.003765546018257737
112.0,0.0033475200179964304
120.0,0.0030698187183588743
128.0,0.0029231293592602015
144.0,0.00275629130192101
160.0,0.0027688145637512207
176.0,0.002768050879240036
192.0,0.0025716552045196295
208.0,0.00242262938991189
224.0,0.002108984859660268
240.0,0.0018485249020159245
256.0,0.0014547229511663318
288.0,0.0010226645972579718
320.0,0.0009130623657256365
352.0,0.0007084778626449406
384.0,0.0002721552737057209
416.0,0.0002109129709424451
448.0,0.00020863115787506104
480.0,-0.0003083087794948369
512.0,-0.0008117259130813181
576.0,-0.0015024672029539943
640.0,-0.0020137005485594273
704.0,-0.0025483225472271442
768.0,-0.0028219851665198803
832.0,-0.0023289734963327646
896.0,-0.0021444333251565695
960.0,-0.001404800801537931
1024.0,-0.00012740303645841777
1152.0,-0.00041777821024879813
1280.0,0.0018801696132868528
1408.0,0.0012603786308318377
1536.0,0.0018306976417079568
1664.0,0.0011076139053329825
1792.0,-0.0005195551202632487
1920.0,-0.0015339658129960299
2048.0,-0.002971470821648836
2304.0,-0.0022154590114951134
2560.0,-0.0006232231389731169
2816.0,-0.00016088808479253203
3072.0,0.0012408987386152148
3328.0,-4.346762943896465e-05
3584.0,-0.0005910884938202798
3840.0,-0.0006849546916782856
4096.0,0.0007790622767060995
4608.0,0.00026540752151049674
5120.0,-0.00026867687120102346
5632.0,-0.0005860672681592405
6144.0,-0.0003112124395556748
6656.0,8.312636782648042e-05
7168.0,-0.0003663741808850318
7680.0,0.0015761007089167833
8192.0,0.0016094687161967158
9216.0,-0.00038197837420739233
10240.0,-0.000573435565456748
11264.0,-0.0005938148824498057
12288.0,-3.5446948459139094e-05
13312.0,0.00017036184726748616
14336.0,0.00018701903172768652
end
