version,3.0
numOfCh,1
type,point
parent_name,10-cuts
ch_type,1_1
kcount,1
numberNandB,1
brightnessNandB,1
carpet pos,0
pc,0
Time (ms),CH1 Auto-Correlation
1.0,0.0676630362868309
2.0,0.06648968160152435
3.0,0.06533637642860413
4.0,0.06422751396894455
5.0,0.0631566196680069
6.0,0.062118254601955414
7.0,0.06112474203109741
8.0,0.06013795733451843
9.0,0.059192463755607605
10.0,0.05826200917363167
11.0,0.05739804357290268
12.0,0.05659801885485649
13.0,0.05585852265357971
14.0,0.0551307387650013
15.0,0.054398782551288605
16.0,0.05367353558540344
18.0,0.05232066661119461
20.0,0.05112740024924278
22.0,0.04995766282081604
24.0,0.048806414008140564
26.0,0.047672003507614136
28.0,0.04662184789776802
30.0,0.0456402450799942
32.0,0.044704120606184006
36.0,0.04299243539571762
40.0,0.04142560809850693
44.0,0.04007626697421074
48.0,0.038671866059303284
52.0,0.03713594749569893
56.0,0.03558066487312317
60.0,0.03421003744006157
64.0,0.032878510653972626
72.0,0.030470332130789757
80.0,0.02819795161485672
88.0,0.02573162317276001
96.0,0.023641014471650124
104.0,0.022201523184776306
112.0,0.02114056795835495
120.0,0.020122280344367027
128.0,0.01932249218225479
144.0,0.01846335269510746
160.0,0.017261745408177376
176.0,0.01602843590080738
192.0,0.014851348474621773
208.0,0.01396371703594923
224.0,0.013676258735358715
240.0,0.01370715070515871
256.0,0.013773319311439991
288.0,0.011648028157651424
320.0,0.010343246161937714
352.0,0.009518579579889774
384.0,0.009799270890653133
416.0,0.00939038023352623
448.0,0.008941193111240864
480.0,0.008020495995879173
512.0,0.00568941468372941
576.0,0.0010935921454802155
640.0,-0.002295794663950801
704.0,-0.004302960354834795
768.0,-0.0035837572067976
832.0,-0.005654830485582352
896.0,-0.006020944565534592
960.0,-0.0061316099017858505
1024.0,-0.007636450696736574
1152.0,-0.004511807579547167
1280.0,-0.0005135118262842298
1408.0,0.00028054259018972516
1536.0,-0.00023230894294101745
1664.0,0.00283410563133657
1792.0,0.00941120833158493
1920.0,0.008487880229949951
2048.0,0.004001718945801258
2304.0,0.0043120174668729305
2560.0,-0.0007965934346430004
2816.0,-0.004648327361792326
3072.0,0.0002668879460543394
3328.0,-0.00123833236284554
3584.0,0.006867471616715193
3840.0,0.005275613162666559
4096.0,0.0008555467356927693
4608.0,-0.0017807179829105735
5120.0,0.0029876192566007376
5632.0,0.001301041105762124
6144.0,-0.010565999895334244
6656.0,-0.004029830917716026
7168.0,0.006218485534191132
7680.0,-0.003663805779069662
8192.0,-0.011054125614464283
9216.0,0.002437798772007227
10240.0,-0.011626556515693665
11264.0,-0.0007745255716145039
12288.0,0.007094133645296097
13312.0,-0.012384218163788319
14336.0,0.004519028123468161
end
