version,3.0
numOfCh,1
type,point
parent_name,10-cuts
ch_type,1_1
kcount,1
numberNandB,1
brightnessNandB,1
carpet pos,0
pc,0
Time (ms),CH1 Auto-Correlation
1.0,0.030145347118377686
2.0,0.02956383302807808
3.0,0.029009126126766205
4.0,0.028472445905208588
5.0,0.02794581651687622
6.0,0.027431167662143707
7.0,0.02693105675280094
8.0,0.026457015424966812
9.0,0.02598656341433525
10.0,0.025520065799355507
11.0,0.025060493499040604
12.0,0.024626631289720535
13.0,0.024220073595643044
14.0,0.023820653557777405
15.0,0.023424509912729263
16.0,0.023037146776914597
18.0,0.0222967267036438
20.0,0.021596478298306465
22.0,0.02092164009809494
24.0,0.02033851109445095
26.0,0.019778411835432053
28.0,0.01921595260500908
30.0,0.018693601712584496
32.0,0.01821916736662388
36.0,0.017352394759655
40.0,0.016532178968191147
44.0,0.0157987792044878
48.0,0.015114778652787209
52.0,0.01448754221200943
56.0,0.013884537853300571
60.0,0.013317370787262917
64.0,0.012820571660995483
72.0,0.011977458372712135
80.0,0.011239947751164436
88.0,0.010457887314260006
96.0,0.009702767245471478
104.0,0.008970597758889198
112.0,0.008296243846416473
120.0,0.007794331759214401
128.0,0.007362971547991037
144.0,0.006399680394679308
160.0,0.005605936981737614
176.0,0.0053724125027656555
192.0,0.005125916097313166
208.0,0.005246361251920462
224.0,0.005332827568054199
240.0,0.005384434480220079
256.0,0.005645946133881807
288.0,0.006035276222974062
320.0,0.005620324984192848
352.0,0.00519629567861557
384.0,0.004555703140795231
416.0,0.004184603225439787
448.0,0.003947562538087368
480.0,0.003909304738044739
512.0,0.0034570503048598766
576.0,0.0029411932919174433
640.0,0.001489235321059823
704.0,-4.8786027036840096e-05
768.0,0.0001864082587417215
832.0,0.0012048330390825868
896.0,0.0004444752703420818
960.0,-0.00027759725344367325
1024.0,-0.0011806064285337925
1152.0,-0.0009231426520273089
1280.0,-0.0025631238240748644
1408.0,-0.0029708552174270153
1536.0,-0.0013631429756060243
1664.0,-0.0007413400453515351
1792.0,-0.0018584501231089234
1920.0,-0.0012500259326770902
2048.0,0.00023928536393214017
2304.0,-0.0007684035808779299
2560.0,0.00013256621605250984
2816.0,0.0018124294001609087
3072.0,0.0012358444510027766
3328.0,0.0017542073037475348
3584.0,0.001849448075518012
3840.0,-0.0011814868776127696
4096.0,-0.0004170734027866274
4608.0,-9.405914170201868e-05
5120.0,-0.0002597595448605716
5632.0,-0.0035956643987447023
6144.0,-0.0030885557644069195
6656.0,2.7213329303776845e-05
7168.0,7.33906781533733e-05
7680.0,0.0010926405666396022
8192.0,0.0006831221398897469
9216.0,-0.0024370159953832626
10240.0,0.001319119124673307
11264.0,0.003902486525475979
12288.0,-0.004503984469920397
13312.0,-0.007513288874179125
14336.0,0.0045809973962605
end
