version,3.0
numOfCh,1
type,point
parent_name,10-cuts
ch_type,1_1
kcount,1
numberNandB,1
brightnessNandB,1
carpet pos,0
pc,0
Time (ms),CH1 Auto-Correlation
1.0,0.03493043780326843
2.0,0.034309882670640945
3.0,0.03370875492691994
4.0,0.033117495477199554
5.0,0.03253752738237381
6.0,0.03197231888771057
7.0,0.03141406178474426
8.0,0.030868371948599815
9.0,0.030340049415826797
10.0,0.029829243198037148
11.0,0.029322074726223946
12.0,0.028836268931627274
13.0,0.028356414288282394
14.0,0.02790994569659233
15.0,0.027489708736538887
16.0,0.02708679810166359
18.0,0.02635800652205944
20.0,0.025659801438450813
22.0,0.02496654912829399
24.0,0.024270951747894287
26.0,0.02360064722597599
28.0,0.02303118258714676
30.0,0.022516760975122452
32.0,0.021991906687617302
36.0,0.02100822702050209
40.0,0.020029714331030846
44.0,0.019091032445430756
48.0,0.018234096467494965
52.0,0.017425237223505974
56.0,0.016702478751540184
60.0,0.016036340966820717
64.0,0.015424193814396858
72.0,0.014473765157163143
80.0,0.013753840699791908
88.0,0.013085043989121914
96.0,0.0124095743522048
104.0,0.011854331009089947
112.0,0.011086475104093552
120.0,0.010236374102532864
128.0,0.009390972554683685
144.0,0.008082686923444271
160.0,0.0069946045987308025
176.0,0.00648873345926404
192.0,0.006034749560058117
208.0,0.006046847905963659
224.0,0.006555383093655109
240.0,0.0065064821392297745
256.0,0.006158183794468641
288.0,0.0054605198092758656
320.0,0.004177330061793327
352.0,0.0032575472723692656
384.0,0.003237510100007057
416.0,0.0031288505997508764
448.0,0.0017425016267225146
480.0,0.0012632113648578525
512.0,0.0005777827464044094
576.0,-0.0017955658258870244
640.0,-0.0012481141602620482
704.0,0.00030016733217053115
768.0,0.00011789850395871326
832.0,-0.0006482551107183099
896.0,-0.0007814557757228613
960.0,0.00015345188148785383
1024.0,0.0014426616253331304
1152.0,0.001760470331646502
1280.0,-0.0006919506122358143
1408.0,-0.002436543582007289
1536.0,-0.0035989130847156048
1664.0,-0.004677678924053907
1792.0,-0.0028236135840415955
1920.0,-0.001266453880816698
2048.0,0.002224345225840807
2304.0,0.004040936939418316
2560.0,0.0008596528205089271
2816.0,-0.00020264441263861954
3072.0,0.002257179468870163
3328.0,0.004098423290997744
3584.0,-0.0006726476713083684
3840.0,-0.0020075486972928047
4096.0,-0.0016843497287482023
4608.0,-0.0008415527991019189
5120.0,-0.0025667150039225817
5632.0,0.0019186552381142974
6144.0,-0.006155721843242645
6656.0,-0.0006787623860873282
7168.0,-0.0018239448545500636
7680.0,0.0026412655133754015
8192.0,-0.003848717315122485
9216.0,-0.0024074125103652477
10240.0,0.004563929513096809
11264.0,-0.0012415244709700346
12288.0,-0.004304651636630297
13312.0,0.003709599142894149
14336.0,0.0008601450826972723
end
