version,3.0
numOfCh,1
type,point
parent_name,10-cuts
ch_type,1_1
kcount,1
numberNandB,1
brightnessNandB,1
carpet pos,0
pc,0
Time (ms),CH1 Auto-Correlation
1.0,0.06476709246635437
2.0,0.06347483396530151
3.0,0.06222298741340637
4.0,0.061028528958559036
5.0,0.05988603085279465
6.0,0.05880212038755417
7.0,0.05777774006128311
8.0,0.05675307661294937
9.0,0.05577854439616203
10.0,0.05487537756562233
11.0,0.05399773642420769
12.0,0.05317787453532219
13.0,0.052365925163030624
14.0,0.05155434459447861
15.0,0.05076109617948532
16.0,0.04997851699590683
18.0,0.048519715666770935
20.0,0.04713033512234688
22.0,0.04579094797372818
24.0,0.04453156515955925
26.0,0.04333717003464699
28.0,0.042204372584819794
30.0,0.041173305362463
32.0,0.04018593207001686
36.0,0.03839770331978798
40.0,0.03657081723213196
44.0,0.03487905487418175
48.0,0.03351053223013878
52.0,0.03232042118906975
56.0,0.03105887956917286
60.0,0.029856283217668533
64.0,0.02869521826505661
72.0,0.026675935834646225
80.0,0.02504524402320385
88.0,0.024187330156564713
96.0,0.023212403059005737
104.0,0.022535840049386024
112.0,0.021816488355398178
120.0,0.020991157740354538
128.0,0.01996069774031639
144.0,0.018116658553481102
160.0,0.015410123392939568
176.0,0.012496563605964184
192.0,0.010857563465833664
208.0,0.00974826980382204
224.0,0.008851192891597748
240.0,0.0073855845257639885
256.0,0.006454946473240852
288.0,0.004937486723065376
320.0,0.0031367866322398186
352.0,0.0029751553665846586
384.0,0.001475276192650199
416.0,0.0013999762013554573
448.0,-0.00031090632546693087
480.0,-0.001195799559354782
512.0,-0.0026334868744015694
576.0,-0.0011476123472675681
640.0,0.0002702446945477277
704.0,0.001227444619871676
768.0,0.00017670656961854547
832.0,-0.0009283366380259395
896.0,0.0016521933721378446
960.0,0.003552048932760954
1024.0,0.004936844576150179
1152.0,0.0017214794643223286
1280.0,0.001375968917272985
1408.0,0.0035668727941811085
1536.0,0.0006476947455666959
1664.0,-0.0005039930692873895
1792.0,-0.0035576054360717535
1920.0,-0.0023072490002959967
2048.0,-0.0022142911329865456
2304.0,-0.00435631163418293
2560.0,-0.004309564828872681
2816.0,0.0010759172728285193
3072.0,0.0012998576276004314
3328.0,0.0063269552774727345
3584.0,0.001878214068710804
3840.0,-0.0015294764889404178
4096.0,0.004860767163336277
4608.0,0.00405967328697443
5120.0,-0.0033831633627414703
5632.0,-0.007716548163443804
6144.0,0.00028675567591562867
6656.0,-0.00875538494437933
7168.0,0.0011811876902356744
7680.0,0.006250949110835791
8192.0,-0.002426571911200881
9216.0,-0.004430270288139582
10240.0,-0.00686620082706213
11264.0,-0.005322142969816923
12288.0,0.0015567219816148281
13312.0,0.005939996335655451
14336.0,0.004070568829774857
end
