version,3.0
numOfCh,1
type,point
parent_name,10-cuts
ch_type,1_1
kcount,1
numberNandB,1
brightnessNandB,1
carpet pos,0
pc,0
Time (ms),CH1 Auto-Correlation
1.0,0.0225007776170969
2.0,0.022098587825894356
3.0,0.021705184131860733
4.0,0.02132152020931244
5.0,0.020954672247171402
6.0,0.02060331590473652
7.0,0.02025776542723179
8.0,0.01990949735045433
9.0,0.01958100125193596
10.0,0.01927708089351654
11.0,0.018991414457559586
12.0,0.0187204759567976
13.0,0.018463024869561195
14.0,0.018209323287010193
15.0,0.0179519671946764
16.0,0.01770763099193573
18.0,0.01724708452820778
20.0,0.016792383044958115
22.0,0.016371656209230423
24.0,0.015980152413249016
26.0,0.015604437328875065
28.0,0.015255250968039036
30.0,0.014911392703652382
32.0,0.014577764086425304
36.0,0.013999215327203274
40.0,0.013473603874444962
44.0,0.013001632876694202
48.0,0.01260219607502222
52.0,0.01226724311709404
56.0,0.011910829693078995
60.0,0.011542272754013538
64.0,0.011210762895643711
72.0,0.010675136931240559
80.0,0.010178175754845142
88.0,0.009669127874076366
96.0,0.00920827779918909
104.0,0.008863149210810661
112.0,0.008663964457809925
120.0,0.008373226039111614
128.0,0.007904674857854843
144.0,0.007293436210602522
160.0,0.0068177166394889355
176.0,0.006457289680838585
192.0,0.005987225566059351
208.0,0.00537106255069375
224.0,0.004775916691869497
240.0,0.004705543164163828
256.0,0.004974989220499992
288.0,0.004782677628099918
320.0,0.004050977062433958
352.0,0.003613388165831566
384.0,0.003690034616738558
416.0,0.003900031326338649
448.0,0.004141730256378651
480.0,0.004308309406042099
512.0,0.0044748615473508835
576.0,0.004540287423878908
640.0,0.0030875904485583305
704.0,0.002325424226000905
768.0,0.0016293851658701897
832.0,0.0014605071628466249
896.0,0.0008926381124183536
960.0,-1.966623676707968e-05
1024.0,-0.00046539580216631293
1152.0,-0.0012947986833751202
1280.0,-0.001720803789794445
1408.0,-0.002348941517993808
1536.0,-0.0029316593427211046
1664.0,-0.003622481832280755
1792.0,-0.0032544382847845554
1920.0,-0.0027596508152782917
2048.0,-0.003981728572398424
2304.0,-0.0010486001847311854
2560.0,0.0005706981755793095
2816.0,0.0015308498404920101
3072.0,0.0024718339554965496
3328.0,0.0017897244542837143
3584.0,0.0013186391443014145
3840.0,0.001224199659191072
4096.0,-0.001671259175054729
4608.0,-0.004001056309789419
5120.0,-0.003996670246124268
5632.0,-0.002221595961600542
6144.0,0.0007541025406681001
6656.0,0.0017062532715499401
7168.0,0.0012885421747341752
7680.0,-0.00013486506941262633
8192.0,-0.00046683778055012226
9216.0,0.0016443806234747171
10240.0,0.00037996008177287877
11264.0,-0.00225165206938982
12288.0,-0.0013257622485980392
13312.0,-0.0011428073048591614
14336.0,0.0004844537761528045
end
