version,3.0
numOfCh,1
type,point
parent_name,10-cuts
ch_type,1_1
kcount,1
numberNandB,1
brightnessNandB,1
carpet pos,0
pc,0
Time (ms),CH1 Auto-Correlation
1.0,0.037278540432453156
2.0,0.036663200706243515
3.0,0.036060694605112076
4.0,0.035468000918626785
5.0,0.03488628566265106
6.0,0.03432339057326317
7.0,0.03377259522676468
8.0,0.03322485461831093
9.0,0.03269758075475693
10.0,0.03219827264547348
11.0,0.0317249521613121
12.0,0.031271517276763916
13.0,0.03083525411784649
14.0,0.030390560626983643
15.0,0.02996020019054413
16.0,0.029551668092608452
18.0,0.02876003459095955
20.0,0.02804565243422985
22.0,0.027351930737495422
24.0,0.026698723435401917
26.0,0.02604629658162594
28.0,0.025414416566491127
30.0,0.024805378168821335
32.0,0.024202466011047363
36.0,0.023171622306108475
40.0,0.02226889692246914
44.0,0.02138783410191536
48.0,0.020613083615899086
52.0,0.019922906532883644
56.0,0.019228609278798103
60.0,0.01851675659418106
64.0,0.017694871872663498
72.0,0.01624760963022709
80.0,0.015011172741651535
88.0,0.013885282911360264
96.0,0.012907280586659908
104.0,0.011945616453886032
112.0,0.01086502242833376
120.0,0.010051635093986988
128.0,0.009485205635428429
144.0,0.00836198404431343
160.0,0.007672365289181471
176.0,0.007412963081151247
192.0,0.0070695457980036736
208.0,0.006493978668004274
224.0,0.005988358985632658
240.0,0.005048402585089207
256.0,0.0041063884273171425
288.0,0.004340269137173891
320.0,0.0038580005057156086
352.0,0.0033046670723706484
384.0,0.0019383925246074796
416.0,0.0008718375465832651
448.0,0.0005665848730131984
480.0,-0.00018804013961926103
512.0,-0.00017031266179401428
576.0,-0.0008448327425867319
640.0,-0.0024050858337432146
704.0,-0.004805863834917545
768.0,-0.004199916962534189
832.0,-0.003657769877463579
896.0,-0.005115458741784096
960.0,-0.005598816089332104
1024.0,-0.0052152760326862335
1152.0,-0.0021228701807558537
1280.0,-0.00341435382142663
1408.0,-0.0031141580548137426
1536.0,-0.0023161794524639845
1664.0,-8.672532567288727e-05
1792.0,-0.0014725459041073918
1920.0,-0.00012484012404456735
2048.0,-0.0018886865582317114
2304.0,-0.003878930816426873
2560.0,-4.591718970914371e-05
2816.0,0.0026965029537677765
3072.0,0.00246586836874485
3328.0,0.001004485646262765
3584.0,0.001995756523683667
3840.0,-0.0007698333938606083
4096.0,-0.0038506111595779657
4608.0,-0.0001744939072523266
5120.0,0.002669813809916377
5632.0,-0.0015500250738114119
6144.0,0.00044690718641504645
6656.0,-2.1334299162845127e-05
7168.0,0.00019806229101959616
7680.0,0.0020768526010215282
8192.0,0.004573621787130833
9216.0,-0.004120831377804279
10240.0,0.0012129215756431222
11264.0,0.0029405970126390457
12288.0,-0.004461012315005064
13312.0,0.001966961659491062
14336.0,0.0005293049034662545
end
