version,3.0
numOfCh,1
type,point
parent_name,10-cuts
ch_type,1_1
kcount,1
numberNandB,1
brightnessNandB,1
carpet pos,0
pc,0
Time (ms),CH1 Auto-Correlation
1.0,0.01844365894794464
2.0,0.018018020316958427
3.0,0.01760711520910263
4.0,0.017223749309778214
5.0,0.016850993037223816
6.0,0.016494782641530037
7.0,0.016153892502188683
8.0,0.015820499509572983
9.0,0.015495650470256805
10.0,0.015182488597929478
11.0,0.014871543273329735
12.0,0.014564414508640766
13.0,0.014252633787691593
14.0,0.013964242301881313
15.0,0.013696511276066303
16.0,0.013423296622931957
18.0,0.012914753518998623
20.0,0.012447427026927471
22.0,0.011999270878732204
24.0,0.011566114611923695
26.0,0.011156261898577213
28.0,0.010759921744465828
30.0,0.010392541997134686
32.0,0.010053725913167
36.0,0.009461349807679653
40.0,0.008971217088401318
44.0,0.008556834422051907
48.0,0.008219873532652855
52.0,0.00793910026550293
56.0,0.007682533003389835
60.0,0.007450717501342297
64.0,0.0072067175060510635
72.0,0.006678531412035227
80.0,0.005959975533187389
88.0,0.005168450530618429
96.0,0.0044835712760686874
104.0,0.003907052334398031
112.0,0.003259685356169939
120.0,0.002791955368593335
128.0,0.0025845894124358892
144.0,0.002094001742079854
160.0,0.0014186908956617117
176.0,0.0007542952662333846
192.0,0.0002539320266805589
208.0,-0.00024486202164553106
224.0,-0.0007959831855259836
240.0,-0.0009210003772750497
256.0,-0.0008174019167199731
288.0,-0.0004518103669397533
320.0,-0.0004292892408557236
352.0,-0.00037788035115227103
384.0,-0.00034315325319767
416.0,-0.00039284134982153773
448.0,0.00040732225170359015
480.0,0.0005911914631724358
512.0,0.0005581362638622522
576.0,8.091019844869152e-05
640.0,-0.0012259118957445025
704.0,-0.0010959213832393289
768.0,0.00011773418373195454
832.0,0.0006259477813728154
896.0,0.001216454547829926
960.0,0.0005987831973470747
1024.0,-0.00012733532639686018
1152.0,0.0009695900953374803
1280.0,0.0012175628216937184
1408.0,0.0019205703865736723
1536.0,0.0016676876693964005
1664.0,0.0012392201460897923
1792.0,0.0007344952900893986
1920.0,-0.00012769697059411556
2048.0,-0.00044202670687809587
2304.0,-0.0002613396500237286
2560.0,-0.0003436800907365978
2816.0,0.0004765029007103294
3072.0,-0.0002326880203327164
3328.0,0.001035116845741868
3584.0,-0.0010959242936223745
3840.0,0.0003975065774284303
4096.0,-0.0012050385121256113
4608.0,-0.00019035706645809114
5120.0,0.0010580369271337986
5632.0,-0.0015901830047369003
6144.0,0.0005463429843075573
6656.0,0.0001429937401553616
7168.0,-0.001230705645866692
7680.0,0.0008803423261269927
8192.0,-0.00031762203434482217
9216.0,-0.001339868176728487
10240.0,-0.0007854169234633446
11264.0,-0.0011028131702914834
12288.0,0.0001315342087764293
13312.0,-0.0004868942778557539
14336.0,-0.0007992847240529954
end
