version,3.0
numOfCh,1
type,point
parent_name,10-cuts
ch_type,1_1
kcount,1
numberNandB,1
brightnessNandB,1
carpet pos,0
pc,0
Time (ms),CH1 Auto-Correlation
1.0,0.030527649447321892
2.0,0.0299243051558733
3.0,0.02935691736638546
4.0,0.02880282513797283
5.0,0.0282577034085989
6.0,0.02773524448275566
7.0,0.02721191570162773
8.0,0.026699500158429146
9.0,0.02619926631450653
10.0,0.025708524510264397
11.0,0.025234097614884377
12.0,0.02474934048950672
13.0,0.024297546595335007
14.0,0.023867851123213768
15.0,0.02343904785811901
16.0,0.02302439510822296
18.0,0.022280000150203705
20.0,0.021578224375844002
22.0,0.020909184589982033
24.0,0.02029101364314556
26.0,0.01966203562915325
28.0,0.01904369704425335
30.0,0.01840963214635849
32.0,0.017819691449403763
36.0,0.016808468848466873
40.0,0.01591813564300537
44.0,0.01507852878421545
48.0,0.014316700398921967
52.0,0.013631787151098251
56.0,0.013006601482629776
60.0,0.012442993931472301
64.0,0.011881758458912373
72.0,0.01100075151771307
80.0,0.010375584475696087
88.0,0.009737251326441765
96.0,0.00922239851206541
104.0,0.008711609058082104
112.0,0.008141976781189442
120.0,0.007693603169173002
128.0,0.0074308086186647415
144.0,0.0071091484278440475
160.0,0.006540224887430668
176.0,0.006041618995368481
192.0,0.005635763518512249
208.0,0.004765249788761139
224.0,0.003650341648608446
240.0,0.0027035370003432035
256.0,0.0024292201269418
288.0,0.0014327069511637092
320.0,0.0009699665824882686
352.0,0.0012093273689970374
384.0,0.0012521779863163829
416.0,0.00048057950334623456
448.0,4.618804814526811e-05
480.0,0.0003090282843913883
512.0,0.0006171393324621022
576.0,0.0011805228423327208
640.0,0.002122901612892747
704.0,0.0007841745391488075
768.0,-0.0006656333571299911
832.0,-0.0017789904959499836
896.0,-0.0017227173084393144
960.0,-0.003073468105867505
1024.0,-0.0030891699716448784
1152.0,-0.0027374185156077147
1280.0,-0.0032080295495688915
1408.0,-0.0018772705225273967
1536.0,-0.001519126002676785
1664.0,-0.0010529200080782175
1792.0,0.000530139310285449
1920.0,2.5147077394649386e-05
2048.0,-0.002504685427993536
2304.0,-0.0016061114147305489
2560.0,3.449830546742305e-05
2816.0,-0.0012752884067595005
3072.0,0.00026239032740704715
3328.0,0.002064431319013238
3584.0,-0.0011461428366601467
3840.0,0.003188324859365821
4096.0,-0.00012702634558081627
4608.0,0.0006735972710885108
5120.0,0.001852130750194192
5632.0,-0.000983960460871458
6144.0,-0.004997589625418186
6656.0,-0.0024956052657216787
7168.0,0.003529245499521494
7680.0,0.0042143892496824265
8192.0,-8.783464727457613e-05
9216.0,-0.00028646658756770194
10240.0,-0.001739758299663663
11264.0,-0.0032091112807393074
12288.0,0.0048654954880476
13312.0,-0.005798019003123045
14336.0,-0.0038075700867921114
end
