version,3.0
numOfCh,1
type,point
parent_name,10-cuts
ch_type,1_1
kcount,1
numberNandB,1
brightnessNandB,1
carpet pos,0
pc,0
Time (ms),CH1 Auto-Correlation
1.0,0.03193732351064682
2.0,0.03133157640695572
3.0,0.03073904663324356
4.0,0.030180539935827255
5.0,0.02964179590344429
6.0,0.02913125976920128
7.0,0.028640087693929672
8.0,0.028148701414465904
9.0,0.027676792815327644
10.0,0.02720591239631176
11.0,0.026735680177807808
12.0,0.026287661865353584
13.0,0.025863097980618477
14.0,0.025445956736803055
15.0,0.025048093870282173
16.0,0.024673188105225563
18.0,0.023935623466968536
20.0,0.023224065080285072
22.0,0.022571930661797523
24.0,0.021929841488599777
26.0,0.021320084109902382
28.0,0.020770462229847908
30.0,0.020243177190423012
32.0,0.019726913422346115
36.0,0.018766045570373535
40.0,0.017876621335744858
44.0,0.017121057957410812
48.0,0.01640201546251774
52.0,0.015671506524086
56.0,0.014909385703504086
60.0,0.01421018410474062
64.0,0.013566038571298122
72.0,0.012446104548871517
80.0,0.011337397620081902
88.0,0.010151111520826817
96.0,0.009083591401576996
104.0,0.00815958995372057
112.0,0.0072907633148133755
120.0,0.006652236916124821
128.0,0.006116482894867659
144.0,0.005157772917300463
160.0,0.004547996912151575
176.0,0.004191820975393057
192.0,0.003364952513948083
208.0,0.0027119694277644157
224.0,0.0023022391833364964
240.0,0.002094613155350089
256.0,0.0017715279245749116
288.0,0.0019789731595665216
320.0,0.0025029212702065706
352.0,0.003280723001807928
384.0,0.0031463622581213713
416.0,0.0024431245401501656
448.0,0.002073185285553336
480.0,0.002077041193842888
512.0,0.0023618440609425306
576.0,0.001981035340577364
640.0,0.001776810153387487
704.0,0.0015111720422282815
768.0,0.0012524754274636507
832.0,0.0007021783967502415
896.0,-0.0005910555482842028
960.0,-0.001478864229284227
1024.0,-0.0007495640311390162
1152.0,0.003125313436612487
1280.0,0.0018525687046349049
1408.0,0.0013708311598747969
1536.0,0.004459603223949671
1664.0,0.005624912213534117
1792.0,0.004845894407480955
1920.0,0.0038609043695032597
2048.0,0.005617279559373856
2304.0,0.001204662723466754
2560.0,-0.0018046557670459151
2816.0,-0.0014530624030157924
3072.0,-2.213421612395905e-05
3328.0,0.0005360449431464076
3584.0,0.001880787080153823
3840.0,0.004721832927316427
4096.0,0.0014859915245324373
4608.0,-0.0009541890467517078
5120.0,0.002087028929963708
5632.0,0.001877954346127808
6144.0,-0.0009488965733908117
6656.0,-0.0018871994689106941
7168.0,0.00028494512662291527
7680.0,-0.0017230024095624685
8192.0,-0.002358448226004839
9216.0,0.0013102744705975056
10240.0,-0.004745258018374443
11264.0,-0.0029347469098865986
12288.0,-0.009896892122924328
13312.0,-0.006313416641205549
14336.0,-0.0066809384152293205
end
