version,3.0
numOfCh,1
type,point
parent_name,10-cuts
ch_type,1_1
kcount,1
numberNandB,1
brightnessNandB,1
carpet pos,0
pc,0
Time (ms),CH1 Auto-Correlation
1.0,0.06364032626152039
2.0,0.06246562674641609
3.0,0.061345648020505905
4.0,0.06024177372455597
5.0,0.05917733535170555
6.0,0.05812176689505577
7.0,0.05709124729037285
8.0,0.05602191016077995
9.0,0.05498747155070305
10.0,0.0539659783244133
11.0,0.053029365837574005
12.0,0.05211130157113075
13.0,0.05125224590301514
14.0,0.05044783651828766
15.0,0.04964862018823624
16.0,0.0488918274641037
18.0,0.0474994033575058
20.0,0.046160515397787094
22.0,0.044864919036626816
24.0,0.04360002279281616
26.0,0.042321015149354935
28.0,0.04111326485872269
30.0,0.039910584688186646
32.0,0.038718774914741516
36.0,0.036641787737607956
40.0,0.03489908576011658
44.0,0.03329963982105255
48.0,0.03177285194396973
52.0,0.030332325026392937
56.0,0.028981152921915054
60.0,0.02776753343641758
64.0,0.026763711124658585
72.0,0.024453653022646904
80.0,0.022534839808940887
88.0,0.0208425372838974
96.0,0.01949354074895382
104.0,0.018123507499694824
112.0,0.01704680733382702
120.0,0.016321659088134766
128.0,0.015568209812045097
144.0,0.01328100636601448
160.0,0.01138508040457964
176.0,0.009160452522337437
192.0,0.006998088210821152
208.0,0.004819934722036123
224.0,0.0029132310301065445
240.0,0.0017304809298366308
256.0,0.0010691573843359947
288.0,5.029864769312553e-05
320.0,-0.0013330860529094934
352.0,-0.0002193278050981462
384.0,0.0031862512696534395
416.0,0.005767480935901403
448.0,0.00804512295871973
480.0,0.008708818815648556
512.0,0.007563325110822916
576.0,0.007152279373258352
640.0,0.007010793313384056
704.0,0.005193756427615881
768.0,0.0026814171578735113
832.0,0.0026890805456787348
896.0,0.003959363326430321
960.0,0.004295750521123409
1024.0,0.008200952783226967
1152.0,0.005736836232244968
1280.0,0.0017100356053560972
1408.0,-0.0018573733977973461
1536.0,-0.0011270279064774513
1664.0,0.0017763253999873996
1792.0,0.007736122701317072
1920.0,0.01061431597918272
2048.0,0.005271760281175375
2304.0,-0.0009294291958212852
2560.0,0.004009542055428028
2816.0,-0.00130332144908607
3072.0,0.005906095262616873
3328.0,-0.002117150230333209
3584.0,0.00522659020498395
3840.0,0.0026220313739031553
4096.0,-0.0008490756154060364
4608.0,-0.0015611608978360891
5120.0,-0.003253849456086755
5632.0,-0.006098490208387375
6144.0,-0.005592447705566883
6656.0,-0.00415180716663599
7168.0,-0.00929192453622818
7680.0,-0.010701912455260754
8192.0,-0.006114983931183815
9216.0,-0.0031592627055943012
10240.0,-0.006270806770771742
11264.0,-0.0018296948401257396
12288.0,0.002792396117001772
13312.0,0.005824102554470301
14336.0,-0.0016417931765317917
end
