version,3.0
numOfCh,1
type,point
parent_name,10-cuts
ch_type,1_1
kcount,1
numberNandB,1
brightnessNandB,1
carpet pos,0
pc,0
Time (ms),CH1 Auto-Correlation
1.0,0.019480599090456963
2.0,0.01909818686544895
3.0,0.01871827058494091
4.0,0.01835232973098755
5.0,0.01799779199063778
6.0,0.017654873430728912
7.0,0.017323894426226616
8.0,0.01700451225042343
9.0,0.01669413596391678
10.0,0.016383184120059013
11.0,0.01607249490916729
12.0,0.015769584104418755
13.0,0.015481792390346527
14.0,0.01519918255507946
15.0,0.014924228191375732
16.0,0.014659176580607891
18.0,0.014159509912133217
20.0,0.013696921989321709
22.0,0.013260259293019772
24.0,0.01285175234079361
26.0,0.012476553209125996
28.0,0.012115459889173508
30.0,0.011755663901567459
32.0,0.011400955729186535
36.0,0.010766289196908474
40.0,0.01017139945179224
44.0,0.009601824916899204
48.0,0.009084447287023067
52.0,0.00865210872143507
56.0,0.008247393183410168
60.0,0.00788745004683733
64.0,0.007591475732624531
72.0,0.006976673379540443
80.0,0.00639711506664753
88.0,0.0059044212102890015
96.0,0.005561626050621271
104.0,0.00534145487472415
112.0,0.005156078841537237
120.0,0.004986726213246584
128.0,0.004860309883952141
144.0,0.004570717457681894
160.0,0.004197950474917889
176.0,0.003775425022467971
192.0,0.0030653770081698895
208.0,0.002290798118337989
224.0,0.0015925131738185883
240.0,0.000964443723205477
256.0,0.000685007544234395
288.0,0.0006358061218634248
320.0,0.0005186559283174574
352.0,0.00037492651608772576
384.0,6.952717376407236e-05
416.0,0.00010699772974476218
448.0,0.00017989757179748267
480.0,0.00039864779682829976
512.0,0.00022097222972661257
576.0,-3.469906732789241e-05
640.0,-0.0005004660924896598
704.0,-0.001277937670238316
768.0,-0.0011522185523062944
832.0,-0.0018216125899925828
896.0,-0.002007874194532633
960.0,-0.002832212019711733
1024.0,-0.0017752809217199683
1152.0,-4.923431697534397e-05
1280.0,0.0005492970813065767
1408.0,0.00020492231124080718
1536.0,-0.0005982614238746464
1664.0,0.00034030762617476285
1792.0,0.0007312040543183684
1920.0,0.0005211187526583672
2048.0,0.0005845082341693342
2304.0,-9.635503374738619e-05
2560.0,-0.000737104972358793
2816.0,-0.000527808559127152
3072.0,-0.000569559691939503
3328.0,0.0005426032585091889
3584.0,0.0007498535560443997
3840.0,-4.3103111238451675e-05
4096.0,-0.00027202925411984324
4608.0,-0.0007364574703387916
5120.0,0.0003994189901277423
5632.0,0.0006695883348584175
6144.0,0.0010370289674028754
6656.0,0.0008603357709944248
7168.0,0.0004065483226440847
7680.0,-0.0019090021960437298
8192.0,-0.0003874592366628349
9216.0,-0.0007126767304725945
10240.0,-0.0008350716670975089
11264.0,-0.00010201600525761023
12288.0,-0.00022382030147127807
13312.0,-0.0007215357618406415
14336.0,-0.0005142196314409375
end
