version,3.0
numOfCh,1
type,point
parent_name,10-cuts
ch_type,1_1
kcount,1
numberNandB,1
brightnessNandB,1
carpet pos,0
pc,0
Time (ms),CH1 Auto-Correlation
1.0,0.02290116250514984
2.0,0.02250124327838421
3.0,0.022113816812634468
4.0,0.0217268206179142
5.0,0.021352514624595642
6.0,0.020998425781726837
7.0,0.02065219357609749
8.0,0.020321814343333244
9.0,0.019998401403427124
10.0,0.01968361809849739
11.0,0.01937573030591011
12.0,0.019083401188254356
13.0,0.018808791413903236
14.0,0.01854800619184971
15.0,0.018291471526026726
16.0,0.0180504210293293
18.0,0.017615366727113724
20.0,0.017212368547916412
22.0,0.016807936131954193
24.0,0.016424281522631645
26.0,0.016060179099440575
28.0,0.015742409974336624
30.0,0.015481757000088692
32.0,0.015254038386046886
36.0,0.014817029237747192
40.0,0.014364595524966717
44.0,0.01389425341039896
48.0,0.013407902792096138
52.0,0.012998179532587528
56.0,0.01262448076158762
60.0,0.012256572023034096
64.0,0.01187355350703001
72.0,0.011246279813349247
80.0,0.01078993733972311
88.0,0.010227701626718044
96.0,0.009557579644024372
104.0,0.008962639607489109
112.0,0.008405815809965134
120.0,0.007930582389235497
128.0,0.007610543165355921
144.0,0.006918810307979584
160.0,0.006257718428969383
176.0,0.005475289188325405
192.0,0.004768340382725
208.0,0.004174164030700922
224.0,0.0038972736801952124
240.0,0.00365653820335865
256.0,0.0037063416093587875
288.0,0.003490174189209938
320.0,0.002740198280662298
352.0,0.0024583907797932625
384.0,0.0019109271233901381
416.0,0.0012687527341768146
448.0,0.0010627660667523742
480.0,0.0008595939725637436
512.0,0.0008782243821769953
576.0,0.0015701334923505783
640.0,0.0029324213974177837
704.0,0.003701529698446393
768.0,0.0043472787365317345
832.0,0.0033744992688298225
896.0,0.0027771254535764456
960.0,0.0017958490643650293
1024.0,0.00011567918409127742
1152.0,-0.00013909523840993643
1280.0,0.0008603506721556187
1408.0,0.0013080460485070944
1536.0,0.0015279725193977356
1664.0,0.00041653739754110575
1792.0,-0.0019124459940940142
1920.0,-0.00224173697642982
2048.0,-0.002438619500026107
2304.0,0.0007156310603022575
2560.0,-7.823829218978062e-05
2816.0,-0.001161503023467958
3072.0,-0.0005632272223010659
3328.0,-0.002962492872029543
3584.0,-0.0016366851050406694
3840.0,-0.000259394699241966
4096.0,-0.0006673232419416308
4608.0,-0.0004324142064433545
5120.0,4.2886968003585935e-05
5632.0,-0.002732948400080204
6144.0,-0.0010486978571861982
6656.0,0.001606704667210579
7168.0,0.0013601676328107715
7680.0,0.0011917566880583763
8192.0,-0.0003225129039492458
9216.0,-0.0018986089853569865
10240.0,-0.0053689442574977875
11264.0,-0.003383651841431856
12288.0,-0.001374226063489914
13312.0,0.004766845144331455
14336.0,0.009618494659662247
end
