version,3.0
numOfCh,1
type,point
parent_name,10-cuts
ch_type,1_1
kcount,1
numberNandB,1
brightnessNandB,1
carpet pos,0
pc,0
Time (ms),CH1 Auto-Correlation
1.0,0.021022798493504524
2.0,0.020637881010770798
3.0,0.0202607624232769
4.0,0.019892677664756775
5.0,0.019540395587682724
6.0,0.01918942667543888
7.0,0.018843913450837135
8.0,0.018505487591028214
9.0,0.01818445883691311
10.0,0.017872389405965805
11.0,0.01757001504302025
12.0,0.017286337912082672
13.0,0.017003323882818222
14.0,0.016731522977352142
15.0,0.01647810824215412
16.0,0.016227765008807182
18.0,0.015729011967778206
20.0,0.015220251865684986
22.0,0.014743662439286709
24.0,0.014302719384431839
26.0,0.013902977108955383
28.0,0.013552517630159855
30.0,0.013234661892056465
32.0,0.012935680337250233
36.0,0.012341958470642567
40.0,0.011799558997154236
44.0,0.011295703239738941
48.0,0.010860058479011059
52.0,0.010470638982951641
56.0,0.010116010904312134
60.0,0.009746686555445194
64.0,0.009375403635203838
72.0,0.008818191476166248
80.0,0.008368906565010548
88.0,0.007921221666038036
96.0,0.007543337065726519
104.0,0.007204778958112001
112.0,0.006847892422229052
120.0,0.0065515125170350075
128.0,0.0062817963771522045
144.0,0.005832143593579531
160.0,0.0053145973943173885
176.0,0.004915316589176655
192.0,0.004521738272160292
208.0,0.004276752006262541
224.0,0.004229751415550709
240.0,0.0043222540989518166
256.0,0.004393208771944046
288.0,0.003871254390105605
320.0,0.003345629433169961
352.0,0.003312434535473585
384.0,0.0031921041663736105
416.0,0.0029537281952798367
448.0,0.0021145425271242857
480.0,0.0008031425531953573
512.0,-0.00015340317622758448
576.0,-0.0004945169202983379
640.0,-0.0009442999726161361
704.0,-0.0011273544514551759
768.0,-0.002088127890601754
832.0,-0.0021726503036916256
896.0,-0.001691450015641749
960.0,-0.001018371433019638
1024.0,-0.0014497204683721066
1152.0,-0.0007271519280038774
1280.0,-0.00040266901487484574
1408.0,-0.0009657033369876444
1536.0,-0.0014251901302486658
1664.0,-0.0014506647130474448
1792.0,-0.0011104566510766745
1920.0,-0.0014988690381869674
2048.0,-0.001155609730631113
2304.0,-0.0020246105268597603
2560.0,-0.002502689603716135
2816.0,-0.0005648781661875546
3072.0,0.002124790335074067
3328.0,0.003470512805506587
3584.0,0.001072888495400548
3840.0,-0.0009098361479118466
4096.0,-0.0004723835445474833
4608.0,0.001353995525278151
5120.0,-0.0005737598985433578
5632.0,-0.0021078241989016533
6144.0,0.0002115664246957749
6656.0,0.0004898709012195468
7168.0,-0.0015495101688429713
7680.0,0.0003336215449962765
8192.0,-2.489077451173216e-05
9216.0,-0.0006568264216184616
10240.0,-0.0010702448198571801
11264.0,0.0018891027430072427
12288.0,-0.0006185653037391603
13312.0,0.0008460651151835918
14336.0,-0.002536042360588908
end
