version,3.0
numOfCh,1
type,point
parent_name,10-cuts
ch_type,1_1
kcount,1
numberNandB,1
brightnessNandB,1
carpet pos,0
pc,0
Time (ms),CH1 Auto-Correlation
1.0,0.017848962917923927
2.0,0.017450101673603058
3.0,0.017061064019799232
4.0,0.016698991879820824
5.0,0.01634962297976017
6.0,0.01600518450140953
7.0,0.015678001567721367
8.0,0.015358674339950085
9.0,0.015046651475131512
10.0,0.014726056717336178
11.0,0.014416385442018509
12.0,0.014129428192973137
13.0,0.013850322924554348
14.0,0.013582558371126652
15.0,0.013318419456481934
16.0,0.013066225685179234
18.0,0.012579239904880524
20.0,0.01213761791586876
22.0,0.011715306900441647
24.0,0.011296243406832218
26.0,0.010882684029638767
28.0,0.010484395548701286
30.0,0.010111402720212936
32.0,0.009769042022526264
36.0,0.009141321294009686
40.0,0.008568615652620792
44.0,0.008051020093262196
48.0,0.007573618553578854
52.0,0.007120512891560793
56.0,0.006712037138640881
60.0,0.006341889966279268
64.0,0.005970060359686613
72.0,0.0052703749388456345
80.0,0.004679057281464338
88.0,0.004328534007072449
96.0,0.004199343733489513
104.0,0.004050900228321552
112.0,0.0038805350195616484
120.0,0.0037722245324403048
128.0,0.0035612250212579966
144.0,0.0032837598118931055
160.0,0.0027991568204015493
176.0,0.0021095052361488342
192.0,0.001421450637280941
208.0,0.0006735509377904236
224.0,9.315420174971223e-05
240.0,9.784007124835625e-05
256.0,6.507737998617813e-05
288.0,0.0002761433715932071
320.0,1.5500549125135876e-05
352.0,-0.0007424469222314656
384.0,-0.0017139397095888853
416.0,-0.002618475817143917
448.0,-0.001968680415302515
480.0,-0.0018942621536552906
512.0,-0.002260124310851097
576.0,-0.0023635290563106537
640.0,-0.0018351160688325763
704.0,-0.0014320248737931252
768.0,-0.0008701799670234323
832.0,0.00011577981058508158
896.0,0.00037017749855294824
960.0,0.0002698125608731061
1024.0,0.0003391704522073269
1152.0,-0.00028033051057718694
1280.0,-0.000518572109285742
1408.0,-0.000513687264174223
1536.0,-0.00046482434845529497
1664.0,0.0007509773131459951
1792.0,0.0012126222718507051
1920.0,0.0011030914029106498
2048.0,0.001430769101716578
2304.0,0.001321364426985383
2560.0,-0.0013465436641126871
2816.0,-0.002532328711822629
3072.0,-0.00020048410806339234
3328.0,0.0016740710707381368
3584.0,-0.0004849438846576959
3840.0,-0.0003994466969743371
4096.0,0.0009893085807561874
4608.0,-0.0006451441440731287
5120.0,-0.00043491495307534933
5632.0,0.0011727999662980437
6144.0,-0.0007292126538231969
6656.0,0.0002695873845368624
7168.0,-0.0019966475665569305
7680.0,0.0013624051352962852
8192.0,-0.0010253065265715122
9216.0,0.000551522069144994
10240.0,-0.0007516585174016654
11264.0,0.001072845421731472
12288.0,-0.0013927922118455172
13312.0,0.0009865149622783065
14336.0,-8.058769162744284e-05
end
