version,3.0
numOfCh,1
type,point
parent_name,10-cuts
ch_type,1_1
kcount,1
numberNandB,1
brightnessNandB,1
carpet pos,0
pc,0
Time (ms),CH1 Auto-Correlation
1.0,0.01997896283864975
2.0,0.0195802953094244
3.0,0.01918177306652069
4.0,0.01881464198231697
5.0,0.018459957093000412
6.0,0.018121881410479546
7.0,0.017808519303798676
8.0,0.017508774995803833
9.0,0.017199711874127388
10.0,0.01688799075782299
11.0,0.016593126580119133
12.0,0.01630321331322193
13.0,0.01601666584610939
14.0,0.015733079984784126
15.0,0.015456344932317734
16.0,0.015181922353804111
18.0,0.0146824661642313
20.0,0.014216636307537556
22.0,0.013791692443192005
24.0,0.01338961161673069
26.0,0.012997519224882126
28.0,0.012627018615603447
30.0,0.012281393632292747
32.0,0.011969207786023617
36.0,0.011400661431252956
40.0,0.010862804017961025
44.0,0.010421382263302803
48.0,0.010009463876485825
52.0,0.009594508446753025
56.0,0.00922328606247902
60.0,0.00896370317786932
64.0,0.008746616542339325
72.0,0.008244013413786888
80.0,0.007636434864252806
88.0,0.006862172391265631
96.0,0.006182434968650341
104.0,0.00564156798645854
112.0,0.005180348176509142
120.0,0.0047631640918552876
128.0,0.004487329628318548
144.0,0.004000627435743809
160.0,0.003473925404250622
176.0,0.002641268540173769
192.0,0.0021063911262899637
208.0,0.0016958692576736212
224.0,0.0012174308067187667
240.0,0.0004951468436047435
256.0,-0.00036737314076162875
288.0,-0.0005004890263080597
320.0,-0.00023904931731522083
352.0,-0.00040244459523819387
384.0,-0.00029996855300851166
416.0,9.548378147883341e-05
448.0,-0.0002592177188489586
480.0,-0.0006716417265124619
512.0,-0.0004360289021860808
576.0,-0.0004371048999018967
640.0,9.84954895102419e-05
704.0,0.00025744782760739326
768.0,0.0007423486094921827
832.0,0.0015009983908385038
896.0,0.00143431278411299
960.0,0.0005138966371305287
1024.0,-0.00042768477578647435
1152.0,0.0008826949633657932
1280.0,0.001958586974069476
1408.0,0.0011408135760575533
1536.0,-0.0013760923175141215
1664.0,-0.0007055734167806804
1792.0,9.827269241213799e-05
1920.0,0.0006016390398144722
2048.0,0.0013894644798710942
2304.0,-0.0001910127029987052
2560.0,-0.00032450378057546914
2816.0,-0.001326988567598164
3072.0,0.0006363184656947851
3328.0,0.003047197824344039
3584.0,-0.0005783259402960539
3840.0,-0.00018185262160841376
4096.0,-0.001459500752389431
4608.0,0.0005023787380196154
5120.0,0.0010424647480249405
5632.0,0.0015628284309059381
6144.0,-0.0016814080299809575
6656.0,-6.8621297941717785e-06
7168.0,-0.0014968548202887177
7680.0,-0.0005581116420216858
8192.0,0.0004985934938304126
9216.0,-0.000966036575846374
10240.0,-0.0022362475283443928
11264.0,-0.0014062796253710985
12288.0,-0.0006848524208180606
13312.0,-0.00021424112492240965
14336.0,0.0008197405259124935
end
