version,3.0
numOfCh,1
type,point
parent_name,10-cuts
ch_type,1_1
kcount,1
numberNandB,1
brightnessNandB,1
carpet pos,0
pc,0
Time (ms),CH1 Auto-Correlation
1.0,0.024196220561861992
2.0,0.023794084787368774
3.0,0.023424344137310982
4.0,0.023057615384459496
5.0,0.02269645221531391
6.0,0.02234569378197193
7.0,0.022002138197422028
8.0,0.02165738306939602
9.0,0.02132367342710495
10.0,0.02099086530506611
11.0,0.02066572941839695
12.0,0.020338501781225204
13.0,0.02002061903476715
14.0,0.01971481926739216
15.0,0.019418654963374138
16.0,0.01912517100572586
18.0,0.01857217215001583
20.0,0.018051939085125923
22.0,0.01757947914302349
24.0,0.017129449173808098
26.0,0.016704877838492393
28.0,0.016305191442370415
30.0,0.015932753682136536
32.0,0.015583736822009087
36.0,0.01491995994001627
40.0,0.014280017465353012
44.0,0.013709494844079018
48.0,0.013172970153391361
52.0,0.012675806879997253
56.0,0.01225773710757494
60.0,0.011927388608455658
64.0,0.011642159894108772
72.0,0.01116905827075243
80.0,0.010688097216188908
88.0,0.010226400569081306
96.0,0.00980027299374342
104.0,0.009312613867223263
112.0,0.00880847591906786
120.0,0.008313492871820927
128.0,0.007719625718891621
144.0,0.006599727086722851
160.0,0.00572945736348629
176.0,0.005321820266544819
192.0,0.0050635673105716705
208.0,0.004659698344767094
224.0,0.003924231044948101
240.0,0.003427047049626708
256.0,0.0031190277077257633
288.0,0.0028957228641957045
320.0,0.0029530946630984545
352.0,0.003464966081082821
384.0,0.0035796589218080044
416.0,0.0032451406586915255
448.0,0.003684057854115963
480.0,0.0034815019462257624
512.0,0.0024587963707745075
576.0,0.0025680288672447205
640.0,0.0016666802112013102
704.0,0.0020159685518592596
768.0,0.0014552443753927946
832.0,-2.0862089513684623e-05
896.0,-0.0006113943527452648
960.0,-0.0014853080501779914
1024.0,-0.0023114560171961784
1152.0,-0.0026634137611836195
1280.0,-0.0016588945873081684
1408.0,-0.0005548314074985683
1536.0,-0.0011753247817978263
1664.0,-0.0018887899350374937
1792.0,-0.001197940087877214
1920.0,-0.002785838907584548
2048.0,-0.0036425995640456676
2304.0,-0.0016956711187958717
2560.0,-0.002393066417425871
2816.0,-0.0006045792833901942
3072.0,-0.0005837759235873818
3328.0,8.693969721207395e-05
3584.0,-0.00047907480620779097
3840.0,0.0018974312115460634
4096.0,0.0030331334564834833
4608.0,0.0030449642799794674
5120.0,-0.0012640801724046469
5632.0,-0.002277119318023324
6144.0,-0.0013111194130033255
6656.0,-0.002428729087114334
7168.0,-0.002146659418940544
7680.0,-0.0008121267892420292
8192.0,-0.00031416479032486677
9216.0,0.0005294741131365299
10240.0,-0.002206480363383889
11264.0,0.001779154292307794
12288.0,0.0039057584945112467
13312.0,-0.0013943506637588143
14336.0,-0.0051633017137646675
end
