version,3.0
numOfCh,1
type,point
parent_name,10-cuts
ch_type,1_1
kcount,1
numberNandB,1
brightnessNandB,1
carpet pos,0
pc,0
Time (ms),CH1 Auto-Correlation
1.0,0.02090326137840748
2.0,0.020507067441940308
3.0,0.020116016268730164
4.0,0.019728537648916245
5.0,0.01935509778559208
6.0,0.018987249583005905
7.0,0.018636789172887802
8.0,0.018291965126991272
9.0,0.01796177588403225
10.0,0.017637362703680992
11.0,0.017320141196250916
12.0,0.01700073853135109
13.0,0.016681887209415436
14.0,0.0163558479398489
15.0,0.0160466730594635
16.0,0.015749197453260422
18.0,0.015191107988357544
20.0,0.014662284404039383
22.0,0.014136751182377338
24.0,0.013655375689268112
26.0,0.013211383484303951
28.0,0.012822055257856846
30.0,0.012481516227126122
32.0,0.012162777595221996
36.0,0.011560303159058094
40.0,0.010984061285853386
44.0,0.01045250054448843
48.0,0.009953303262591362
52.0,0.009413691237568855
56.0,0.008879516273736954
60.0,0.008370544761419296
64.0,0.007867478765547276
72.0,0.007006113883107901
80.0,0.006376437842845917
88.0,0.005784396082162857
96.0,0.005328887142241001
104.0,0.004915040452033281
112.0,0.004476257599890232
120.0,0.004070974886417389
128.0,0.0037411656230688095
144.0,0.003091005841270089
160.0,0.002356633311137557
176.0,0.0020118458196520805
192.0,0.001931570004671812
208.0,0.0017921696417033672
224.0,0.0013734737876802683
240.0,0.0009394540102221072
256.0,0.0004564855480566621
288.0,3.81443569494877e-05
320.0,0.0003096300351899117
352.0,0.0004768547078128904
384.0,0.00027746608247980475
416.0,-0.0004869361291639507
448.0,-0.0006064813351258636
480.0,-0.0003917011199519038
512.0,-0.00013053673319518566
576.0,0.0009162912028841674
640.0,0.000343877705745399
704.0,-0.0006614738376811147
768.0,-0.0002458806848153472
832.0,0.0002220489550381899
896.0,-0.00047623092541471124
960.0,-0.0011118028778582811
1024.0,-0.0018797932425513864
1152.0,0.00035986845614388585
1280.0,0.0003681052476167679
1408.0,-8.024203998502344e-05
1536.0,-0.0010259936098009348
1664.0,-0.00017383669910486788
1792.0,0.0009457627893425524
1920.0,0.0016242580022662878
2048.0,0.0003728500159922987
2304.0,-0.0009313933551311493
2560.0,-0.0011827003909274936
2816.0,-0.0005557998665608466
3072.0,-0.000915556971449405
3328.0,-0.0019979015924036503
3584.0,-0.0005519692203961313
3840.0,0.0003053851251024753
4096.0,-0.0006705902051180601
4608.0,-0.00047488685231655836
5120.0,0.0010953530436381698
5632.0,-0.0003897033748216927
6144.0,0.0003027358034159988
6656.0,-0.000251172372372821
7168.0,0.0010668043978512287
7680.0,-0.0013663024874404073
8192.0,-6.783218850614503e-05
9216.0,-0.00030238612089306116
10240.0,-0.00019335487741045654
11264.0,-0.0009788848692551255
12288.0,-0.0019790108781307936
13312.0,0.0023993379436433315
14336.0,-0.0001278367853956297
end
