version,3.0
numOfCh,1
type,point
parent_name,10-cuts
ch_type,1_1
kcount,1
numberNandB,1
brightnessNandB,1
carpet pos,0
pc,0
Time (ms),CH1 Auto-Correlation
1.0,0.05810436233878136
2.0,0.056907638907432556
3.0,0.055746376514434814
4.0,0.05460544303059578
5.0,0.05346686393022537
6.0,0.052350182086229324
7.0,0.05128597840666771
8.0,0.05026661232113838
9.0,0.04927637800574303
10.0,0.0483049638569355
11.0,0.04733932390809059
12.0,0.04639340192079544
13.0,0.045480143278837204
14.0,0.04457873851060867
15.0,0.04369817301630974
16.0,0.04284565523266792
18.0,0.041267286986112595
20.0,0.03974307328462601
22.0,0.038214027881622314
24.0,0.03674139082431793
26.0,0.03529556840658188
28.0,0.03392281010746956
30.0,0.03265288472175598
32.0,0.0314781628549099
36.0,0.02922664023935795
40.0,0.02726195938885212
44.0,0.02562745288014412
48.0,0.024120956659317017
52.0,0.022703994065523148
56.0,0.021368103101849556
60.0,0.020113084465265274
64.0,0.018984824419021606
72.0,0.017302358523011208
80.0,0.016349583864212036
88.0,0.015096752904355526
96.0,0.013517347164452076
104.0,0.011821302585303783
112.0,0.01004418171942234
120.0,0.008409388363361359
128.0,0.006817329209297895
144.0,0.004590650554746389
160.0,0.003593785921111703
176.0,0.0027130984235554934
192.0,0.0031208787113428116
208.0,0.0037049970123916864
224.0,0.0029753409326076508
240.0,0.0014776161406189203
256.0,-0.00015401309065055102
288.0,-0.0008447524742223322
320.0,-0.0028430246748030186
352.0,-0.0031496649608016014
384.0,-0.0017482086550444365
416.0,0.0004413361893966794
448.0,0.0024514752440154552
480.0,0.0032117925584316254
512.0,0.004002004396170378
576.0,0.006023507099598646
640.0,0.003736072452738881
704.0,0.0009973628912121058
768.0,0.0001556786010041833
832.0,-0.0008321334607899189
896.0,-0.002792194252833724
960.0,-0.0016734465025365353
1024.0,0.0015703885583207011
1152.0,0.005509631708264351
1280.0,0.00552140548825264
1408.0,0.002987492363899946
1536.0,-0.0008620532462373376
1664.0,-0.0016079375054687262
1792.0,0.0005836226628161967
1920.0,0.0022168217692524195
2048.0,-0.002331160707399249
2304.0,-7.384196942439303e-05
2560.0,0.0026819356717169285
2816.0,0.0001992895413422957
3072.0,0.0018882525619119406
3328.0,0.0014560648705810308
3584.0,3.205184839316644e-05
3840.0,0.00499497028067708
4096.0,-0.003241714322939515
4608.0,0.0002415933704469353
5120.0,-0.002127927029505372
5632.0,-0.003747253678739071
6144.0,-0.005815254990011454
6656.0,-0.0020423568785190582
7168.0,-0.005195419304072857
7680.0,-0.0012270789593458176
8192.0,-0.0012377484235912561
9216.0,-0.0022010826505720615
10240.0,-0.00137029227335006
11264.0,-0.001012045075185597
12288.0,0.0009431160870008171
13312.0,0.004199125804007053
14336.0,0.0035405661910772324
end
