version,3.0
numOfCh,1
type,point
parent_name,10-cuts
ch_type,1_1
kcount,1
numberNandB,1
brightnessNandB,1
carpet pos,0
pc,0
Time (ms),CH1 Auto-Correlation
1.0,0.026906348764896393
2.0,0.026469586417078972
3.0,0.02604743093252182
4.0,0.025649871677160263
5.0,0.025260835886001587
6.0,0.024895740672945976
7.0,0.024552732706069946
8.0,0.02422148920595646
9.0,0.023889688774943352
10.0,0.023561663925647736
11.0,0.023236436769366264
12.0,0.02291993796825409
13.0,0.022611696273088455
14.0,0.022314488887786865
15.0,0.02202437072992325
16.0,0.02173811011016369
18.0,0.021213961765170097
20.0,0.02070191130042076
22.0,0.020205780863761902
24.0,0.01973157562315464
26.0,0.019283760339021683
28.0,0.018866227939724922
30.0,0.018468977883458138
32.0,0.018103692680597305
36.0,0.01739640347659588
40.0,0.0167112797498703
44.0,0.016018539667129517
48.0,0.015332059934735298
52.0,0.014655784703791142
56.0,0.014081819914281368
60.0,0.013554729521274567
64.0,0.013098265044391155
72.0,0.01225231122225523
80.0,0.011269715614616871
88.0,0.010159489698708057
96.0,0.009209905751049519
104.0,0.008477156050503254
112.0,0.007842066697776318
120.0,0.007360947784036398
128.0,0.0069299801252782345
144.0,0.006510266102850437
160.0,0.006342738401144743
176.0,0.006408782675862312
192.0,0.006753705441951752
208.0,0.006740014534443617
224.0,0.006578829139471054
240.0,0.006500606425106525
256.0,0.006282329093664885
288.0,0.0053541529923677444
320.0,0.004115820396691561
352.0,0.0032213402446359396
384.0,0.002850316232070327
416.0,0.002330400515347719
448.0,0.002500820904970169
480.0,0.002646076027303934
512.0,0.0024819672107696533
576.0,0.001587158185429871
640.0,0.0008215358830057085
704.0,0.0025499043986201286
768.0,0.002829856239259243
832.0,0.0024542026221752167
896.0,0.0012753315968438983
960.0,0.0005923582357354462
1024.0,0.0008628213545307517
1152.0,0.003085523145273328
1280.0,0.003872528439387679
1408.0,0.0038175457157194614
1536.0,0.004496653098613024
1664.0,0.00296583934687078
1792.0,0.000901872874237597
1920.0,0.001334897824563086
2048.0,0.001621947274543345
2304.0,0.0014034315245226026
2560.0,0.0018572757253423333
2816.0,0.00045332967420108616
3072.0,0.000154245673911646
3328.0,0.0004993873881176114
3584.0,0.0016886969096958637
3840.0,0.0022571547888219357
4096.0,0.002919565187767148
4608.0,-0.0004181867407169193
5120.0,-0.0005731125711463392
5632.0,0.0013283758889883757
6144.0,-0.0009587827371433377
6656.0,-0.004113393370062113
7168.0,-0.0045770746655762196
7680.0,-0.005456516053527594
8192.0,-0.0031315821688622236
9216.0,-0.004567830357700586
10240.0,-0.0015296367928385735
11264.0,-0.0009196741739287972
12288.0,-0.0035798726603388786
13312.0,-0.004402445629239082
14336.0,0.0019469818798825145
end
