version,3.0
numOfCh,1
type,point
parent_name,10-cuts
ch_type,1_1
kcount,1
numberNandB,1
brightnessNandB,1
carpet pos,0
pc,0
Time (ms),CH1 Auto-Correlation
1.0,0.0196952186524868
2.0,0.019300563260912895
3.0,0.01891663484275341
4.0,0.01855553314089775
5.0,0.0182205643504858
6.0,0.01790444739162922
7.0,0.017603125423192978
8.0,0.017308244481682777
9.0,0.017012841999530792
10.0,0.01671857386827469
11.0,0.016432736068964005
12.0,0.016145136207342148
13.0,0.015870561823248863
14.0,0.015605277381837368
15.0,0.015341655351221561
16.0,0.01507608499377966
18.0,0.014576987363398075
20.0,0.014105860143899918
22.0,0.013674436137080193
24.0,0.013275743462145329
26.0,0.012915004976093769
28.0,0.012564275413751602
30.0,0.012217151932418346
32.0,0.011895374394953251
36.0,0.011302143335342407
40.0,0.0107125798240304
44.0,0.01009159255772829
48.0,0.009460488334298134
52.0,0.00886323768645525
56.0,0.008285176008939743
60.0,0.007803432643413544
64.0,0.007372667081654072
72.0,0.006693294737488031
80.0,0.006099577061831951
88.0,0.0055062780156731606
96.0,0.005093067418783903
104.0,0.004723060876131058
112.0,0.0043736412189900875
120.0,0.004029056988656521
128.0,0.0036576453130692244
144.0,0.0034233226906508207
160.0,0.0036501227878034115
176.0,0.00372766493819654
192.0,0.0036793819162994623
208.0,0.003291367320343852
224.0,0.0028935978189110756
240.0,0.002687168773263693
256.0,0.002610010327771306
288.0,0.002239145338535309
320.0,0.0015456677647307515
352.0,0.0011538054095581174
384.0,0.0012422894360497594
416.0,0.0012074433034285903
448.0,0.0012608899269253016
480.0,0.0013756337575614452
512.0,0.0015938852448016405
576.0,0.0013744456227868795
640.0,0.0009338098461739719
704.0,-0.0007254722877405584
768.0,-0.0016140728257596493
832.0,-0.0004320216248743236
896.0,-0.00016243044228758663
960.0,-0.0009636470931582153
1024.0,7.496923899452668e-06
1152.0,-0.0006194956949912012
1280.0,-0.0014343296643346548
1408.0,-0.0014044971903786063
1536.0,-0.0018193230498582125
1664.0,-0.002080407692119479
1792.0,-0.00173985178116709
1920.0,-0.0003238094795960933
2048.0,5.1501483540050685e-05
2304.0,0.001263594371266663
2560.0,0.001915495377033949
2816.0,0.0012205218663439155
3072.0,0.0007607363513670862
3328.0,-0.0002123768354067579
3584.0,-0.001271455897949636
3840.0,-0.001954367384314537
4096.0,-0.0004081935912836343
4608.0,5.634664830722613e-06
5120.0,0.0004055388271808624
5632.0,-0.0006539723253808916
6144.0,-0.00017965544247999787
6656.0,0.0011473726481199265
7168.0,0.001078606117516756
7680.0,0.0005073290667496622
8192.0,-0.0014037474757060409
9216.0,0.0009214787860400975
10240.0,-0.0012825564481317997
11264.0,-0.002735892776399851
12288.0,-0.0005387267447076738
13312.0,-0.0013715733075514436
14336.0,-0.0005683637573383749
end
