version,3.0
numOfCh,1
type,point
parent_name,10-cuts
ch_type,1_1
kcount,1
numberNandB,1
brightnessNandB,1
carpet pos,0
pc,0
Time (ms),CH1 Auto-Correlation
1.0,0.022740572690963745
2.0,0.022148756310343742
3.0,0.021579207852482796
4.0,0.02102353423833847
5.0,0.02049044892191887
6.0,0.01998046040534973
7.0,0.01947755552828312
8.0,0.018990596756339073
9.0,0.01852264255285263
10.0,0.018076788634061813
11.0,0.017650559544563293
12.0,0.01723288744688034
13.0,0.0168362595140934
14.0,0.01646534726023674
15.0,0.01610095053911209
16.0,0.015763280913233757
18.0,0.015130066312849522
20.0,0.014560324139893055
22.0,0.01401191484183073
24.0,0.013514677993953228
26.0,0.01306290365755558
28.0,0.012627876363694668
30.0,0.012241579592227936
32.0,0.01186130940914154
36.0,0.011179408058524132
40.0,0.010631397366523743
44.0,0.010110718198120594
48.0,0.009654437191784382
52.0,0.009232928976416588
56.0,0.008880583569407463
60.0,0.0085123460739851
64.0,0.008129590190947056
72.0,0.007376114372164011
80.0,0.00684028584510088
88.0,0.006457644049078226
96.0,0.006106621585786343
104.0,0.005785270594060421
112.0,0.005617619026452303
120.0,0.0054243928752839565
128.0,0.005033615976572037
144.0,0.004429259337484837
160.0,0.003907421603798866
176.0,0.0037028754595667124
192.0,0.0034995803143829107
208.0,0.0031572815496474504
224.0,0.0025082388892769814
240.0,0.0020146130118519068
256.0,0.0014615664258599281
288.0,0.0003091343678534031
320.0,7.862126949476078e-05
352.0,-0.00015486071060877293
384.0,-0.00039722639485262334
416.0,-0.00039424633723683655
448.0,-0.0006536159780807793
480.0,-0.000821551016997546
512.0,-0.0010081561049446464
576.0,-0.0004915271420031786
640.0,-0.000374683178961277
704.0,-0.00030710030114278197
768.0,-4.365088443591958e-06
832.0,-0.0004755599657073617
896.0,-0.00027821119874715805
960.0,-0.0013883766951039433
1024.0,-0.001427110400982201
1152.0,-0.0013853148557245731
1280.0,0.0006523980409838259
1408.0,0.001125758863054216
1536.0,-0.0010830453829839826
1664.0,-0.0019044476794078946
1792.0,-0.0012417898979038
1920.0,-0.0010621299734339118
2048.0,-2.5416602511540987e-05
2304.0,-0.0002761754731182009
2560.0,-0.000110516746644862
2816.0,-8.302219066536054e-05
3072.0,-0.0006765245925635099
3328.0,0.000591510848607868
3584.0,0.0013883851934224367
3840.0,0.001022420241497457
4096.0,-0.00034045419306494296
4608.0,-0.000977019197307527
5120.0,-0.0005544013110920787
5632.0,-0.0018991074757650495
6144.0,0.0007338655414059758
6656.0,-0.0008288018289022148
7168.0,0.00040355423698201776
7680.0,0.0011277353623881936
8192.0,3.9601589378435165e-05
9216.0,0.0002958783879876137
10240.0,0.00037042738404124975
11264.0,-0.000652021262794733
12288.0,-0.00011301758786430582
13312.0,0.0007083322270773351
14336.0,-1.2899127796117682e-05
end
