version,3.0
numOfCh,1
type,point
parent_name,10-cuts
ch_type,1_1
kcount,1
numberNandB,1
brightnessNandB,1
carpet pos,0
pc,0
Time (ms),CH1 Auto-Correlation
1.0,0.05912013351917267
2.0,0.05774041637778282
3.0,0.05639532208442688
4.0,0.05510593578219414
5.0,0.05384356901049614
6.0,0.052639205008745193
7.0,0.05149690806865692
8.0,0.05040104314684868
9.0,0.04935063421726227
10.0,0.048335518687963486
11.0,0.047368790954351425
12.0,0.04640538990497589
13.0,0.0454796738922596
14.0,0.04459098353981972
15.0,0.0436951108276844
16.0,0.042804356664419174
18.0,0.04111354053020477
20.0,0.03945479169487953
22.0,0.037876300513744354
24.0,0.036341939121484756
26.0,0.03488446772098541
28.0,0.03350100666284561
30.0,0.0321507565677166
32.0,0.030901776626706123
36.0,0.028632238507270813
40.0,0.02669142186641693
44.0,0.025021925568580627
48.0,0.023852653801441193
52.0,0.02290823496878147
56.0,0.021879540756344795
60.0,0.020637277513742447
64.0,0.019602198153734207
72.0,0.01803470589220524
80.0,0.016637412831187248
88.0,0.01541813462972641
96.0,0.014119607396423817
104.0,0.012926748022437096
112.0,0.012317687273025513
120.0,0.011807622388005257
128.0,0.011106614954769611
144.0,0.008618478663265705
160.0,0.005849319975823164
176.0,0.004117726348340511
192.0,0.0034260458778589964
208.0,0.002397762145847082
224.0,0.0017251349054276943
240.0,0.002358674770221114
256.0,0.002792932791635394
288.0,0.0038444572128355503
320.0,0.0038894102908670902
352.0,0.0011223265901207924
384.0,0.0010661372216418386
416.0,-0.0002834749757312238
448.0,-0.0013163042021915317
480.0,-0.0020493606571108103
512.0,-0.00484849140048027
576.0,-0.007866153493523598
640.0,-0.005101286806166172
704.0,-0.002104374812915921
768.0,-0.00014707757509313524
832.0,-0.0030978608410805464
896.0,-0.005596448667347431
960.0,-0.007239258848130703
1024.0,-0.008733553811907768
1152.0,-0.0012953246477991343
1280.0,4.003245339845307e-05
1408.0,0.0016355663537979126
1536.0,0.003767866874113679
1664.0,0.002527498174458742
1792.0,0.0055641899816691875
1920.0,0.005496109835803509
2048.0,0.0018440091516822577
2304.0,-0.0023020156659185886
2560.0,-0.011676554568111897
2816.0,-0.0056421696208417416
3072.0,0.004767048172652721
3328.0,0.0009028564090840518
3584.0,0.0013144860276952386
3840.0,0.0059612044133245945
4096.0,0.000586003705393523
4608.0,-0.002537104766815901
5120.0,-0.0003601227654144168
5632.0,0.004031645134091377
6144.0,-0.001996300183236599
6656.0,-0.0046170614659786224
7168.0,-0.0015328283188864589
7680.0,0.0035586466547101736
8192.0,-0.0063566952012479305
9216.0,0.0025071485433727503
10240.0,0.001182815176434815
11264.0,0.0012306880671530962
12288.0,-0.0041833119466900826
13312.0,0.0029963068664073944
14336.0,0.0018592127598822117
end
