version,3.0
numOfCh,1
type,point
parent_name,10-cuts
ch_type,1_1
kcount,1
numberNandB,1
brightnessNandB,1
carpet pos,0
pc,0
Time (ms),CH1 Auto-Correlation
1.0,0.054041095077991486
2.0,0.052870288491249084
3.0,0.05173037573695183
4.0,0.05061895400285721
5.0,0.049552131444215775
6.0,0.048523999750614166
7.0,0.04754727706313133
8.0,0.04658786952495575
9.0,0.04568367823958397
10.0,0.0448237843811512
11.0,0.04394492506980896
12.0,0.04308456555008888
13.0,0.04224080964922905
14.0,0.041430436074733734
15.0,0.040648750960826874
16.0,0.03991030156612396
18.0,0.03856859356164932
20.0,0.03729125112295151
22.0,0.0360717810690403
24.0,0.03489118814468384
26.0,0.03375522419810295
28.0,0.03265636786818504
30.0,0.031592268496751785
32.0,0.030606262385845184
36.0,0.02876119874417782
40.0,0.027091186493635178
44.0,0.025602856650948524
48.0,0.02425081841647625
52.0,0.02289649099111557
56.0,0.021687867119908333
60.0,0.0203940998762846
64.0,0.019260607659816742
72.0,0.017346451058983803
80.0,0.015491290017962456
88.0,0.013402287848293781
96.0,0.011813480406999588
104.0,0.01052470039576292
112.0,0.009409813210368156
120.0,0.00853784941136837
128.0,0.0075096976943314075
144.0,0.005762014538049698
160.0,0.004174259956926107
176.0,0.0026077611837536097
192.0,0.001528719556517899
208.0,0.001058759167790413
224.0,0.0019369357032701373
240.0,0.0022474918514490128
256.0,0.002543710172176361
288.0,0.002407472813501954
320.0,0.001905394601635635
352.0,0.002785548334941268
384.0,0.003683303249999881
416.0,0.004216782748699188
448.0,0.003077529603615403
480.0,0.0008924531284719706
512.0,-0.001604848075658083
576.0,-0.001721780514344573
640.0,-0.0033625236246734858
704.0,-0.002803881885483861
768.0,-0.0014826070982962847
832.0,0.002069847658276558
896.0,0.002584669040516019
960.0,0.0003063131298404187
1024.0,-0.0017208762001246214
1152.0,-0.002831042045727372
1280.0,-0.0017699154559522867
1408.0,0.00024738453794270754
1536.0,-0.0006496076821349561
1664.0,0.003741392632946372
1792.0,-0.0002895175130106509
1920.0,-0.005001311656087637
2048.0,-0.005307066719979048
2304.0,-0.0007572512840852141
2560.0,0.0006800539558753371
2816.0,-0.002370611997321248
3072.0,-0.0013953795423731208
3328.0,-0.004771742969751358
3584.0,-1.994506237679161e-05
3840.0,0.0020987200550734997
4096.0,0.0010724710300564766
4608.0,-0.0017129734624177217
5120.0,-0.0019277508836239576
5632.0,0.002478580456227064
6144.0,0.0014845094410702586
6656.0,-0.002331662457436323
7168.0,-0.00272066961042583
7680.0,-0.0023442122619599104
8192.0,0.0022717572282999754
9216.0,0.002520913491025567
10240.0,0.002446351805701852
11264.0,-8.178979624062777e-05
12288.0,-0.001712898607365787
13312.0,-0.0019216194050386548
14336.0,0.003900782437995076
end
