version,3.0
numOfCh,1
type,point
parent_name,10-cuts
ch_type,1_1
kcount,1
numberNandB,1
brightnessNandB,1
carpet pos,0
pc,0
Time (ms),CH1 Auto-Correlation
1.0,0.02941134385764599
2.0,0.02883188985288143
3.0,0.028270317241549492
4.0,0.02771821990609169
5.0,0.02718903124332428
6.0,0.02667786367237568
7.0,0.026168378069996834
8.0,0.02566707879304886
9.0,0.025182897225022316
10.0,0.024708179756999016
11.0,0.02422393672168255
12.0,0.02375509776175022
13.0,0.02329484187066555
14.0,0.022850096225738525
15.0,0.02243291586637497
16.0,0.022031953558325768
18.0,0.02125786431133747
20.0,0.0205254927277565
22.0,0.01984282024204731
24.0,0.019207797944545746
26.0,0.01859593763947487
28.0,0.018009115010499954
30.0,0.017456872388720512
32.0,0.0169199351221323
36.0,0.015881981700658798
40.0,0.014952941797673702
44.0,0.014077704399824142
48.0,0.013173549436032772
52.0,0.012297223322093487
56.0,0.011504106223583221
60.0,0.010798624716699123
64.0,0.010127438232302666
72.0,0.00900364201515913
80.0,0.00802357867360115
88.0,0.007196432910859585
96.0,0.0064435312524437904
104.0,0.005742506589740515
112.0,0.005004510283470154
120.0,0.0044918423518538475
128.0,0.004089087247848511
144.0,0.0027998394798487425
160.0,0.0016397573053836823
176.0,0.0010233736829832196
192.0,0.0010860796319320798
208.0,0.001191406510770321
224.0,0.0009640124044381082
240.0,0.0009051305241882801
256.0,0.0012595156440511346
288.0,0.001323309144936502
320.0,0.0013819850282743573
352.0,0.0003630031133070588
384.0,0.00018578644085209817
416.0,0.0002848365984391421
448.0,0.0001159865569206886
480.0,0.00043960937182419
512.0,0.0003550758701749146
576.0,-0.00031841068994253874
640.0,-0.0008971888455562294
704.0,-0.0008045066497288644
768.0,0.0006653422024101019
832.0,0.0007492744480259717
896.0,-0.0002632623363751918
960.0,-0.0021170086693018675
1024.0,-0.0019377106800675392
1152.0,0.00014354901213664562
1280.0,0.00024697399931028485
1408.0,-0.0013688071630895138
1536.0,-0.0009592099813744426
1664.0,0.0006920406594872475
1792.0,0.002595505677163601
1920.0,0.0038550524041056633
2048.0,0.0011890563182532787
2304.0,0.0012226254912093282
2560.0,-0.00018825971346814185
2816.0,-0.001871927990578115
3072.0,-0.00033708522096276283
3328.0,-0.0011030356399714947
3584.0,0.0008192526292987168
3840.0,0.0012895632535219193
4096.0,0.00016789858636911958
4608.0,-0.00020880706142634153
5120.0,0.0017053212504833937
5632.0,0.0005471931071951985
6144.0,-0.00011829778668470681
6656.0,-0.0018366283038631082
7168.0,-0.0007783063920214772
7680.0,-0.0014476458309218287
8192.0,-0.0025523980148136616
9216.0,-0.0009035500115714967
10240.0,0.0002602304157335311
11264.0,-0.000654305680654943
12288.0,-0.002733295550569892
13312.0,-0.000546448165550828
14336.0,-0.0014976911479607224
end
