version,3.0
numOfCh,1
type,point
parent_name,10-cuts
ch_type,1_1
kcount,1
numberNandB,1
brightnessNandB,1
carpet pos,0
pc,0
Time (ms),CH1 Auto-Correlation
1.0,0.0337560661137104
2.0,0.033169813454151154
3.0,0.03260260075330734
4.0,0.032040491700172424
5.0,0.03148101642727852
6.0,0.030960889533162117
7.0,0.03047172911465168
8.0,0.029996084049344063
9.0,0.029541300609707832
10.0,0.02907191775739193
11.0,0.028619542717933655
12.0,0.028188887983560562
13.0,0.027778703719377518
14.0,0.027351047843694687
15.0,0.02693002112209797
16.0,0.026531770825386047
18.0,0.02576429955661297
20.0,0.025039810687303543
22.0,0.02435820735991001
24.0,0.02369862049818039
26.0,0.023059675469994545
28.0,0.022444631904363632
30.0,0.02186068519949913
32.0,0.021259846165776253
36.0,0.02015255019068718
40.0,0.019228382036089897
44.0,0.01840064488351345
48.0,0.017628023400902748
52.0,0.016902582719922066
56.0,0.01623109169304371
60.0,0.01564710959792137
64.0,0.015198756009340286
72.0,0.014351597055792809
80.0,0.01340068131685257
88.0,0.012364626862108707
96.0,0.011514406651258469
104.0,0.010912381112575531
112.0,0.01040499098598957
120.0,0.009902349673211575
128.0,0.00946061871945858
144.0,0.008280806243419647
160.0,0.007399488240480423
176.0,0.0066490257158875465
192.0,0.005751656834036112
208.0,0.00514465756714344
224.0,0.004494197200983763
240.0,0.003856975818052888
256.0,0.0035858137998729944
288.0,0.002752139000222087
320.0,0.002994260750710964
352.0,0.003548538079485297
384.0,0.0033984000328928232
416.0,0.003174364101141691
448.0,0.002951807575300336
480.0,0.0032705769408494234
512.0,0.003077208762988448
576.0,0.00032196013489738107
640.0,-0.0012992002302780747
704.0,-0.0024195462465286255
768.0,-0.00299813412129879
832.0,-0.0018586505902931094
896.0,-0.0008090327028185129
960.0,-0.0012604554649442434
1024.0,-0.0008097682730294764
1152.0,-0.0015172308776527643
1280.0,-0.0013604663545265794
1408.0,-0.0018019166309386492
1536.0,0.0007846335647627711
1664.0,0.0031061323825269938
1792.0,0.0007709851488471031
1920.0,-0.0017747937235981226
2048.0,-0.0002928789472207427
2304.0,0.0003872973029501736
2560.0,0.0007956803310662508
2816.0,-0.0018296445487067103
3072.0,-0.00023296562721952796
3328.0,0.002337008249014616
3584.0,0.001844546990469098
3840.0,0.001379341701976955
4096.0,0.0010639720130711794
4608.0,-0.0026713828556239605
5120.0,-0.003887428669258952
5632.0,-0.0037008754443377256
6144.0,-0.0010548183927312493
6656.0,0.001612587831914425
7168.0,-0.0017947796732187271
7680.0,0.0005373525782488286
8192.0,-0.0008676486904732883
9216.0,-0.0023527389857918024
10240.0,0.0032357878517359495
11264.0,0.0007629162864759564
12288.0,-0.001105336588807404
13312.0,-0.0009226801339536905
14336.0,0.005021324846893549
end
