version,3.0
numOfCh,1
type,point
parent_name,10-cuts
ch_type,1_1
kcount,1
numberNandB,1
brightnessNandB,1
carpet pos,0
pc,0
Time (ms),CH1 Auto-Correlation
1.0,0.0700196772813797
2.0,0.06877104192972183
3.0,0.06755669414997101
4.0,0.0664287880063057
5.0,0.0653715580701828
6.0,0.06434481590986252
7.0,0.06334957480430603
8.0,0.06239732354879379
9.0,0.06150388345122337
10.0,0.06063587963581085
11.0,0.05979033187031746
12.0,0.058946892619132996
13.0,0.05814937874674797
14.0,0.05736389756202698
15.0,0.05666773393750191
16.0,0.05600661411881447
18.0,0.05476249009370804
20.0,0.053591303527355194
22.0,0.052453722804784775
24.0,0.05130431428551674
26.0,0.050239596515893936
28.0,0.04921431466937065
30.0,0.048117853701114655
32.0,0.04696488752961159
36.0,0.04494449868798256
40.0,0.04323459789156914
44.0,0.04180631414055824
48.0,0.04046349972486496
52.0,0.03899841010570526
56.0,0.03748447820544243
60.0,0.036104194819927216
64.0,0.03487761318683624
72.0,0.0325971283018589
80.0,0.030634993687272072
88.0,0.028742581605911255
96.0,0.02678845264017582
104.0,0.024914393201470375
112.0,0.023829588666558266
120.0,0.023439373821020126
128.0,0.0227966345846653
144.0,0.02072245627641678
160.0,0.018725059926509857
176.0,0.016913650557398796
192.0,0.014249627478420734
208.0,0.01204514317214489
224.0,0.01073413249105215
240.0,0.009706919081509113
256.0,0.009021474979817867
288.0,0.009586865082383156
320.0,0.009453182108700275
352.0,0.0078858258202672
384.0,0.008163456805050373
416.0,0.008896679617464542
448.0,0.00682641239836812
480.0,0.005348190665245056
512.0,0.0042318254709243774
576.0,0.0032656765542924404
640.0,0.005106816068291664
704.0,0.008647252805531025
768.0,0.0051880571991205215
832.0,0.0027009877376258373
896.0,-0.0017937873490154743
960.0,-0.0032690914813429117
1024.0,0.0010625016875565052
1152.0,0.004148305859416723
1280.0,-0.001167637761682272
1408.0,-0.008354184217751026
1536.0,-0.01418574433773756
1664.0,-0.012673868797719479
1792.0,-0.010160102508962154
1920.0,-0.0120680658146739
2048.0,-0.014032421633601189
2304.0,-0.011929024010896683
2560.0,-0.010496499948203564
2816.0,-0.0032018176279962063
3072.0,0.002777055837213993
3328.0,0.0018966812640428543
3584.0,0.004449291620403528
3840.0,0.008959179744124413
4096.0,0.00972944125533104
4608.0,0.0036217549350112677
5120.0,0.0014333492144942284
5632.0,0.00042844461859203875
6144.0,-0.0016831730026751757
6656.0,-0.0041520725935697556
7168.0,0.0004781703173648566
7680.0,-0.004098984412848949
8192.0,-0.002712318440899253
9216.0,-0.0028556750621646643
10240.0,-0.0010254511144012213
11264.0,-4.467428516363725e-05
12288.0,0.0004479692433960736
13312.0,-0.002268951153382659
14336.0,-0.0016562162199988961
end
