version,3.0
numOfCh,1
type,point
parent_name,10-cuts
ch_type,1_1
kcount,1
numberNandB,1
brightnessNandB,1
carpet pos,0
pc,0
Time (ms),CH1 Auto-Correlation
1.0,0.03111390955746174
2.0,0.030536485835909843
3.0,0.02997749112546444
4.0,0.029426584020256996
5.0,0.028897132724523544
6.0,0.028370240703225136
7.0,0.02786104939877987
8.0,0.027357524260878563
9.0,0.026864973828196526
10.0,0.026392189785838127
11.0,0.025944720953702927
12.0,0.025518087670207024
13.0,0.025126609951257706
14.0,0.024757079780101776
15.0,0.024385523051023483
16.0,0.024029245600104332
18.0,0.02336728200316429
20.0,0.022704320028424263
22.0,0.02206742949783802
24.0,0.021471548825502396
26.0,0.020907647907733917
28.0,0.02037716470658779
30.0,0.019859472289681435
32.0,0.019356001168489456
36.0,0.018383031710982323
40.0,0.017448576167225838
44.0,0.01655437797307968
48.0,0.01579599827528
52.0,0.015105067752301693
56.0,0.014424375258386135
60.0,0.01366044394671917
64.0,0.012906945310533047
72.0,0.011913417838513851
80.0,0.01133865024894476
88.0,0.010770625434815884
96.0,0.010183678939938545
104.0,0.00963040255010128
112.0,0.009312894195318222
120.0,0.009130981750786304
128.0,0.008899563923478127
144.0,0.007922425866127014
160.0,0.007054734043776989
176.0,0.006107129156589508
192.0,0.005512423813343048
208.0,0.0053242226131260395
224.0,0.005182328168302774
240.0,0.005222948733717203
256.0,0.0053118453361094
288.0,0.00529063306748867
320.0,0.004630588460713625
352.0,0.0032419478520751
384.0,0.0019927883986383677
416.0,0.0017074219649657607
448.0,0.0015254439786076546
480.0,0.0013054049341008067
512.0,0.0007175042410381138
576.0,0.0009039545548148453
640.0,-0.000285694986814633
704.0,-0.002488260855898261
768.0,-0.002061803126707673
832.0,-0.0022023762576282024
896.0,-0.0016564381076022983
960.0,-0.0026827813126146793
1024.0,-0.001913487329147756
1152.0,-0.0025681504048407078
1280.0,-0.0024316839408129454
1408.0,-0.0012640912318602204
1536.0,-0.0004120371595490724
1664.0,-0.0005884957499802113
1792.0,-0.0012561853509396315
1920.0,-5.487365706358105e-05
2048.0,0.0013123700628057122
2304.0,0.004213626030832529
2560.0,0.0025356963742524385
2816.0,0.000997484545223415
3072.0,0.00046216027112677693
3328.0,0.000453057000413537
3584.0,0.0012495630653575063
3840.0,-0.0009311942267231643
4096.0,-0.003439373103901744
4608.0,-0.0010409582173451781
5120.0,8.642630564281717e-05
5632.0,0.0006750903557986021
6144.0,-0.002165462588891387
6656.0,-0.004191377200186253
7168.0,0.0011677345028147101
7680.0,0.0006675149197690189
8192.0,-0.0023256789427250624
9216.0,-0.0014777501346543431
10240.0,-0.0008358780178241432
11264.0,1.5031793736852705e-05
12288.0,0.001537846284918487
13312.0,0.00018454865494277328
14336.0,0.0014614410465583205
end
