version,3.0
numOfCh,1
type,point
parent_name,10-cuts
ch_type,1_1
kcount,1
numberNandB,1
brightnessNandB,1
carpet pos,0
pc,0
Time (ms),CH1 Auto-Correlation
1.0,0.05478528514504433
2.0,0.053627099841833115
3.0,0.05251084640622139
4.0,0.05142424628138542
5.0,0.05035151168704033
6.0,0.04932040721178055
7.0,0.048308830708265305
8.0,0.04733285680413246
9.0,0.046369921416044235
10.0,0.04543515294790268
11.0,0.044527724385261536
12.0,0.043664246797561646
13.0,0.04282033070921898
14.0,0.04200871288776398
15.0,0.041194453835487366
16.0,0.04039781540632248
18.0,0.03891243785619736
20.0,0.037484221160411835
22.0,0.03614082187414169
24.0,0.034878477454185486
26.0,0.033660367131233215
28.0,0.03249769285321236
30.0,0.03141948580741882
32.0,0.030372751876711845
36.0,0.02844005450606346
40.0,0.02662019245326519
44.0,0.02510904148221016
48.0,0.02377478778362274
52.0,0.022445304319262505
56.0,0.021250372752547264
60.0,0.02023397386074066
64.0,0.0192328579723835
72.0,0.01732623763382435
80.0,0.015731556341052055
88.0,0.014674823731184006
96.0,0.014186976477503777
104.0,0.013504842296242714
112.0,0.012620474211871624
120.0,0.011828362941741943
128.0,0.010926619172096252
144.0,0.009447235614061356
160.0,0.009074336849153042
176.0,0.008143563754856586
192.0,0.006835613399744034
208.0,0.005520529579371214
224.0,0.004886128474026918
240.0,0.0039123659953475
256.0,0.0035522007383406162
288.0,0.005584146827459335
320.0,0.0070820460096001625
352.0,0.008342336863279343
384.0,0.009999645873904228
416.0,0.0087574552744627
448.0,0.006329824682325125
480.0,0.003652092767879367
512.0,0.002109035151079297
576.0,-0.0026378240436315536
640.0,-0.0027382071129977703
704.0,-0.005237409379333258
768.0,-0.005221081897616386
832.0,-0.003251406829804182
896.0,-0.004031618125736713
960.0,-0.005251249764114618
1024.0,-0.0035527374129742384
1152.0,-0.004405087325721979
1280.0,-0.0056380825117230415
1408.0,-0.0007095353794284165
1536.0,0.0015909294597804546
1664.0,-2.476818553986959e-05
1792.0,-0.0038835974410176277
1920.0,0.0001395308063365519
2048.0,5.612488530459814e-05
2304.0,-0.002788028446957469
2560.0,-0.006307926494628191
2816.0,-0.0026820183265954256
3072.0,-0.0009089059894904494
3328.0,0.000754974375013262
3584.0,-0.0005374857573769987
3840.0,0.0010723377345129848
4096.0,0.002303477143868804
4608.0,-0.0032332362607121468
5120.0,0.00038963096449151635
5632.0,0.0036714503075927496
6144.0,0.0018181439954787493
6656.0,-0.0017356713069602847
7168.0,0.003747255075722933
7680.0,0.005057206377387047
8192.0,-0.0009762693080119789
9216.0,-0.003473932622000575
10240.0,-0.00195913203060627
11264.0,0.0018511353991925716
12288.0,0.003583587473258376
13312.0,0.0005688479286618531
14336.0,-0.0042573027312755585
end
