version,3.0
numOfCh,1
type,point
parent_name,10-cuts
ch_type,1_1
kcount,1
numberNandB,1
brightnessNandB,1
carpet pos,0
pc,0
Time (ms),CH1 Auto-Correlation
1.0,0.022166641429066658
2.0,0.021783925592899323
3.0,0.021416261792182922
4.0,0.021060345694422722
5.0,0.020718684419989586
6.0,0.020390741527080536
7.0,0.020072896033525467
8.0,0.019766097888350487
9.0,0.0194681528955698
10.0,0.01918271742761135
11.0,0.018903162330389023
12.0,0.018630528822541237
13.0,0.018361803144216537
14.0,0.018098898231983185
15.0,0.017836501821875572
16.0,0.01757965050637722
18.0,0.017089368775486946
20.0,0.016632942482829094
22.0,0.016213662922382355
24.0,0.015814827755093575
26.0,0.015422241762280464
28.0,0.015052645467221737
30.0,0.014698869548738003
32.0,0.014323531650006771
36.0,0.013592937961220741
40.0,0.012948127463459969
44.0,0.01236303523182869
48.0,0.011849148198962212
52.0,0.011450470425188541
56.0,0.011075735092163086
60.0,0.01069958508014679
64.0,0.010287630371749401
72.0,0.009439697489142418
80.0,0.008615047670900822
88.0,0.007869680412113667
96.0,0.007218807470053434
104.0,0.0066865794360637665
112.0,0.006280480418354273
120.0,0.00592096196487546
128.0,0.005441552028059959
144.0,0.0047624423168599606
160.0,0.004349384922534227
176.0,0.00408478919416666
192.0,0.00396325159817934
208.0,0.003937931731343269
224.0,0.0038307514041662216
240.0,0.003795255906879902
256.0,0.0037331292405724525
288.0,0.0036720409989356995
320.0,0.0037248472217470407
352.0,0.00342956418171525
384.0,0.0029213689267635345
416.0,0.002742091193795204
448.0,0.0022838637232780457
480.0,0.0016391669632866979
512.0,0.0013015037402510643
576.0,0.00040505381184630096
640.0,0.00012353893544059247
704.0,-0.0006052100216038525
768.0,-0.0018896348774433136
832.0,-0.0024105976335704327
896.0,-0.0018302062526345253
960.0,-0.002395354211330414
1024.0,-0.002063808962702751
1152.0,-0.0005181178566999733
1280.0,-0.001440538908354938
1408.0,-0.0016147311544045806
1536.0,-0.0007558949291706085
1664.0,8.588553464505821e-05
1792.0,-0.00016385395429097116
1920.0,-0.00023630446230527014
2048.0,-0.0002018092491198331
2304.0,-0.0016292177606374025
2560.0,-0.0026735891588032246
2816.0,-0.000976951327174902
3072.0,-0.0005021030083298683
3328.0,0.0006965564680285752
3584.0,0.0006684662657789886
3840.0,-0.0001886105164885521
4096.0,-0.001178802689537406
4608.0,-0.00021527675562538207
5120.0,0.0010446946835145354
5632.0,0.0009928784566000104
6144.0,-0.0005859539960511029
6656.0,-0.0010276006069034338
7168.0,-0.0020021561067551374
7680.0,-0.0013973418390378356
8192.0,-0.0006974732968956232
9216.0,0.0009298681979998946
10240.0,-0.00042419155943207443
11264.0,0.0010665897279977798
12288.0,0.0005927088786847889
13312.0,0.0016442897031083703
14336.0,0.004795215558260679
end
