version,3.0
numOfCh,1
type,point
parent_name,10-cuts
ch_type,1_1
kcount,1
numberNandB,1
brightnessNandB,1
carpet pos,0
pc,0
Time (ms),CH1 Auto-Correlation
1.0,0.06485714018344879
2.0,0.06360453367233276
3.0,0.06236688047647476
4.0,0.06118101254105568
5.0,0.060055527836084366
6.0,0.05894720181822777
7.0,0.057873696088790894
8.0,0.05682004243135452
9.0,0.05580785870552063
10.0,0.05482838302850723
11.0,0.05388046056032181
12.0,0.05296039953827858
13.0,0.052062105387449265
14.0,0.051179371774196625
15.0,0.050340570509433746
16.0,0.04953702166676521
18.0,0.048056598752737045
20.0,0.046668726950883865
22.0,0.045354560017585754
24.0,0.04405239596962929
26.0,0.042773447930812836
28.0,0.04155780002474785
30.0,0.04038048908114433
32.0,0.039258215576410294
36.0,0.03712425008416176
40.0,0.035012226551771164
44.0,0.033147212117910385
48.0,0.03174333646893501
52.0,0.030551852658391
56.0,0.02927687019109726
60.0,0.028000611811876297
64.0,0.026717884466052055
72.0,0.024405987933278084
80.0,0.022276367992162704
88.0,0.020536134019494057
96.0,0.01936579868197441
104.0,0.018915534019470215
112.0,0.01865440234541893
120.0,0.018184464424848557
128.0,0.017641834914684296
144.0,0.01639506220817566
160.0,0.015578275546431541
176.0,0.015008249320089817
192.0,0.014809519983828068
208.0,0.013904767110943794
224.0,0.011621950194239616
240.0,0.009167112410068512
256.0,0.007344807498157024
288.0,0.004949923604726791
320.0,0.003429114818572998
352.0,0.004013656638562679
384.0,0.005219701677560806
416.0,0.008175460621714592
448.0,0.008981014601886272
480.0,0.007524191867560148
512.0,0.0062098028138279915
576.0,0.0024256929755210876
640.0,0.0023527713492512703
704.0,0.0013610216556116939
768.0,-0.0009165226947516203
832.0,-0.003704597009345889
896.0,-0.0002721527998801321
960.0,-9.641237556934357e-05
1024.0,-0.0009583579376339912
1152.0,-0.0013177909422665834
1280.0,-8.353401790373027e-05
1408.0,-0.0026107514277100563
1536.0,-0.00182390830013901
1664.0,-0.0021772668696939945
1792.0,-0.005231693387031555
1920.0,-0.007145405746996403
2048.0,-0.003276707837358117
2304.0,-0.004903208464384079
2560.0,-0.006330959498882294
2816.0,-0.002509728539735079
3072.0,-0.00018043629825115204
3328.0,0.0025322826113551855
3584.0,-0.0016387100331485271
3840.0,-0.002511737635359168
4096.0,0.0018075951375067234
4608.0,0.00692629162222147
5120.0,-0.0005269474349915981
5632.0,-0.002190088853240013
6144.0,0.006635390222072601
6656.0,0.006928564049303532
7168.0,-0.0012150077382102609
7680.0,-0.004525318741798401
8192.0,-0.009648841805756092
9216.0,-0.0031821366865187883
10240.0,5.20193025295157e-05
11264.0,0.008784892037510872
12288.0,-0.007495956961065531
13312.0,-0.00869838148355484
14336.0,-0.010351118631660938
end
