version,3.0
numOfCh,1
type,point
parent_name,10-cuts
ch_type,1_1
kcount,1
numberNandB,1
brightnessNandB,1
carpet pos,0
pc,0
Time (ms),CH1 Auto-Correlation
1.0,0.03177885338664055
2.0,0.03117404691874981
3.0,0.030599096789956093
4.0,0.030036479234695435
5.0,0.029503561556339264
6.0,0.02898959070444107
7.0,0.02848733775317669
8.0,0.027998454868793488
9.0,0.027518052607774734
10.0,0.027053365483880043
11.0,0.026593796908855438
12.0,0.026166630908846855
13.0,0.025734972208738327
14.0,0.025301484391093254
15.0,0.024872248992323875
16.0,0.024448880925774574
18.0,0.02362014912068844
20.0,0.02285081148147583
22.0,0.022096436470746994
24.0,0.021360008046030998
26.0,0.02063439041376114
28.0,0.019933585077524185
30.0,0.01927703060209751
32.0,0.01866970583796501
36.0,0.017579015344381332
40.0,0.016648059710860252
44.0,0.01580016501247883
48.0,0.015055586583912373
52.0,0.014435181394219398
56.0,0.013981449417769909
60.0,0.013589045964181423
64.0,0.013154840096831322
72.0,0.01218926627188921
80.0,0.01118890568614006
88.0,0.010309186764061451
96.0,0.009564563632011414
104.0,0.008918157778680325
112.0,0.008662869222462177
120.0,0.00856916792690754
128.0,0.008276835083961487
144.0,0.007533215917646885
160.0,0.006723976228386164
176.0,0.0063992696814239025
192.0,0.006039677653461695
208.0,0.005749337840825319
224.0,0.005217341706156731
240.0,0.004239807371050119
256.0,0.0034923944622278214
288.0,0.002553477417677641
320.0,0.0018300890224054456
352.0,0.002355843549594283
384.0,0.002391883172094822
416.0,0.001561025739647448
448.0,0.000390390312531963
480.0,-0.0005957894027233124
512.0,-0.001231229049153626
576.0,-0.0010675701778382063
640.0,-0.0012176278978586197
704.0,2.4354456400033087e-05
768.0,0.0017698080046102405
832.0,0.0032185171730816364
896.0,0.004085264168679714
960.0,0.004193373490124941
1024.0,0.0031669086311012506
1152.0,0.0009623357327654958
1280.0,0.0015524796908721328
1408.0,-0.001785008586011827
1536.0,-0.0029112868942320347
1664.0,-0.00188539270311594
1792.0,0.001113413949497044
1920.0,0.002134264213964343
2048.0,0.004136450123041868
2304.0,0.002336071105673909
2560.0,0.0023943218402564526
2816.0,0.0010132218012586236
3072.0,-0.0010908138938248158
3328.0,-0.0019578190986067057
3584.0,-0.0024852664209902287
3840.0,-0.0018822734709829092
4096.0,-0.001294173882342875
4608.0,-0.0014764282386749983
5120.0,-0.0011341130593791604
5632.0,-0.004544712137430906
6144.0,0.0003083937044721097
6656.0,-0.0027024182491004467
7168.0,0.0015453326050192118
7680.0,-0.004305651411414146
8192.0,0.0015251581789925694
9216.0,-0.0011422086972743273
10240.0,-0.00175766134634614
11264.0,-0.0005547769833356142
12288.0,-0.0033334107138216496
13312.0,0.001215901575051248
14336.0,0.004362374544143677
end
