version,3.0
numOfCh,1
type,point
parent_name,10-cuts
ch_type,1_1
kcount,1
numberNandB,1
brightnessNandB,1
carpet pos,0
pc,0
Time (ms),CH1 Auto-Correlation
1.0,0.021990353241562843
2.0,0.02159087546169758
3.0,0.021190091967582703
4.0,0.020811669528484344
5.0,0.020459052175283432
6.0,0.020112816244363785
7.0,0.019786328077316284
8.0,0.019477156922221184
9.0,0.01917863078415394
10.0,0.018867487087845802
11.0,0.018576838076114655
12.0,0.018299881368875504
13.0,0.018036700785160065
14.0,0.017790909856557846
15.0,0.01754857413470745
16.0,0.01730736531317234
18.0,0.01686323806643486
20.0,0.01644451916217804
22.0,0.01604370027780533
24.0,0.015651624649763107
26.0,0.015259729698300362
28.0,0.014878256246447563
30.0,0.014509862288832664
32.0,0.014157408848404884
36.0,0.01357690803706646
40.0,0.013032273389399052
44.0,0.012497222982347012
48.0,0.012025636620819569
52.0,0.011580373160541058
56.0,0.011156491935253143
60.0,0.010791785083711147
64.0,0.010460974648594856
72.0,0.00977789331227541
80.0,0.009149766527116299
88.0,0.008508054539561272
96.0,0.007934517227113247
104.0,0.007548004388809204
112.0,0.0072299945168197155
120.0,0.006888571195304394
128.0,0.006550346501171589
144.0,0.0059408885426819324
160.0,0.005368920974433422
176.0,0.005044619552791119
192.0,0.0048643541522324085
208.0,0.004689328838139772
224.0,0.004471424967050552
240.0,0.0039276075549423695
256.0,0.003400131594389677
288.0,0.00199518003500998
320.0,0.0007845226209610701
352.0,0.000527664611581713
384.0,0.00027001978014595807
416.0,-0.00023754914582241327
448.0,-0.00035869728890247643
480.0,-0.00029087543953210115
512.0,-0.000195888671441935
576.0,0.0004314300895202905
640.0,0.0014002915704622865
704.0,0.0014295950531959534
768.0,0.0017522895941510797
832.0,0.0019357737619429827
896.0,0.0018954785773530602
960.0,0.0011050442699342966
1024.0,0.0006168990512378514
1152.0,-0.0004443373472895473
1280.0,0.0005496667581610382
1408.0,0.002409885637462139
1536.0,0.003941702656447887
1664.0,0.0038661372382193804
1792.0,0.002393024042248726
1920.0,-0.00026024109683930874
2048.0,-0.0009520216844975948
2304.0,0.0011807840783149004
2560.0,0.00219939136877656
2816.0,0.0025468457024544477
3072.0,0.002101366175338626
3328.0,-0.0015793780330568552
3584.0,-0.0015163732459768653
3840.0,-0.0007024701917544007
4096.0,-0.0007731305086053908
4608.0,-0.00045324701932258904
5120.0,-0.0016440004110336304
5632.0,-0.0011398792266845703
6144.0,-0.0031067952513694763
6656.0,-0.002382921054959297
7168.0,-0.00099483085796237
7680.0,-0.0030819738749414682
8192.0,-0.001947927987203002
9216.0,-0.0020946888253092766
10240.0,-0.0016398393781855702
11264.0,0.00028567289700731635
12288.0,0.0005002132384106517
13312.0,0.0022526425309479237
14336.0,0.0013176408829167485
end
