version,3.0
numOfCh,1
type,point
parent_name,10-cuts
ch_type,1_1
kcount,1
numberNandB,1
brightnessNandB,1
carpet pos,0
pc,0
Time (ms),CH1 Auto-Correlation
1.0,0.03498992696404457
2.0,0.034382253885269165
3.0,0.03380197659134865
4.0,0.03323916345834732
5.0,0.03269235044717789
6.0,0.03216667100787163
7.0,0.03164949268102646
8.0,0.031150098890066147
9.0,0.03066093660891056
10.0,0.030179519206285477
11.0,0.029712654650211334
12.0,0.029271183535456657
13.0,0.028842855244874954
14.0,0.0284288190305233
15.0,0.02804076112806797
16.0,0.027668820694088936
18.0,0.026948777958750725
20.0,0.026212435215711594
22.0,0.02549453265964985
24.0,0.024840250611305237
26.0,0.02422238141298294
28.0,0.023613108322024345
30.0,0.023007802665233612
32.0,0.022456685081124306
36.0,0.021478770300745964
40.0,0.02051786333322525
44.0,0.01962442509829998
48.0,0.018799763172864914
52.0,0.01811223477125168
56.0,0.01750824972987175
60.0,0.016890618950128555
64.0,0.016277464106678963
72.0,0.015275242738425732
80.0,0.014392179436981678
88.0,0.013502739369869232
96.0,0.012519881129264832
104.0,0.011676821857690811
112.0,0.010969708673655987
120.0,0.010239681228995323
128.0,0.009360264986753464
144.0,0.007717879023402929
160.0,0.006629593670368195
176.0,0.005424778908491135
192.0,0.003717150306329131
208.0,0.002330132992938161
224.0,0.0016646896256133914
240.0,0.0018807037267833948
256.0,0.0022980589419603348
288.0,0.0016855860594660044
320.0,0.0008838881039991975
352.0,0.0002270584081998095
384.0,0.0006919442093931139
416.0,0.001013890141621232
448.0,0.000860583211760968
480.0,0.0009419180569238961
512.0,0.0010490306885913014
576.0,-0.0002541308640502393
640.0,-0.0015523269539698958
704.0,-0.0007544353138655424
768.0,0.0003514308191370219
832.0,8.812310989014804e-05
896.0,-0.0018832486821338534
960.0,-0.0023438960779458284
1024.0,-0.002781030721962452
1152.0,-0.0004413349961396307
1280.0,0.0006263902760110795
1408.0,-0.0030084552709013224
1536.0,-0.0019576624035835266
1664.0,0.0007079462520778179
1792.0,2.0633404346881434e-05
1920.0,-0.0016356378328055143
2048.0,-0.000836906663607806
2304.0,-0.002310772892087698
2560.0,-0.0013193906052038074
2816.0,0.0013694454682990909
3072.0,0.000946035492233932
3328.0,0.001908578909933567
3584.0,-0.0010824620258063078
3840.0,-0.001929955673404038
4096.0,-0.0011610648361966014
4608.0,-0.0012168572284281254
5120.0,0.0023361709900200367
5632.0,0.00206518336199224
6144.0,0.0013188282027840614
6656.0,-0.0019949073903262615
7168.0,-0.004664710257202387
7680.0,-0.004744931124150753
8192.0,-0.0004543499671854079
9216.0,0.0035723706241697073
10240.0,-0.003269813721999526
11264.0,0.0031630946323275566
12288.0,-0.00521150603890419
13312.0,-0.0009289144072681665
14336.0,0.007560119032859802
end
