version,3.0
numOfCh,1
type,point
parent_name,10-cuts
ch_type,1_1
kcount,1
numberNandB,1
brightnessNandB,1
carpet pos,0
pc,0
Time (ms),CH1 Auto-Correlation
1.0,0.08907600492238998
2.0,0.08775952458381653
3.0,0.08648983389139175
4.0,0.08530879765748978
5.0,0.08420422673225403
6.0,0.08312312513589859
7.0,0.08208885788917542
8.0,0.08105152100324631
9.0,0.08003895729780197
10.0,0.07903309911489487
11.0,0.07807829976081848
12.0,0.07715725153684616
13.0,0.07624378800392151
14.0,0.07535174489021301
15.0,0.07449579983949661
16.0,0.073714978992939
18.0,0.07217774540185928
20.0,0.07070893794298172
22.0,0.06934972107410431
24.0,0.06806698441505432
26.0,0.06676826626062393
28.0,0.0655456930398941
30.0,0.06441053003072739
32.0,0.06324466317892075
36.0,0.060921844094991684
40.0,0.05878475308418274
44.0,0.056675173342227936
48.0,0.054731156677007675
52.0,0.05283737555146217
56.0,0.05095930024981499
60.0,0.04946054890751839
64.0,0.048051174730062485
72.0,0.045634664595127106
80.0,0.04377930983901024
88.0,0.0419885516166687
96.0,0.04029063507914543
104.0,0.03857477009296417
112.0,0.037266239523887634
120.0,0.0360247828066349
128.0,0.03462941199541092
144.0,0.030719075351953506
160.0,0.026973580941557884
176.0,0.02339734137058258
192.0,0.019535835832357407
208.0,0.017400534823536873
224.0,0.015373392030596733
240.0,0.014116642996668816
256.0,0.014025011099874973
288.0,0.013791745528578758
320.0,0.013319808058440685
352.0,0.013132143765687943
384.0,0.012844061478972435
416.0,0.01215220894664526
448.0,0.011116521432995796
480.0,0.009892173111438751
512.0,0.006941752973943949
576.0,0.003945822361856699
640.0,0.0026051122695207596
704.0,0.0035571109037846327
768.0,0.0034099745098501444
832.0,0.0042734346352517605
896.0,0.005498225800693035
960.0,0.0037397793494164944
1024.0,0.0037773342337459326
1152.0,-0.0013309705536812544
1280.0,-0.0015843958826735616
1408.0,-0.0023382571525871754
1536.0,-0.0014205254847183824
1664.0,-0.0027206437662243843
1792.0,-0.011054900474846363
1920.0,-0.007783795241266489
2048.0,-0.007612372748553753
2304.0,-0.008868220262229443
2560.0,-0.009301804937422276
2816.0,-0.014249156229197979
3072.0,-0.011489943601191044
3328.0,-0.008437230251729488
3584.0,0.003904135664924979
3840.0,0.012310420162975788
4096.0,0.00348823145031929
4608.0,0.007735212799161673
5120.0,0.005124310962855816
5632.0,0.0007847718079574406
6144.0,-0.0026381094940006733
6656.0,-0.014237171038985252
7168.0,-0.010685051791369915
7680.0,-0.011190948076546192
8192.0,-0.00469993008300662
9216.0,0.009431623853743076
10240.0,0.005846355576068163
11264.0,-0.002989863744005561
12288.0,-0.009126140736043453
13312.0,0.002989369910210371
14336.0,0.0031081910710781813
end
