version,3.0
numOfCh,1
type,point
parent_name,10-cuts
ch_type,1_1
kcount,1
numberNandB,1
brightnessNandB,1
carpet pos,0
pc,0
Time (ms),CH1 Auto-Correlation
1.0,0.01987832598388195
2.0,0.019463535398244858
3.0,0.01906905137002468
4.0,0.018689626827836037
5.0,0.018318351358175278
6.0,0.01796785742044449
7.0,0.01762644201517105
8.0,0.01728796772658825
9.0,0.016961684450507164
10.0,0.016633614897727966
11.0,0.01631557010114193
12.0,0.016011511906981468
13.0,0.015728289261460304
14.0,0.01545068807899952
15.0,0.01518229115754366
16.0,0.014918084256350994
18.0,0.014402207918465137
20.0,0.013912473805248737
22.0,0.013459592126309872
24.0,0.01302841491997242
26.0,0.012615702114999294
28.0,0.012224840931594372
30.0,0.011842237785458565
32.0,0.0114810261875391
36.0,0.010880089364945889
40.0,0.01030885148793459
44.0,0.009751864708960056
48.0,0.009248390793800354
52.0,0.00878207292407751
56.0,0.008365475572645664
60.0,0.008034668862819672
64.0,0.00777014996856451
72.0,0.007250954397022724
80.0,0.006670773960649967
88.0,0.0062178331427276134
96.0,0.005861145444214344
104.0,0.0054519870318472385
112.0,0.005103869829326868
120.0,0.004802972078323364
128.0,0.004453482571989298
144.0,0.003998957108706236
160.0,0.003972422797232866
176.0,0.0038706378545612097
192.0,0.0036778273060917854
208.0,0.0032894741743803024
224.0,0.0024996662978082895
240.0,0.0017271433025598526
256.0,0.001304995152167976
288.0,0.001346504781395197
320.0,0.0011815482284873724
352.0,0.001345010125078261
384.0,0.001879125484265387
416.0,0.0018993047997355461
448.0,0.0021510873921215534
480.0,0.0020603875163942575
512.0,0.0016309187049046159
576.0,0.0011188224889338017
640.0,0.001548672909848392
704.0,0.0010997842764481902
768.0,0.0011616973206400871
832.0,0.0007648908067494631
896.0,-5.5985765357036144e-05
960.0,-0.0013402961194515228
1024.0,-0.000917482131626457
1152.0,0.0012482376769185066
1280.0,0.0031373293604701757
1408.0,0.0028069166000932455
1536.0,0.0006133821443654597
1664.0,0.00016785413026809692
1792.0,0.0005855645867995918
1920.0,0.00030154609703458846
2048.0,-0.0006960740429349244
2304.0,-0.0017806014511734247
2560.0,0.00019563324167393148
2816.0,1.520039040769916e-05
3072.0,0.001148720271885395
3328.0,0.0005035316571593285
3584.0,-0.0014442111132666469
3840.0,9.316443174611777e-05
4096.0,0.0006578452885150909
4608.0,0.0005465841968543828
5120.0,-0.0012558192247524858
5632.0,-0.0025247642770409584
6144.0,-0.002400221535935998
6656.0,-0.0017193009844049811
7168.0,-0.0009935037232935429
7680.0,-0.0012353297788649797
8192.0,-0.0008787730475887656
9216.0,0.00011208168871235102
10240.0,-0.0003858376294374466
11264.0,-0.0009826150489971042
12288.0,0.00014248046500142664
13312.0,0.0025399532169103622
14336.0,0.003595322836190462
end
