version,3.0
numOfCh,1
type,point
parent_name,10-cuts
ch_type,1_1
kcount,1
numberNandB,1
brightnessNandB,1
carpet pos,0
pc,0
Time (ms),CH1 Auto-Correlation
1.0,0.06686876714229584
2.0,0.06556233018636703
3.0,0.06431271880865097
4.0,0.06309852004051208
5.0,0.06193790212273598
6.0,0.06080979108810425
7.0,0.059720758348703384
8.0,0.058659061789512634
9.0,0.05765219032764435
10.0,0.056698285043239594
11.0,0.05579061433672905
12.0,0.05492432788014412
13.0,0.0540827140212059
14.0,0.053250815719366074
15.0,0.05242668464779854
16.0,0.0516015961766243
18.0,0.04996691271662712
20.0,0.04837730899453163
22.0,0.046809665858745575
24.0,0.04533710330724716
26.0,0.04394073039293289
28.0,0.0425349697470665
30.0,0.04122133553028107
32.0,0.03997644782066345
36.0,0.03763316199183464
40.0,0.035651903599500656
44.0,0.033898111432790756
48.0,0.032359786331653595
52.0,0.03081406094133854
56.0,0.02934945933520794
60.0,0.028257962316274643
64.0,0.027411922812461853
72.0,0.02580525539815426
80.0,0.024043219164013863
88.0,0.021978452801704407
96.0,0.01992706023156643
104.0,0.017707612365484238
112.0,0.016020754352211952
120.0,0.0147202517837286
128.0,0.013709813356399536
144.0,0.012420975603163242
160.0,0.01084995362907648
176.0,0.008593559265136719
192.0,0.006653462536633015
208.0,0.005343172699213028
224.0,0.004575562197715044
240.0,0.004196463152766228
256.0,0.0037381078582257032
288.0,0.003509663976728916
320.0,0.0027563534677028656
352.0,0.002252050908282399
384.0,0.0033674759324640036
416.0,0.004188139922916889
448.0,0.0030132406391203403
480.0,0.0012404207373037934
512.0,-4.833879302168498e-06
576.0,-3.95739043597132e-05
640.0,0.0010354997357353568
704.0,-0.001815393683500588
768.0,-0.0034195901826024055
832.0,-0.001618973445147276
896.0,0.001912912237457931
960.0,0.005143357906490564
1024.0,0.007091655861586332
1152.0,0.0036941866856068373
1280.0,0.0022998470813035965
1408.0,0.00023588725889567286
1536.0,0.002541528083384037
1664.0,0.0004482990480028093
1792.0,-0.0021344732958823442
1920.0,-0.004760283511132002
2048.0,-0.004369764123111963
2304.0,-0.0029080603271722794
2560.0,-0.0033950491342693567
2816.0,0.0004374744603410363
3072.0,-0.005323582794517279
3328.0,-0.004019445274025202
3584.0,-0.00375904212705791
3840.0,-0.0016370960511267185
4096.0,-0.014057832770049572
4608.0,0.00578294275328517
5120.0,-0.0028692600317299366
5632.0,0.0031428374350070953
6144.0,0.0048751370050013065
6656.0,-0.0032762358896434307
7168.0,0.0018793063936755061
7680.0,7.074705354170874e-05
8192.0,0.000884144683368504
9216.0,-0.0015725414268672466
10240.0,0.0005743344081565738
11264.0,-0.002522475551813841
12288.0,-0.0016470077680423856
13312.0,0.0028021701145917177
14336.0,-0.0014055351493880153
end
