version,3.0
numOfCh,1
type,point
parent_name,10-cuts
ch_type,1_1
kcount,1
numberNandB,1
brightnessNandB,1
carpet pos,0
pc,0
Time (ms),CH1 Auto-Correlation
1.0,0.0638277679681778
2.0,0.06263093650341034
3.0,0.061469804495573044
4.0,0.06036045029759407
5.0,0.05930521339178085
6.0,0.05829901248216629
7.0,0.05735248327255249
8.0,0.05639980360865593
9.0,0.0554657056927681
10.0,0.05456748977303505
11.0,0.053722113370895386
12.0,0.05292860046029091
13.0,0.05212611332535744
14.0,0.05134700983762741
15.0,0.050580237060785294
16.0,0.049806561321020126
18.0,0.04824553802609444
20.0,0.04674583300948143
22.0,0.045320410281419754
24.0,0.04398397356271744
26.0,0.042643290013074875
28.0,0.041351232677698135
30.0,0.040138036012649536
32.0,0.03891662880778313
36.0,0.036759812384843826
40.0,0.034764669835567474
44.0,0.03303404897451401
48.0,0.03160930052399635
52.0,0.030299745500087738
56.0,0.02900567092001438
60.0,0.027635103091597557
64.0,0.026388779282569885
72.0,0.024257229641079903
80.0,0.02229306288063526
88.0,0.020512234419584274
96.0,0.01890099048614502
104.0,0.017639681696891785
112.0,0.016488192602992058
120.0,0.015377250500023365
128.0,0.014289208687841892
144.0,0.012723232619464397
160.0,0.01172594353556633
176.0,0.010678213089704514
192.0,0.009211944416165352
208.0,0.007715050596743822
224.0,0.005283598322421312
240.0,0.0028276427183300257
256.0,0.0010841966141015291
288.0,-0.00032173836370930076
320.0,-0.0002908648457378149
352.0,0.00013755251711700112
384.0,0.0011359772179275751
416.0,0.00250129378400743
448.0,0.0036327748093754053
480.0,0.004217260982841253
512.0,0.0021045224275439978
576.0,-0.0028766130562871695
640.0,-0.003813948482275009
704.0,-0.00530329579487443
768.0,-0.005598449148237705
832.0,-0.000530779070686549
896.0,0.001942329341545701
960.0,0.0017815283499658108
1024.0,-1.0782066055980977e-05
1152.0,-0.00035733942058868706
1280.0,6.863792077638209e-05
1408.0,-0.0028180924709886312
1536.0,-0.004131395369768143
1664.0,0.001376225147396326
1792.0,0.006052592769265175
1920.0,0.005520232021808624
2048.0,0.005229306407272816
2304.0,0.00011902986443601549
2560.0,-0.005276996176689863
2816.0,-1.087765849661082e-05
3072.0,0.0025145465042442083
3328.0,-0.005337116774171591
3584.0,-0.00641673244535923
3840.0,0.000912242685444653
4096.0,-0.0011386341648176312
4608.0,0.001984997885301709
5120.0,0.000930040143430233
5632.0,0.0011661602184176445
6144.0,-0.0028065971564501524
6656.0,-0.004163020756095648
7168.0,0.0003024269244633615
7680.0,-0.004905445966869593
8192.0,-0.006620532367378473
9216.0,0.00613949541002512
10240.0,-0.0029091371688991785
11264.0,0.003843184094876051
12288.0,-0.005761653184890747
13312.0,0.0019743209704756737
14336.0,0.0018784423591569066
end
