version,3.0
numOfCh,1
type,point
parent_name,10-cuts
ch_type,1_1
kcount,1
numberNandB,1
brightnessNandB,1
carpet pos,0
pc,0
Time (ms),CH1 Auto-Correlation
1.0,0.03358174487948418
2.0,0.0329647995531559
3.0,0.03237641230225563
4.0,0.031816575676202774
5.0,0.031283892691135406
6.0,0.030761191621422768
7.0,0.03025745414197445
8.0,0.029760874807834625
9.0,0.029270438477396965
10.0,0.028803473338484764
11.0,0.02834167145192623
12.0,0.027912486344575882
13.0,0.02747865952551365
14.0,0.027058765292167664
15.0,0.0266409944742918
16.0,0.026238566264510155
18.0,0.02544664964079857
20.0,0.02466544508934021
22.0,0.023889724165201187
24.0,0.023163892328739166
26.0,0.022461090236902237
28.0,0.021799923852086067
30.0,0.021192358806729317
32.0,0.020623084157705307
36.0,0.019615216180682182
40.0,0.01862676627933979
44.0,0.017673466354608536
48.0,0.016801342368125916
52.0,0.016032354906201363
56.0,0.015309863723814487
60.0,0.014623166993260384
64.0,0.013994414359331131
72.0,0.012707237154245377
80.0,0.011296995915472507
88.0,0.009986691176891327
96.0,0.0088493125513196
104.0,0.007901877164840698
112.0,0.007201535161584616
120.0,0.006633545737713575
128.0,0.006340630352497101
144.0,0.006147932261228561
160.0,0.006010508164763451
176.0,0.005920774303376675
192.0,0.005896706599742174
208.0,0.005790977738797665
224.0,0.005582764744758606
240.0,0.0052438718266785145
256.0,0.004722486715763807
288.0,0.003247326472774148
320.0,0.0021294348407536745
352.0,0.0017493360210210085
384.0,0.0023511501494795084
416.0,0.0024039710406214
448.0,0.0026078501250594854
480.0,0.001716642058454454
512.0,0.001268194057047367
576.0,0.0007243389263749123
640.0,8.949525363277644e-05
704.0,-0.00038996955845505
768.0,-0.000924313731957227
832.0,-0.0021079890429973602
896.0,-0.00040815529064275324
960.0,0.0011751153506338596
1024.0,0.0010433181887492537
1152.0,-0.003627699799835682
1280.0,-0.003937161061912775
1408.0,-0.0052885147742927074
1536.0,-0.0034738839603960514
1664.0,-0.0034384941682219505
1792.0,0.00015546403301414102
1920.0,0.0019239074317738414
2048.0,0.002775510773062706
2304.0,-0.0017219113651663065
2560.0,-0.0007607650477439165
2816.0,-0.002325646113604307
3072.0,-0.0021136931609362364
3328.0,-0.0028890192043036222
3584.0,0.0009994107531383634
3840.0,0.0017192577943205833
4096.0,0.0029541952535510063
4608.0,0.0036188396625220776
5120.0,0.0009463324095122516
5632.0,0.0014292323030531406
6144.0,-0.003477598773315549
6656.0,-0.0038324184715747833
7168.0,-0.0032503739930689335
7680.0,0.00320385186932981
8192.0,0.0015319354133680463
9216.0,-7.902092329459265e-05
10240.0,0.0028959547635167837
11264.0,-0.005173841491341591
12288.0,-0.0011157944099977612
13312.0,0.003023721044883132
14336.0,-0.0019728136248886585
end
