version,3.0
numOfCh,1
type,point
parent_name,10-cuts
ch_type,1_1
kcount,1
numberNandB,1
brightnessNandB,1
carpet pos,0
pc,0
Time (ms),CH1 Auto-Correlation
1.0,0.06420378386974335
2.0,0.06300809979438782
3.0,0.061854418367147446
4.0,0.060772184282541275
5.0,0.05968371778726578
6.0,0.058624014258384705
7.0,0.05759069323539734
8.0,0.05660936236381531
9.0,0.05567013844847679
10.0,0.054790571331977844
11.0,0.05390509217977524
12.0,0.05301355943083763
13.0,0.052189312875270844
14.0,0.05135207623243332
15.0,0.05055076628923416
16.0,0.04976755380630493
18.0,0.048244401812553406
20.0,0.04682989791035652
22.0,0.04545849561691284
24.0,0.04410706087946892
26.0,0.04282492771744728
28.0,0.04162915423512459
30.0,0.040486570447683334
32.0,0.03941349685192108
36.0,0.03738148882985115
40.0,0.03548990562558174
44.0,0.033872198313474655
48.0,0.032363440841436386
52.0,0.030929353088140488
56.0,0.029514312744140625
60.0,0.028022445738315582
64.0,0.026523973792791367
72.0,0.023907877504825592
80.0,0.022021116688847542
88.0,0.02031448483467102
96.0,0.018379537388682365
104.0,0.016589900478720665
112.0,0.01510945800691843
120.0,0.014174973592162132
128.0,0.013243738561868668
144.0,0.01128805335611105
160.0,0.009052369743585587
176.0,0.007199172396212816
192.0,0.006358468439429998
208.0,0.007209726609289646
224.0,0.007852328941226006
240.0,0.008087875321507454
256.0,0.007557538338005543
288.0,0.006537363398820162
320.0,0.006617777980864048
352.0,0.005812143906950951
384.0,0.004419692791998386
416.0,0.0018607269739732146
448.0,-0.0012191282585263252
480.0,-0.003087430726736784
512.0,-0.003501208033412695
576.0,-0.005488835275173187
640.0,-0.004185332451015711
704.0,-0.004960088524967432
768.0,-0.005035858601331711
832.0,-0.004383001010864973
896.0,-0.004290983080863953
960.0,-0.004607985261827707
1024.0,-0.005287304986268282
1152.0,-0.0019025102956220508
1280.0,0.0025143560487776995
1408.0,-0.0014571278588846326
1536.0,-0.0017058736411854625
1664.0,-0.003952237777411938
1792.0,-0.0031803050078451633
1920.0,-0.0039841849356889725
2048.0,-0.005687294993549585
2304.0,-0.004283991642296314
2560.0,-0.0007498037884943187
2816.0,-0.00010647837189026177
3072.0,0.002645122818648815
3328.0,0.0018373318016529083
3584.0,-0.0035147364251315594
3840.0,0.0016019874019548297
4096.0,0.00444997102022171
4608.0,0.0036411394830793142
5120.0,-0.0006697870558127761
5632.0,-0.0069425045512616634
6144.0,-0.0012612873688340187
6656.0,0.005662417504936457
7168.0,0.002579081105068326
7680.0,-0.0025439111050218344
8192.0,-0.008454322814941406
9216.0,-7.567723514512181e-05
10240.0,0.0007790378294885159
11264.0,-0.001680936198681593
12288.0,0.001735545927658677
13312.0,-7.191262284322875e-06
14336.0,0.0025184834375977516
end
