version,3.0
numOfCh,1
type,point
parent_name,10-cuts
ch_type,1_1
kcount,1
numberNandB,1
brightnessNandB,1
carpet pos,0
pc,0
Time (ms),CH1 Auto-Correlation
1.0,0.06141986697912216
2.0,0.060170482844114304
3.0,0.05897320434451103
4.0,0.0578598752617836
5.0,0.05677198991179466
6.0,0.0557042695581913
7.0,0.054679058492183685
8.0,0.05368445813655853
9.0,0.05275142192840576
10.0,0.05184873566031456
11.0,0.05100139603018761
12.0,0.050148993730545044
13.0,0.04935355484485626
14.0,0.04854320362210274
15.0,0.04776819422841072
16.0,0.047019053250551224
18.0,0.04554468020796776
20.0,0.044115886092185974
22.0,0.04268977791070938
24.0,0.041321370750665665
26.0,0.040027156472206116
28.0,0.03880823031067848
30.0,0.0375845693051815
32.0,0.03635960817337036
36.0,0.03413909673690796
40.0,0.032231416553258896
44.0,0.030449293553829193
48.0,0.02880263142287731
52.0,0.027195481583476067
56.0,0.025887859985232353
60.0,0.02477961778640747
64.0,0.02371928282082081
72.0,0.021475644782185555
80.0,0.01944662816822529
88.0,0.01762116327881813
96.0,0.01572234369814396
104.0,0.014160404913127422
112.0,0.013272101990878582
120.0,0.012511532753705978
128.0,0.011857345700263977
144.0,0.011161010712385178
160.0,0.010431631468236446
176.0,0.008737193420529366
192.0,0.007083128206431866
208.0,0.006585954688489437
224.0,0.006243410520255566
240.0,0.006273564416915178
256.0,0.005623591132462025
288.0,0.0047298455610871315
320.0,0.004221445415169001
352.0,0.0030137752182781696
384.0,0.0015783424023538828
416.0,-0.0007978962385095656
448.0,-0.0012967437505722046
480.0,-0.0007852815324440598
512.0,0.00014803394151385874
576.0,0.0011746868258342147
640.0,0.0016410716343671083
704.0,0.003755763405933976
768.0,-0.0018884413875639439
832.0,-0.0020688159856945276
896.0,-0.0008941888227127492
960.0,-0.003127430332824588
1024.0,-0.0026380724739283323
1152.0,0.00199199584312737
1280.0,0.0064080446027219296
1408.0,0.0027495864778757095
1536.0,0.0024328900035470724
1664.0,0.004046868532896042
1792.0,0.0018528810469433665
1920.0,-0.0008066254667937756
2048.0,-0.0030910023488104343
2304.0,-0.007467763498425484
2560.0,-0.004195127636194229
2816.0,-0.0009166162344627082
3072.0,-0.003203560132533312
3328.0,0.003356403671205044
3584.0,-0.0010835755383595824
3840.0,-0.007689635269343853
4096.0,-0.0019351370865479112
4608.0,0.0021161651238799095
5120.0,0.0013683161232620478
5632.0,0.0002831237798091024
6144.0,0.006774012930691242
6656.0,-0.0028956325259059668
7168.0,-0.006886742543429136
7680.0,0.0005027899751439691
8192.0,-0.002486261771991849
9216.0,0.003315784502774477
10240.0,-0.000453080894658342
11264.0,-0.0020138120744377375
12288.0,-0.003571534063667059
13312.0,-0.008302176371216774
14336.0,-0.0037613927852362394
end
