version,3.0
numOfCh,1
type,point
parent_name,10-cuts
ch_type,1_1
kcount,1
numberNandB,1
brightnessNandB,1
carpet pos,0
pc,0
Time (ms),CH1 Auto-Correlation
1.0,0.05846291035413742
2.0,0.05729953572154045
3.0,0.056167956441640854
4.0,0.055022936314344406
5.0,0.053908757865428925
6.0,0.05283819139003754
7.0,0.051807135343551636
8.0,0.050804588943719864
9.0,0.04982973635196686
10.0,0.0488765574991703
11.0,0.04795016348361969
12.0,0.0470513179898262
13.0,0.0461646243929863
14.0,0.045297957956790924
15.0,0.044447481632232666
16.0,0.043638162314891815
18.0,0.042093873023986816
20.0,0.040693845599889755
22.0,0.03941850736737251
24.0,0.03816605359315872
26.0,0.03702164068818092
28.0,0.0359179824590683
30.0,0.03487413376569748
32.0,0.03385403752326965
36.0,0.03198237344622612
40.0,0.030293630436062813
44.0,0.0289058405905962
48.0,0.027729947119951248
52.0,0.026562990620732307
56.0,0.025686781853437424
60.0,0.02495422400534153
64.0,0.024147149175405502
72.0,0.022309666499495506
80.0,0.020548192784190178
88.0,0.01895338110625744
96.0,0.017820194363594055
104.0,0.016886331140995026
112.0,0.01589128188788891
120.0,0.01496738288551569
128.0,0.01406783051788807
144.0,0.012684005312621593
160.0,0.012148433364927769
176.0,0.010554425418376923
192.0,0.00900691095739603
208.0,0.008317608386278152
224.0,0.008009396493434906
240.0,0.008016267791390419
256.0,0.007681622635573149
288.0,0.0068819355219602585
320.0,0.004682418890297413
352.0,0.0016361343441531062
384.0,0.0005289277760311961
416.0,0.002240012167021632
448.0,0.0031563090160489082
480.0,0.00223385076969862
512.0,0.0014676853315904737
576.0,0.0014383192174136639
640.0,0.000761321047320962
704.0,0.00046582729555666447
768.0,-0.0006018393905833364
832.0,-0.0032807558309286833
896.0,-0.002549625700339675
960.0,-0.0024339272640645504
1024.0,-0.0002788992424029857
1152.0,0.0025330993812531233
1280.0,0.0016646841540932655
1408.0,0.002688349224627018
1536.0,4.0046410276772804e-07
1664.0,-0.0014742627972736955
1792.0,-0.0012128952657803893
1920.0,-0.0031894061248749495
2048.0,-0.0031293926294893026
2304.0,-0.001309688901528716
2560.0,-0.0023491333704441786
2816.0,-0.0039037533570080996
3072.0,-0.003248365595936775
3328.0,-0.003142664209008217
3584.0,-0.0033211037516593933
3840.0,-0.0026891157031059265
4096.0,-0.0035867176484316587
4608.0,-0.005749242380261421
5120.0,-0.006232874933630228
5632.0,-0.0001285028556594625
6144.0,0.005857938434928656
6656.0,0.004757979419082403
7168.0,0.0019181951647624373
7680.0,0.004191438667476177
8192.0,0.004023740068078041
9216.0,-0.0011100168339908123
10240.0,0.0011226750211790204
11264.0,-0.0028614329639822245
12288.0,-0.0006101198960095644
13312.0,-0.002823595190420747
14336.0,0.002096559153869748
end
