version,3.0
numOfCh,1
type,point
parent_name,10-cuts
ch_type,1_1
kcount,1
numberNandB,1
brightnessNandB,1
carpet pos,0
pc,0
Time (ms),CH1 Auto-Correlation
1.0,0.03302311897277832
2.0,0.032407041639089584
3.0,0.031814198940992355
4.0,0.031243640929460526
5.0,0.030715523287653923
6.0,0.03018960915505886
7.0,0.029686214402318
8.0,0.02920341119170189
9.0,0.028728315606713295
10.0,0.02826325222849846
11.0,0.02780921384692192
12.0,0.027371812611818314
13.0,0.026956241577863693
14.0,0.02652955986559391
15.0,0.026109233498573303
16.0,0.02570302225649357
18.0,0.024930408224463463
20.0,0.02419941872358322
22.0,0.023497773334383965
24.0,0.022802790626883507
26.0,0.022142820060253143
28.0,0.021501289680600166
30.0,0.020891495048999786
32.0,0.02029803954064846
36.0,0.019129442051053047
40.0,0.01805652491748333
44.0,0.017148153856396675
48.0,0.01633414812386036
52.0,0.01569926179945469
56.0,0.015090183354914188
60.0,0.014477535150945187
64.0,0.013898085802793503
72.0,0.01274058036506176
80.0,0.011562114581465721
88.0,0.010660259984433651
96.0,0.009984242729842663
104.0,0.009410767816007137
112.0,0.008861974813044071
120.0,0.008462023921310902
128.0,0.007931895554065704
144.0,0.006796603091061115
160.0,0.006083570420742035
176.0,0.005570575594902039
192.0,0.005273013841360807
208.0,0.004939797800034285
224.0,0.004541582427918911
240.0,0.0042475806549191475
256.0,0.004226110875606537
288.0,0.00423069205135107
320.0,0.003508953144773841
352.0,0.003086997428908944
384.0,0.0009368625469505787
416.0,-0.00039042276330292225
448.0,1.4061493857298046e-05
480.0,4.8654932470526546e-05
512.0,-0.00033962001907639205
576.0,0.0008387283305637538
640.0,0.0016207487788051367
704.0,0.0009194306912831962
768.0,0.0009531907271593809
832.0,0.0010460327612236142
896.0,0.00023155439703259617
960.0,-0.0006742917466908693
1024.0,-0.0011750556295737624
1152.0,-0.0015491690719500184
1280.0,-0.0031157485209405422
1408.0,-0.0013960370561107993
1536.0,0.001067411620169878
1664.0,0.0005898873787373304
1792.0,0.0020150786731392145
1920.0,0.0004802472540177405
2048.0,-0.0005258545279502869
2304.0,-0.00016524296370334923
2560.0,-0.0001332375395577401
2816.0,-0.0018431941280141473
3072.0,-0.00023766285448800772
3328.0,0.0017002176027745008
3584.0,0.0006733342306688428
3840.0,-0.0013232688652351499
4096.0,-0.00041941917152144015
4608.0,-0.0012241845251992345
5120.0,0.0019769049249589443
5632.0,0.002056834753602743
6144.0,-0.00036604530760087073
6656.0,-0.0013661672128364444
7168.0,-0.0010000262409448624
7680.0,0.0004963742685504258
8192.0,-0.0033128075301647186
9216.0,-0.0027991407550871372
10240.0,-0.0011656938586384058
11264.0,-0.0006588042015209794
12288.0,0.002271615667268634
13312.0,0.0004987030988559127
14336.0,-0.00012551664258353412
end
