version,3.0
numOfCh,1
type,point
parent_name,10-cuts
ch_type,1_1
kcount,1
numberNandB,1
brightnessNandB,1
carpet pos,0
pc,0
Time (ms),CH1 Auto-Correlation
1.0,0.026484984904527664
2.0,0.0260976180434227
3.0,0.025719450786709785
4.0,0.02534596621990204
5.0,0.024985503405332565
6.0,0.024629740044474602
7.0,0.024289805442094803
8.0,0.02396290749311447
9.0,0.02365086041390896
10.0,0.02334556169807911
11.0,0.023051362484693527
12.0,0.022758694365620613
13.0,0.022471774369478226
14.0,0.022199278697371483
15.0,0.021932411938905716
16.0,0.021667517721652985
18.0,0.02115815505385399
20.0,0.02065269462764263
22.0,0.020164471119642258
24.0,0.019699973985552788
26.0,0.01925712265074253
28.0,0.018840502947568893
30.0,0.01843228191137314
32.0,0.01802898943424225
36.0,0.01733306236565113
40.0,0.01670023240149021
44.0,0.016052789986133575
48.0,0.015459493733942509
52.0,0.014920886605978012
56.0,0.014439057558774948
60.0,0.014014608226716518
64.0,0.013580013997852802
72.0,0.012782895937561989
80.0,0.012031854130327702
88.0,0.011419621296226978
96.0,0.010915231890976429
104.0,0.010503742843866348
112.0,0.01015989575535059
120.0,0.009798695333302021
128.0,0.009548074565827847
144.0,0.00909919012337923
160.0,0.008323485031723976
176.0,0.007617863826453686
192.0,0.006928193848580122
208.0,0.006066027097404003
224.0,0.005427178461104631
240.0,0.004715758375823498
256.0,0.004004693124443293
288.0,0.0032979941461235285
320.0,0.0024457178078591824
352.0,0.0011392529122531414
384.0,0.0001921889343066141
416.0,-0.00013913889415562153
448.0,-0.00028961949283257127
480.0,-6.119823956396431e-05
512.0,-5.289146793074906e-05
576.0,-0.0006416613468900323
640.0,-0.0016576854977756739
704.0,-0.0021673438604921103
768.0,-0.001972653204575181
832.0,-0.0019061488565057516
896.0,-0.0015554209239780903
960.0,-0.0021410828921943903
1024.0,-0.002039544517174363
1152.0,-0.00277920113876462
1280.0,-0.00273133278824389
1408.0,-0.0011738836765289307
1536.0,0.0011829661671072245
1664.0,0.0015072646783664823
1792.0,0.0008611274533905089
1920.0,0.0012697044294327497
2048.0,0.00043292887858115137
2304.0,-0.0004303616879042238
2560.0,6.231073348317295e-05
2816.0,-0.0006791520863771439
3072.0,-0.0023066995199769735
3328.0,0.0004252387152519077
3584.0,-0.0007496820762753487
3840.0,-0.0034711193293333054
4096.0,0.0022584900725632906
4608.0,2.8575263058883138e-05
5120.0,-0.0024253022857010365
5632.0,-0.0008271978003904223
6144.0,0.0016665487783029675
6656.0,0.00029393081786110997
7168.0,-0.004351859912276268
7680.0,0.001035467372275889
8192.0,-0.00122672354336828
9216.0,-0.0019817017018795013
10240.0,-0.0023174923844635487
11264.0,0.0028156531043350697
12288.0,0.002171359257772565
13312.0,0.002956463024020195
14336.0,-0.0029829484410583973
end
