version,3.0
numOfCh,1
type,point
parent_name,10-cuts
ch_type,1_1
kcount,1
numberNandB,1
brightnessNandB,1
carpet pos,0
pc,0
Time (ms),CH1 Auto-Correlation
1.0,0.025442302227020264
2.0,0.025042012333869934
3.0,0.024660944938659668
4.0,0.02429940737783909
5.0,0.023955604061484337
6.0,0.023617614060640335
7.0,0.023294031620025635
8.0,0.02298189327120781
9.0,0.022681567817926407
10.0,0.022395452484488487
11.0,0.022107403725385666
12.0,0.021828483790159225
13.0,0.02155306749045849
14.0,0.02129036746919155
15.0,0.021030036732554436
16.0,0.02077590487897396
18.0,0.02028227224946022
20.0,0.019804056733846664
22.0,0.01933947391808033
24.0,0.01888703554868698
26.0,0.018462812528014183
28.0,0.01805051974952221
30.0,0.01768544316291809
32.0,0.017353715375065804
36.0,0.016767384484410286
40.0,0.01621495559811592
44.0,0.015756960958242416
48.0,0.015389957465231419
52.0,0.015033109113574028
56.0,0.014691964723169804
60.0,0.014328054152429104
64.0,0.014009461738169193
72.0,0.01336013525724411
80.0,0.012795950286090374
88.0,0.012326239608228207
96.0,0.011985713616013527
104.0,0.011537561193108559
112.0,0.011032942682504654
120.0,0.010487986728549004
128.0,0.009987423196434975
144.0,0.00921260379254818
160.0,0.008913074620068073
176.0,0.008706951513886452
192.0,0.008350920863449574
208.0,0.008013982325792313
224.0,0.007469415199011564
240.0,0.00661891046911478
256.0,0.006229164078831673
288.0,0.005958522204309702
320.0,0.00581459840759635
352.0,0.005546174477785826
384.0,0.00559843797236681
416.0,0.0053279222920536995
448.0,0.0050834366120398045
480.0,0.005118777509778738
512.0,0.004586263559758663
576.0,0.0032354630529880524
640.0,0.0031890778336673975
704.0,0.0021859987173229456
768.0,0.0022148494608700275
832.0,0.001464405795559287
896.0,0.0013274126686155796
960.0,0.00178908568341285
1024.0,0.0003310389001853764
1152.0,-0.0006462945020757616
1280.0,0.0001925284886965528
1408.0,0.0007294286624528468
1536.0,0.001138008083216846
1664.0,0.0026402967050671577
1792.0,0.0020538349635899067
1920.0,0.0013036400778219104
2048.0,-0.0008326196111738682
2304.0,-0.0002755741006694734
2560.0,-1.3409522807705798e-06
2816.0,-0.0018823490245267749
3072.0,-0.0011865508276969194
3328.0,-0.0005495614605024457
3584.0,-0.0024232612922787666
3840.0,-0.0027365717105567455
4096.0,-0.0014502606354653835
4608.0,-0.004166000988334417
5120.0,-0.007211173418909311
5632.0,-0.005435178987681866
6144.0,-0.0021373876370489597
6656.0,0.00041243666782975197
7168.0,-0.00047846059896983206
7680.0,-0.004229299258440733
8192.0,-0.0028245425783097744
9216.0,0.003278034273535013
10240.0,0.006614350713789463
11264.0,0.0027558738365769386
12288.0,0.0010500943753868341
13312.0,-0.0012791941408067942
14336.0,-0.007361894007772207
end
