version,3.0
numOfCh,1
type,point
parent_name,10-cuts
ch_type,1_1
kcount,1
numberNandB,1
brightnessNandB,1
carpet pos,0
pc,0
Time (ms),CH1 Auto-Correlation
1.0,0.019610781222581863
2.0,0.019223498180508614
3.0,0.01885061338543892
4.0,0.018497800454497337
5.0,0.01817019283771515
6.0,0.017856279388070107
7.0,0.017554432153701782
8.0,0.017259525135159492
9.0,0.016966918483376503
10.0,0.0166780985891819
11.0,0.016393592581152916
12.0,0.0161308404058218
13.0,0.01587338000535965
14.0,0.015611193142831326
15.0,0.015353295020759106
16.0,0.01509913895279169
18.0,0.014625896699726582
20.0,0.014186061918735504
22.0,0.013769726268947124
24.0,0.013367298990488052
26.0,0.01294960081577301
28.0,0.012537960894405842
30.0,0.012156356126070023
32.0,0.011810059659183025
36.0,0.011159560643136501
40.0,0.010513787157833576
44.0,0.009883198887109756
48.0,0.009284359402954578
52.0,0.008717948570847511
56.0,0.008178193122148514
60.0,0.007653119508177042
64.0,0.007131906226277351
72.0,0.006092162802815437
80.0,0.005203159525990486
88.0,0.004443216137588024
96.0,0.003687844378873706
104.0,0.0029738526791334152
112.0,0.00234260899014771
120.0,0.0018363244598731399
128.0,0.0014477246440947056
144.0,0.0008826492703519762
160.0,0.000368913053534925
176.0,8.282981070806272e-06
192.0,0.0001341690367553383
208.0,0.0005354692693799734
224.0,0.0009880843572318554
240.0,0.001384473405778408
256.0,0.0016049784608185291
288.0,0.0018842529971152544
320.0,0.0018785829888656735
352.0,0.0017388144042342901
384.0,0.0011375125031918287
416.0,0.0004691262438427657
448.0,-0.0005971456994302571
480.0,-0.0009273322066292167
512.0,-0.0012524998746812344
576.0,-0.0010059558553621173
640.0,0.00030530939693562686
704.0,-0.00040852342499420047
768.0,-0.0007656125235371292
832.0,-5.794822209281847e-05
896.0,0.0006801428971812129
960.0,0.0006160293123684824
1024.0,0.00011513698700582609
1152.0,0.00048298112233169377
1280.0,0.002184394747018814
1408.0,0.0019947709515690804
1536.0,0.0007759998552501202
1664.0,0.0012177741155028343
1792.0,0.0021177625749260187
1920.0,-0.0005570740322582424
2048.0,-0.002257653046399355
2304.0,-0.0013188556768000126
2560.0,0.0005845337873324752
2816.0,0.0006940104067325592
3072.0,0.0010590397287160158
3328.0,-0.00032782935886643827
3584.0,-0.0017431395826861262
3840.0,-0.003316307906061411
4096.0,-0.00015726305718999356
4608.0,0.00011596646800171584
5120.0,-0.0016785679617896676
5632.0,0.0006736270734108984
6144.0,0.00037536752643063664
6656.0,-0.0009719380759634078
7168.0,0.0013436947483569384
7680.0,0.0009415876120328903
8192.0,8.778088522376493e-05
9216.0,0.00013506892719306052
10240.0,-0.00013499334454536438
11264.0,-0.0020405736286193132
12288.0,-0.0021427362225949764
13312.0,-0.0010650783078745008
14336.0,-0.0011458186199888587
end
