version,3.0
numOfCh,1
type,point
parent_name,10-cuts
ch_type,1_1
kcount,1
numberNandB,1
brightnessNandB,1
carpet pos,0
pc,0
Time (ms),CH1 Auto-Correlation
1.0,0.03225015848875046
2.0,0.03165791183710098
3.0,0.031098170205950737
4.0,0.030552828684449196
5.0,0.030033057555556297
6.0,0.02953440509736538
7.0,0.029050420969724655
8.0,0.028608685359358788
9.0,0.028177697211503983
10.0,0.027768226340413094
11.0,0.027345357462763786
12.0,0.026938997209072113
13.0,0.026553552597761154
14.0,0.026180054992437363
15.0,0.02581329084932804
16.0,0.025462953373789787
18.0,0.02478589117527008
20.0,0.024190383031964302
22.0,0.023640690371394157
24.0,0.023126281797885895
26.0,0.022622089833021164
28.0,0.022115522995591164
30.0,0.021629739552736282
32.0,0.021156053990125656
36.0,0.020223621279001236
40.0,0.019391685724258423
44.0,0.018609948456287384
48.0,0.017912697046995163
52.0,0.01726651005446911
56.0,0.016653746366500854
60.0,0.016102995723485947
64.0,0.01565922051668167
72.0,0.01466128509491682
80.0,0.013809166848659515
88.0,0.013110137544572353
96.0,0.01242253091186285
104.0,0.01168870460242033
112.0,0.011112680658698082
120.0,0.010654262267053127
128.0,0.010131245478987694
144.0,0.009327965788543224
160.0,0.008322115056216717
176.0,0.007602985482662916
192.0,0.0070939133875072
208.0,0.006887087598443031
224.0,0.006921032909303904
240.0,0.006742476485669613
256.0,0.00642816349864006
288.0,0.00592730101197958
320.0,0.004515803884714842
352.0,0.0033860420808196068
384.0,0.002477297792211175
416.0,0.0027177005540579557
448.0,0.0037114666774868965
480.0,0.004774183500558138
512.0,0.004809845704585314
576.0,0.005093887913972139
640.0,0.0035128160379827023
704.0,0.002865999238565564
768.0,0.0016442344058305025
832.0,-0.00024648732505738735
896.0,-0.0017963034333661199
960.0,-0.0015926798805594444
1024.0,-0.0008787677506916225
1152.0,-0.0011726135853677988
1280.0,-0.0024211392737925053
1408.0,-0.0019131185254082084
1536.0,-0.0002722185163293034
1664.0,-0.001438887557014823
1792.0,-0.0016718633705750108
1920.0,-0.0005511008785106242
2048.0,0.0004848663811571896
2304.0,-0.00017086653679143637
2560.0,0.0009587875101715326
2816.0,-0.0022006737999618053
3072.0,0.0018946181517094374
3328.0,-0.0008977625984698534
3584.0,0.0010482959914952517
3840.0,-0.0012360739056020975
4096.0,-0.003196167293936014
4608.0,0.0020629859063774347
5120.0,0.0005565175088122487
5632.0,-0.0016264691948890686
6144.0,8.867205178830773e-05
6656.0,0.001936413231305778
7168.0,-0.0003472042444627732
7680.0,-0.002418812830001116
8192.0,-0.0025615321937948465
9216.0,-0.002770199440419674
10240.0,-0.0021934923715889454
11264.0,-0.0019229113822802901
12288.0,-0.0036579924635589123
13312.0,0.0009697076748125255
14336.0,0.00814304780215025
end
