version,3.0
numOfCh,1
type,point
parent_name,10-cuts
ch_type,1_1
kcount,1
numberNandB,1
brightnessNandB,1
carpet pos,0
pc,0
Time (ms),CH1 Auto-Correlation
1.0,0.0657423809170723
2.0,0.06455738842487335
3.0,0.06338773667812347
4.0,0.06226368248462677
5.0,0.0611795037984848
6.0,0.06012001633644104
7.0,0.05912666395306587
8.0,0.058195434510707855
9.0,0.057310231029987335
10.0,0.05648718774318695
11.0,0.05568550527095795
12.0,0.05491119250655174
13.0,0.05414924770593643
14.0,0.053394708782434464
15.0,0.05267679691314697
16.0,0.05196930840611458
18.0,0.05058113485574722
20.0,0.04920399561524391
22.0,0.047918397933244705
24.0,0.04672405123710632
26.0,0.04567243158817291
28.0,0.04467981681227684
30.0,0.04375101998448372
32.0,0.04284863546490669
36.0,0.04108968749642372
40.0,0.03945396840572357
44.0,0.03810025751590729
48.0,0.03684157505631447
52.0,0.03552783653140068
56.0,0.034185778349637985
60.0,0.03283767029643059
64.0,0.03163813799619675
72.0,0.029484517872333527
80.0,0.02736460417509079
88.0,0.02512284368276596
96.0,0.022606711834669113
104.0,0.020749706774950027
112.0,0.019476253539323807
120.0,0.018524818122386932
128.0,0.017767593264579773
144.0,0.016415385529398918
160.0,0.014905509538948536
176.0,0.013824386522173882
192.0,0.012040293775498867
208.0,0.01110051292926073
224.0,0.009416802786290646
240.0,0.007746229413896799
256.0,0.006362175568938255
288.0,0.003955190069973469
320.0,0.003185755806043744
352.0,0.002849820302799344
384.0,0.0035879812203347683
416.0,0.004404982086271048
448.0,0.004997627343982458
480.0,0.00619030324742198
512.0,0.00695072952657938
576.0,0.0048157949931919575
640.0,0.00413267407566309
704.0,0.004926187451928854
768.0,0.00623584259301424
832.0,0.008077257312834263
896.0,0.008332628756761551
960.0,0.00818460900336504
1024.0,0.010797054506838322
1152.0,0.006099571008235216
1280.0,0.00033357119536958635
1408.0,-0.0023750963155180216
1536.0,-0.00021372165065258741
1664.0,0.0013035471783950925
1792.0,0.004490713123232126
1920.0,0.005182197317481041
2048.0,0.0015150646213442087
2304.0,-0.003314210334792733
2560.0,0.0011891353642567992
2816.0,0.0010826513171195984
3072.0,0.0016034377040341496
3328.0,0.0005073928041383624
3584.0,0.0015576096484437585
3840.0,0.001972232246771455
4096.0,-0.0017428381834179163
4608.0,-0.0034645700361579657
5120.0,-0.002229143399745226
5632.0,-0.0013579626102000475
6144.0,0.0037164941895753145
6656.0,0.002875054720789194
7168.0,0.0015169964171946049
7680.0,0.0010679980041459203
8192.0,-0.0036118344869464636
9216.0,-0.009930524043738842
10240.0,-0.008050398901104927
11264.0,-0.0020771101117134094
12288.0,-0.008284948766231537
13312.0,-0.005005254410207272
14336.0,-0.005887842737138271
end
