version,3.0
numOfCh,1
type,point
parent_name,10-cuts
ch_type,1_1
kcount,1
numberNandB,1
brightnessNandB,1
carpet pos,0
pc,0
Time (ms),CH1 Auto-Correlation
1.0,0.018603071570396423
2.0,0.018203988671302795
3.0,0.017807945609092712
4.0,0.01742691546678543
5.0,0.017061591148376465
6.0,0.016708113253116608
7.0,0.01636447198688984
8.0,0.016043977811932564
9.0,0.015728123486042023
10.0,0.01541109848767519
11.0,0.015098643489181995
12.0,0.014792329631745815
13.0,0.014501224271953106
14.0,0.014223541133105755
15.0,0.01395290158689022
16.0,0.013687614351511002
18.0,0.01318301074206829
20.0,0.012706105597317219
22.0,0.012252461165189743
24.0,0.011824974790215492
26.0,0.011416216380894184
28.0,0.01102658174932003
30.0,0.010652554221451283
32.0,0.010304599069058895
36.0,0.009713144041597843
40.0,0.009194138459861279
44.0,0.008753970265388489
48.0,0.008315679617226124
52.0,0.007877006195485592
56.0,0.007504898123443127
60.0,0.007153606973588467
64.0,0.006802108604460955
72.0,0.006055785808712244
80.0,0.005308945197612047
88.0,0.004700388293713331
96.0,0.004397188778966665
104.0,0.004208879545331001
112.0,0.004069003742188215
120.0,0.0039848266169428825
128.0,0.003642341587692499
144.0,0.0029999371618032455
160.0,0.002617396181449294
176.0,0.002580158645287156
192.0,0.0027946054469794035
208.0,0.002986231818795204
224.0,0.003147968789562583
240.0,0.0034633567556738853
256.0,0.0034837888088077307
288.0,0.0035586808808147907
320.0,0.0034758427646011114
352.0,0.002567637013271451
384.0,0.001704602618701756
416.0,0.001316006644628942
448.0,0.001035552006214857
480.0,0.0013272430514916778
512.0,0.0012169573456048965
576.0,0.0020384069066494703
640.0,0.002562897279858589
704.0,0.0020354068838059902
768.0,0.0015916519332677126
832.0,0.0016137780621647835
896.0,0.0013529954012483358
960.0,0.001310921972617507
1024.0,0.0010311673395335674
1152.0,0.00035184843000024557
1280.0,-0.0005267640808597207
1408.0,0.00014567513426300138
1536.0,0.0002748849510680884
1664.0,0.0004787314392160624
1792.0,0.000921686936635524
1920.0,-0.0003087125369347632
2048.0,-0.0007072699372656643
2304.0,-0.0010320820147171617
2560.0,-0.0004069783608429134
2816.0,-0.0005208702641539276
3072.0,-0.0010475711897015572
3328.0,0.00015865446766838431
3584.0,0.0011712259147316217
3840.0,-0.0007215666119009256
4096.0,-0.0008617854327894747
4608.0,0.0009921913733705878
5120.0,0.0017891809111461043
5632.0,-0.0012816793750971556
6144.0,-5.21106157975737e-05
6656.0,-0.0023531976621598005
7168.0,-0.002434825524687767
7680.0,-0.0014516873052343726
8192.0,-0.0018122362671419978
9216.0,-0.00033086311304941773
10240.0,0.0003896492416970432
11264.0,-0.0007349154911935329
12288.0,-0.000999490381218493
13312.0,0.00026855169562622905
14336.0,-0.00016346454503946006
end
