version,3.0
numOfCh,1
type,point
parent_name,10-cuts
ch_type,1_1
kcount,1
numberNandB,1
brightnessNandB,1
carpet pos,0
pc,0
Time (ms),CH1 Auto-Correlation
1.0,0.018512127920985222
2.0,0.01811770163476467
3.0,0.0177434291690588
4.0,0.01736331731081009
5.0,0.016989093273878098
6.0,0.016622619703412056
7.0,0.016270805150270462
8.0,0.0159270279109478
9.0,0.015600617043673992
10.0,0.015281466767191887
11.0,0.014981422573328018
12.0,0.014696786180138588
13.0,0.014418034814298153
14.0,0.014140388928353786
15.0,0.013865193352103233
16.0,0.013605987653136253
18.0,0.013114782981574535
20.0,0.01265385840088129
22.0,0.012225553393363953
24.0,0.011835564859211445
26.0,0.01146310567855835
28.0,0.011110221967101097
30.0,0.01078046765178442
32.0,0.010460511781275272
36.0,0.00993430707603693
40.0,0.009489745832979679
44.0,0.009090959094464779
48.0,0.008730319328606129
52.0,0.008403021842241287
56.0,0.00809838343411684
60.0,0.007721736095845699
64.0,0.007326142862439156
72.0,0.0065399231389164925
80.0,0.005847637075930834
88.0,0.005223774816840887
96.0,0.004601437598466873
104.0,0.0040961094200611115
112.0,0.0038191035855561495
120.0,0.003586568869650364
128.0,0.003375329077243805
144.0,0.002773997141048312
160.0,0.002211408456787467
176.0,0.001973278820514679
192.0,0.0017946686130017042
208.0,0.0015404198784381151
224.0,0.0010458697797730565
240.0,0.0007243683794513345
256.0,0.0004139164520893246
288.0,-0.00011003815598087385
320.0,0.00044051831355318427
352.0,-0.0003280799137428403
384.0,-0.0001935828768182546
416.0,0.00025322195142507553
448.0,5.028050964028807e-06
480.0,0.0006672585150226951
512.0,0.0012182387290522456
576.0,0.00037348942714743316
640.0,1.2336456165940035e-05
704.0,-0.0005709232063964009
768.0,-0.0009233549935743213
832.0,-0.0005139372660778463
896.0,-0.0006732748588547111
960.0,-0.0002929425972979516
1024.0,-0.0008843503892421722
1152.0,-0.001217398326843977
1280.0,-0.0013375453418120742
1408.0,-0.0001253530354006216
1536.0,-0.001356875873170793
1664.0,-0.0014370596036314964
1792.0,-0.0010937477927654982
1920.0,0.00015426872414536774
2048.0,0.00010101700172526762
2304.0,-0.00043558189645409584
2560.0,0.0006320160464383662
2816.0,-0.001992604462429881
3072.0,-0.0002690719556994736
3328.0,0.0007837440934963524
3584.0,0.0006981679471209645
3840.0,0.0025269188918173313
4096.0,0.0022067814134061337
4608.0,0.0005963003495708108
5120.0,-0.001498362747952342
5632.0,-0.0021137811709195375
6144.0,0.0002331279101781547
6656.0,7.905992970336229e-05
7168.0,-0.00013605492131318897
7680.0,0.0010555656626820564
8192.0,0.0009740247041918337
9216.0,-0.0018782645929604769
10240.0,7.433760038111359e-05
11264.0,0.0008955146186053753
12288.0,-0.0010030175326392055
13312.0,-0.0021764084231108427
14336.0,0.0026900640223175287
end
