version,3.0
numOfCh,1
type,point
parent_name,10-cuts
ch_type,1_1
kcount,1
numberNandB,1
brightnessNandB,1
carpet pos,0
pc,0
Time (ms),CH1 Auto-Correlation
1.0,0.029024530202150345
2.0,0.02839522622525692
3.0,0.02779443748295307
4.0,0.027204306796193123
5.0,0.026625841856002808
6.0,0.0260545052587986
7.0,0.025493189692497253
8.0,0.024964692071080208
9.0,0.024448052048683167
10.0,0.023940278217196465
11.0,0.023447485640645027
12.0,0.022986218333244324
13.0,0.022551115602254868
14.0,0.022123871371150017
15.0,0.02171063981950283
16.0,0.021306373178958893
18.0,0.020522020757198334
20.0,0.019740669056773186
22.0,0.018998097628355026
24.0,0.01827593892812729
26.0,0.01761854812502861
28.0,0.017017647624015808
30.0,0.016458159312605858
32.0,0.015922769904136658
36.0,0.014889762736856937
40.0,0.014016581699252129
44.0,0.013298356905579567
48.0,0.012713775970041752
52.0,0.012265552766621113
56.0,0.01177740003913641
60.0,0.011259986087679863
64.0,0.010758811607956886
72.0,0.009879420511424541
80.0,0.009123035706579685
88.0,0.008394923061132431
96.0,0.007714116480201483
104.0,0.0073312027379870415
112.0,0.006984834559261799
120.0,0.006708201486617327
128.0,0.00642651179805398
144.0,0.0059996978379786015
160.0,0.006135530304163694
176.0,0.00627997936680913
192.0,0.006081160623580217
208.0,0.005399342160671949
224.0,0.0047253891825675964
240.0,0.004695700481534004
256.0,0.004664379637688398
288.0,0.003779028542339802
320.0,0.002924960106611252
352.0,0.0021490987855941057
384.0,0.0023293807171285152
416.0,0.0017938686069101095
448.0,0.00217220326885581
480.0,0.0017917021177709103
512.0,0.0013439025497063994
576.0,0.00041884282836690545
640.0,-0.00023373107251245528
704.0,-0.0018648055847734213
768.0,-0.0032708451617509127
832.0,-0.0019377325661480427
896.0,-0.0015884066233411431
960.0,-0.002219134010374546
1024.0,-0.001998145831748843
1152.0,0.0010913042351603508
1280.0,0.0011174174724146724
1408.0,0.001066293683834374
1536.0,8.945425361162052e-05
1664.0,0.00015983021876309067
1792.0,0.00040011151577346027
1920.0,-0.0003204850072506815
2048.0,-0.0005425266572274268
2304.0,0.0005239617894403636
2560.0,-0.000685207371134311
2816.0,-0.0028893451672047377
3072.0,-0.0030178839806467295
3328.0,-0.0027251369319856167
3584.0,-0.0017872388707473874
3840.0,0.0014576324028894305
4096.0,0.0008156136609613895
4608.0,0.0008883942500688136
5120.0,0.0010980615625157952
5632.0,0.0009328488958999515
6144.0,-0.0017698591109365225
6656.0,-0.0013401892501860857
7168.0,0.0003543650673236698
7680.0,-0.002492413390427828
8192.0,-0.004072960466146469
9216.0,0.00010440639016451314
10240.0,0.0001998881489271298
11264.0,0.002656200435012579
12288.0,0.00028536622994579375
13312.0,-0.0014950124314054847
14336.0,0.00212947279214859
end
