version,3.0
numOfCh,1
type,point
parent_name,10-cuts
ch_type,1_1
kcount,1
numberNandB,1
brightnessNandB,1
carpet pos,0
pc,0
Time (ms),CH1 Auto-Correlation
1.0,0.0670870691537857
2.0,0.06589384377002716
3.0,0.06474299728870392
4.0,0.06362137943506241
5.0,0.0625363439321518
6.0,0.061491310596466064
7.0,0.06045379489660263
8.0,0.05945136025547981
9.0,0.05848963186144829
10.0,0.057554785162210464
11.0,0.05662451684474945
12.0,0.05573645234107971
13.0,0.05490783601999283
14.0,0.054122354835271835
15.0,0.05333349481225014
16.0,0.05255451425909996
18.0,0.050996433943510056
20.0,0.04950949177145958
22.0,0.04811147600412369
24.0,0.04683610796928406
26.0,0.045629534870386124
28.0,0.04445459693670273
30.0,0.04336395859718323
32.0,0.04235339164733887
36.0,0.04051569849252701
40.0,0.03905494138598442
44.0,0.03773220628499985
48.0,0.03639458119869232
52.0,0.034939978271722794
56.0,0.03354489430785179
60.0,0.03230075538158417
64.0,0.03109229914844036
72.0,0.028929097577929497
80.0,0.02706298790872097
88.0,0.025886554270982742
96.0,0.024814045056700706
104.0,0.023525221273303032
112.0,0.022022034972906113
120.0,0.020874345675110817
128.0,0.02017531730234623
144.0,0.019604595378041267
160.0,0.0190623439848423
176.0,0.018239745870232582
192.0,0.016964448615908623
208.0,0.014891198836266994
224.0,0.013226576149463654
240.0,0.012310215272009373
256.0,0.01182782743126154
288.0,0.010523151606321335
320.0,0.01062318217009306
352.0,0.009924902580678463
384.0,0.009191765449941158
416.0,0.007762903813272715
448.0,0.008487250655889511
480.0,0.009356582537293434
512.0,0.010320083238184452
576.0,0.00876460038125515
640.0,0.004272318910807371
704.0,0.00031029319507069886
768.0,-0.00036233640275895596
832.0,-0.000744553457479924
896.0,-0.002780541079118848
960.0,-0.005569483153522015
1024.0,-0.007703582290560007
1152.0,-0.006066960282623768
1280.0,-0.005797464866191149
1408.0,-0.003911438398063183
1536.0,-0.005475231446325779
1664.0,-0.008286991156637669
1792.0,-0.008947845548391342
1920.0,-0.00833569560199976
2048.0,-0.0093117356300354
2304.0,-0.007953018881380558
2560.0,-0.0061571854166686535
2816.0,-0.000184949254617095
3072.0,1.8346072465647012e-05
3328.0,0.0025932323187589645
3584.0,0.005212593823671341
3840.0,0.002277388470247388
4096.0,0.0035603540018200874
4608.0,-2.57793453783961e-05
5120.0,-0.002596290549263358
5632.0,-0.00371672329492867
6144.0,-0.00023232238891068846
6656.0,0.005820320453494787
7168.0,0.00220148591324687
7680.0,0.0040810066275298595
8192.0,0.005881601478904486
9216.0,-0.0008686372893862426
10240.0,-0.007534068077802658
11264.0,-0.000845010275952518
12288.0,0.004639566410332918
13312.0,-0.0011618006974458694
14336.0,0.0033142666798084974
end
