version,3.0
numOfCh,1
type,point
parent_name,10-cuts
ch_type,1_1
kcount,1
numberNandB,1
brightnessNandB,1
carpet pos,0
pc,0
Time (ms),CH1 Auto-Correlation
1.0,0.06586655974388123
2.0,0.06460421532392502
3.0,0.06340049207210541
4.0,0.06222302466630936
5.0,0.061078812927007675
6.0,0.0600096695125103
7.0,0.058950863778591156
8.0,0.05791294202208519
9.0,0.056939851492643356
10.0,0.05599026754498482
11.0,0.05510064586997032
12.0,0.05420226976275444
13.0,0.05333169549703598
14.0,0.052485883235931396
15.0,0.05162561684846878
16.0,0.05078349635004997
18.0,0.04917527362704277
20.0,0.0476350411772728
22.0,0.04622065648436546
24.0,0.04489172250032425
26.0,0.043570537120103836
28.0,0.04235260933637619
30.0,0.041213102638721466
32.0,0.04010867327451706
36.0,0.03795906528830528
40.0,0.03595280647277832
44.0,0.03425314277410507
48.0,0.03277464956045151
52.0,0.03152594715356827
56.0,0.030505307018756866
60.0,0.02960577979683876
64.0,0.028843171894550323
72.0,0.026952674612402916
80.0,0.024920059368014336
88.0,0.022984854876995087
96.0,0.021031660959124565
104.0,0.019764259457588196
112.0,0.018844153732061386
120.0,0.018104741349816322
128.0,0.01728701964020729
144.0,0.01517142541706562
160.0,0.013135073706507683
176.0,0.011064982041716576
192.0,0.00950463768094778
208.0,0.008693081326782703
224.0,0.008432731032371521
240.0,0.007115480024367571
256.0,0.0061742523685097694
288.0,0.0073640476912260056
320.0,0.006991216912865639
352.0,0.005603963043540716
384.0,0.004981684498488903
416.0,0.0047934409230947495
448.0,0.004887707531452179
480.0,0.00455135852098465
512.0,0.006826492492109537
576.0,0.005077960900962353
640.0,0.001570894499309361
704.0,-0.001689473632723093
768.0,-0.002486434066668153
832.0,-0.004872200544923544
896.0,-0.0036418430972844362
960.0,-0.002716431627050042
1024.0,-0.005025445017963648
1152.0,-0.0033945601899176836
1280.0,0.00043783654109574854
1408.0,7.047557573969243e-06
1536.0,-0.004707714542746544
1664.0,-0.0060629043728113174
1792.0,-0.002383908024057746
1920.0,0.001553453621454537
2048.0,0.00332101178355515
2304.0,0.0018859878182411194
2560.0,0.0008410769514739513
2816.0,0.0008934806101024151
3072.0,0.003810765454545617
3328.0,0.00638082018122077
3584.0,0.0013897992903366685
3840.0,0.001059797708876431
4096.0,0.00048159153084270656
4608.0,-0.00839189626276493
5120.0,-0.007023097947239876
5632.0,-0.0019078500336036086
6144.0,0.0038553723134100437
6656.0,-0.0011955674272030592
7168.0,-0.0008294087019748986
7680.0,-0.001842851284891367
8192.0,-0.0039741480723023415
9216.0,0.0036577496211975813
10240.0,-0.0058385455049574375
11264.0,0.0007689218618907034
12288.0,0.00010775203554658219
13312.0,0.003048229729756713
14336.0,0.0002839687804225832
end
