version,3.0
numOfCh,1
type,point
parent_name,10-cuts
ch_type,1_1
kcount,1
numberNandB,1
brightnessNandB,1
carpet pos,0
pc,0
Time (ms),CH1 Auto-Correlation
1.0,0.0589764229953289
2.0,0.057723913341760635
3.0,0.05648622661828995
4.0,0.0553041510283947
5.0,0.05417732521891594
6.0,0.053087037056684494
7.0,0.052055343985557556
8.0,0.05107349902391434
9.0,0.05015714466571808
10.0,0.049260810017585754
11.0,0.0483761765062809
12.0,0.047515347599983215
13.0,0.04669083282351494
14.0,0.04589507356286049
15.0,0.04510936513543129
16.0,0.044349171221256256
18.0,0.04294600710272789
20.0,0.04155182093381882
22.0,0.040139030665159225
24.0,0.03878248110413551
26.0,0.03753923624753952
28.0,0.03636565059423447
30.0,0.035254817456007004
32.0,0.034183502197265625
36.0,0.03217175230383873
40.0,0.030287805944681168
44.0,0.02860831469297409
48.0,0.02710225246846676
52.0,0.02553345449268818
56.0,0.02397429384291172
60.0,0.0225871279835701
64.0,0.021313941106200218
72.0,0.01871100440621376
80.0,0.016598686575889587
88.0,0.014747966080904007
96.0,0.013138651847839355
104.0,0.01183860469609499
112.0,0.010675815865397453
120.0,0.009323175996541977
128.0,0.007788314018398523
144.0,0.005813911557197571
160.0,0.005455770064145327
176.0,0.005195970181375742
192.0,0.004971170332282782
208.0,0.004956833086907864
224.0,0.0038650769274681807
240.0,0.0032574262004345655
256.0,0.003396605607122183
288.0,0.003018193179741502
320.0,0.0005430633318610489
352.0,-0.0012011349899694324
384.0,-0.0014027501456439495
416.0,-0.001454173936508596
448.0,-0.0020111417397856712
480.0,-0.0021597202867269516
512.0,-0.0029650668147951365
576.0,4.7034754970809445e-05
640.0,0.0006302068941295147
704.0,-0.0009968011872842908
768.0,-0.002162754535675049
832.0,0.0009863466257229447
896.0,0.003257992910221219
960.0,0.001448608236387372
1024.0,0.0002780183276627213
1152.0,-0.0016495847376063466
1280.0,-0.0007132409373298287
1408.0,0.00277333939447999
1536.0,0.006460683885961771
1664.0,-0.0012746605789288878
1792.0,-0.0021249118726700544
1920.0,-0.0054595074616372585
2048.0,-0.0040227072313427925
2304.0,-0.0005622196476906538
2560.0,0.0008533665095455945
2816.0,-0.002313139382749796
3072.0,0.0006950208335183561
3328.0,-0.00400451710447669
3584.0,-0.0035964185371994972
3840.0,-0.0006452338420785964
4096.0,3.2707499485695735e-05
4608.0,-0.003552250098437071
5120.0,6.754718197043985e-05
5632.0,0.0023716255091130733
6144.0,0.003121865214779973
6656.0,0.00401736656203866
7168.0,0.0006904780748300254
7680.0,0.0014103471767157316
8192.0,-0.0018002591095864773
9216.0,-0.0029671930242329836
10240.0,-0.0038601639680564404
11264.0,0.0005958314286544919
12288.0,-0.000740781135391444
13312.0,-0.0005359575152397156
14336.0,0.0009494608966633677
end
