version,3.0
numOfCh,1
type,point
parent_name,10-cuts
ch_type,1_1
kcount,1
numberNandB,1
brightnessNandB,1
carpet pos,0
pc,0
Time (ms),CH1 Auto-Correlation
1.0,0.02191591076552868
2.0,0.021505411714315414
3.0,0.02111554890871048
4.0,0.02073797956109047
5.0,0.02038135565817356
6.0,0.020031632855534554
7.0,0.019695747643709183
8.0,0.019369537010788918
9.0,0.019061168655753136
10.0,0.018764274194836617
11.0,0.01848679780960083
12.0,0.01821073144674301
13.0,0.017937762662768364
14.0,0.017672186717391014
15.0,0.017410622909665108
16.0,0.017164628952741623
18.0,0.016703054308891296
20.0,0.016263866797089577
22.0,0.015839489176869392
24.0,0.015428600832819939
26.0,0.015035799704492092
28.0,0.014654147438704967
30.0,0.014297408983111382
32.0,0.013954129070043564
36.0,0.013317873701453209
40.0,0.012750567868351936
44.0,0.012170032598078251
48.0,0.011625123210251331
52.0,0.011087343096733093
56.0,0.01055662240833044
60.0,0.010067561641335487
64.0,0.009623007848858833
72.0,0.00877542793750763
80.0,0.00796961598098278
88.0,0.0073290192522108555
96.0,0.006692408584058285
104.0,0.006155230570584536
112.0,0.005672230385243893
120.0,0.0051694391295313835
128.0,0.00475153187289834
144.0,0.004081138875335455
160.0,0.003769275499507785
176.0,0.003792358795180917
192.0,0.003911549691110849
208.0,0.004012363497167826
224.0,0.004175895359367132
240.0,0.0042537362314760685
256.0,0.004235153552144766
288.0,0.0039015784859657288
320.0,0.0027914238162338734
352.0,0.0017224837793037295
384.0,0.0010339333675801754
416.0,0.00022921120398677886
448.0,0.00032680327421985567
480.0,0.0007717196131125093
512.0,0.0012331681791692972
576.0,0.0028170139994472265
640.0,0.0026578838005661964
704.0,0.0018193254945799708
768.0,0.0012168078683316708
832.0,0.0015863791340962052
896.0,0.0020590885542333126
960.0,0.0014215598348528147
1024.0,0.0003566978848539293
1152.0,-0.00010260724957333878
1280.0,-0.0011549161281436682
1408.0,-0.0024450330529361963
1536.0,-0.002416725968942046
1664.0,-0.0015954897971823812
1792.0,-0.00021065035252831876
1920.0,-0.0005038534291088581
2048.0,-0.00017520616529509425
2304.0,-0.0013879084726795554
2560.0,-0.0018123398767784238
2816.0,-9.916807903209701e-05
3072.0,0.0001793343253666535
3328.0,0.0001665687741478905
3584.0,0.0010402551852166653
3840.0,0.00019913612050004303
4096.0,-0.00020544732979033142
4608.0,-0.002417429117485881
5120.0,-0.0017633532406762242
5632.0,-0.0014056552900001407
6144.0,-0.0001540128287160769
6656.0,0.00035566918086260557
7168.0,0.0021968893706798553
7680.0,-0.00015275381156243384
8192.0,-0.001828107051551342
9216.0,-0.0005048605380579829
10240.0,0.0005008672596886754
11264.0,0.0006505429628305137
12288.0,5.92429241805803e-05
13312.0,0.0005995440878905356
14336.0,-0.0003185916575603187
end
