version,3.0
numOfCh,1
type,point
parent_name,10-cuts
ch_type,1_1
kcount,1
numberNandB,1
brightnessNandB,1
carpet pos,0
pc,0
Time (ms),CH1 Auto-Correlation
1.0,0.06869940459728241
2.0,0.06752842664718628
3.0,0.06638818234205246
4.0,0.06529439240694046
5.0,0.06424049288034439
6.0,0.06325429677963257
7.0,0.06228000670671463
8.0,0.06129737198352814
9.0,0.06036877632141113
10.0,0.05946635827422142
11.0,0.058586712926626205
12.0,0.05778208374977112
13.0,0.05696749687194824
14.0,0.05614590644836426
15.0,0.05539353936910629
16.0,0.054669979959726334
18.0,0.05321493744850159
20.0,0.05181320011615753
22.0,0.050482481718063354
24.0,0.049168676137924194
26.0,0.047924239188432693
28.0,0.04675372317433357
30.0,0.045700542628765106
32.0,0.044763077050447464
36.0,0.043027058243751526
40.0,0.04152381792664528
44.0,0.04011546075344086
48.0,0.038707293570041656
52.0,0.037451647222042084
56.0,0.036316342651844025
60.0,0.03529699891805649
64.0,0.03438282757997513
72.0,0.03254397585988045
80.0,0.03041885979473591
88.0,0.02845773473381996
96.0,0.026559431105852127
104.0,0.024642957374453545
112.0,0.022907303646206856
120.0,0.021420689299702644
128.0,0.020168129354715347
144.0,0.01872163824737072
160.0,0.017084287479519844
176.0,0.015013190917670727
192.0,0.014216792769730091
208.0,0.013726731762290001
224.0,0.012207197956740856
240.0,0.010898916982114315
256.0,0.010447617620229721
288.0,0.0101614473387599
320.0,0.01029410120099783
352.0,0.01003315206617117
384.0,0.009849214926362038
416.0,0.01078174076974392
448.0,0.010218720883131027
480.0,0.008314424194395542
512.0,0.004203858319669962
576.0,0.003364328294992447
640.0,0.005401876755058765
704.0,0.003962010145187378
768.0,0.002282116562128067
832.0,0.0010288077173754573
896.0,-1.4105189620750025e-05
960.0,0.00016849655366968364
1024.0,0.0024184444919228554
1152.0,0.00453284801915288
1280.0,0.00534691521897912
1408.0,0.005891786888241768
1536.0,0.003642507130280137
1664.0,0.0032195819076150656
1792.0,0.0018938714638352394
1920.0,-0.005558351054787636
2048.0,-0.005979765206575394
2304.0,-0.00990995205938816
2560.0,-0.006902839057147503
2816.0,-0.004706183914095163
3072.0,-0.0034596219193190336
3328.0,-0.0061161331832408905
3584.0,-0.014942358247935772
3840.0,-0.01859964244067669
4096.0,-0.01518420223146677
4608.0,-0.005869749002158642
5120.0,-0.0030775743070989847
5632.0,0.00358590274117887
6144.0,0.007999839261174202
6656.0,0.011367686092853546
7168.0,0.005972207523882389
7680.0,0.013266951777040958
8192.0,0.012152247130870819
9216.0,-0.0069869328290224075
10240.0,-0.00794669333845377
11264.0,-0.006608101073652506
12288.0,-0.005406018812209368
13312.0,0.011517109349370003
14336.0,0.010380817577242851
end
