version,3.0
numOfCh,1
type,point
parent_name,10-cuts
ch_type,1_1
kcount,1
numberNandB,1
brightnessNandB,1
carpet pos,0
pc,0
Time (ms),CH1 Auto-Correlation
1.0,0.032017216086387634
2.0,0.03143303096294403
3.0,0.030862879008054733
4.0,0.03030894696712494
5.0,0.02978733368217945
6.0,0.02929634414613247
7.0,0.028810927644371986
8.0,0.028335286304354668
9.0,0.027867721393704414
10.0,0.027418997138738632
11.0,0.027001677080988884
12.0,0.026601972058415413
13.0,0.02620583027601242
14.0,0.02580687217414379
15.0,0.025412175804376602
16.0,0.025041760876774788
18.0,0.024317102506756783
20.0,0.023643136024475098
22.0,0.023008115589618683
24.0,0.022416891530156136
26.0,0.021836616098880768
28.0,0.021285194903612137
30.0,0.020765991881489754
32.0,0.020284494385123253
36.0,0.01938035525381565
40.0,0.018565695732831955
44.0,0.01789132133126259
48.0,0.01734452322125435
52.0,0.016917303204536438
56.0,0.01657336950302124
60.0,0.016258077695965767
64.0,0.015925005078315735
72.0,0.0152326924726367
80.0,0.01457311399281025
88.0,0.013807705603539944
96.0,0.01288999617099762
104.0,0.011961501091718674
112.0,0.011484066024422646
120.0,0.011109981685876846
128.0,0.010693424381315708
144.0,0.010121279396116734
160.0,0.009697876870632172
176.0,0.009404316544532776
192.0,0.009446079842746258
208.0,0.008954804390668869
224.0,0.008024183101952076
240.0,0.007229565177112818
256.0,0.006795069202780724
288.0,0.005846833344548941
320.0,0.0049631777219474316
352.0,0.003617337439209223
384.0,0.0018841822165995836
416.0,-5.52884375792928e-06
448.0,-0.0008265555952675641
480.0,-0.0012046023039147258
512.0,-0.0010690694907680154
576.0,-0.0008410380105488002
640.0,-0.0019646696746349335
704.0,-0.002734079258516431
768.0,-0.002684840699657798
832.0,-0.0012670450378209352
896.0,-0.0010700967395678163
960.0,0.0003196556936018169
1024.0,0.0016801689052954316
1152.0,0.002413681009784341
1280.0,0.0010152491740882397
1408.0,-9.79690084932372e-05
1536.0,0.0006673408206552267
1664.0,0.0009207918774336576
1792.0,0.0003434111422393471
1920.0,0.0002458658127579838
2048.0,0.0016831981483846903
2304.0,0.002372258808463812
2560.0,0.000813030288554728
2816.0,-2.4427950847893953e-05
3072.0,0.00020510923059191555
3328.0,0.00013678843970410526
3584.0,-0.003324114019051194
3840.0,-0.002880245679989457
4096.0,0.0010403431951999664
4608.0,0.00207653664983809
5120.0,-0.002546119736507535
5632.0,-0.0032570641487836838
6144.0,4.8150319344131276e-05
6656.0,0.0016151609597727656
7168.0,-0.0012124049244448543
7680.0,-0.0011819035280495882
8192.0,-0.004490930587053299
9216.0,0.0031414476688951254
10240.0,-0.0001746008638292551
11264.0,-0.0016747695626690984
12288.0,-0.005268041510134935
13312.0,-0.0029830278363078833
14336.0,-0.002616096055135131
end
