version,3.0
numOfCh,1
type,point
parent_name,10-cuts
ch_type,1_1
kcount,1
numberNandB,1
brightnessNandB,1
carpet pos,0
pc,0
Time (ms),CH1 Auto-Correlation
1.0,0.03177744150161743
2.0,0.031150566413998604
3.0,0.030541181564331055
4.0,0.029964938759803772
5.0,0.029417548328638077
6.0,0.02887810580432415
7.0,0.028358066454529762
8.0,0.027844779193401337
9.0,0.027355864644050598
10.0,0.026890715584158897
11.0,0.026441534981131554
12.0,0.026020636782050133
13.0,0.0256192684173584
14.0,0.025228260084986687
15.0,0.024861600250005722
16.0,0.02450021728873253
18.0,0.02376837097108364
20.0,0.02303542010486126
22.0,0.022314542904496193
24.0,0.021617187187075615
26.0,0.020925724878907204
28.0,0.020256906747817993
30.0,0.019629864022135735
32.0,0.019020717591047287
36.0,0.01792154833674431
40.0,0.016915958374738693
44.0,0.016077809035778046
48.0,0.015290271490812302
52.0,0.014475771225988865
56.0,0.013649174012243748
60.0,0.012860956601798534
64.0,0.01215969305485487
72.0,0.010920986533164978
80.0,0.009752623736858368
88.0,0.008793841116130352
96.0,0.007976298220455647
104.0,0.007272336166352034
112.0,0.006617474369704723
120.0,0.005938572809100151
128.0,0.005384041927754879
144.0,0.0045939851552248
160.0,0.004257095977663994
176.0,0.004031623713672161
192.0,0.003856749041005969
208.0,0.0035325458738952875
224.0,0.003490768140181899
240.0,0.0033825142309069633
256.0,0.0030376652721315622
288.0,0.0017637249547988176
320.0,0.0005090538179501891
352.0,0.0007090124418027699
384.0,0.0016406649956479669
416.0,0.0021956416312605143
448.0,0.002364808926358819
480.0,0.0029123539570719004
512.0,0.0025886930525302887
576.0,0.0002115315292030573
640.0,-0.001496476004831493
704.0,-0.0014765533851459622
768.0,0.0006152372807264328
832.0,0.0004263280425220728
896.0,-0.0007990053854882717
960.0,5.8758909290190786e-05
1024.0,0.0022427206858992577
1152.0,0.0011680013267323375
1280.0,-0.0003614040615502745
1408.0,-0.0033204355277121067
1536.0,0.0008220699965022504
1664.0,-0.0004201307601761073
1792.0,0.0001477771147619933
1920.0,6.032850069459528e-05
2048.0,0.0021416149102151394
2304.0,-0.00011669240484479815
2560.0,-0.0015197122702375054
2816.0,-0.000978091498836875
3072.0,0.0015835765516385436
3328.0,0.0022353925742208958
3584.0,-0.0011167089687660336
3840.0,-0.0026183954905718565
4096.0,0.00025350606301799417
4608.0,-0.0011278362944722176
5120.0,-0.0010117144556716084
5632.0,-0.0001581536780577153
6144.0,0.0015617093304172158
6656.0,-0.0010775504633784294
7168.0,-4.849963079323061e-05
7680.0,0.0020145135931670666
8192.0,0.0013498656917363405
9216.0,-0.0015879027778282762
10240.0,-0.0011524446308612823
11264.0,-0.0021575167775154114
12288.0,-0.002014788566157222
13312.0,-0.0012783822603523731
14336.0,0.0010826376965269446
end
