version,3.0
numOfCh,1
type,point
parent_name,10-cuts
ch_type,1_1
kcount,1
numberNandB,1
brightnessNandB,1
carpet pos,0
pc,0
Time (ms),CH1 Auto-Correlation
1.0,0.022883068770170212
2.0,0.02246549166738987
3.0,0.02205396443605423
4.0,0.021660933271050453
5.0,0.021278588101267815
6.0,0.0209068451076746
7.0,0.02054835855960846
8.0,0.020206205546855927
9.0,0.01987992599606514
10.0,0.019563496112823486
11.0,0.01925921067595482
12.0,0.018962804228067398
13.0,0.01868085376918316
14.0,0.018411876633763313
15.0,0.01814650557935238
16.0,0.017886104062199593
18.0,0.017396658658981323
20.0,0.016914723441004753
22.0,0.016442041844129562
24.0,0.015983041375875473
26.0,0.01555685792118311
28.0,0.015151998959481716
30.0,0.014759032987058163
32.0,0.014379046857357025
36.0,0.013666545040905476
40.0,0.012977817095816135
44.0,0.012329011224210262
48.0,0.011684214696288109
52.0,0.011044059880077839
56.0,0.01047674659639597
60.0,0.009989039041101933
64.0,0.00950381439179182
72.0,0.008772331289947033
80.0,0.008137274533510208
88.0,0.007491865660995245
96.0,0.006966637447476387
104.0,0.006595770362764597
112.0,0.006264502182602882
120.0,0.006040826439857483
128.0,0.005759653635323048
144.0,0.005016694776713848
160.0,0.004213500302284956
176.0,0.0033938963897526264
192.0,0.003045245772227645
208.0,0.002974754199385643
224.0,0.003232979914173484
240.0,0.0035264198668301105
256.0,0.0034828775096684694
288.0,0.0036149348597973585
320.0,0.0039514536038041115
352.0,0.004282113630324602
384.0,0.004103480372577906
416.0,0.0036743702366948128
448.0,0.0035923949908465147
480.0,0.0035797832533717155
512.0,0.003374533262103796
576.0,0.00286902766674757
640.0,0.0026365076191723347
704.0,0.001024373690597713
768.0,0.00044623276335187256
832.0,0.00022810354130342603
896.0,-0.00047196706873364747
960.0,-0.0001524943218100816
1024.0,0.0008165139588527381
1152.0,0.0011994647793471813
1280.0,-0.0007677421672269702
1408.0,-0.00037369062192738056
1536.0,0.0006315376376733184
1664.0,0.0004559835360851139
1792.0,0.0010917473118752241
1920.0,0.0006882963934913278
2048.0,0.0021974551491439342
2304.0,0.002905128989368677
2560.0,0.0029469854198396206
2816.0,0.0014225599588826299
3072.0,-0.0005025098216719925
3328.0,-0.0008189589716494083
3584.0,-0.0009106138022616506
3840.0,-0.00022883927158545703
4096.0,-0.0006380712729878724
4608.0,0.0007627094746567309
5120.0,0.0010502452496439219
5632.0,-0.0022367597557604313
6144.0,-0.001699905376881361
6656.0,0.001457588979974389
7168.0,0.003180728293955326
7680.0,-0.00017599821148905903
8192.0,-0.0029513549525290728
9216.0,-0.0017049626912921667
10240.0,-0.0029454566538333893
11264.0,-0.0036546101327985525
12288.0,-0.0027477028779685497
13312.0,-0.0032394095323979855
14336.0,-7.265076419571415e-05
end
