version,3.0
numOfCh,1
type,point
parent_name,10-cuts
ch_type,1_1
kcount,1
numberNandB,1
brightnessNandB,1
carpet pos,0
pc,0
Time (ms),CH1 Auto-Correlation
1.0,0.02031690999865532
2.0,0.0199192613363266
3.0,0.019535178318619728
4.0,0.01916133239865303
5.0,0.01879436895251274
6.0,0.01844189316034317
7.0,0.018093498423695564
8.0,0.01776648312807083
9.0,0.017439434304833412
10.0,0.017132457345724106
11.0,0.016835398972034454
12.0,0.016551371663808823
13.0,0.016284547746181488
14.0,0.01603112928569317
15.0,0.015781912952661514
16.0,0.015539690852165222
18.0,0.015082151629030704
20.0,0.01463177427649498
22.0,0.014195205643773079
24.0,0.013775537721812725
26.0,0.013363245874643326
28.0,0.012990806251764297
30.0,0.012660288251936436
32.0,0.01233290508389473
36.0,0.011721008457243443
40.0,0.011185286566615105
44.0,0.01066325418651104
48.0,0.010214251466095448
52.0,0.00982474721968174
56.0,0.009411443024873734
60.0,0.00902603566646576
64.0,0.008663252927362919
72.0,0.007989565841853619
80.0,0.00727504026144743
88.0,0.006722778547555208
96.0,0.006173255853354931
104.0,0.005681964103132486
112.0,0.005137469153851271
120.0,0.004596606828272343
128.0,0.00418501440435648
144.0,0.003803849220275879
160.0,0.003308303887024522
176.0,0.0026524399872869253
192.0,0.0019050330156460404
208.0,0.001361975446343422
224.0,0.001082838512957096
240.0,0.001023689517751336
256.0,0.0007274518720805645
288.0,8.349901327164844e-05
320.0,-0.0005764109664596617
352.0,-0.0007565072155557573
384.0,-0.0009122423944063485
416.0,-0.0009109170059673488
448.0,-0.0009637176990509033
480.0,-0.0004004072688985616
512.0,-1.401471126882825e-05
576.0,0.0009218837367370725
640.0,0.0009347667219117284
704.0,0.00018248887499794364
768.0,0.00015855666424613446
832.0,-9.19508165679872e-05
896.0,-0.00025530505809001625
960.0,0.0005562870064750314
1024.0,0.0010640699183568358
1152.0,0.0004540132940746844
1280.0,-0.0005910348845645785
1408.0,0.0005212011164985597
1536.0,0.0016721331048756838
1664.0,0.00021293181634973735
1792.0,-0.0034571182914078236
1920.0,-0.002294461941346526
2048.0,-0.00010699059203034267
2304.0,0.000913682917598635
2560.0,0.0006196423782967031
2816.0,-0.0006553918356075883
3072.0,-0.00023070765018928796
3328.0,-0.001712540164589882
3584.0,0.00011359473137417808
3840.0,0.00036813574843108654
4096.0,-0.0008768188417889178
4608.0,-0.00028785839094780385
5120.0,0.000880866777151823
5632.0,-0.000689105421770364
6144.0,-7.664531040063594e-06
6656.0,-0.00041882452205754817
7168.0,-0.0015248797135427594
7680.0,-4.312568125897087e-05
8192.0,0.0001015635862131603
9216.0,0.0021713755559176207
10240.0,-0.0007829413516446948
11264.0,0.0006213104352355003
12288.0,-0.0029305226635187864
13312.0,-0.0018149672541767359
14336.0,0.0029326751828193665
end
