version,3.0
numOfCh,1
type,point
parent_name,10-cuts
ch_type,1_1
kcount,1
numberNandB,1
brightnessNandB,1
carpet pos,0
pc,0
Time (ms),CH1 Auto-Correlation
1.0,0.06418954581022263
2.0,0.06299378722906113
3.0,0.06188180297613144
4.0,0.060800354927778244
5.0,0.059776123613119125
6.0,0.0587533563375473
7.0,0.05778356269001961
8.0,0.05684596672654152
9.0,0.055946074426174164
10.0,0.0550590418279171
11.0,0.0542052760720253
12.0,0.05337630212306976
13.0,0.05259765312075615
14.0,0.051825497299432755
15.0,0.05107104405760765
16.0,0.05036895349621773
18.0,0.04905596375465393
20.0,0.047801945358514786
22.0,0.04655482992529869
24.0,0.045375991612672806
26.0,0.04421837255358696
28.0,0.0431029312312603
30.0,0.04199506714940071
32.0,0.04091839864850044
36.0,0.03868812695145607
40.0,0.03663288801908493
44.0,0.03471396490931511
48.0,0.03293700888752937
52.0,0.031362563371658325
56.0,0.030067671090364456
60.0,0.02885466255247593
64.0,0.02770327776670456
72.0,0.02557714469730854
80.0,0.02379724383354187
88.0,0.022331807762384415
96.0,0.020817982032895088
104.0,0.01990533247590065
112.0,0.019224531948566437
120.0,0.018321240320801735
128.0,0.017535151913762093
144.0,0.016109779477119446
160.0,0.014229986816644669
176.0,0.01245052833110094
192.0,0.010469453409314156
208.0,0.008875600062310696
224.0,0.008619332686066628
240.0,0.008759980089962482
256.0,0.009133835323154926
288.0,0.008708695881068707
320.0,0.007799435406923294
352.0,0.007264470681548119
384.0,0.004972273483872414
416.0,0.0015810109907761216
448.0,-0.001079377718269825
480.0,-0.002649629255756736
512.0,-0.003017471870407462
576.0,2.3068259906722233e-06
640.0,0.0016376269049942493
704.0,0.0015665008686482906
768.0,-0.0007744283066131175
832.0,-0.002999014686793089
896.0,-0.003351406194269657
960.0,-0.0051131113432347775
1024.0,-0.002300812629982829
1152.0,-0.0034408285282552242
1280.0,-0.0017260313034057617
1408.0,0.001023498480208218
1536.0,0.0010395415592938662
1664.0,0.0012004310265183449
1792.0,-0.0012878887355327606
1920.0,-0.00786634348332882
2048.0,-0.007581065874546766
2304.0,0.003188856178894639
2560.0,0.002375595038756728
2816.0,-0.002904091030359268
3072.0,-0.003480864455923438
3328.0,-0.006511198356747627
3584.0,-0.00343928555957973
3840.0,0.0001726065092952922
4096.0,-0.0015069954097270966
4608.0,0.0004929784336127341
5120.0,0.003082866547629237
5632.0,-0.0014407107373699546
6144.0,0.003014954272657633
6656.0,-0.0019011206459254026
7168.0,-0.0016802805475890636
7680.0,0.002027026377618313
8192.0,-0.0014963792636990547
9216.0,-0.0003107902011834085
10240.0,0.00012125998910050839
11264.0,-0.0018259804928675294
12288.0,-0.012586953118443489
13312.0,0.00864916667342186
14336.0,0.007794596254825592
end
