version,3.0
numOfCh,1
type,point
parent_name,10-cuts
ch_type,1_1
kcount,1
numberNandB,1
brightnessNandB,1
carpet pos,0
pc,0
Time (ms),CH1 Auto-Correlation
1.0,0.025371277704834938
2.0,0.024797679856419563
3.0,0.02426235005259514
4.0,0.02375485748052597
5.0,0.023260222747921944
6.0,0.022785376757383347
7.0,0.022326776757836342
8.0,0.021883923560380936
9.0,0.021451717242598534
10.0,0.021026184782385826
11.0,0.02062172256410122
12.0,0.02021528221666813
13.0,0.019811930134892464
14.0,0.019413761794567108
15.0,0.019012300297617912
16.0,0.01863008178770542
18.0,0.017934037372469902
20.0,0.01725391484797001
22.0,0.016602667048573494
24.0,0.01600681059062481
26.0,0.015430084429681301
28.0,0.014858204871416092
30.0,0.014297719113528728
32.0,0.013743598945438862
36.0,0.012658833526074886
40.0,0.011628692038357258
44.0,0.010718784295022488
48.0,0.009916593320667744
52.0,0.009295015595853329
56.0,0.008764967322349548
60.0,0.008286845870316029
64.0,0.007836186327040195
72.0,0.006926227826625109
80.0,0.006204389501363039
88.0,0.005634474568068981
96.0,0.005261165555566549
104.0,0.0049920836463570595
112.0,0.004692981950938702
120.0,0.004512481857091188
128.0,0.004197502043098211
144.0,0.003904929617419839
160.0,0.003383498638868332
176.0,0.002898754319176078
192.0,0.0022941934876143932
208.0,0.0019288290059193969
224.0,0.001872398890554905
240.0,0.002095887204632163
256.0,0.0025199789088219404
288.0,0.0026072808541357517
320.0,0.0025409229565411806
352.0,0.002640028716996312
384.0,0.0020195043180137873
416.0,0.00147570064291358
448.0,0.0014813608722761273
480.0,0.001536514493636787
512.0,0.0015776961809024215
576.0,0.000502267328556627
640.0,-0.0005296784802339971
704.0,-0.0007751501398161054
768.0,-0.0010163217084482312
832.0,-0.0008325137896463275
896.0,-0.0006953697884455323
960.0,-0.001938089495524764
1024.0,-0.001984228612855077
1152.0,-0.002070493996143341
1280.0,-0.0017771259881556034
1408.0,-0.0006999585893936455
1536.0,-0.0016300256829708815
1664.0,-0.0008442620164714754
1792.0,-0.0006152091082185507
1920.0,-6.79087606840767e-05
2048.0,0.0009220462525263429
2304.0,0.0007844864740036428
2560.0,6.783477874705568e-05
2816.0,-0.0012075408594682813
3072.0,-1.4049141100258566e-05
3328.0,-0.0022603864781558514
3584.0,-0.0023578673135489225
3840.0,0.00021787888545077294
4096.0,0.003151025390252471
4608.0,0.002310630399733782
5120.0,0.00016017581219784915
5632.0,-0.00023844993847887963
6144.0,-0.0007759516010992229
6656.0,-0.002199723618105054
7168.0,-8.38445412227884e-05
7680.0,-0.0013737489935010672
8192.0,0.0007082920055836439
9216.0,-0.0014105874579399824
10240.0,-0.0004283992457203567
11264.0,0.0004299608408473432
12288.0,-0.0007097437046468258
13312.0,-0.0010449853725731373
14336.0,0.0002359474601689726
end
