version,3.0
numOfCh,1
type,point
parent_name,10-cuts
ch_type,1_1
kcount,1
numberNandB,1
brightnessNandB,1
carpet pos,0
pc,0
Time (ms),CH1 Auto-Correlation
1.0,0.0315902940928936
2.0,0.03102879971265793
3.0,0.030479254201054573
4.0,0.02993081696331501
5.0,0.029396336525678635
6.0,0.028887856751680374
7.0,0.028392300009727478
8.0,0.027918538078665733
9.0,0.02745702490210533
10.0,0.02701186016201973
11.0,0.026569794863462448
12.0,0.026131194084882736
13.0,0.02570977620780468
14.0,0.0253104530274868
15.0,0.02492460235953331
16.0,0.024557914584875107
18.0,0.02386932261288166
20.0,0.023216556757688522
22.0,0.022595105692744255
24.0,0.021955933421850204
26.0,0.02132357656955719
28.0,0.020716816186904907
30.0,0.020130624994635582
32.0,0.01954316720366478
36.0,0.01843254268169403
40.0,0.017357006669044495
44.0,0.01635904610157013
48.0,0.015372737310826778
52.0,0.014425666071474552
56.0,0.013562467880547047
60.0,0.012715809047222137
64.0,0.011948490515351295
72.0,0.010579090565443039
80.0,0.00942886620759964
88.0,0.00845859944820404
96.0,0.007655457593500614
104.0,0.006965107284486294
112.0,0.006350028794258833
120.0,0.006026975344866514
128.0,0.005779263563454151
144.0,0.0052739414386451244
160.0,0.0048738764598965645
176.0,0.004059485159814358
192.0,0.003027980448678136
208.0,0.0021884101442992687
224.0,0.0014481843682006001
240.0,0.0009615484159439802
256.0,0.00043829053174704313
288.0,-0.0010608474258333445
320.0,-0.001457052188925445
352.0,-0.0010100682266056538
384.0,-0.00011165274190716445
416.0,-0.0006759037496522069
448.0,-0.0014438157668337226
480.0,-0.0020219553261995316
512.0,-0.0015961852623149753
576.0,6.057002246961929e-05
640.0,0.0018284262623637915
704.0,0.003751730779185891
768.0,0.004140452016144991
832.0,0.0037112822756171227
896.0,0.00358408922329545
960.0,0.0018476966070011258
1024.0,-0.0006791693158447742
1152.0,-0.0007575625204481184
1280.0,-0.0003751031181309372
1408.0,0.0013219555839896202
1536.0,0.0026876276824623346
1664.0,0.0001381794863846153
1792.0,-0.0014467607252299786
1920.0,-0.0031645765993744135
2048.0,-0.00036967050982639194
2304.0,0.001003704615868628
2560.0,-0.00025370658840984106
2816.0,-0.000819356762804091
3072.0,0.00029140099650248885
3328.0,-0.0009924372425302863
3584.0,-3.5813311114907265e-05
3840.0,0.0002159742871299386
4096.0,-0.0019924656953662634
4608.0,-0.0011899195378646255
5120.0,-0.00047473396989516914
5632.0,-0.0021677077747881413
6144.0,0.00034295773366466165
6656.0,0.001757068675942719
7168.0,0.0002099553676089272
7680.0,-0.0004011854180134833
8192.0,0.0005304131773300469
9216.0,-0.0044477167539298534
10240.0,-0.0010333310347050428
11264.0,-0.001980496570467949
12288.0,-0.0011475281789898872
13312.0,0.00516003230586648
14336.0,0.001524734660051763
end
