version,3.0
numOfCh,1
type,point
parent_name,10-cuts
ch_type,1_1
kcount,1
numberNandB,1
brightnessNandB,1
carpet pos,0
pc,0
Time (ms),CH1 Auto-Correlation
1.0,0.05699543282389641
2.0,0.05572544410824776
3.0,0.05451302230358124
4.0,0.05334401875734329
5.0,0.05223891884088516
6.0,0.05118052288889885
7.0,0.050138965249061584
8.0,0.04912690818309784
9.0,0.048136841505765915
10.0,0.04718347266316414
11.0,0.046257585287094116
12.0,0.045369140803813934
13.0,0.04449794441461563
14.0,0.043641798198223114
15.0,0.042796891182661057
16.0,0.04197937995195389
18.0,0.04042823612689972
20.0,0.039004240185022354
22.0,0.037649497389793396
24.0,0.03635156899690628
26.0,0.035118672996759415
28.0,0.033955927938222885
30.0,0.03286047279834747
32.0,0.031790513545274734
36.0,0.02976265735924244
40.0,0.027853665873408318
44.0,0.026008013635873795
48.0,0.024384820833802223
52.0,0.022961363196372986
56.0,0.021837186068296432
60.0,0.02080344781279564
64.0,0.019780617207288742
72.0,0.018012680113315582
80.0,0.016981154680252075
88.0,0.0156710147857666
96.0,0.01458900049328804
104.0,0.01364788319915533
112.0,0.012848159298300743
120.0,0.012478712946176529
128.0,0.012304682284593582
144.0,0.011356147937476635
160.0,0.01006201934069395
176.0,0.00824615266174078
192.0,0.007387643214315176
208.0,0.006607812363654375
224.0,0.006397063843905926
240.0,0.005983406212180853
256.0,0.006014458369463682
288.0,0.0036221302580088377
320.0,-0.00010849076352315024
352.0,-0.0022792210802435875
384.0,-0.0016406395006924868
416.0,0.0002492713974788785
448.0,-0.00019679238903336227
480.0,-0.0021696824114769697
512.0,-0.0014982374850660563
576.0,0.0005890011670999229
640.0,-0.0025702985003590584
704.0,-0.0011046689469367266
768.0,-0.002543872222304344
832.0,-0.0020056527573615313
896.0,-0.0037104689981788397
960.0,-0.00230617867782712
1024.0,-0.0019978557247668505
1152.0,-0.006440415978431702
1280.0,-0.004277235362678766
1408.0,-0.0027568191289901733
1536.0,0.0024769657757133245
1664.0,-0.0009305643616244197
1792.0,-0.001562390592880547
1920.0,-0.003976221662014723
2048.0,-0.006380119826644659
2304.0,-0.0009482785826548934
2560.0,0.0010309763019904494
2816.0,0.004318557679653168
3072.0,0.002290313830599189
3328.0,0.0022836467251181602
3584.0,-0.002784552052617073
3840.0,0.00097977789118886
4096.0,0.0005733825382776558
4608.0,-0.001157865859568119
5120.0,-0.0032006390392780304
5632.0,-0.0006931254174560308
6144.0,0.0034941222984343767
6656.0,0.005073413718491793
7168.0,0.0003787245077546686
7680.0,2.2609892766922712e-05
8192.0,-0.004851385485380888
9216.0,0.0027369032613933086
10240.0,0.001708207419142127
11264.0,-0.010428160429000854
12288.0,0.003860156750306487
13312.0,0.00822496972978115
14336.0,-0.007440214045345783
end
