version,3.0
numOfCh,1
type,point
parent_name,10-cuts
ch_type,1_1
kcount,1
numberNandB,1
brightnessNandB,1
carpet pos,0
pc,0
Time (ms),CH1 Auto-Correlation
1.0,0.06568815559148788
2.0,0.06451652944087982
3.0,0.06340640038251877
4.0,0.062314070761203766
5.0,0.061265263706445694
6.0,0.0602416954934597
7.0,0.05920716002583504
8.0,0.05822020396590233
9.0,0.05723637342453003
10.0,0.056259557604789734
11.0,0.05533415824174881
12.0,0.05445621535181999
13.0,0.05359514430165291
14.0,0.05279189348220825
15.0,0.052032675594091415
16.0,0.05125050991773605
18.0,0.04982554540038109
20.0,0.04852645844221115
22.0,0.04726775363087654
24.0,0.0460713766515255
26.0,0.04490425065159798
28.0,0.043745264410972595
30.0,0.04260977357625961
32.0,0.041529394686222076
36.0,0.03958768770098686
40.0,0.038009583950042725
44.0,0.03649838641285896
48.0,0.0350818894803524
52.0,0.033907901495695114
56.0,0.032922856509685516
60.0,0.0319710373878479
64.0,0.03095874935388565
72.0,0.028782308101654053
80.0,0.026279281824827194
88.0,0.024087125435471535
96.0,0.02274087630212307
104.0,0.02154458314180374
112.0,0.02017146721482277
120.0,0.01853429153561592
128.0,0.01705249771475792
144.0,0.01505662128329277
160.0,0.013365406543016434
176.0,0.012318362481892109
192.0,0.012297389097511768
208.0,0.012407023459672928
224.0,0.012418219819664955
240.0,0.011970289051532745
256.0,0.012072245590388775
288.0,0.010389220900833607
320.0,0.008579951710999012
352.0,0.006876959931105375
384.0,0.008524451404809952
416.0,0.010287676937878132
448.0,0.008880047127604485
480.0,0.009003191255033016
512.0,0.008576835505664349
576.0,0.008088765665888786
640.0,0.008192299865186214
704.0,0.007729065604507923
768.0,0.0033904234878718853
832.0,0.00035591525374911726
896.0,0.0006357795791700482
960.0,0.001355499611236155
1024.0,0.0005516520468518138
1152.0,0.0022856174036860466
1280.0,0.002349735237658024
1408.0,0.0003150466945953667
1536.0,0.0028038928285241127
1664.0,0.0014566631289198995
1792.0,0.0001974440092453733
1920.0,0.004201304633170366
2048.0,0.005117106717079878
2304.0,0.0015952507965266705
2560.0,0.004843566101044416
2816.0,0.0018972086254507303
3072.0,0.004418218042701483
3328.0,0.005342511460185051
3584.0,0.0032925521954894066
3840.0,0.00620805099606514
4096.0,0.0031738439574837685
4608.0,-0.000926978827919811
5120.0,-0.00302220624871552
5632.0,-0.006368780974298716
6144.0,-0.006801277864724398
6656.0,-0.007607423700392246
7168.0,-0.007414772640913725
7680.0,-0.003378195222467184
8192.0,-0.006737525574862957
9216.0,-0.0041273850947618484
10240.0,-0.010218351148068905
11264.0,0.0018135077552869916
12288.0,-0.0005747770774178207
13312.0,-0.005745506379753351
14336.0,0.0006784888100810349
end
