version,3.0
numOfCh,1
type,point
parent_name,10-cuts
ch_type,1_1
kcount,1
numberNandB,1
brightnessNandB,1
carpet pos,0
pc,0
Time (ms),CH1 Auto-Correlation
1.0,0.0276155024766922
2.0,0.027041353285312653
3.0,0.02650200016796589
4.0,0.025974109768867493
5.0,0.025483490899205208
6.0,0.02501365728676319
7.0,0.024556584656238556
8.0,0.024112461134791374
9.0,0.02368411421775818
10.0,0.02325984090566635
11.0,0.022852616384625435
12.0,0.022451622411608696
13.0,0.022064656019210815
14.0,0.021689049899578094
15.0,0.02131730504333973
16.0,0.020925968885421753
18.0,0.020154280588030815
20.0,0.019423047080636024
22.0,0.018747791647911072
24.0,0.018128467723727226
26.0,0.017563479021191597
28.0,0.017035171389579773
30.0,0.01650807447731495
32.0,0.01599842682480812
36.0,0.015114869922399521
40.0,0.014305072836577892
44.0,0.013580625876784325
48.0,0.012930248863995075
52.0,0.01233050599694252
56.0,0.011726975440979004
60.0,0.011219603940844536
64.0,0.01086299680173397
72.0,0.010118781588971615
80.0,0.00929183792322874
88.0,0.00858844630420208
96.0,0.0078071230091154575
104.0,0.007043980527669191
112.0,0.006300447974354029
120.0,0.00560405571013689
128.0,0.0050582787953317165
144.0,0.004374566487967968
160.0,0.004033838864415884
176.0,0.0034459037706255913
192.0,0.003116115229204297
208.0,0.0031248261220753193
224.0,0.0035810263361781836
240.0,0.0038298172876238823
256.0,0.003974143881350756
288.0,0.0037704859860241413
320.0,0.0029763116035610437
352.0,0.002116205170750618
384.0,0.002308201277628541
416.0,0.0027731864247471094
448.0,0.002852469915524125
480.0,0.0033163735643029213
512.0,0.0031395722180604935
576.0,0.001288277911953628
640.0,0.001986939227208495
704.0,0.002689292188733816
768.0,0.0032441848888993263
832.0,0.0019506998360157013
896.0,-0.00022878040908835828
960.0,-0.0012535344576463103
1024.0,-0.00152590312063694
1152.0,-0.0018207239918410778
1280.0,-0.003176153637468815
1408.0,-0.0028671990148723125
1536.0,-0.0019266288727521896
1664.0,-0.0014586958568543196
1792.0,-0.002765529789030552
1920.0,-0.002533707534894347
2048.0,-0.0034377756528556347
2304.0,-0.0010029865661635995
2560.0,-0.00140908092726022
2816.0,0.0009672888554632664
3072.0,0.0013064098311588168
3328.0,0.0009688291465863585
3584.0,0.003596763126552105
3840.0,0.0004342764150351286
4096.0,-0.002632678719237447
4608.0,-0.0030675288289785385
5120.0,-0.0008388779824599624
5632.0,0.0017697280272841454
6144.0,0.0005431450554169714
6656.0,0.0003675470070447773
7168.0,0.0005971799837425351
7680.0,-0.00130413135048002
8192.0,-0.0010279128327965736
9216.0,0.0011308938264846802
10240.0,-0.0014990968629717827
11264.0,0.001156019396148622
12288.0,-0.0033135181292891502
13312.0,-0.008172585628926754
14336.0,0.006280112080276012
end
