version,3.0
numOfCh,1
type,point
parent_name,10-cuts
ch_type,1_1
kcount,1
numberNandB,1
brightnessNandB,1
carpet pos,0
pc,0
Time (ms),CH1 Auto-Correlation
1.0,0.019159827381372452
2.0,0.01877146027982235
3.0,0.018396034836769104
4.0,0.01803802140057087
5.0,0.017687570303678513
6.0,0.017347028478980064
7.0,0.017020897939801216
8.0,0.016706811264157295
9.0,0.016407905146479607
10.0,0.016118237748742104
11.0,0.01582692191004753
12.0,0.015544069930911064
13.0,0.015267331153154373
14.0,0.014995106495916843
15.0,0.01473215688019991
16.0,0.014483829960227013
18.0,0.01399422250688076
20.0,0.013540573418140411
22.0,0.013133763335645199
24.0,0.012760359793901443
26.0,0.01240101084113121
28.0,0.012051465921103954
30.0,0.011729370802640915
32.0,0.011431314051151276
36.0,0.010887549258768559
40.0,0.010375148616731167
44.0,0.009866124019026756
48.0,0.009381103329360485
52.0,0.008919116109609604
56.0,0.008529355749487877
60.0,0.008241127245128155
64.0,0.007993124425411224
72.0,0.007547772955149412
80.0,0.007095025852322578
88.0,0.006617553532123566
96.0,0.006201234646141529
104.0,0.005873978137969971
112.0,0.005495014134794474
120.0,0.004952587187290192
128.0,0.004367849789559841
144.0,0.0034614575561136007
160.0,0.0031395968981087208
176.0,0.003096461296081543
192.0,0.0027836929075419903
208.0,0.0023446790874004364
224.0,0.0023032098542898893
240.0,0.0025042551569640636
256.0,0.0024649198167026043
288.0,0.002249359618872404
320.0,0.0016346320044249296
352.0,0.001622712821699679
384.0,0.0009712038445286453
416.0,0.0002260757755720988
448.0,-0.0002565235481597483
480.0,-0.00012233524466864765
512.0,-0.00041440175846219063
576.0,-0.0001534798793727532
640.0,-0.0009491767268627882
704.0,-0.001813459093682468
768.0,-0.00234226998873055
832.0,-0.0013514431193470955
896.0,-0.0005468043964356184
960.0,0.000366698281140998
1024.0,7.436578744091094e-05
1152.0,-0.0005345375393517315
1280.0,-0.001222444698214531
1408.0,-0.0015840312698855996
1536.0,0.00019926246022805572
1664.0,0.0005418276996351779
1792.0,0.000899716978892684
1920.0,0.0015447470359504223
2048.0,0.0009214201127178967
2304.0,-0.00044477643677964807
2560.0,-0.0006258489447645843
2816.0,-0.0009624428930692375
3072.0,-0.0012716070050373673
3328.0,-0.0012267973506823182
3584.0,0.0005552963702939451
3840.0,0.0006929915980435908
4096.0,-0.0006227021804079413
4608.0,-0.0006305123097263277
5120.0,-0.002123808953911066
5632.0,-0.0016556491609662771
6144.0,-0.0001803763589123264
6656.0,0.000584166671615094
7168.0,0.00019428404630161822
7680.0,-0.00026316140429116786
8192.0,0.0025866790674626827
9216.0,-0.0008255774737335742
10240.0,0.002394258277490735
11264.0,0.00046673082397319376
12288.0,-0.0013668964384123683
13312.0,-0.0019838125444948673
14336.0,0.0014263836201280355
end
