version,3.0
numOfCh,1
type,point
parent_name,10-cuts
ch_type,1_1
kcount,1
numberNandB,1
brightnessNandB,1
carpet pos,0
pc,0
Time (ms),CH1 Auto-Correlation
1.0,0.023822451010346413
2.0,0.023422423750162125
3.0,0.023036183789372444
4.0,0.022648660466074944
5.0,0.022270282730460167
6.0,0.021910248324275017
7.0,0.021567778661847115
8.0,0.021227732300758362
9.0,0.020884137600660324
10.0,0.020546162500977516
11.0,0.02022499032318592
12.0,0.019912857562303543
13.0,0.01961558312177658
14.0,0.01934259943664074
15.0,0.019079333171248436
16.0,0.01883128471672535
18.0,0.018341705203056335
20.0,0.017863070592284203
22.0,0.017416127026081085
24.0,0.017012158408761024
26.0,0.01660987176001072
28.0,0.01619899272918701
30.0,0.01580989360809326
32.0,0.015451768413186073
36.0,0.014785261824727058
40.0,0.014202423393726349
44.0,0.013714414089918137
48.0,0.013285117223858833
52.0,0.012914399616420269
56.0,0.012613369151949883
60.0,0.012303938157856464
64.0,0.01197807490825653
72.0,0.011418554931879044
80.0,0.01097042765468359
88.0,0.010374043136835098
96.0,0.009635411202907562
104.0,0.008925313130021095
112.0,0.008285442367196083
120.0,0.007866035215556622
128.0,0.007446727249771357
144.0,0.006673188414424658
160.0,0.006120598409324884
176.0,0.0056176818907260895
192.0,0.005118326749652624
208.0,0.004713980946689844
224.0,0.004185670055449009
240.0,0.0038161955308169127
256.0,0.0034738790709525347
288.0,0.003410672303289175
320.0,0.00340596167370677
352.0,0.0032271610107272863
384.0,0.0027377766091376543
416.0,0.0029843293596059084
448.0,0.0036306059919297695
480.0,0.004237923305481672
512.0,0.0046888734214007854
576.0,0.004379935096949339
640.0,0.004708454944193363
704.0,0.004930575378239155
768.0,0.004101586993783712
832.0,0.002466875594109297
896.0,0.0006131234695203602
960.0,-0.000601348583586514
1024.0,-0.001904727891087532
1152.0,-0.0014103309949859977
1280.0,-0.0003063397016376257
1408.0,-0.0005920210387557745
1536.0,-0.0017182359006255865
1664.0,-0.0018405584851279855
1792.0,-0.0028737287502735853
1920.0,-0.0028247078880667686
2048.0,-0.002079565078020096
2304.0,-0.0023778353352099657
2560.0,-0.0003673361788969487
2816.0,0.00046426491462625563
3072.0,-0.0021141888573765755
3328.0,-0.0005312457215040922
3584.0,0.00031121281790547073
3840.0,0.00011727290984708816
4096.0,0.003599145682528615
4608.0,0.001891894149594009
5120.0,0.0014452028553932905
5632.0,-0.0016276148380711675
6144.0,-0.0051417904905974865
6656.0,-0.003973778802901506
7168.0,-0.0031362688168883324
7680.0,-0.00231870892457664
8192.0,-0.00021313507750164717
9216.0,0.0023455198388546705
10240.0,-0.001150714815594256
11264.0,-0.003634766908362508
12288.0,0.003822884988039732
13312.0,0.004216737579554319
14336.0,-0.0005872980691492558
end
