version,3.0
numOfCh,1
type,point
parent_name,10-cuts
ch_type,1_1
kcount,1
numberNandB,1
brightnessNandB,1
carpet pos,0
pc,0
Time (ms),CH1 Auto-Correlation
1.0,0.08171732723712921
2.0,0.08044172078371048
3.0,0.07921648025512695
4.0,0.07801903784275055
5.0,0.07687927037477493
6.0,0.07578401267528534
7.0,0.07470438629388809
8.0,0.07362893968820572
9.0,0.07258766889572144
10.0,0.07157154381275177
11.0,0.07059134542942047
12.0,0.06960918009281158
13.0,0.06863841414451599
14.0,0.06769502907991409
15.0,0.06675344705581665
16.0,0.06587440520524979
18.0,0.06426763534545898
20.0,0.06271815299987793
22.0,0.06129080057144165
24.0,0.05997386574745178
26.0,0.058687590062618256
28.0,0.05747088044881821
30.0,0.05636757239699364
32.0,0.05534796044230461
36.0,0.053435999900102615
40.0,0.05160398408770561
44.0,0.04992186650633812
48.0,0.04846179485321045
52.0,0.04702036827802658
56.0,0.04556574672460556
60.0,0.04424662888050079
64.0,0.043186455965042114
72.0,0.04158356785774231
80.0,0.039944153279066086
88.0,0.038104813545942307
96.0,0.0361909493803978
104.0,0.03458411246538162
112.0,0.03358033671975136
120.0,0.03267621248960495
128.0,0.031870801001787186
144.0,0.030173277482390404
160.0,0.028447473421692848
176.0,0.026146642863750458
192.0,0.02385188266634941
208.0,0.022104060277342796
224.0,0.02022254280745983
240.0,0.019472217187285423
256.0,0.01922936923801899
288.0,0.019447680562734604
320.0,0.01780891977250576
352.0,0.013079674914479256
384.0,0.012863337993621826
416.0,0.012934142723679543
448.0,0.011299117468297482
480.0,0.007459954358637333
512.0,0.00608872389420867
576.0,0.001497428398579359
640.0,-0.004785261582583189
704.0,-0.003533436916768551
768.0,-0.005455197766423225
832.0,-0.005536203738301992
896.0,-0.006239423993974924
960.0,-0.00694310711696744
1024.0,-0.005230226553976536
1152.0,-0.0019337491830810905
1280.0,-0.004223974887281656
1408.0,0.0005537702236324549
1536.0,0.0038561637047678232
1664.0,0.001192611176520586
1792.0,-0.005336183588951826
1920.0,-0.0011489655589684844
2048.0,-0.0009852690855041146
2304.0,-0.002048951108008623
2560.0,0.007552774623036385
2816.0,0.007754202466458082
3072.0,0.011302986182272434
3328.0,-0.0036650781985372305
3584.0,-0.005932370666414499
3840.0,-0.014527394436299801
4096.0,-0.0027996187563985586
4608.0,0.006916810758411884
5120.0,0.007286148611456156
5632.0,-0.0036976169794797897
6144.0,-0.006092169787734747
6656.0,-0.005705986637622118
7168.0,0.008057071827352047
7680.0,0.012384606525301933
8192.0,-0.0011224481277167797
9216.0,-0.006069550756365061
10240.0,-0.006312760058790445
11264.0,-0.01092554908245802
12288.0,-0.0032777211163192987
13312.0,-0.007856913842260838
14336.0,-0.010373673401772976
end
