version,3.0
numOfCh,1
type,point
parent_name,10-cuts
ch_type,1_1
kcount,1
numberNandB,1
brightnessNandB,1
carpet pos,0
pc,0
Time (ms),CH1 Auto-Correlation
1.0,0.030615627765655518
2.0,0.030011041089892387
3.0,0.029423527419567108
4.0,0.028863495215773582
5.0,0.028323287144303322
6.0,0.027802664786577225
7.0,0.02730570361018181
8.0,0.026831135153770447
9.0,0.02636740170419216
10.0,0.025915127247571945
11.0,0.025462718680500984
12.0,0.025028860196471214
13.0,0.024598320946097374
14.0,0.024202020838856697
15.0,0.023830194026231766
16.0,0.02347136102616787
18.0,0.02275242656469345
20.0,0.02204691804945469
22.0,0.021380487829446793
24.0,0.02075028419494629
26.0,0.020142152905464172
28.0,0.019547440111637115
30.0,0.019006097689270973
32.0,0.018545057624578476
36.0,0.01773831620812416
40.0,0.01698734425008297
44.0,0.016373706981539726
48.0,0.015751926228404045
52.0,0.01505256537348032
56.0,0.01434907503426075
60.0,0.01372856181114912
64.0,0.013139236718416214
72.0,0.012271738611161709
80.0,0.011590588837862015
88.0,0.011219369247555733
96.0,0.010796500369906425
104.0,0.01022013183683157
112.0,0.009619436226785183
120.0,0.009022720158100128
128.0,0.008336175233125687
144.0,0.007217399310320616
160.0,0.006251259706914425
176.0,0.005242120008915663
192.0,0.0043261111713945866
208.0,0.003719210857525468
224.0,0.0032686376944184303
240.0,0.0026765684597194195
256.0,0.002621124964207411
288.0,0.0032348984386771917
320.0,0.0029776610899716616
352.0,0.0017022701213136315
384.0,0.0014927551383152604
416.0,0.0013750089565292
448.0,0.0003007472842000425
480.0,-0.0012078220024704933
512.0,-0.0017024013213813305
576.0,-0.0021251116413623095
640.0,-0.0028770214412361383
704.0,-0.003169601084664464
768.0,-0.0035010522697120905
832.0,-0.003769163740798831
896.0,-0.0026298414450138807
960.0,0.00014203849423211068
1024.0,0.0018224121304228902
1152.0,0.0010856501758098602
1280.0,-0.000593213306274265
1408.0,0.0030127207282930613
1536.0,0.004191368352621794
1664.0,0.003102631540969014
1792.0,0.0024691817816346884
1920.0,0.0019845624919980764
2048.0,0.0013647705782204866
2304.0,-0.00179473462048918
2560.0,-0.001152019132860005
2816.0,0.0006271714228205383
3072.0,0.0034654426854103804
3328.0,0.0011725544463843107
3584.0,-0.002878485480323434
3840.0,-0.0018095946870744228
4096.0,0.0009297369979321957
4608.0,-0.0012999041937291622
5120.0,-0.002785244258120656
5632.0,9.666702680988237e-05
6144.0,-0.0028900341130793095
6656.0,-0.0047307927161455154
7168.0,0.0008248076774179935
7680.0,-0.00037479688762687147
8192.0,-0.0031389351934194565
9216.0,-0.0016454786527901888
10240.0,0.0012848317855969071
11264.0,0.0005199171719141304
12288.0,0.0011399316135793924
13312.0,0.0027725950349122286
14336.0,0.001661987043917179
end
