version,3.0
numOfCh,1
type,point
parent_name,10-cuts
ch_type,1_1
kcount,1
numberNandB,1
brightnessNandB,1
carpet pos,0
pc,0
Time (ms),CH1 Auto-Correlation
1.0,0.03406000882387161
2.0,0.033459536731243134
3.0,0.0328923761844635
4.0,0.03233867511153221
5.0,0.031788796186447144
6.0,0.0312507227063179
7.0,0.03073461726307869
8.0,0.03023289516568184
9.0,0.029743961989879608
10.0,0.02927638590335846
11.0,0.028814824298024178
12.0,0.028362853452563286
13.0,0.02792653813958168
14.0,0.027514902874827385
15.0,0.027119230479002
16.0,0.026749558746814728
18.0,0.026048481464385986
20.0,0.025369273498654366
22.0,0.02469787187874317
24.0,0.024032171815633774
26.0,0.023353321477770805
28.0,0.022666746750473976
30.0,0.021993601694703102
32.0,0.021333180367946625
36.0,0.0201355442404747
40.0,0.01898183487355709
44.0,0.017914025112986565
48.0,0.01693405583500862
52.0,0.016048576682806015
56.0,0.01531573012471199
60.0,0.01461788546293974
64.0,0.01390032283961773
72.0,0.012519528158009052
80.0,0.011332646943628788
88.0,0.010449704714119434
96.0,0.00975993275642395
104.0,0.009162367321550846
112.0,0.008720549754798412
120.0,0.008251765742897987
128.0,0.008050765842199326
144.0,0.00783400796353817
160.0,0.007598579861223698
176.0,0.007251392584294081
192.0,0.006547154858708382
208.0,0.006044886540621519
224.0,0.005217295140028
240.0,0.004918999969959259
256.0,0.004821490030735731
288.0,0.004089796915650368
320.0,0.0031358685810118914
352.0,0.0022763798478990793
384.0,0.002593538723886013
416.0,0.0027199345640838146
448.0,0.0035886322148144245
480.0,0.004742474760860205
512.0,0.005131580866873264
576.0,0.00482365395873785
640.0,0.0038880002684891224
704.0,0.0021075981203466654
768.0,0.0010602924739941955
832.0,-5.908720413572155e-05
896.0,-0.0013645610306411982
960.0,-0.002092778217047453
1024.0,-0.0021203223150223494
1152.0,-0.0020661114249378443
1280.0,-0.002468949183821678
1408.0,-0.0018439043778926134
1536.0,-0.002164370846003294
1664.0,0.00018241519865114242
1792.0,0.0011713503627106547
1920.0,0.00031925883376970887
2048.0,-0.0019995367620140314
2304.0,0.0001310303487116471
2560.0,-0.0009728871518746018
2816.0,0.0016917729517444968
3072.0,0.0011073104105889797
3328.0,0.001647523487918079
3584.0,0.004425437189638615
3840.0,0.000873429118655622
4096.0,0.0005036685615777969
4608.0,-0.0021547109354287386
5120.0,-0.002548062242567539
5632.0,0.0006477503338828683
6144.0,-0.0006035752594470978
6656.0,-0.002149641513824463
7168.0,0.0030809969175606966
7680.0,0.003429708071053028
8192.0,-0.0018620771588757634
9216.0,-0.0026369791012257338
10240.0,-0.001969696255400777
11264.0,-0.002251275349408388
12288.0,-0.0030111768282949924
13312.0,0.0019694066140800714
14336.0,-0.001977009465917945
end
