version,3.0
numOfCh,1
type,point
parent_name,484af_1dot0-0dot01
ch_type,1_1
kcount,1
numberNandB,1
brightnessNandB,1
carpet pos,0
pc,0
Time (ms),CH1 Auto-Correlation
1.0,0.040032580494880676
2.0,0.037000712007284164
3.0,0.03435638174414635
4.0,0.032023824751377106
5.0,0.02997709810733795
6.0,0.02819841541349888
7.0,0.02662023715674877
8.0,0.025253504514694214
9.0,0.023970477283000946
10.0,0.022756600752472878
11.0,0.02172067202627659
12.0,0.020756447687745094
13.0,0.019849613308906555
14.0,0.019076192751526833
15.0,0.018366359174251556
16.0,0.017651457339525223
18.0,0.016471613198518753
20.0,0.015383768826723099
22.0,0.014278682880103588
24.0,0.013340633362531662
26.0,0.012438591569662094
28.0,0.011507437564432621
30.0,0.010654165409505367
32.0,0.009900962933897972
36.0,0.008908115327358246
40.0,0.008072875440120697
44.0,0.007321014069020748
48.0,0.0069498708471655846
52.0,0.007114802487194538
56.0,0.00686644297093153
60.0,0.0066803512163460255
64.0,0.0067133777774870396
72.0,0.006827299017459154
80.0,0.0061941067688167095
88.0,0.00524969631806016
96.0,0.00446332897990942
104.0,0.0038879227358847857
112.0,0.0034797184634953737
120.0,0.003327059093862772
128.0,0.0037223324179649353
144.0,0.003640630980953574
160.0,0.003618351649492979
176.0,0.002081295708194375
192.0,0.0006647788686677814
208.0,-0.0006904088659211993
224.0,-0.0011220222804695368
240.0,-0.0011239337036386132
256.0,-0.0013006458757445216
288.0,-0.0018819955876097083
320.0,-0.002768180565908551
352.0,-0.0024590245448052883
384.0,-0.0022908670362085104
416.0,-0.0012081332970410585
448.0,-0.0011842458043247461
480.0,-0.0005007820436730981
512.0,-0.0005287050153128803
576.0,-0.00013654943904839456
640.0,-0.0011230434756726027
704.0,-0.0011225546477362514
768.0,-0.0014839296927675605
832.0,-0.0009627778199501336
896.0,0.00012541361502371728
960.0,0.00045132890227250755
1024.0,0.0015092788962647319
1152.0,-0.0008980527054518461
1280.0,0.0006948178051970899
1408.0,0.0011371509172022343
1536.0,0.0009121187031269073
1664.0,-0.000470584025606513
1792.0,-0.0015706231351941824
1920.0,-0.0009033601963892579
2048.0,-0.0018940125592052937
2304.0,-0.0014028504956513643
2560.0,0.0011274863500148058
2816.0,0.0015639280900359154
3072.0,-0.0014571801293641329
3328.0,-0.00018709962023422122
3584.0,-0.0008546483586542308
3840.0,0.00038051922456361353
4096.0,0.0007462634821422398
4608.0,-0.0011535794474184513
5120.0,0.00082835165085271
5632.0,0.001595738111063838
6144.0,-0.0025391147937625647
6656.0,-2.0218822101014666e-05
7168.0,-0.00035737126017920673
7680.0,-0.001613488420844078
8192.0,0.002405155450105667
end
