version,3.0
numOfCh,1
type,point
parent_name,484af_1dot0-0dot01
ch_type,1_1
kcount,1
numberNandB,1
brightnessNandB,1
carpet pos,0
pc,0
Time (ms),CH1 Auto-Correlation
1.0,0.04530688375234604
2.0,0.042155735194683075
3.0,0.03950289264321327
4.0,0.03714964538812637
5.0,0.03508736938238144
6.0,0.033240798860788345
7.0,0.031746167689561844
8.0,0.030315015465021133
9.0,0.02900686487555504
10.0,0.027890607714653015
11.0,0.02682931162416935
12.0,0.025935642421245575
13.0,0.025095444172620773
14.0,0.02438715659081936
15.0,0.023583129048347473
16.0,0.022747518494725227
18.0,0.021124791353940964
20.0,0.01956360787153244
22.0,0.018325848504900932
24.0,0.017323270440101624
26.0,0.016521364450454712
28.0,0.01573210582137108
30.0,0.014984854497015476
32.0,0.01425289735198021
36.0,0.012903249822556973
40.0,0.011904839426279068
44.0,0.011214962229132652
48.0,0.010229527950286865
52.0,0.009300836361944675
56.0,0.008354858495295048
60.0,0.007364987395703793
64.0,0.0066780634224414825
72.0,0.006819347385317087
80.0,0.00693129887804389
88.0,0.007637036964297295
96.0,0.007901139557361603
104.0,0.007115471642464399
112.0,0.006305690389126539
120.0,0.005475122015923262
128.0,0.004710138775408268
144.0,0.003787087043747306
160.0,0.0037455118726938963
176.0,0.003375513246282935
192.0,0.0027334175538271666
208.0,0.0020539986435323954
224.0,0.0014915196225047112
240.0,0.0018862314755097032
256.0,0.002968001877889037
288.0,0.003095401916652918
320.0,0.001722112181596458
352.0,0.0014602970331907272
384.0,0.003465167013928294
416.0,0.003749517723917961
448.0,0.0036253517027944326
480.0,0.003186140675097704
512.0,0.0013090138090774417
576.0,0.0008852776372805238
640.0,0.0008571342914365232
704.0,0.0016335762338712811
768.0,0.0008356822654604912
832.0,-0.0017605279572308064
896.0,-0.002443705452606082
960.0,-0.001989089185371995
1024.0,0.00017416149785276502
1152.0,0.0013758332934230566
1280.0,-0.0006253684987314045
1408.0,-0.00035482371458783746
1536.0,0.0005093293730169535
1664.0,0.0014823988312855363
1792.0,-0.0003479950246401131
1920.0,-0.00017187932098750025
2048.0,0.00012696950579993427
2304.0,0.0009646076941862702
2560.0,-0.0006074726697988808
2816.0,-0.0025863905902951956
3072.0,-0.0005971182836219668
3328.0,0.00020270950335543603
3584.0,0.000784365285653621
3840.0,0.0016527578700333834
4096.0,0.0008835431654006243
4608.0,-0.002086080377921462
5120.0,-0.0011594569077715278
5632.0,-0.0005144927417859435
6144.0,0.00016786839114502072
6656.0,-0.001911444473080337
7168.0,0.0018965861527249217
7680.0,0.00047144992277026176
8192.0,-0.0008857937064021826
end
