version,3.0
numOfCh,1
type,point
parent_name,484af_1dot0-0dot01
ch_type,1_1
kcount,1
numberNandB,1
brightnessNandB,1
carpet pos,0
pc,0
Time (ms),CH1 Auto-Correlation
1.0,0.04004334285855293
2.0,0.03687562420964241
3.0,0.034137509763240814
4.0,0.03175778314471245
5.0,0.02970999851822853
6.0,0.027947600930929184
7.0,0.02635907754302025
8.0,0.0249645859003067
9.0,0.023725023493170738
10.0,0.022554313763976097
11.0,0.02145703323185444
12.0,0.020372377708554268
13.0,0.019478995352983475
14.0,0.018657773733139038
15.0,0.017783140763640404
16.0,0.016995437443256378
18.0,0.015580243431031704
20.0,0.014522785320878029
22.0,0.013396024703979492
24.0,0.012224290519952774
26.0,0.01116067823022604
28.0,0.010283554904162884
30.0,0.009610234759747982
32.0,0.009089629165828228
36.0,0.008070409297943115
40.0,0.0068772039376199245
44.0,0.0058816284872591496
48.0,0.005374859552830458
52.0,0.005163594614714384
56.0,0.005100472830235958
60.0,0.004712818190455437
64.0,0.004499525763094425
72.0,0.00387787283398211
80.0,0.0033753716852515936
88.0,0.002651356626302004
96.0,0.0019168888684362173
104.0,0.0016326673794537783
112.0,0.0017766646342352033
120.0,0.0026501426473259926
128.0,0.0027092373929917812
144.0,0.002421448938548565
160.0,0.0016504080267623067
176.0,0.002064244821667671
192.0,0.001736674690619111
208.0,0.0013279550475999713
224.0,0.0008533510845154524
240.0,0.0007126885466277599
256.0,0.00035254450631327927
288.0,0.0002619522565510124
320.0,0.0008680566679686308
352.0,0.0010865569347515702
384.0,-0.0009149303077720106
416.0,-0.0020289302337914705
448.0,-0.00225064461119473
480.0,-0.0018051647348329425
512.0,-0.0022535203024744987
576.0,-0.0023350813426077366
640.0,-0.0007425039075314999
704.0,-0.0009921628516167402
768.0,-0.0013620498357340693
832.0,0.0003535723371896893
896.0,0.0002825382980518043
960.0,0.0010670714545994997
1024.0,-0.0006296299980022013
1152.0,0.0013324413448572159
1280.0,0.000630516151431948
1408.0,0.0013668573228642344
1536.0,0.0027752830646932125
1664.0,-7.1161994128488e-05
1792.0,-0.001406187890097499
1920.0,-0.002668075729161501
2048.0,-0.0016867825761437416
2304.0,0.0015310230664908886
2560.0,0.00126129190903157
2816.0,-0.0019419895252212882
3072.0,-0.001403850968927145
3328.0,-3.675493280752562e-05
3584.0,0.000840402499306947
3840.0,-4.0353879739996046e-05
4096.0,-0.00014499155804514885
4608.0,-0.0009494583937339485
5120.0,0.0007035969756543636
5632.0,-0.0004806401557289064
6144.0,-0.00029926857678219676
6656.0,0.0004286821058485657
7168.0,-6.0373535234248266e-05
7680.0,-0.0001486459659645334
8192.0,0.00020819329074583948
end
