version,3.0
numOfCh,1
type,point
parent_name,484af_1dot0-0dot01
ch_type,1_1
kcount,1
numberNandB,1
brightnessNandB,1
carpet pos,0
pc,0
Time (ms),CH1 Auto-Correlation
1.0,0.04229879751801491
2.0,0.039150435477495193
3.0,0.03653541952371597
4.0,0.0342414565384388
5.0,0.03217606991529465
6.0,0.030266709625720978
7.0,0.028596673160791397
8.0,0.027038246393203735
9.0,0.02568328194320202
10.0,0.02440544404089451
11.0,0.02333674393594265
12.0,0.02237539552152157
13.0,0.021504011005163193
14.0,0.020711274817585945
15.0,0.019948750734329224
16.0,0.019192930310964584
18.0,0.01795545034110546
20.0,0.01686144806444645
22.0,0.01596868224442005
24.0,0.015207075513899326
26.0,0.014474774710834026
28.0,0.01368106808513403
30.0,0.012984002009034157
32.0,0.012388480827212334
36.0,0.011238126084208488
40.0,0.010039626620709896
44.0,0.00904802605509758
48.0,0.008274388499557972
52.0,0.007543899118900299
56.0,0.006894197314977646
60.0,0.006298769731074572
64.0,0.005914326757192612
72.0,0.0053660813719034195
80.0,0.004894969053566456
88.0,0.0038128842134028673
96.0,0.0025989660061895847
104.0,0.0020658010616898537
112.0,0.0018574993591755629
120.0,0.001311084139160812
128.0,0.0005699596367776394
144.0,-0.0004359647282399237
160.0,-0.0010538288624957204
176.0,-0.0005231584655120969
192.0,-0.0005139623535797
208.0,-0.0004165431309957057
224.0,-0.0001581295655341819
240.0,0.00013792861136607826
256.0,0.00024144939379766583
288.0,-0.0009258983773179352
320.0,-0.0015389786567538977
352.0,-0.0014348477125167847
384.0,-0.0018714457983151078
416.0,-0.0022691122721880674
448.0,-0.0011398633942008018
480.0,-0.0007427505915984511
512.0,-0.001832266105338931
576.0,-0.0014695844147354364
640.0,-0.0014014886692166328
704.0,-0.0014381572837010026
768.0,-0.0015249288408085704
832.0,-0.001102859154343605
896.0,-0.00224840035662055
960.0,-0.0017779209883883595
1024.0,-0.0015067898202687502
1152.0,-0.00015590306429658085
1280.0,5.6486798712285236e-05
1408.0,-0.002123301150277257
1536.0,-0.000559467647690326
1664.0,-0.0004897567559964955
1792.0,0.000850838958285749
1920.0,0.0018294056644663215
2048.0,0.0010889932746067643
2304.0,0.001433946774341166
2560.0,-0.0005555045790970325
2816.0,-0.001358268316835165
3072.0,0.00012596922169905156
3328.0,-0.0002613928518258035
3584.0,2.8990700229769573e-05
3840.0,-0.0013455630978569388
4096.0,0.0010074946330860257
4608.0,-0.0001492197479819879
5120.0,0.0005704667419195175
5632.0,-0.0001611654442967847
6144.0,0.0001993949117604643
6656.0,-0.00014445044507738203
7168.0,-0.0001462351210648194
7680.0,4.3856489355675876e-05
8192.0,2.3398228222504258e-05
end
