version,3.0
numOfCh,1
type,point
parent_name,484af_1dot0-0dot01
ch_type,1_1
kcount,1
numberNandB,1
brightnessNandB,1
carpet pos,0
pc,0
Time (ms),CH1 Auto-Correlation
1.0,0.46426355838775635
2.0,0.4623238444328308
3.0,0.4603808522224426
4.0,0.4584617614746094
5.0,0.4567216634750366
6.0,0.4549623131752014
7.0,0.45327574014663696
8.0,0.45162060856819153
9.0,0.45003241300582886
10.0,0.448454350233078
11.0,0.44701528549194336
12.0,0.4456422030925751
13.0,0.4442620873451233
14.0,0.4429187774658203
15.0,0.4416508674621582
16.0,0.44037312269210815
18.0,0.43787041306495667
20.0,0.4351133406162262
22.0,0.43243756890296936
24.0,0.4298020601272583
26.0,0.4273042380809784
28.0,0.42484956979751587
30.0,0.4223504364490509
32.0,0.42001810669898987
36.0,0.4157240688800812
40.0,0.411263108253479
44.0,0.4070497453212738
48.0,0.4028892517089844
52.0,0.39903944730758667
56.0,0.39564248919487
60.0,0.3919154703617096
64.0,0.3879408538341522
72.0,0.3792492151260376
80.0,0.3701113164424896
88.0,0.36050543189048767
96.0,0.3503198027610779
104.0,0.341095894575119
112.0,0.332705557346344
120.0,0.32592710852622986
128.0,0.31870853900909424
144.0,0.3061756193637848
160.0,0.2925876975059509
176.0,0.2808106541633606
192.0,0.27562227845191956
208.0,0.27363479137420654
224.0,0.2671588063240051
240.0,0.2606050670146942
256.0,0.25830504298210144
288.0,0.26575613021850586
320.0,0.2681961953639984
352.0,0.27809593081474304
384.0,0.291759192943573
416.0,0.3023480474948883
448.0,0.3109826147556305
480.0,0.3033760190010071
512.0,0.2894867956638336
576.0,0.25258293747901917
640.0,0.23359934985637665
704.0,0.22930267453193665
768.0,0.23210054636001587
832.0,0.2353137582540512
896.0,0.23313724994659424
960.0,0.22013211250305176
1024.0,0.20016983151435852
1152.0,0.16320018470287323
1280.0,0.09404128044843674
1408.0,0.06651754677295685
1536.0,0.04026857763528824
1664.0,0.007409054320305586
1792.0,-0.029654743149876595
1920.0,-0.04712485894560814
2048.0,-0.06113475561141968
2304.0,-0.10372468829154968
2560.0,-0.1705731302499771
2816.0,-0.22134485840797424
3072.0,-0.27024585008621216
3328.0,-0.28341320157051086
3584.0,-0.36544591188430786
3840.0,-0.4001794755458832
4096.0,-0.42890843749046326
end
