version,3.0
numOfCh,1
type,point
parent_name,484af_1dot0-0dot01
ch_type,1_1
kcount,1
numberNandB,1
brightnessNandB,1
carpet pos,0
pc,0
Time (ms),CH1 Auto-Correlation
1.0,0.3250620365142822
2.0,0.32206499576568604
3.0,0.31909817457199097
4.0,0.3161556124687195
5.0,0.3132961094379425
6.0,0.3104510009288788
7.0,0.3077336251735687
8.0,0.3049152195453644
9.0,0.3021611273288727
10.0,0.2993675768375397
11.0,0.29666244983673096
12.0,0.29397615790367126
13.0,0.2912270128726959
14.0,0.2885151505470276
15.0,0.28572916984558105
16.0,0.28299906849861145
18.0,0.27823740243911743
20.0,0.2734622061252594
22.0,0.26867571473121643
24.0,0.26404327154159546
26.0,0.2593832314014435
28.0,0.2549801170825958
30.0,0.2508513331413269
32.0,0.24707698822021484
36.0,0.23885475099086761
40.0,0.23075498640537262
44.0,0.2223217487335205
48.0,0.21340812742710114
52.0,0.20521007478237152
56.0,0.1979224532842636
60.0,0.1917397677898407
64.0,0.18637050688266754
72.0,0.17516358196735382
80.0,0.16206766664981842
88.0,0.1460760086774826
96.0,0.13234460353851318
104.0,0.12201359122991562
112.0,0.11195770651102066
120.0,0.10202138125896454
128.0,0.09462013840675354
144.0,0.08596247434616089
160.0,0.07024411857128143
176.0,0.05981380492448807
192.0,0.04592636972665787
208.0,0.0330013744533062
224.0,0.017416944727301598
240.0,-0.0032913254108279943
256.0,-0.02423032931983471
288.0,-0.05964629352092743
320.0,-0.07278116047382355
352.0,-0.06868106126785278
384.0,-0.0677071288228035
416.0,-0.07182994484901428
448.0,-0.08034300804138184
480.0,-0.09389941394329071
512.0,-0.10477816313505173
576.0,-0.09860056638717651
640.0,-0.09310062229633331
704.0,-0.0824415385723114
768.0,-0.08572044968605042
832.0,-0.02185802347958088
896.0,0.04317134991288185
960.0,0.10044145584106445
1024.0,0.16962198913097382
1152.0,0.10304616391658783
1280.0,-0.024830689653754234
1408.0,-0.10873591154813766
1536.0,-0.10025568306446075
1664.0,-0.14395518600940704
1792.0,-0.12680743634700775
1920.0,0.0532282218337059
2048.0,0.18891273438930511
end
