version,3.0
numOfCh,1
type,point
parent_name,484af_1dot0-0dot01
ch_type,1_1
kcount,1
numberNandB,1
brightnessNandB,1
carpet pos,0
pc,0
Time (ms),CH1 Auto-Correlation
1.0,0.0425359271466732
2.0,0.03940146788954735
3.0,0.036676328629255295
4.0,0.03432080149650574
5.0,0.032216548919677734
6.0,0.030366452410817146
7.0,0.028696998953819275
8.0,0.027202069759368896
9.0,0.025817405432462692
10.0,0.024562060832977295
11.0,0.023402953520417213
12.0,0.022336920723319054
13.0,0.021374262869358063
14.0,0.020548837259411812
15.0,0.019814427942037582
16.0,0.019207241013646126
18.0,0.018070820719003677
20.0,0.01716732792556286
22.0,0.016270961612462997
24.0,0.015271495096385479
26.0,0.01425627525895834
28.0,0.013407303020358086
30.0,0.012741326354444027
32.0,0.012038136832416058
36.0,0.011034011840820312
40.0,0.01035456545650959
44.0,0.009587024338543415
48.0,0.008749553933739662
52.0,0.007847391068935394
56.0,0.007433602120727301
60.0,0.007251323666423559
64.0,0.006932097487151623
72.0,0.005879489704966545
80.0,0.005111308302730322
88.0,0.004545797128230333
96.0,0.0034900070168077946
104.0,0.0027906130999326706
112.0,0.0023028645664453506
120.0,0.002635716227814555
128.0,0.0028057084418833256
144.0,0.0033477568067610264
160.0,0.0032719268929213285
176.0,0.002729285741224885
192.0,0.0022594311740249395
208.0,0.0013239671243354678
224.0,0.0003940419992431998
240.0,-0.0003638833004515618
256.0,-0.000354046409483999
288.0,-0.0009573301649652421
320.0,-0.0009203412919305265
352.0,-0.0015056722331792116
384.0,0.0009491399978287518
416.0,0.00126196991186589
448.0,0.0016932787839323282
480.0,0.0007455550949089229
512.0,5.746052192989737e-05
576.0,-0.0017436648486182094
640.0,-0.0014880100497975945
704.0,-0.0018852798966690898
768.0,-0.001857828930951655
832.0,-0.002632942283526063
896.0,-0.0018826142186298966
960.0,-0.0016257623210549355
1024.0,-0.0006558814784511924
1152.0,0.001023383578285575
1280.0,0.0009511461830697954
1408.0,0.00015972930123098195
1536.0,-0.00046753857168368995
1664.0,-0.0008488476742058992
1792.0,-0.001408556243404746
1920.0,-0.0009734163177199662
2048.0,-0.0012777539668604732
2304.0,-0.00032705761259421706
2560.0,0.0025614446494728327
2816.0,-0.001031011575832963
3072.0,-0.0021607824601233006
3328.0,-0.0021568804513663054
3584.0,0.0006626773974858224
3840.0,0.002694621216505766
4096.0,-0.0005413537146523595
4608.0,-0.0003120673936791718
5120.0,0.001368979923427105
5632.0,-0.001742285443469882
6144.0,0.00036080641439184546
6656.0,0.00011052328773075715
7168.0,-0.0006779676768928766
7680.0,-0.0002454165951348841
8192.0,0.0018054654356092215
end
