version,3.0
numOfCh,1
type,point
parent_name,484af_1dot0-0dot01
ch_type,1_1
kcount,1
numberNandB,1
brightnessNandB,1
carpet pos,0
pc,0
Time (ms),CH1 Auto-Correlation
1.0,0.33030739426612854
2.0,0.32867857813835144
3.0,0.3271223306655884
4.0,0.325622022151947
5.0,0.32419633865356445
6.0,0.3227657377719879
7.0,0.3214111030101776
8.0,0.3200618624687195
9.0,0.3188003599643707
10.0,0.3176063895225525
11.0,0.31643760204315186
12.0,0.3152671158313751
13.0,0.31413698196411133
14.0,0.3130241632461548
15.0,0.31192195415496826
16.0,0.3108452260494232
18.0,0.30882906913757324
20.0,0.3067590296268463
22.0,0.30473998188972473
24.0,0.3028048574924469
26.0,0.3009090721607208
28.0,0.29912859201431274
30.0,0.2973521947860718
32.0,0.29578307271003723
36.0,0.29312071204185486
40.0,0.29006221890449524
44.0,0.28719449043273926
48.0,0.2844720780849457
52.0,0.28170379996299744
56.0,0.27893561124801636
60.0,0.27606305480003357
64.0,0.27307698130607605
72.0,0.2664526402950287
80.0,0.25917118787765503
88.0,0.25199124217033386
96.0,0.24569226801395416
104.0,0.24041242897510529
112.0,0.23522387444972992
120.0,0.23040378093719482
128.0,0.22618000209331512
144.0,0.2174386829137802
160.0,0.20790232717990875
176.0,0.20014552772045135
192.0,0.19493228197097778
208.0,0.18895310163497925
224.0,0.18269234895706177
240.0,0.17938220500946045
256.0,0.176426500082016
288.0,0.16768087446689606
320.0,0.1585700660943985
352.0,0.1482565701007843
384.0,0.1344137340784073
416.0,0.12487807124853134
448.0,0.11788482218980789
480.0,0.11761511117219925
512.0,0.12066362798213959
576.0,0.11688840389251709
640.0,0.11201395094394684
704.0,0.11866079270839691
768.0,0.12991103529930115
832.0,0.14035341143608093
896.0,0.13655255734920502
960.0,0.1262839138507843
1024.0,0.12464466691017151
1152.0,0.1285008043050766
1280.0,0.10651317238807678
1408.0,0.10019393265247345
1536.0,0.058189887553453445
1664.0,0.02812635339796543
1792.0,0.02059091255068779
1920.0,0.02639058604836464
2048.0,0.02690109610557556
2304.0,0.061163365840911865
2560.0,0.01873602718114853
2816.0,-0.06601353734731674
3072.0,-0.11384169012308121
3328.0,-0.12559811770915985
3584.0,-0.13029098510742188
3840.0,-0.18050594627857208
4096.0,-0.21017171442508698
end
