version,3.0
numOfCh,1
type,point
parent_name,484af_1dot0-0dot01
ch_type,1_1
kcount,1
numberNandB,1
brightnessNandB,1
carpet pos,0
pc,0
Time (ms),CH1 Auto-Correlation
1.0,0.0407600924372673
2.0,0.03756805136799812
3.0,0.03477451950311661
4.0,0.032388295978307724
5.0,0.030220380052924156
6.0,0.028371956199407578
7.0,0.026871340349316597
8.0,0.025399893522262573
9.0,0.023966936394572258
10.0,0.02261955477297306
11.0,0.021535146981477737
12.0,0.020516972988843918
13.0,0.01970834657549858
14.0,0.01892171800136566
15.0,0.018132474273443222
16.0,0.017451629042625427
18.0,0.016378698870539665
20.0,0.015397334471344948
22.0,0.014377973042428493
24.0,0.013236812315881252
26.0,0.012133453041315079
28.0,0.011225486174225807
30.0,0.010618496686220169
32.0,0.010196930728852749
36.0,0.00955328531563282
40.0,0.008538241498172283
44.0,0.0075118825770914555
48.0,0.00703789945691824
52.0,0.006831141654402018
56.0,0.006571672856807709
60.0,0.006313461344689131
64.0,0.005841078702360392
72.0,0.005494533572345972
80.0,0.005074833519756794
88.0,0.005156421102583408
96.0,0.005155752878636122
104.0,0.004948856774717569
112.0,0.004611764568835497
120.0,0.005029347259551287
128.0,0.004835755098611116
144.0,0.0026155980303883553
160.0,0.0011114339577034116
176.0,0.00013144964759703726
192.0,8.550392522010952e-05
208.0,-0.0008171048248186707
224.0,-0.0004944464890286326
240.0,-0.000875329424161464
256.0,-0.0011700509348884225
288.0,-0.0013415685389190912
320.0,-0.0005843411199748516
352.0,-0.0011946387821808457
384.0,0.0002281342603964731
416.0,0.0005384054384194314
448.0,0.001162367989309132
480.0,0.00015653333684895188
512.0,-0.0016349551733583212
576.0,-0.0019493824802339077
640.0,-0.0033981341402977705
704.0,-0.0024775341153144836
768.0,-0.0009478481370024383
832.0,-0.0004138402873650193
896.0,-0.00027986872009932995
960.0,-0.0012082001194357872
1024.0,-0.0019805191550403833
1152.0,0.0001383070630254224
1280.0,0.0008465259452350438
1408.0,0.0008679043967276812
1536.0,0.0011951068881899118
1664.0,0.000977340154349804
1792.0,0.0003245080588385463
1920.0,0.00019044337386731058
2048.0,-0.0010822323383763433
2304.0,-0.0017933916533365846
2560.0,-0.00135047547519207
2816.0,0.00011773234291467816
3072.0,-0.00033714663004502654
3328.0,0.0009139415924437344
3584.0,0.0012149716494604945
3840.0,-7.742147317912895e-06
4096.0,-0.0012301740935072303
4608.0,-0.00015570268442388624
5120.0,2.8787126211682335e-06
5632.0,-0.000518116052262485
6144.0,-6.551629485329613e-05
6656.0,0.0013045088853687048
7168.0,0.0005474962526932359
7680.0,-0.00036734918830916286
8192.0,-0.0001715675462037325
end
