version,3.0
numOfCh,1
type,point
parent_name,484af_1dot0-0dot01
ch_type,1_1
kcount,1
numberNandB,1
brightnessNandB,1
carpet pos,0
pc,0
Time (ms),CH1 Auto-Correlation
1.0,0.04466453567147255
2.0,0.041470468044281006
3.0,0.03871544077992439
4.0,0.03626970574259758
5.0,0.03414725884795189
6.0,0.03229647874832153
7.0,0.030710114166140556
8.0,0.029190046712756157
9.0,0.027764882892370224
10.0,0.026388591155409813
11.0,0.025178711861371994
12.0,0.024060042575001717
13.0,0.02291472814977169
14.0,0.022030195221304893
15.0,0.021116867661476135
16.0,0.020363247022032738
18.0,0.019157499074935913
20.0,0.017965754494071007
22.0,0.016804637387394905
24.0,0.01581014320254326
26.0,0.015132531523704529
28.0,0.014385665766894817
30.0,0.013579451479017735
32.0,0.012630618177354336
36.0,0.01131366565823555
40.0,0.010226523503661156
44.0,0.009294739924371243
48.0,0.008801250718533993
52.0,0.008039779029786587
56.0,0.007699123118072748
60.0,0.007644337136298418
64.0,0.007735147140920162
72.0,0.006525542587041855
80.0,0.00620685238391161
88.0,0.006143440026789904
96.0,0.006863935384899378
104.0,0.007972696796059608
112.0,0.008333242498338223
120.0,0.008254851214587688
128.0,0.007900710217654705
144.0,0.007323741912841797
160.0,0.006392510607838631
176.0,0.005615814123302698
192.0,0.004795799031853676
208.0,0.0041978126391768456
224.0,0.0035750605165958405
240.0,0.0033133765682578087
256.0,0.0011606073239818215
288.0,-0.0005049192113801837
320.0,0.00037398995482362807
352.0,0.0015244816895574331
384.0,0.00041274019167758524
416.0,-0.001944785937666893
448.0,-0.0017808651318773627
480.0,-0.0014021724928170443
512.0,-0.0012709553120657802
576.0,-0.0019020760664716363
640.0,0.0007929163984954357
704.0,-0.0002617134596221149
768.0,0.0010055265156552196
832.0,0.00030675926245748997
896.0,-0.0002221872564405203
960.0,-0.0009750359458848834
1024.0,-0.0003961993206758052
1152.0,-0.0031355482060462236
1280.0,-0.004450429230928421
1408.0,-0.003149218624457717
1536.0,-0.0011427294230088592
1664.0,0.000549378979485482
1792.0,0.001097953412681818
1920.0,0.0004544852999970317
2048.0,0.0018650632118806243
2304.0,0.002006166148930788
2560.0,0.002001127228140831
2816.0,-0.0004270836361683905
3072.0,-0.0017193712992593646
3328.0,-0.0027738402131944895
3584.0,-0.0017535866936668754
3840.0,-0.0004485347308218479
4096.0,-0.0002204447955591604
4608.0,0.0019925315864384174
5120.0,-0.0007479677442461252
5632.0,-0.0020151932258158922
6144.0,0.002157323295250535
6656.0,0.0015650478890165687
7168.0,0.0013401709729805589
7680.0,-0.004707795567810535
8192.0,-0.0030183864291757345
end
