version,3.0
numOfCh,1
type,point
parent_name,484af_1dot0-0dot01
ch_type,1_1
kcount,1
numberNandB,1
brightnessNandB,1
carpet pos,0
pc,0
Time (ms),CH1 Auto-Correlation
1.0,0.089903824031353
2.0,0.0872771143913269
3.0,0.08492881059646606
4.0,0.08284413814544678
5.0,0.08095049113035202
6.0,0.07916388660669327
7.0,0.07752835750579834
8.0,0.07604587078094482
9.0,0.07473735511302948
10.0,0.07347838580608368
11.0,0.07223817706108093
12.0,0.0710630938410759
13.0,0.07006333023309708
14.0,0.0691765770316124
15.0,0.06834086030721664
16.0,0.0676383450627327
18.0,0.06627311557531357
20.0,0.065179243683815
22.0,0.06431293487548828
24.0,0.06347493082284927
26.0,0.062568798661232
28.0,0.0616195984184742
30.0,0.060812756419181824
32.0,0.060052476823329926
36.0,0.058838922530412674
40.0,0.057526860386133194
44.0,0.05617651343345642
48.0,0.05499716475605965
52.0,0.0539533756673336
56.0,0.05298228934407234
60.0,0.05200592055916786
64.0,0.05116518959403038
72.0,0.049593470990657806
80.0,0.047682128846645355
88.0,0.045788876712322235
96.0,0.04462645202875137
104.0,0.044512998312711716
112.0,0.0438784658908844
120.0,0.04288575053215027
128.0,0.042031340301036835
144.0,0.041938379406929016
160.0,0.04155872017145157
176.0,0.04151950404047966
192.0,0.038499876856803894
208.0,0.038212042301893234
224.0,0.037458766251802444
240.0,0.03809847682714462
256.0,0.03937261924147606
288.0,0.04327312111854553
320.0,0.04435146972537041
352.0,0.042899973690509796
384.0,0.043024707585573196
416.0,0.03918050229549408
448.0,0.035811662673950195
480.0,0.03426405414938927
512.0,0.03457269072532654
576.0,0.02842520922422409
640.0,0.02798496000468731
704.0,0.029093941673636436
768.0,0.027341358363628387
832.0,0.023421572521328926
896.0,0.01791449822485447
960.0,0.01658710651099682
1024.0,0.017107287421822548
1152.0,0.01267178263515234
1280.0,0.010972659103572369
1408.0,0.012777415104210377
1536.0,0.009374622255563736
1664.0,0.007966984063386917
1792.0,0.009552335366606712
1920.0,0.005352065898478031
2048.0,0.005347603000700474
2304.0,0.004433049820363522
2560.0,-0.0018624942749738693
2816.0,-0.004918052349239588
3072.0,-0.008941086940467358
3328.0,-0.009852716699242592
3584.0,-0.008592895232141018
3840.0,-0.007903875783085823
4096.0,-0.008247566409409046
4608.0,-0.0188770592212677
5120.0,-0.03315703943371773
5632.0,-0.03167124092578888
6144.0,-0.01926855929195881
6656.0,-0.018683550879359245
7168.0,-0.014879416674375534
7680.0,-0.0029076209757477045
8192.0,-0.0033006092999130487
end
