version,3.0
numOfCh,1
type,point
parent_name,484af_1dot0-0dot01
ch_type,1_1
kcount,1
numberNandB,1
brightnessNandB,1
carpet pos,0
pc,0
Time (ms),CH1 Auto-Correlation
1.0,0.040514472872018814
2.0,0.0372820608317852
3.0,0.03445825353264809
4.0,0.0319451205432415
5.0,0.029763301834464073
6.0,0.02785603702068329
7.0,0.026247365400195122
8.0,0.02481049671769142
9.0,0.023434963077306747
10.0,0.02223251946270466
11.0,0.021062560379505157
12.0,0.019976751878857613
13.0,0.018928565084934235
14.0,0.01804524101316929
15.0,0.017230812460184097
16.0,0.01647615060210228
18.0,0.015188781544566154
20.0,0.014013590291142464
22.0,0.012820374220609665
24.0,0.011814112775027752
26.0,0.010869956575334072
28.0,0.010049891658127308
30.0,0.009356504306197166
32.0,0.008722953498363495
36.0,0.00763391237705946
40.0,0.0064509860239923
44.0,0.005483594257384539
48.0,0.0045705693773925304
52.0,0.0038885658141225576
56.0,0.003298365045338869
60.0,0.0027554112020879984
64.0,0.0026920796371996403
72.0,0.0023276344873011112
80.0,0.002205371158197522
88.0,0.002328526461496949
96.0,0.002360533457249403
104.0,0.002184995450079441
112.0,0.001774827018380165
120.0,0.0013429641257971525
128.0,0.0009443940361961722
144.0,0.0009319488308392465
160.0,0.001011045416817069
176.0,0.0012904464965686202
192.0,0.0003777667589019984
208.0,-0.00046307273441925645
224.0,4.982645623385906e-05
240.0,0.0003484785556793213
256.0,0.0003322716511320323
288.0,0.0004081949300598353
320.0,-2.1324842236936092e-05
352.0,-0.00025798086426220834
384.0,-0.000568521034438163
416.0,0.0010353262769058347
448.0,0.0014642045134678483
480.0,0.0013235289370641112
512.0,0.00208530155941844
576.0,0.0018667959375306964
640.0,7.999595982255414e-05
704.0,0.00010759985889308155
768.0,0.0008075463701970875
832.0,-0.0006527437944896519
896.0,0.0010379744926467538
960.0,0.0007799912709742785
1024.0,0.0012767229927703738
1152.0,0.0020523169077932835
1280.0,-0.0006189103005453944
1408.0,0.0005926999147050083
1536.0,0.0005036056973040104
1664.0,0.0010733503149822354
1792.0,0.0012987920781597495
1920.0,0.00018593361892271787
2048.0,0.000970003311522305
2304.0,0.0006885947659611702
2560.0,0.0011640083976089954
2816.0,-0.0004070339200552553
3072.0,0.0006678873323835433
3328.0,-0.0014480040408670902
3584.0,-0.00019576198246795684
3840.0,-0.0012887564953416586
4096.0,0.0003698658256325871
4608.0,-0.0009301786194555461
5120.0,-0.0008510942570865154
5632.0,-0.0010685364250093699
6144.0,-0.001429078751243651
6656.0,-0.001435591490007937
7168.0,-0.0003623263328336179
7680.0,-0.000687732535880059
8192.0,-0.001331787439994514
end
