version,3.0
numOfCh,1
type,point
parent_name,484af_1dot0-0dot01
ch_type,1_1
kcount,1
numberNandB,1
brightnessNandB,1
carpet pos,0
pc,0
Time (ms),CH1 Auto-Correlation
1.0,0.05717391520738602
2.0,0.05357823893427849
3.0,0.050385549664497375
4.0,0.04749314486980438
5.0,0.04499972239136696
6.0,0.04278302565217018
7.0,0.040774665772914886
8.0,0.03887838125228882
9.0,0.03712175041437149
10.0,0.035522062331438065
11.0,0.033917564898729324
12.0,0.03241661563515663
13.0,0.031085606664419174
14.0,0.02979665994644165
15.0,0.028640877455472946
16.0,0.027482222765684128
18.0,0.02476615086197853
20.0,0.022891735658049583
22.0,0.021145382896065712
24.0,0.019450798630714417
26.0,0.01788814179599285
28.0,0.01634332165122032
30.0,0.014788638800382614
32.0,0.013284723274409771
36.0,0.008842275477945805
40.0,0.00601360946893692
44.0,0.004200882278382778
48.0,0.004202976822853088
52.0,0.004396970383822918
56.0,0.004740673117339611
60.0,0.004886148497462273
64.0,0.004885134752839804
72.0,0.005317822564393282
80.0,0.005378450267016888
88.0,0.004341031424701214
96.0,0.004265977069735527
104.0,0.0046147191897034645
112.0,0.005091109313070774
120.0,0.004860588349401951
128.0,0.004676052834838629
144.0,0.00349449017085135
160.0,0.0039192382246255875
176.0,0.003956045024096966
192.0,0.0028740721754729748
208.0,0.00203801435418427
224.0,0.0026829408016055822
240.0,0.003405299736186862
256.0,0.00321508152410388
288.0,0.00184317072853446
320.0,0.002364135580137372
352.0,0.0016132087912410498
384.0,0.001772701391018927
416.0,-0.0006117855082266033
448.0,-4.0537652239436284e-05
480.0,-0.0007622584816999733
512.0,-0.0011953513603657484
576.0,-0.0015393720241263509
640.0,-0.0021207660902291536
704.0,-0.0004888717085123062
768.0,-0.0012785379076376557
832.0,-0.0021342721302062273
896.0,-0.0018611366394907236
960.0,0.0011344922240823507
1024.0,0.0017216579290106893
1152.0,-0.00031580275390297174
1280.0,-0.0004071028670296073
1408.0,-0.0001998753723455593
1536.0,-0.0014233492547646165
1664.0,-0.00014871175517328084
1792.0,0.00045422030962072313
1920.0,0.0014684728812426329
2048.0,0.002028682501986623
2304.0,3.05464091070462e-05
2560.0,-0.0012791560729965568
2816.0,-0.000707890372723341
3072.0,-0.00029846112011000514
3328.0,0.0011898372322320938
3584.0,-0.00035402210778556764
3840.0,-0.0011997409164905548
4096.0,0.001818615011870861
4608.0,0.000197847475646995
5120.0,-0.0014338571345433593
5632.0,0.0002660684986039996
6144.0,0.001269399537704885
6656.0,0.0011296793818473816
7168.0,-0.002383260056376457
7680.0,0.0019330736249685287
8192.0,-0.0016853976994752884
end
