version,3.0
numOfCh,1
type,point
parent_name,484af_1dot0-0dot01
ch_type,1_1
kcount,1
numberNandB,1
brightnessNandB,1
carpet pos,0
pc,0
Time (ms),CH1 Auto-Correlation
1.0,0.564254641532898
2.0,0.5613119602203369
3.0,0.5585650205612183
4.0,0.5559565424919128
5.0,0.5537604689598083
6.0,0.5515978932380676
7.0,0.5497297644615173
8.0,0.5479583740234375
9.0,0.5462220907211304
10.0,0.5445454120635986
11.0,0.5427396893501282
12.0,0.5408787727355957
13.0,0.5391359329223633
14.0,0.5374903082847595
15.0,0.5358197093009949
16.0,0.5341697931289673
18.0,0.53095942735672
20.0,0.5277160406112671
22.0,0.5244684815406799
24.0,0.5215566158294678
26.0,0.5188878178596497
28.0,0.5164602398872375
30.0,0.5139561891555786
32.0,0.5113915205001831
36.0,0.5070762038230896
40.0,0.503340482711792
44.0,0.5000149607658386
48.0,0.49673348665237427
52.0,0.4937371611595154
56.0,0.49050140380859375
60.0,0.48711860179901123
64.0,0.4850340783596039
72.0,0.4809879660606384
80.0,0.47579601407051086
88.0,0.46783769130706787
96.0,0.45979851484298706
104.0,0.4516192078590393
112.0,0.4435482323169708
120.0,0.4347979426383972
128.0,0.425008088350296
144.0,0.40548989176750183
160.0,0.3882151246070862
176.0,0.3691883385181427
192.0,0.3529212772846222
208.0,0.34391075372695923
224.0,0.3381388485431671
240.0,0.33028605580329895
256.0,0.31885918974876404
288.0,0.29020121693611145
320.0,0.2825767695903778
352.0,0.27212682366371155
384.0,0.26058611273765564
416.0,0.22979816794395447
448.0,0.20139314234256744
480.0,0.17531952261924744
512.0,0.13604503870010376
576.0,0.07557057589292526
640.0,0.03056708537042141
704.0,0.011041688732802868
768.0,0.003162988228723407
832.0,0.0019482906209304929
896.0,-0.001397615997120738
960.0,-0.0024481392465531826
1024.0,-0.0013121203519403934
1152.0,-0.013372235931456089
1280.0,-0.02442583069205284
1408.0,-0.01944558508694172
1536.0,-0.019190283492207527
1664.0,-0.015682389959692955
1792.0,-0.006292170379310846
1920.0,-0.010038777254521847
2048.0,-0.015550724230706692
2304.0,-0.04452166333794594
2560.0,-0.059354811906814575
2816.0,-0.06620806455612183
3072.0,-0.0822962149977684
3328.0,-0.11478035151958466
3584.0,-0.11427383124828339
3840.0,-0.11082439124584198
4096.0,-0.11265967041254044
end
