version,3.0
numOfCh,1
type,point
parent_name,484af_1dot0-0dot01
ch_type,1_1
kcount,1
numberNandB,1
brightnessNandB,1
carpet pos,0
pc,0
Time (ms),CH1 Auto-Correlation
1.0,0.048612385988235474
2.0,0.045602381229400635
3.0,0.04298146069049835
4.0,0.040768109261989594
5.0,0.03884536772966385
6.0,0.03721112012863159
7.0,0.03584203124046326
8.0,0.03467077389359474
9.0,0.03358284756541252
10.0,0.032681241631507874
11.0,0.031733039766550064
12.0,0.03085944429039955
13.0,0.03010614402592182
14.0,0.029317373409867287
15.0,0.02855965867638588
16.0,0.027772855013608932
18.0,0.026637088507413864
20.0,0.02586609125137329
22.0,0.02545424923300743
24.0,0.02520829811692238
26.0,0.024824025109410286
28.0,0.024169618263840675
30.0,0.02341989055275917
32.0,0.022866087034344673
36.0,0.021988023072481155
40.0,0.02085481584072113
44.0,0.019935796037316322
48.0,0.019750509411096573
52.0,0.019411994144320488
56.0,0.019257254898548126
60.0,0.01925419270992279
64.0,0.01883012242615223
72.0,0.01784542016685009
80.0,0.017398450523614883
88.0,0.016749052330851555
96.0,0.01598609983921051
104.0,0.01591329090297222
112.0,0.01604411192238331
120.0,0.015725182369351387
128.0,0.015532612800598145
144.0,0.015228120610117912
160.0,0.013446356169879436
176.0,0.01222529448568821
192.0,0.011037662625312805
208.0,0.0110695231705904
224.0,0.010474211536347866
240.0,0.009713147766888142
256.0,0.010009173303842545
288.0,0.008840855211019516
320.0,0.008107922039926052
352.0,0.007789894938468933
384.0,0.007516400422900915
416.0,0.006771480664610863
448.0,0.008535770699381828
480.0,0.008140441961586475
512.0,0.0065793562680482864
576.0,0.007234988268464804
640.0,0.007897872477769852
704.0,0.009432158432900906
768.0,0.009949387982487679
832.0,0.0098287807777524
896.0,0.009075232781469822
960.0,0.008706807158887386
1024.0,0.008000978268682957
1152.0,0.004553135950118303
1280.0,0.0005893345223739743
1408.0,0.0008994495728984475
1536.0,0.003832046175375581
1664.0,0.004864109680056572
1792.0,0.0038270538207143545
1920.0,-0.000700434495229274
2048.0,-0.0033051359932869673
2304.0,-0.0006067160866223276
2560.0,0.002400970319285989
2816.0,-0.001224607927724719
3072.0,-0.004472784698009491
3328.0,-0.0014070410979911685
3584.0,-0.005967472679913044
3840.0,-0.009644932113587856
4096.0,-0.006746222265064716
4608.0,-0.006048784125596285
5120.0,-0.00912398099899292
5632.0,-0.007192526012659073
6144.0,-0.006145569030195475
6656.0,-0.005963715258985758
7168.0,-0.0007648594328202307
7680.0,-2.3114938812796026e-05
8192.0,0.0006914458354003727
end
