version,3.0
numOfCh,1
type,point
parent_name,484af_1dot0-0dot01
ch_type,1_1
kcount,1
numberNandB,1
brightnessNandB,1
carpet pos,0
pc,0
Time (ms),CH1 Auto-Correlation
1.0,0.040282681584358215
2.0,0.03709521144628525
3.0,0.03436988219618797
4.0,0.03197230026125908
5.0,0.029858261346817017
6.0,0.028000598773360252
7.0,0.02639671601355076
8.0,0.024963360279798508
9.0,0.023594815284013748
10.0,0.022342976182699203
11.0,0.02123231813311577
12.0,0.020301688462495804
13.0,0.019476665183901787
14.0,0.01874014176428318
15.0,0.018061615526676178
16.0,0.017465820536017418
18.0,0.016553346067667007
20.0,0.015764782205224037
22.0,0.014964131638407707
24.0,0.014047006145119667
26.0,0.013041297905147076
28.0,0.012083427049219608
30.0,0.011268319562077522
32.0,0.01069548074156046
36.0,0.010021350346505642
40.0,0.009345218539237976
44.0,0.008546807803213596
48.0,0.00781081710010767
52.0,0.0071555557660758495
56.0,0.006534795742481947
60.0,0.006071146577596664
64.0,0.0055751195177435875
72.0,0.004398268647491932
80.0,0.0033870278857648373
88.0,0.0027064995374530554
96.0,0.0024063135497272015
104.0,0.0017305861692875624
112.0,0.001544720958918333
120.0,0.0011901067337021232
128.0,0.0017207871424034238
144.0,0.0016276993555948138
160.0,0.0011914342176169157
176.0,0.0007704791496507823
192.0,-0.0006563157658092678
208.0,-0.0013778647407889366
224.0,-0.001153871649876237
240.0,-0.0006170967244543135
256.0,-0.00027872496866621077
288.0,-0.0005716912564821541
320.0,-0.0007292754598893225
352.0,0.0005855259369127452
384.0,0.0009063711622729897
416.0,0.0007005435763858259
448.0,7.524274406023324e-05
480.0,0.00041119952220469713
512.0,0.00034261387190781534
576.0,-0.00011358701158314943
640.0,0.001526952488347888
704.0,0.0019115733448415995
768.0,0.0008602767484262586
832.0,0.0008007599390111864
896.0,0.0017255009151995182
960.0,-0.00022617423383053392
1024.0,0.000687671301420778
1152.0,0.0005782339721918106
1280.0,0.0006397702381946146
1408.0,0.0007945298566482961
1536.0,-0.001068125362507999
1664.0,-0.0010499878553673625
1792.0,0.00019313153461553156
1920.0,-0.0015362448757514358
2048.0,-0.0009115557768382132
2304.0,-0.0011533090146258473
2560.0,-0.0012642887886613607
2816.0,-0.0014491925248876214
3072.0,-0.0020194926764816046
3328.0,-0.0014637620188295841
3584.0,0.00025552394799888134
3840.0,-0.0005251984694041312
4096.0,-3.87323452741839e-05
4608.0,0.000696678354870528
5120.0,0.0015642541693523526
5632.0,0.000630673544947058
6144.0,0.00039914503577165306
6656.0,-0.0010124134132638574
7168.0,0.0006242553354240954
7680.0,-0.0027833539061248302
8192.0,-0.0011983414879068732
end
