version,3.0
numOfCh,1
type,point
parent_name,484af_1dot0-0dot01
ch_type,1_1
kcount,1
numberNandB,1
brightnessNandB,1
carpet pos,0
pc,0
Time (ms),CH1 Auto-Correlation
1.0,0.5268777012825012
2.0,0.521493136882782
3.0,0.5162922739982605
4.0,0.5113973617553711
5.0,0.506584882736206
6.0,0.5019726157188416
7.0,0.4975585341453552
8.0,0.493094801902771
9.0,0.4887572228908539
10.0,0.48463353514671326
11.0,0.4805484414100647
12.0,0.47648292779922485
13.0,0.47245654463768005
14.0,0.4682706892490387
15.0,0.46390771865844727
16.0,0.4597713351249695
18.0,0.45117121934890747
20.0,0.44193035364151
22.0,0.4328952729701996
24.0,0.4241325259208679
26.0,0.4158221483230591
28.0,0.40796610713005066
30.0,0.4000619351863861
32.0,0.39237722754478455
36.0,0.376516729593277
40.0,0.36090385913848877
44.0,0.3452922999858856
48.0,0.32915058732032776
52.0,0.31256037950515747
56.0,0.2959907650947571
60.0,0.27944985032081604
64.0,0.26278895139694214
72.0,0.21722932159900665
80.0,0.1859247088432312
88.0,0.15644173324108124
96.0,0.12462195754051208
104.0,0.09409140050411224
112.0,0.06438512355089188
120.0,0.05502472072839737
128.0,0.051630690693855286
144.0,0.05190631002187729
160.0,0.05158678814768791
176.0,0.04827113077044487
192.0,0.042177099734544754
208.0,0.036578476428985596
224.0,0.032838158309459686
240.0,0.028772477060556412
256.0,0.02891654707491398
288.0,0.024367043748497963
320.0,0.025435687974095345
352.0,0.028174251317977905
384.0,0.019397560507059097
416.0,0.011081296019256115
448.0,0.004261287860572338
480.0,-0.00046539714094251394
512.0,-0.0003085000207647681
576.0,0.015131108462810516
640.0,0.01637997478246689
704.0,0.01594230718910694
768.0,0.011766087263822556
832.0,0.013367445208132267
896.0,0.017409659922122955
960.0,0.008372039534151554
1024.0,0.005908896680921316
1152.0,0.003656094428151846
1280.0,0.0073543027974665165
1408.0,0.0010586095741018653
1536.0,0.024732129648327827
1664.0,-0.01483239233493805
1792.0,-0.017230119556188583
1920.0,0.005382038187235594
2048.0,0.005424549803137779
2304.0,-0.02528415620326996
2560.0,-0.032423246651887894
2816.0,-0.027330271899700165
3072.0,-0.02497236430644989
3328.0,-0.043330028653144836
3584.0,-0.053537767380476
3840.0,-0.023038703948259354
4096.0,-0.03352903574705124
end
