version,3.0
numOfCh,1
type,point
parent_name,484af_1dot0-0dot01
ch_type,1_1
kcount,1
numberNandB,1
brightnessNandB,1
carpet pos,0
pc,0
Time (ms),CH1 Auto-Correlation
1.0,0.2287115454673767
2.0,0.2247912734746933
3.0,0.2211647927761078
4.0,0.21773643791675568
5.0,0.21455742418766022
6.0,0.21162258088588715
7.0,0.20892558991909027
8.0,0.2062809318304062
9.0,0.20387153327465057
10.0,0.2015973925590515
11.0,0.1994204968214035
12.0,0.19746233522891998
13.0,0.19563622772693634
14.0,0.19385071098804474
15.0,0.19199052453041077
16.0,0.19010239839553833
18.0,0.1864796131849289
20.0,0.18300747871398926
22.0,0.17941772937774658
24.0,0.17567481100559235
26.0,0.17194560170173645
28.0,0.1684638261795044
30.0,0.16496586799621582
32.0,0.16145147383213043
36.0,0.1543760597705841
40.0,0.14738702774047852
44.0,0.14069336652755737
48.0,0.1338694542646408
52.0,0.12710419297218323
56.0,0.1211106926202774
60.0,0.1155589371919632
64.0,0.11006423830986023
72.0,0.09284399449825287
80.0,0.08031404763460159
88.0,0.06780179589986801
96.0,0.055852003395557404
104.0,0.04479503631591797
112.0,0.033907514065504074
120.0,0.03248327225446701
128.0,0.031835317611694336
144.0,0.03142555058002472
160.0,0.03312497213482857
176.0,0.03382712975144386
192.0,0.035796407610177994
208.0,0.03724611923098564
224.0,0.0393221378326416
240.0,0.04127565771341324
256.0,0.04220796376466751
288.0,0.04164616018533707
320.0,0.041635662317276
352.0,0.04130418598651886
384.0,0.03654010221362114
416.0,0.03188876807689667
448.0,0.028280707076191902
480.0,0.03014158457517624
512.0,0.033175788819789886
576.0,0.021697157993912697
640.0,0.02611681818962097
704.0,0.022732673212885857
768.0,0.030313687399029732
832.0,0.022064613178372383
896.0,0.02673882246017456
960.0,0.013914982788264751
1024.0,0.004118703305721283
1152.0,0.0015565399080514908
1280.0,-0.003404518822208047
1408.0,-0.0026553680654615164
1536.0,0.000757130270358175
1664.0,-0.0023752611596137285
1792.0,-0.0028570054564625025
1920.0,-0.004833298269659281
2048.0,-0.008157674223184586
2304.0,-0.0016182363033294678
2560.0,-0.0017817668849602342
2816.0,-0.0016472087008878589
3072.0,-0.001332737854681909
3328.0,-0.0029722070321440697
3584.0,-0.0039217909798026085
3840.0,-0.004364305641502142
4096.0,-0.005412747617810965
4608.0,0.008225386030972004
5120.0,0.012553256936371326
5632.0,-0.002526272786781192
6144.0,0.00426949467509985
6656.0,0.006876644678413868
7168.0,0.0011166167678311467
7680.0,0.00036894160439260304
8192.0,-0.0010455555748194456
end
