version,3.0
numOfCh,1
type,point
parent_name,484af_1dot0-0dot01
ch_type,1_1
kcount,1
numberNandB,1
brightnessNandB,1
carpet pos,0
pc,0
Time (ms),CH1 Auto-Correlation
1.0,0.04048846289515495
2.0,0.03744812682271004
3.0,0.03479507192969322
4.0,0.032425712794065475
5.0,0.03042982518672943
6.0,0.028693409636616707
7.0,0.027083104476332664
8.0,0.02554214745759964
9.0,0.024041028693318367
10.0,0.022763991728425026
11.0,0.021625027060508728
12.0,0.020658912137150764
13.0,0.019738351926207542
14.0,0.018812695518136024
15.0,0.0179823599755764
16.0,0.017127523198723793
18.0,0.015580171719193459
20.0,0.01429889164865017
22.0,0.012922601774334908
24.0,0.011581869795918465
26.0,0.010386836715042591
28.0,0.009177405387163162
30.0,0.008214153349399567
32.0,0.007408426608890295
36.0,0.006068793591111898
40.0,0.0051252092234790325
44.0,0.004449492320418358
48.0,0.003916606307029724
52.0,0.0037006407510489225
56.0,0.003694885177537799
60.0,0.003561625024303794
64.0,0.003402430796995759
72.0,0.0029670712538063526
80.0,0.0030717882327735424
88.0,0.0021096596028655767
96.0,0.0015718158101662993
104.0,0.0014923630515113473
112.0,0.0017706790240481496
120.0,0.0017007890855893493
128.0,0.0017494766507297754
144.0,0.0013666764134541154
160.0,0.0008452830952592194
176.0,0.0012773077469319105
192.0,0.0012038532877340913
208.0,0.000723521166946739
224.0,7.593934424221516e-05
240.0,-0.00030248993425630033
256.0,0.00013159254740457982
288.0,-0.0010293625527992845
320.0,-0.0010613854974508286
352.0,-0.0008330650744028389
384.0,-0.0008915463695302606
416.0,-0.0006177563918754458
448.0,-0.0015186344971880317
480.0,-0.0004003157955594361
512.0,-0.001862363307736814
576.0,-0.0016290879575535655
640.0,-0.0019769647624343634
704.0,-0.0006623789086006582
768.0,-0.0013272155774757266
832.0,-3.0379884265130386e-05
896.0,0.00045208202209323645
960.0,-0.0001452487922506407
1024.0,-0.0002979330311063677
1152.0,-0.0012361275730654597
1280.0,-0.0005719391047023237
1408.0,-0.00026269652880728245
1536.0,0.001466453424654901
1664.0,0.00027876629610545933
1792.0,0.0010027862153947353
1920.0,-0.0005000415840186179
2048.0,-0.002172097098082304
2304.0,0.00032981764525175095
2560.0,0.0021073378156870604
2816.0,0.0004152734181843698
3072.0,-0.0015955476555973291
3328.0,0.0001553899492137134
3584.0,0.0005246264045126736
3840.0,-0.0010642859851941466
4096.0,0.0005142117151990533
4608.0,-0.0011784194502979517
5120.0,0.0013323945458978415
5632.0,-0.0003596906317397952
6144.0,-0.0005787214613519609
6656.0,-0.00017722914344631135
7168.0,-0.00027732865419238806
7680.0,-0.00029110381728969514
8192.0,0.00113192037679255
end
