version,3.0
numOfCh,1
type,point
parent_name,484af_1dot0-0dot01
ch_type,1_1
kcount,1
numberNandB,1
brightnessNandB,1
carpet pos,0
pc,0
Time (ms),CH1 Auto-Correlation
1.0,0.04326346516609192
2.0,0.040166810154914856
3.0,0.03754553571343422
4.0,0.03523183986544609
5.0,0.033169493079185486
6.0,0.031353797763586044
7.0,0.029739579185843468
8.0,0.028256265446543694
9.0,0.026946119964122772
10.0,0.02573985420167446
11.0,0.02476232498884201
12.0,0.02390710823237896
13.0,0.023078717291355133
14.0,0.022319700568914413
15.0,0.02148120105266571
16.0,0.02066299133002758
18.0,0.01935984008014202
20.0,0.01825830712914467
22.0,0.017216352745890617
24.0,0.01627250760793686
26.0,0.015489835292100906
28.0,0.014885942451655865
30.0,0.014396630227565765
32.0,0.013903943821787834
36.0,0.013314193114638329
40.0,0.012650755234062672
44.0,0.011805178597569466
48.0,0.010787581093609333
52.0,0.010014721192419529
56.0,0.009598497301340103
60.0,0.009043130092322826
64.0,0.008732320740818977
72.0,0.007302506361156702
80.0,0.006187634076923132
88.0,0.005295645445585251
96.0,0.004289898090064526
104.0,0.0036528019700199366
112.0,0.0028007272630929947
120.0,0.002025005640462041
128.0,0.001520637422800064
144.0,0.00027141752070747316
160.0,0.0005768390838056803
176.0,0.0009448215714655817
192.0,0.0010672445641830564
208.0,0.0021930858492851257
224.0,0.0019436428556218743
240.0,0.0014989860355854034
256.0,0.00022943364456295967
288.0,0.00012148378300480545
320.0,7.359871960943565e-05
352.0,0.000746179255656898
384.0,0.0010350232478231192
416.0,0.0018757820362225175
448.0,0.0014853744069114327
480.0,0.0012695518089458346
512.0,0.001774508855305612
576.0,0.002666978631168604
640.0,0.0023803063668310642
704.0,0.0014315489679574966
768.0,0.0005056445952504873
832.0,-0.0012726809363812208
896.0,-0.000381929479772225
960.0,-0.00033958995481953025
1024.0,0.0008910587639547884
1152.0,0.0008319455664604902
1280.0,0.0006209913408383727
1408.0,0.0012288879370316863
1536.0,-0.0003628034901339561
1664.0,-0.0018162669148296118
1792.0,-0.0014428605791181326
1920.0,0.00099207425955683
2048.0,-0.0019199162488803267
2304.0,-0.0003250122244935483
2560.0,0.00017804914386942983
2816.0,-0.00047880486818030477
3072.0,9.359369141748175e-05
3328.0,0.00012297017383389175
3584.0,0.00044853767030872405
3840.0,0.0008662182372063398
4096.0,-0.0001589335734024644
4608.0,-0.0007864385261200368
5120.0,-0.0008264824864454567
5632.0,-0.0003503643674775958
6144.0,-0.0016816058196127415
6656.0,2.3630042051081546e-05
7168.0,-0.0005995488027110696
7680.0,0.00036230572732165456
8192.0,0.0016649940516799688
end
