version,3.0
numOfCh,1
type,point
parent_name,484af_1dot0-0dot01
ch_type,1_1
kcount,1
numberNandB,1
brightnessNandB,1
carpet pos,0
pc,0
Time (ms),CH1 Auto-Correlation
1.0,0.04074085131287575
2.0,0.03751256689429283
3.0,0.034691035747528076
4.0,0.03232331573963165
5.0,0.030187753960490227
6.0,0.028250843286514282
7.0,0.026468761265277863
8.0,0.024921949952840805
9.0,0.02353035658597946
10.0,0.022244246676564217
11.0,0.021127566695213318
12.0,0.020167509093880653
13.0,0.019201377406716347
14.0,0.01834975741803646
15.0,0.01754922792315483
16.0,0.01691615581512451
18.0,0.01577107608318329
20.0,0.014698376879096031
22.0,0.013863435946404934
24.0,0.01319345086812973
26.0,0.012539638206362724
28.0,0.01183807011693716
30.0,0.011075847782194614
32.0,0.010384066961705685
36.0,0.009114441461861134
40.0,0.008447140455245972
44.0,0.007994801737368107
48.0,0.007694764528423548
52.0,0.007249646820127964
56.0,0.006651321426033974
60.0,0.006067977752536535
64.0,0.0055714817717671394
72.0,0.004912691656500101
80.0,0.004062723368406296
88.0,0.00338439317420125
96.0,0.003022849326953292
104.0,0.0026692284736782312
112.0,0.0028014392592012882
120.0,0.0024959526490420103
128.0,0.002528482349589467
144.0,0.002418920863419771
160.0,0.00238582631573081
176.0,0.0013880146434530616
192.0,0.000826189701911062
208.0,0.0010513324523344636
224.0,0.0006018916028551757
240.0,-0.0007487372495234013
256.0,-0.0001926768891280517
288.0,0.0003037739370483905
320.0,0.0009847109904512763
352.0,-0.0001053956220857799
384.0,0.00035155320074409246
416.0,0.0008979034028016031
448.0,-5.072346903034486e-05
480.0,-0.0013934243470430374
512.0,-0.0016701410058885813
576.0,-0.001863993820734322
640.0,0.00030203908681869507
704.0,0.00012037726992275566
768.0,-0.0001854975416790694
832.0,-0.0005000074743293226
896.0,-0.0026523263659328222
960.0,-0.0012154581490904093
1024.0,-0.0009583743521943688
1152.0,-0.002813414204865694
1280.0,-0.0002085150481434539
1408.0,-7.808345253579319e-05
1536.0,-0.0005581131554208696
1664.0,0.00032801550696603954
1792.0,-0.0030681737698614597
1920.0,0.000976591370999813
2048.0,0.001449741655960679
2304.0,0.0004977239877916873
2560.0,-0.0015865344321355224
2816.0,0.000508600496686995
3072.0,0.00043001622543670237
3328.0,-0.0002590153308119625
3584.0,-0.0003552274720277637
3840.0,0.00015629813424311578
4096.0,0.000464136857772246
4608.0,0.0004426361992955208
5120.0,-0.0005073754000477493
5632.0,-0.0011768628610298038
6144.0,0.001036300091072917
6656.0,-0.0010267337784171104
7168.0,-0.0007306759362109005
7680.0,0.0006890309741720557
8192.0,0.001154687604866922
end
