version,3.0
numOfCh,1
type,point
parent_name,dirty_0dot069-1dot0
ch_type,1_1
kcount,1
numberNandB,1
brightnessNandB,1
carpet pos,0
pc,0
Time (ms),CH1 Auto-Correlation
1.0,0.7821148633956909
2.0,0.7220179438591003
3.0,0.672407865524292
4.0,0.6261641979217529
5.0,0.5942214131355286
6.0,0.5654159188270569
7.0,0.5413910746574402
8.0,0.5157116055488586
9.0,0.4882843792438507
10.0,0.46484801173210144
11.0,0.44301363825798035
12.0,0.41585540771484375
13.0,0.3994130790233612
14.0,0.3856431245803833
15.0,0.37338221073150635
16.0,0.3636998236179352
18.0,0.33928126096725464
20.0,0.32070982456207275
22.0,0.30700787901878357
24.0,0.30035868287086487
26.0,0.2901167869567871
28.0,0.2877786457538605
30.0,0.27510491013526917
32.0,0.26080384850502014
36.0,0.2333471179008484
40.0,0.22530497610569
44.0,0.21291285753250122
48.0,0.20682571828365326
52.0,0.1844659447669983
56.0,0.15496395528316498
60.0,0.13305996358394623
64.0,0.11246307939291
72.0,0.11288970708847046
80.0,0.11371378600597382
88.0,0.1242256835103035
96.0,0.13659216463565826
104.0,0.13924570381641388
112.0,0.1490127593278885
120.0,0.15498295426368713
128.0,0.12763580679893494
144.0,0.10602687299251556
160.0,0.07876980304718018
176.0,0.07770535349845886
192.0,0.08517869561910629
208.0,0.08151894807815552
224.0,0.07848377525806427
240.0,0.07301179319620132
256.0,0.05087509751319885
288.0,0.03971618413925171
320.0,0.0452759824693203
352.0,0.04777548462152481
384.0,0.032945964485406876
416.0,0.05438835918903351
448.0,0.04773380979895592
480.0,0.02150757797062397
512.0,0.001945854164659977
576.0,-0.020713264122605324
640.0,-0.013047435320913792
704.0,0.030669983476400375
768.0,0.012909822165966034
832.0,0.0385688841342926
896.0,0.04579896107316017
960.0,0.023535510525107384
1024.0,0.055349402129650116
1152.0,0.008495621383190155
1280.0,-0.02018396183848381
1408.0,-0.0169240590184927
1536.0,0.016468048095703125
1664.0,0.04751954227685928
1792.0,0.06987559795379639
1920.0,0.013136397115886211
2048.0,0.002995604882016778
2304.0,0.021779067814350128
2560.0,0.06562085449695587
2816.0,0.019563645124435425
3072.0,-0.03696763888001442
3328.0,-0.0626729428768158
3584.0,-0.05153714120388031
3840.0,-0.009826099500060081
4096.0,0.013384534977376461
4608.0,-0.02264634147286415
5120.0,-0.0192252304404974
5632.0,-0.03862307593226433
6144.0,-0.04413711652159691
6656.0,-0.01959671638906002
7168.0,-0.01805201545357704
7680.0,-0.009712297469377518
8192.0,-0.04749856889247894
9216.0,-0.021502375602722168
10240.0,0.02942143753170967
11264.0,-0.024774720892310143
12288.0,0.06830500066280365
13312.0,-0.003924068063497543
14336.0,0.06051252409815788
end
