version,3.0
numOfCh,1
type,point
parent_name,dirty_0dot069-1dot0
ch_type,1_1
kcount,1
numberNandB,1
brightnessNandB,1
carpet pos,0
pc,0
Time (ms),CH1 Auto-Correlation
1.0,1.8108434677124023
2.0,1.6960948705673218
3.0,1.595375418663025
4.0,1.5027520656585693
5.0,1.4244775772094727
6.0,1.3520947694778442
7.0,1.288190245628357
8.0,1.2219223976135254
9.0,1.162125587463379
10.0,1.0969080924987793
11.0,1.0286661386489868
12.0,0.9619450569152832
13.0,0.9001935124397278
14.0,0.8528605699539185
15.0,0.8133774995803833
16.0,0.7786237597465515
18.0,0.7206737399101257
20.0,0.6628676652908325
22.0,0.6268235445022583
24.0,0.6127314567565918
26.0,0.5836887955665588
28.0,0.5658580660820007
30.0,0.5546237826347351
32.0,0.5419793128967285
36.0,0.5209038853645325
40.0,0.5249601602554321
44.0,0.5158749222755432
48.0,0.5207785964012146
52.0,0.5032679438591003
56.0,0.4800533056259155
60.0,0.45565924048423767
64.0,0.4435119330883026
72.0,0.402775377035141
80.0,0.3942056894302368
88.0,0.3653828501701355
96.0,0.30945464968681335
104.0,0.2785460948944092
112.0,0.22832632064819336
120.0,0.24084646999835968
128.0,0.2685506343841553
144.0,0.2401503026485443
160.0,0.3065325915813446
176.0,0.22087623178958893
192.0,0.08262375742197037
208.0,0.11280977725982666
224.0,0.07537364959716797
240.0,-0.031007172539830208
256.0,-0.03964701294898987
288.0,-0.006755168549716473
320.0,0.01256830058991909
352.0,0.042456500232219696
384.0,0.07356284558773041
416.0,0.024258466437458992
448.0,0.007067868951708078
480.0,0.04577350988984108
512.0,0.10818761587142944
576.0,0.02849525399506092
640.0,-0.025338325649499893
704.0,-0.031064609065651894
768.0,-0.05568578839302063
832.0,-0.04031438007950783
896.0,-0.030068276450037956
960.0,-0.06632722914218903
1024.0,-0.07525661587715149
1152.0,-0.079465851187706
1280.0,-0.08668432384729385
1408.0,-0.07905575633049011
1536.0,-0.09679952263832092
1664.0,-0.0967613086104393
1792.0,-0.012588035315275192
1920.0,0.06767839938402176
2048.0,-0.009327939711511135
2304.0,0.01980176381766796
2560.0,0.005586736835539341
2816.0,0.11039496958255768
3072.0,0.06439981609582901
3328.0,0.018680399283766747
3584.0,-0.033096540719270706
3840.0,-0.07982935011386871
4096.0,-0.06250634044408798
4608.0,-0.07492551952600479
5120.0,-0.01190209947526455
5632.0,0.0015329907182604074
6144.0,0.10941983759403229
6656.0,0.052286699414253235
7168.0,-0.04056718572974205
7680.0,-0.009063376113772392
8192.0,0.010489708743989468
9216.0,0.01631982997059822
10240.0,-0.04013301432132721
11264.0,-0.05574319511651993
12288.0,-0.036754004657268524
13312.0,-0.010603688657283783
14336.0,-0.05117548629641533
end
