version,3.0
numOfCh,1
type,point
parent_name,dirty_0dot069-1dot0
ch_type,1_1
kcount,1
numberNandB,1
brightnessNandB,1
carpet pos,0
pc,0
Time (ms),CH1 Auto-Correlation
1.0,1.861663579940796
2.0,1.7390873432159424
3.0,1.6222819089889526
4.0,1.515548825263977
5.0,1.4173617362976074
6.0,1.3436449766159058
7.0,1.2703813314437866
8.0,1.2038379907608032
9.0,1.1524534225463867
10.0,1.0942848920822144
11.0,1.0461959838867188
12.0,0.9985217452049255
13.0,0.9490348696708679
14.0,0.9086365103721619
15.0,0.8808947801589966
16.0,0.8507664203643799
18.0,0.7816762924194336
20.0,0.7163524627685547
22.0,0.6704255938529968
24.0,0.6235602498054504
26.0,0.5970183610916138
28.0,0.5757184624671936
30.0,0.5492563247680664
32.0,0.5279542207717896
36.0,0.4984763562679291
40.0,0.4612869322299957
44.0,0.4272530674934387
48.0,0.3782660663127899
52.0,0.3375259339809418
56.0,0.31960630416870117
60.0,0.31529998779296875
64.0,0.29300421476364136
72.0,0.1893039047718048
80.0,0.1353643834590912
88.0,0.12423323094844818
96.0,0.11366769671440125
104.0,0.1021740511059761
112.0,0.0776124894618988
120.0,0.05003831163048744
128.0,0.05320264771580696
144.0,0.09479127079248428
160.0,0.08121778070926666
176.0,0.08760236948728561
192.0,0.09408772736787796
208.0,0.08807656913995743
224.0,0.10393515229225159
240.0,0.09501343220472336
256.0,0.023680344223976135
288.0,0.05430341511964798
320.0,0.05162878707051277
352.0,0.008058840408921242
384.0,-0.045069072395563126
416.0,-0.05196554586291313
448.0,-0.026973526924848557
480.0,-0.022884083911776543
512.0,-0.016030628234148026
576.0,0.036029525101184845
640.0,0.06278149783611298
704.0,-0.028216078877449036
768.0,-0.04842287302017212
832.0,-0.03831283748149872
896.0,0.02096771076321602
960.0,0.017262952402234077
1024.0,-0.05592178925871849
1152.0,0.016028767451643944
1280.0,-0.015086420811712742
1408.0,-0.033330462872982025
1536.0,-0.001762470230460167
1664.0,0.023318270221352577
1792.0,0.06837914884090424
1920.0,0.0074790907092392445
2048.0,0.13236553966999054
2304.0,-0.04961308464407921
2560.0,-0.04149544984102249
2816.0,-0.04021459445357323
3072.0,-0.06293319910764694
3328.0,-0.04123414680361748
3584.0,-0.040511466562747955
3840.0,0.021966343745589256
4096.0,0.012371748685836792
4608.0,0.018069764599204063
5120.0,-0.05025696009397507
5632.0,-0.04600938782095909
6144.0,0.014812704175710678
6656.0,0.10301534831523895
7168.0,0.04075764864683151
7680.0,0.04886694252490997
8192.0,-0.010103920474648476
9216.0,-0.03299561142921448
10240.0,-0.09633978456258774
11264.0,0.03585159406065941
12288.0,-0.10648686438798904
13312.0,0.028777016326785088
14336.0,0.05739438161253929
end
