version,3.0
numOfCh,1
type,point
parent_name,dirty_0dot069-1dot0
ch_type,1_1
kcount,1
numberNandB,1
brightnessNandB,1
carpet pos,0
pc,0
Time (ms),CH1 Auto-Correlation
1.0,0.6619963049888611
2.0,0.612548291683197
3.0,0.569776713848114
4.0,0.5334963798522949
5.0,0.5006346106529236
6.0,0.4733300805091858
7.0,0.4491194188594818
8.0,0.4287426769733429
9.0,0.41292375326156616
10.0,0.39868590235710144
11.0,0.38754868507385254
12.0,0.3731235861778259
13.0,0.3607890009880066
14.0,0.34902089834213257
15.0,0.33396318554878235
16.0,0.3182336390018463
18.0,0.2956303656101227
20.0,0.2825939357280731
22.0,0.2690691351890564
24.0,0.2610146999359131
26.0,0.2508995532989502
28.0,0.24351583421230316
30.0,0.24008584022521973
32.0,0.2342543601989746
36.0,0.21124227344989777
40.0,0.20152392983436584
44.0,0.19323201477527618
48.0,0.18344666063785553
52.0,0.173717200756073
56.0,0.1563638299703598
60.0,0.13869695365428925
64.0,0.12296602874994278
72.0,0.10483335703611374
80.0,0.09570369124412537
88.0,0.10015125572681427
96.0,0.10399825870990753
104.0,0.11430135369300842
112.0,0.12316141277551651
120.0,0.10628003627061844
128.0,0.09569866210222244
144.0,0.09395639598369598
160.0,0.0981096476316452
176.0,0.07497883588075638
192.0,0.0701121836900711
208.0,0.06060373783111572
224.0,0.06436941772699356
240.0,0.06292275339365005
256.0,0.050863225013017654
288.0,0.03217102959752083
320.0,0.020041167736053467
352.0,0.01430478598922491
384.0,0.00880727544426918
416.0,0.011056175455451012
448.0,0.03682980313897133
480.0,0.033591728657484055
512.0,0.032230958342552185
576.0,-0.00026147515745833516
640.0,-0.008061736822128296
704.0,-0.011816716752946377
768.0,-0.010339630767703056
832.0,-0.020585261285305023
896.0,-0.01621970720589161
960.0,-0.014212924055755138
1024.0,-0.029522079974412918
1152.0,-0.02104266919195652
1280.0,-0.024767233058810234
1408.0,-0.03523048013448715
1536.0,-0.033170513808727264
1664.0,-0.0357256680727005
1792.0,-0.025302473455667496
1920.0,-0.023665079846978188
2048.0,-0.024280970916152
2304.0,-0.00023728339874651283
2560.0,0.003682569367811084
2816.0,0.01897006668150425
3072.0,0.0021000367123633623
3328.0,-0.002077590674161911
3584.0,-0.02199712209403515
3840.0,-0.020281268283724785
4096.0,-0.018227867782115936
4608.0,0.02741537056863308
5120.0,0.0041281296871602535
5632.0,0.02245124988257885
6144.0,-0.020302219316363335
6656.0,-0.022298619151115417
7168.0,0.01804114691913128
7680.0,-0.017447151243686676
8192.0,-0.022184794768691063
9216.0,-0.020012998953461647
10240.0,0.05445190519094467
11264.0,-0.03177011385560036
12288.0,-0.0025352132506668568
13312.0,0.03196573629975319
14336.0,-0.012838986702263355
end
