version,3.0
numOfCh,1
type,point
parent_name,dirty_0dot069-1dot0
ch_type,1_1
kcount,1
numberNandB,1
brightnessNandB,1
carpet pos,0
pc,0
Time (ms),CH1 Auto-Correlation
1.0,1.708756923675537
2.0,1.5751150846481323
3.0,1.4677298069000244
4.0,1.369841456413269
5.0,1.2866476774215698
6.0,1.2141858339309692
7.0,1.1530518531799316
8.0,1.0909171104431152
9.0,1.0249719619750977
10.0,0.9724560379981995
11.0,0.9134324789047241
12.0,0.8648841977119446
13.0,0.8276536464691162
14.0,0.7899593710899353
15.0,0.7514098882675171
16.0,0.7262827754020691
18.0,0.6967999339103699
20.0,0.6735301613807678
22.0,0.6470081210136414
24.0,0.6180662512779236
26.0,0.5956553220748901
28.0,0.5862405896186829
30.0,0.5727115273475647
32.0,0.5409663915634155
36.0,0.45349186658859253
40.0,0.3888925611972809
44.0,0.33675360679626465
48.0,0.308541476726532
52.0,0.27951309084892273
56.0,0.25382521748542786
60.0,0.22386737167835236
64.0,0.20635555684566498
72.0,0.19058038294315338
80.0,0.14306390285491943
88.0,0.10352718830108643
96.0,0.11561205238103867
104.0,0.14058484137058258
112.0,0.11350805312395096
120.0,0.08127053081989288
128.0,0.05909617245197296
144.0,0.07061038166284561
160.0,0.02963409014046192
176.0,-0.04566948488354683
192.0,-0.05872682109475136
208.0,-0.05965452641248703
224.0,-0.04798860475420952
240.0,-0.03137514740228653
256.0,-0.0023644971661269665
288.0,-0.03734558820724487
320.0,-0.03135937824845314
352.0,-0.042357999831438065
384.0,-0.0423186756670475
416.0,-0.02126881293952465
448.0,-4.038701081299223e-05
480.0,0.004110317677259445
512.0,-0.008752372115850449
576.0,0.009077765978872776
640.0,0.010207472369074821
704.0,-0.04145866259932518
768.0,-0.037801921367645264
832.0,-0.06062987446784973
896.0,-0.024683695286512375
960.0,-0.1162024587392807
1024.0,-0.029177675023674965
1152.0,-0.03405752778053284
1280.0,-0.015074638649821281
1408.0,-0.01839327998459339
1536.0,0.16353626549243927
1664.0,0.03514741733670235
1792.0,-0.06919213384389877
1920.0,0.038668472319841385
2048.0,-0.0074043055064976215
2304.0,-0.10102412849664688
2560.0,0.003864537924528122
2816.0,-0.09046116471290588
3072.0,0.023494277149438858
3328.0,0.003570062341168523
3584.0,0.020427722483873367
3840.0,-0.06789440661668777
4096.0,0.06814225763082504
4608.0,0.0076952120289206505
5120.0,-0.03052978776395321
5632.0,0.02660793997347355
6144.0,0.02413357049226761
6656.0,0.04441862925887108
7168.0,0.020711934193968773
7680.0,-0.032714635133743286
8192.0,0.03639605641365051
9216.0,-0.039927419275045395
10240.0,0.013759897090494633
11264.0,-0.0023773270659148693
12288.0,-0.018131282180547714
13312.0,0.028412170708179474
14336.0,0.012995067052543163
end
