version,3.0
numOfCh,1
type,point
parent_name,dirty_0dot069-1dot0
ch_type,1_1
kcount,1
numberNandB,1
brightnessNandB,1
carpet pos,0
pc,0
Time (ms),CH1 Auto-Correlation
1.0,0.6546338200569153
2.0,0.6052104234695435
3.0,0.5676438808441162
4.0,0.5337152481079102
5.0,0.5033960342407227
6.0,0.47126781940460205
7.0,0.4470736086368561
8.0,0.4261803925037384
9.0,0.39702314138412476
10.0,0.3693371117115021
11.0,0.342915415763855
12.0,0.3195081651210785
13.0,0.301255464553833
14.0,0.28669655323028564
15.0,0.2684863805770874
16.0,0.24728551506996155
18.0,0.22212214767932892
20.0,0.20720000565052032
22.0,0.19879262149333954
24.0,0.18759632110595703
26.0,0.17432574927806854
28.0,0.16871951520442963
30.0,0.16087454557418823
32.0,0.15837125480175018
36.0,0.15004177391529083
40.0,0.1423014998435974
44.0,0.1311442255973816
48.0,0.11349563300609589
52.0,0.1047087237238884
56.0,0.10557854175567627
60.0,0.12285912036895752
64.0,0.1280374526977539
72.0,0.1424001157283783
80.0,0.13850414752960205
88.0,0.12063883990049362
96.0,0.10362757742404938
104.0,0.09589773416519165
112.0,0.08961151540279388
120.0,0.1021171286702156
128.0,0.10035840421915054
144.0,0.07787515968084335
160.0,0.07651185244321823
176.0,0.0878286138176918
192.0,0.08545824140310287
208.0,0.0710144191980362
224.0,0.04020514339208603
240.0,0.039626263082027435
256.0,0.04373881593346596
288.0,0.06263352930545807
320.0,0.07859648764133453
352.0,0.030276654288172722
384.0,0.014651360921561718
416.0,0.005497125443071127
448.0,-0.004644317086786032
480.0,-0.005750713404268026
512.0,-0.003193667158484459
576.0,0.008365082554519176
640.0,-0.005228886846452951
704.0,-0.01359598245471716
768.0,-0.02207586169242859
832.0,-0.016850357875227928
896.0,-0.019633587449789047
960.0,-0.030651116743683815
1024.0,-0.025883004069328308
1152.0,-0.012787395156919956
1280.0,0.0060849436558783054
1408.0,0.0047040656208992004
1536.0,0.0010790845844894648
1664.0,0.009309670887887478
1792.0,0.008394856937229633
1920.0,0.016163978725671768
2048.0,0.04236263781785965
2304.0,0.05768584832549095
2560.0,0.030385125428438187
2816.0,0.015594886615872383
3072.0,0.0014019262744113803
3328.0,0.022407013922929764
3584.0,0.021976225078105927
3840.0,-0.007016751449555159
4096.0,-0.011816583573818207
4608.0,0.008402909152209759
5120.0,0.019502194598317146
5632.0,-0.008587371557950974
6144.0,0.023437509313225746
6656.0,-0.013870174996554852
7168.0,-0.03261497989296913
7680.0,-0.031347837299108505
8192.0,0.012013777159154415
9216.0,-0.03388616070151329
10240.0,-0.04822254553437233
11264.0,0.01200040616095066
12288.0,-0.08469324558973312
13312.0,0.01846594177186489
14336.0,-0.11666237562894821
end
