version,3.0
numOfCh,1
type,point
parent_name,dirty_0dot069-1dot0
ch_type,1_1
kcount,1
numberNandB,1
brightnessNandB,1
carpet pos,0
pc,0
Time (ms),CH1 Auto-Correlation
1.0,0.9490580558776855
2.0,0.8700701594352722
3.0,0.7984564900398254
4.0,0.7396374940872192
5.0,0.6941290497779846
6.0,0.6492488384246826
7.0,0.6036337614059448
8.0,0.5692694783210754
9.0,0.5427265763282776
10.0,0.5198848843574524
11.0,0.5074077844619751
12.0,0.4975118339061737
13.0,0.48801755905151367
14.0,0.47371813654899597
15.0,0.45481792092323303
16.0,0.4374011754989624
18.0,0.4153617322444916
20.0,0.3986210227012634
22.0,0.3778592050075531
24.0,0.36182013154029846
26.0,0.3523719608783722
28.0,0.3405610918998718
30.0,0.3359147012233734
32.0,0.33180588483810425
36.0,0.3262825906276703
40.0,0.32176896929740906
44.0,0.3271210789680481
48.0,0.3165862262248993
52.0,0.2958729565143585
56.0,0.2859334647655487
60.0,0.29665765166282654
64.0,0.29092711210250854
72.0,0.2647377848625183
80.0,0.23751415312290192
88.0,0.23905859887599945
96.0,0.21964536607265472
104.0,0.20303629338741302
112.0,0.18052838742733002
120.0,0.18214040994644165
128.0,0.18120375275611877
144.0,0.18482032418251038
160.0,0.2107856422662735
176.0,0.20562922954559326
192.0,0.19308242201805115
208.0,0.16366663575172424
224.0,0.15297068655490875
240.0,0.15266716480255127
256.0,0.14114296436309814
288.0,0.10060210525989532
320.0,0.09056469053030014
352.0,0.06641741842031479
384.0,0.04515229910612106
416.0,0.05559592694044113
448.0,0.043309569358825684
480.0,0.02197093330323696
512.0,0.021133525297045708
576.0,0.04936070740222931
640.0,0.059277333319187164
704.0,0.04180052503943443
768.0,0.02256077155470848
832.0,0.04380866885185242
896.0,0.041155487298965454
960.0,-0.00028476188890635967
1024.0,-0.017330124974250793
1152.0,-0.046956706792116165
1280.0,-0.052112679928541183
1408.0,-0.05436267703771591
1536.0,-0.039420757442712784
1664.0,-0.032327283173799515
1792.0,-0.011667962186038494
1920.0,0.050001587718725204
2048.0,0.004529910162091255
2304.0,-0.005049452651292086
2560.0,-0.013510636053979397
2816.0,0.03666731342673302
3072.0,0.03606202080845833
3328.0,0.005187205970287323
3584.0,-0.005315893795341253
3840.0,-0.021534042432904243
4096.0,-0.05118080601096153
4608.0,-0.0570940338075161
5120.0,0.029370278120040894
5632.0,0.07335250824689865
6144.0,0.0466727539896965
6656.0,-0.035816095769405365
7168.0,-0.07281789183616638
7680.0,-0.0652906745672226
8192.0,0.02731863409280777
9216.0,-0.020652947947382927
10240.0,-0.06951287388801575
11264.0,-0.047307491302490234
12288.0,0.017489492893218994
13312.0,-0.13589484989643097
14336.0,0.030283257365226746
end
