version,3.0
numOfCh,1
type,point
parent_name,dirty_0dot069-1dot0
ch_type,1_1
kcount,1
numberNandB,1
brightnessNandB,1
carpet pos,0
pc,0
Time (ms),CH1 Auto-Correlation
1.0,0.8938911557197571
2.0,0.8171834349632263
3.0,0.7590237855911255
4.0,0.701936662197113
5.0,0.647773802280426
6.0,0.6079294681549072
7.0,0.5734450221061707
8.0,0.5383247137069702
9.0,0.5087791681289673
10.0,0.4823954105377197
11.0,0.45811596512794495
12.0,0.43665948510169983
13.0,0.4141973853111267
14.0,0.3916054666042328
15.0,0.37217381596565247
16.0,0.3528383672237396
18.0,0.31261488795280457
20.0,0.2887714207172394
22.0,0.26992863416671753
24.0,0.2577683627605438
26.0,0.2475697249174118
28.0,0.24230745434761047
30.0,0.2343575805425644
32.0,0.23782195150852203
36.0,0.24294844269752502
40.0,0.2295042723417282
44.0,0.20750489830970764
48.0,0.20390720665454865
52.0,0.18786735832691193
56.0,0.17232953011989594
60.0,0.16051501035690308
64.0,0.14850358664989471
72.0,0.11032005399465561
80.0,0.11701352149248123
88.0,0.1394454538822174
96.0,0.13612455129623413
104.0,0.10320032387971878
112.0,0.08420417457818985
120.0,0.0722685158252716
128.0,0.07443054765462875
144.0,0.051135871559381485
160.0,0.02782832644879818
176.0,0.007659547962248325
192.0,-0.0032351287081837654
208.0,-0.00353009020909667
224.0,0.004983727354556322
240.0,0.027280857786536217
256.0,0.03149604797363281
288.0,0.04879012331366539
320.0,0.056922320276498795
352.0,0.06044808775186539
384.0,0.047638144344091415
416.0,0.03936875984072685
448.0,0.0687384083867073
480.0,0.02889341674745083
512.0,-0.009330039843916893
576.0,0.0004795844724867493
640.0,0.001308655715547502
704.0,0.05356333404779434
768.0,0.04725189879536629
832.0,-0.023874223232269287
896.0,-0.027255365625023842
960.0,-0.028771759942173958
1024.0,0.013665544800460339
1152.0,-0.03276222199201584
1280.0,-0.053067293018102646
1408.0,-0.021816445514559746
1536.0,-0.02413628064095974
1664.0,-0.04074138030409813
1792.0,-0.03376392647624016
1920.0,-0.02694384567439556
2048.0,0.011579097248613834
2304.0,0.016641821712255478
2560.0,0.013358335942029953
2816.0,0.05399910360574722
3072.0,0.08265303075313568
3328.0,0.0410507470369339
3584.0,0.03422551602125168
3840.0,0.012640801258385181
4096.0,0.015132708474993706
4608.0,-0.0316823273897171
5120.0,-0.02465132810175419
5632.0,0.00038489935104735196
6144.0,0.013996298424899578
6656.0,0.02327810600399971
7168.0,0.0013393955305218697
7680.0,-0.024325741454958916
8192.0,-0.03234172239899635
9216.0,-0.024621330201625824
10240.0,-0.00037617457564920187
11264.0,-0.03812678903341293
12288.0,-0.035886965692043304
13312.0,-0.009744813665747643
14336.0,-0.04320332407951355
end
