version,3.0
numOfCh,1
type,point
parent_name,dirty_0dot069-1dot0
ch_type,1_1
kcount,1
numberNandB,1
brightnessNandB,1
carpet pos,0
pc,0
Time (ms),CH1 Auto-Correlation
1.0,1.4524297714233398
2.0,1.3221551179885864
3.0,1.2100955247879028
4.0,1.1178356409072876
5.0,1.0369274616241455
6.0,0.9629647135734558
7.0,0.9042502641677856
8.0,0.8589072227478027
9.0,0.8164612054824829
10.0,0.7712990641593933
11.0,0.7360543608665466
12.0,0.7147606015205383
13.0,0.6845506429672241
14.0,0.6535090804100037
15.0,0.6306028962135315
16.0,0.6130296587944031
18.0,0.5783920884132385
20.0,0.5551891922950745
22.0,0.5332180857658386
24.0,0.5142232179641724
26.0,0.4848470985889435
28.0,0.43924611806869507
30.0,0.4086030423641205
32.0,0.383091002702713
36.0,0.3630216717720032
40.0,0.3588995635509491
44.0,0.34176212549209595
48.0,0.34615662693977356
52.0,0.35422253608703613
56.0,0.36103639006614685
60.0,0.33060458302497864
64.0,0.28513601422309875
72.0,0.23165252804756165
80.0,0.21388867497444153
88.0,0.1755198985338211
96.0,0.14940331876277924
104.0,0.10488896816968918
112.0,0.07693012058734894
120.0,0.046804916113615036
128.0,0.02223326824605465
144.0,0.004181016702204943
160.0,0.002126620849594474
176.0,0.006161998491734266
192.0,0.0005220957682467997
208.0,-0.00041169271571561694
224.0,0.009998247027397156
240.0,-0.004598176572471857
256.0,-0.0037412734236568213
288.0,0.0649448111653328
320.0,0.06424754112958908
352.0,0.02784026972949505
384.0,-0.0041738455183804035
416.0,-0.039748869836330414
448.0,-0.03678978234529495
480.0,-0.04039927199482918
512.0,-0.050388120114803314
576.0,-0.03670908883213997
640.0,-0.0598500519990921
704.0,-0.07461109012365341
768.0,-0.06766306608915329
832.0,-0.033753082156181335
896.0,-0.055849649012088776
960.0,-0.0870213657617569
1024.0,-0.049853384494781494
1152.0,0.0050553795881569386
1280.0,0.009225781075656414
1408.0,0.03024771809577942
1536.0,0.04926170036196709
1664.0,-0.007944047451019287
1792.0,-0.047784507274627686
1920.0,-0.011619390919804573
2048.0,-0.03243844583630562
2304.0,0.0008242406765930355
2560.0,-0.05106547474861145
2816.0,-0.023302461951971054
3072.0,-0.006076801102608442
3328.0,-0.0219686571508646
3584.0,0.026662375777959824
3840.0,-0.02842162922024727
4096.0,0.02099001780152321
4608.0,-0.012001750990748405
5120.0,-0.017018016427755356
5632.0,0.016532432287931442
6144.0,-0.01754750870168209
6656.0,-0.004675355739891529
7168.0,0.021288923919200897
7680.0,-0.004495291039347649
8192.0,-0.014676490798592567
9216.0,0.030961398035287857
10240.0,-0.02122611552476883
11264.0,-0.00014932181511539966
12288.0,-0.021359439939260483
13312.0,0.013847469352185726
14336.0,0.0023624212481081486
end
