version,3.0
numOfCh,1
type,point
parent_name,dirty_0dot069-1dot0
ch_type,1_1
kcount,1
numberNandB,1
brightnessNandB,1
carpet pos,0
pc,0
Time (ms),CH1 Auto-Correlation
1.0,0.8956418037414551
2.0,0.8327944874763489
3.0,0.7829277515411377
4.0,0.741233766078949
5.0,0.6990972757339478
6.0,0.6602469086647034
7.0,0.6298845410346985
8.0,0.601837694644928
9.0,0.5758634805679321
10.0,0.5492227673530579
11.0,0.5299050807952881
12.0,0.5153491497039795
13.0,0.49973538517951965
14.0,0.48873013257980347
15.0,0.47662287950515747
16.0,0.4705161452293396
18.0,0.4372202157974243
20.0,0.40496355295181274
22.0,0.387201189994812
24.0,0.37460634112358093
26.0,0.34808120131492615
28.0,0.3179422616958618
30.0,0.2936055660247803
32.0,0.2768718898296356
36.0,0.25467953085899353
40.0,0.2317926287651062
44.0,0.2080571949481964
48.0,0.18600638210773468
52.0,0.16702039539813995
56.0,0.15264126658439636
60.0,0.13669604063034058
64.0,0.11881579458713531
72.0,0.11175999045372009
80.0,0.1244506910443306
88.0,0.13008183240890503
96.0,0.1212335154414177
104.0,0.10293752700090408
112.0,0.08931300789117813
120.0,0.05745090916752815
128.0,0.045981962233781815
144.0,0.025345684960484505
160.0,-0.002521212911233306
176.0,-0.019348913803696632
192.0,-0.04733625054359436
208.0,-0.05304097384214401
224.0,-0.05617055296897888
240.0,-0.06498673558235168
256.0,-0.06712854653596878
288.0,-0.06324546039104462
320.0,-0.04098843038082123
352.0,-0.03487098589539528
384.0,-0.03544943407177925
416.0,-0.02920708619058132
448.0,0.005381082184612751
480.0,0.04293520376086235
512.0,0.022675668820738792
576.0,0.012771522626280785
640.0,-0.027685310691595078
704.0,-0.011665312573313713
768.0,0.05240049958229065
832.0,0.06853631883859634
896.0,0.06177579239010811
960.0,0.004126898478716612
1024.0,0.006483487784862518
1152.0,-0.017997102811932564
1280.0,-0.03798408433794975
1408.0,-0.041195712983608246
1536.0,0.030522188171744347
1664.0,0.08206519484519958
1792.0,0.011127902194857597
1920.0,-0.009758529253304005
2048.0,-0.0009400318958796561
2304.0,-0.004398360848426819
2560.0,0.024202868342399597
2816.0,-0.004881156142801046
3072.0,0.013352933339774609
3328.0,0.040348540991544724
3584.0,-0.004457142669707537
3840.0,-0.011834909208118916
4096.0,-0.0026209449861198664
4608.0,-0.02673984132707119
5120.0,-0.00025700655533000827
5632.0,-0.02538064494729042
6144.0,-0.005301065277308226
6656.0,-0.018064163625240326
7168.0,0.0016320572467520833
7680.0,-0.02000238560140133
8192.0,-0.0140314856544137
9216.0,-0.014887625351548195
10240.0,-0.006639903876930475
11264.0,-0.004963966086506844
12288.0,-0.0019734972156584263
13312.0,-0.0009048550273291767
14336.0,-0.0027621756307780743
end
