version,3.0
numOfCh,1
type,point
parent_name,dirty_0dot069-1dot0
ch_type,1_1
kcount,1
numberNandB,1
brightnessNandB,1
carpet pos,0
pc,0
Time (ms),CH1 Auto-Correlation
1.0,0.7256733179092407
2.0,0.6833080053329468
3.0,0.6422959566116333
4.0,0.6059335470199585
5.0,0.577589750289917
6.0,0.5481213331222534
7.0,0.5206815600395203
8.0,0.49587976932525635
9.0,0.4707075357437134
10.0,0.4480888247489929
11.0,0.43065640330314636
12.0,0.41178271174430847
13.0,0.39573079347610474
14.0,0.3823319673538208
15.0,0.3675766885280609
16.0,0.35408836603164673
18.0,0.3356684744358063
20.0,0.3137997090816498
22.0,0.2972729504108429
24.0,0.28316646814346313
26.0,0.2678966224193573
28.0,0.2536429464817047
30.0,0.2444603592157364
32.0,0.23572342097759247
36.0,0.22585561871528625
40.0,0.21685078740119934
44.0,0.21031056344509125
48.0,0.1991032212972641
52.0,0.18551203608512878
56.0,0.1779087334871292
60.0,0.1814216673374176
64.0,0.1772278994321823
72.0,0.1770745813846588
80.0,0.16664478182792664
88.0,0.1583978831768036
96.0,0.15816982090473175
104.0,0.16127943992614746
112.0,0.16869358718395233
120.0,0.16120347380638123
128.0,0.153344064950943
144.0,0.14175866544246674
160.0,0.1364036649465561
176.0,0.1526404321193695
192.0,0.17662960290908813
208.0,0.14568088948726654
224.0,0.08431468904018402
240.0,0.06089073792099953
256.0,0.06071494147181511
288.0,0.048835430294275284
320.0,0.03955204412341118
352.0,0.03232540562748909
384.0,0.0789623036980629
416.0,0.023186353966593742
448.0,0.003898938884958625
480.0,0.017305413261055946
512.0,0.00014652599929831922
576.0,0.006691311486065388
640.0,0.011873327195644379
704.0,0.02779250033199787
768.0,-0.0012583174975588918
832.0,0.027410130947828293
896.0,0.052909571677446365
960.0,0.06285682320594788
1024.0,0.07049553841352463
1152.0,0.023431207984685898
1280.0,0.006286537740379572
1408.0,0.009321392513811588
1536.0,0.023107148706912994
1664.0,0.030210519209504128
1792.0,0.062425922602415085
1920.0,0.05531294643878937
2048.0,0.02043488621711731
2304.0,-0.009726875461637974
2560.0,0.0034460073802620173
2816.0,0.004748282488435507
3072.0,0.02175142616033554
3328.0,0.012608349323272705
3584.0,0.01859034039080143
3840.0,-0.003268026513978839
4096.0,-0.011891203001141548
4608.0,-0.012914950959384441
5120.0,-0.0038715731352567673
5632.0,-0.006675403099507093
6144.0,-0.030481427907943726
6656.0,-0.02522667497396469
7168.0,-0.01765337586402893
7680.0,-0.024889497086405754
8192.0,-0.04767921194434166
9216.0,-0.026638682931661606
10240.0,-0.0641288235783577
11264.0,-0.07833921909332275
12288.0,0.019006317481398582
13312.0,0.01630573906004429
14336.0,-0.0026896134950220585
end
