version,3.0
numOfCh,1
type,point
parent_name,dirty_0dot069-1dot0
ch_type,1_1
kcount,1
numberNandB,1
brightnessNandB,1
carpet pos,0
pc,0
Time (ms),CH1 Auto-Correlation
1.0,1.0885918140411377
2.0,1.0250087976455688
3.0,0.9664535522460938
4.0,0.9106076955795288
5.0,0.8630948662757874
6.0,0.8167352676391602
7.0,0.7773477435112
8.0,0.7532405257225037
9.0,0.7250823378562927
10.0,0.6993649005889893
11.0,0.6722210645675659
12.0,0.6448825597763062
13.0,0.6257489919662476
14.0,0.6023766398429871
15.0,0.5796055197715759
16.0,0.5574244260787964
18.0,0.507672131061554
20.0,0.46356314420700073
22.0,0.42902088165283203
24.0,0.3919941484928131
26.0,0.36076074838638306
28.0,0.33007004857063293
30.0,0.30815696716308594
32.0,0.29846787452697754
36.0,0.28956684470176697
40.0,0.29617610573768616
44.0,0.2870374023914337
48.0,0.27345892786979675
52.0,0.2594296336174011
56.0,0.24077481031417847
60.0,0.23777653276920319
64.0,0.22230274975299835
72.0,0.19274607300758362
80.0,0.16114027798175812
88.0,0.12794139981269836
96.0,0.09750690311193466
104.0,0.10535065084695816
112.0,0.12186413258314133
120.0,0.11020548641681671
128.0,0.0881715938448906
144.0,0.03706002235412598
160.0,0.055602576583623886
176.0,0.11005929112434387
192.0,0.10421763360500336
208.0,0.04153216630220413
224.0,-0.004251709673553705
240.0,-0.015380141325294971
256.0,-0.011961541138589382
288.0,-0.010881949216127396
320.0,-0.020772840827703476
352.0,-0.017390208318829536
384.0,0.026722975075244904
416.0,0.04140497371554375
448.0,0.01359701156616211
480.0,-0.021455956622958183
512.0,-0.05134335160255432
576.0,-0.06818123906850815
640.0,-0.05612188205122948
704.0,-0.050570547580718994
768.0,0.001124089234508574
832.0,0.011417345143854618
896.0,-0.023684062063694
960.0,-0.049797989428043365
1024.0,-0.055860113352537155
1152.0,-0.024616200476884842
1280.0,-0.023630158975720406
1408.0,-0.02201879397034645
1536.0,0.016249652951955795
1664.0,0.03899222984910011
1792.0,0.07073427736759186
1920.0,0.01718255691230297
2048.0,0.06913591921329498
2304.0,-0.04225809499621391
2560.0,0.004732031840831041
2816.0,-0.028407501056790352
3072.0,-0.04147287458181381
3328.0,-0.013584619387984276
3584.0,0.030245443806052208
3840.0,0.005642387550324202
4096.0,-0.04173925518989563
4608.0,-0.027275843545794487
5120.0,0.0017285719513893127
5632.0,-0.0008245263597927988
6144.0,0.006207707803696394
6656.0,-0.04642900452017784
7168.0,0.06280279904603958
7680.0,0.016503039747476578
8192.0,-0.010958692990243435
9216.0,0.06512696295976639
10240.0,-0.0701264962553978
11264.0,0.030855584889650345
12288.0,-0.04334463179111481
13312.0,0.004095450975000858
14336.0,0.008762509562075138
end
