version,3.0
numOfCh,1
type,point
parent_name,dirty_0dot069-1dot0
ch_type,1_1
kcount,1
numberNandB,1
brightnessNandB,1
carpet pos,0
pc,0
Time (ms),CH1 Auto-Correlation
1.0,1.3486902713775635
2.0,1.2539373636245728
3.0,1.1786807775497437
4.0,1.107270359992981
5.0,1.0489823818206787
6.0,0.9978719353675842
7.0,0.9482921361923218
8.0,0.8976061940193176
9.0,0.859968364238739
10.0,0.827113926410675
11.0,0.7996289730072021
12.0,0.7775273323059082
13.0,0.756980836391449
14.0,0.7345083355903625
15.0,0.7176682949066162
16.0,0.7025451064109802
18.0,0.6756489872932434
20.0,0.6489022970199585
22.0,0.6216251850128174
24.0,0.5920134782791138
26.0,0.5575768947601318
28.0,0.5252237319946289
30.0,0.483955979347229
32.0,0.45003050565719604
36.0,0.40076616406440735
40.0,0.37134265899658203
44.0,0.35963183641433716
48.0,0.3311833143234253
52.0,0.2899284362792969
56.0,0.2525242567062378
60.0,0.22303110361099243
64.0,0.20628640055656433
72.0,0.2224349081516266
80.0,0.20994706451892853
88.0,0.18240636587142944
96.0,0.17860502004623413
104.0,0.158756285905838
112.0,0.11993827670812607
120.0,0.0985405445098877
128.0,0.0709688663482666
144.0,0.02264253795146942
160.0,0.032038699835538864
176.0,0.0256197452545166
192.0,0.026952046900987625
208.0,0.04011751338839531
224.0,0.05636401101946831
240.0,0.04468236863613129
256.0,0.030058834701776505
288.0,-0.03646846115589142
320.0,-0.06910023838281631
352.0,-0.09725282341241837
384.0,-0.10622726380825043
416.0,-0.11106473207473755
448.0,-0.08592581003904343
480.0,-0.04450588300824165
512.0,-0.05512573942542076
576.0,-0.055968549102544785
640.0,-0.06137798726558685
704.0,-0.05149579048156738
768.0,-0.03965478390455246
832.0,-0.008345482870936394
896.0,-0.02900271862745285
960.0,-0.025201046839356422
1024.0,-0.02412160113453865
1152.0,-0.021250061690807343
1280.0,-0.090984046459198
1408.0,0.004085631109774113
1536.0,-0.0017861948581412435
1664.0,-0.0026643394958227873
1792.0,0.07461044937372208
1920.0,0.069529689848423
2048.0,0.07116995006799698
2304.0,-0.04700365662574768
2560.0,0.0016468206886202097
2816.0,0.021227236837148666
3072.0,-0.052285268902778625
3328.0,-0.04638155922293663
3584.0,0.043374475091695786
3840.0,0.00722851324826479
4096.0,0.01254164520651102
4608.0,0.021578311920166016
5120.0,-0.05275185778737068
5632.0,0.03500906378030777
6144.0,0.009119695983827114
6656.0,0.005025308113545179
7168.0,-0.07920154184103012
7680.0,0.011374536901712418
8192.0,0.05863315612077713
9216.0,-0.044305212795734406
10240.0,0.028741974383592606
11264.0,-0.018971901386976242
12288.0,0.0335155613720417
13312.0,-0.027390221133828163
14336.0,0.034050095826387405
end
