version,3.0
numOfCh,1
type,point
parent_name,dirty_0dot069-1dot0
ch_type,1_1
kcount,1
numberNandB,1
brightnessNandB,1
carpet pos,0
pc,0
Time (ms),CH1 Auto-Correlation
1.0,0.8177497982978821
2.0,0.7519060969352722
3.0,0.7018569707870483
4.0,0.6535831093788147
5.0,0.6111992597579956
6.0,0.569936215877533
7.0,0.5365567803382874
8.0,0.5085263848304749
9.0,0.48416778445243835
10.0,0.46357372403144836
11.0,0.4439356029033661
12.0,0.43048062920570374
13.0,0.41658222675323486
14.0,0.4057554006576538
15.0,0.3977671265602112
16.0,0.3915170133113861
18.0,0.3782366216182709
20.0,0.35818374156951904
22.0,0.3423804044723511
24.0,0.32735684514045715
26.0,0.31577664613723755
28.0,0.3061860203742981
30.0,0.30094844102859497
32.0,0.2880106568336487
36.0,0.2508358061313629
40.0,0.2074667066335678
44.0,0.16691850125789642
48.0,0.14056584239006042
52.0,0.11586301028728485
56.0,0.09463370591402054
60.0,0.0737748071551323
64.0,0.06128666549921036
72.0,0.04795355722308159
80.0,0.03602707386016846
88.0,0.024442560970783234
96.0,0.03097851201891899
104.0,0.051749903708696365
112.0,0.05023040622472763
120.0,0.04429688677191734
128.0,0.05175594985485077
144.0,0.041794031858444214
160.0,0.023355916142463684
176.0,0.013762000948190689
192.0,0.01019081100821495
208.0,0.01648775488138199
224.0,0.02059616893529892
240.0,0.04220479726791382
256.0,0.0326564759016037
288.0,-0.003066476434469223
320.0,-0.009810185991227627
352.0,-0.017228325828909874
384.0,-0.015895722433924675
416.0,-0.002680489094927907
448.0,0.02251710183918476
480.0,0.02478569746017456
512.0,-0.013592585921287537
576.0,-0.03825527802109718
640.0,-0.033251747488975525
704.0,0.001190793700516224
768.0,-0.00875643640756607
832.0,0.012118596583604813
896.0,0.007650833111256361
960.0,-0.013928054831922054
1024.0,-0.02517823688685894
1152.0,-0.0123954052105546
1280.0,-0.016214558854699135
1408.0,-0.015082191675901413
1536.0,-0.0209124144166708
1664.0,-0.020436640828847885
1792.0,-0.014537561684846878
1920.0,-0.006128461100161076
2048.0,0.020191043615341187
2304.0,0.024374857544898987
2560.0,0.021648889407515526
2816.0,-0.019679171964526176
3072.0,-0.024189665913581848
3328.0,-0.027833696454763412
3584.0,-0.019574474543333054
3840.0,-0.01403922401368618
4096.0,-0.005272402428090572
4608.0,0.007255976088345051
5120.0,0.013740087859332561
5632.0,-0.017671000212430954
6144.0,-0.022905893623828888
6656.0,0.006051686592400074
7168.0,0.028609933331608772
7680.0,0.006317020859569311
8192.0,-0.02295597828924656
9216.0,0.040327660739421844
10240.0,-0.011577777564525604
11264.0,0.013100787065923214
12288.0,-0.026365792378783226
13312.0,-0.04449135810136795
14336.0,0.06943857669830322
end
