version,3.0
numOfCh,1
type,point
parent_name,dirty_0dot069-1dot0
ch_type,1_1
kcount,1
numberNandB,1
brightnessNandB,1
carpet pos,0
pc,0
Time (ms),CH1 Auto-Correlation
1.0,1.7281482219696045
2.0,1.600725531578064
3.0,1.4930353164672852
4.0,1.412009835243225
5.0,1.346028447151184
6.0,1.289892315864563
7.0,1.2437663078308105
8.0,1.1966384649276733
9.0,1.1616109609603882
10.0,1.1328706741333008
11.0,1.0957026481628418
12.0,1.052051067352295
13.0,1.0138649940490723
14.0,0.9825149774551392
15.0,0.9588537812232971
16.0,0.9411752223968506
18.0,0.8990490436553955
20.0,0.8438241481781006
22.0,0.7889570593833923
24.0,0.7462030053138733
26.0,0.7187792658805847
28.0,0.6962743997573853
30.0,0.6720547676086426
32.0,0.6316661834716797
36.0,0.5567143559455872
40.0,0.4910714030265808
44.0,0.44807782769203186
48.0,0.4200550317764282
52.0,0.39532336592674255
56.0,0.37004807591438293
60.0,0.3495556712150574
64.0,0.33249565958976746
72.0,0.30064040422439575
80.0,0.24855206906795502
88.0,0.2013208419084549
96.0,0.1812102496623993
104.0,0.1532197743654251
112.0,0.1250706911087036
120.0,0.12655296921730042
128.0,0.15742428600788116
144.0,0.11119789630174637
160.0,0.09423191100358963
176.0,0.08247673511505127
192.0,0.028756158426404
208.0,0.019954102113842964
224.0,-0.018706459552049637
240.0,0.007227982860058546
256.0,0.07413065433502197
288.0,0.08444943279027939
320.0,0.053685978055000305
352.0,0.03197850286960602
384.0,-0.038239773362874985
416.0,-0.09552529454231262
448.0,-0.09075795859098434
480.0,-0.09458885341882706
512.0,-0.07153131812810898
576.0,-0.038712773472070694
640.0,-0.021050624549388885
704.0,-0.009563541039824486
768.0,-0.006275970954447985
832.0,-0.025434046983718872
896.0,-0.002982462290674448
960.0,-0.012432078830897808
1024.0,0.0282879751175642
1152.0,0.07515422999858856
1280.0,0.07029210776090622
1408.0,-0.11046291142702103
1536.0,-0.09763948619365692
1664.0,-0.08050438016653061
1792.0,0.01712527871131897
1920.0,-0.02458013966679573
2048.0,-0.0744895413517952
2304.0,-0.04900040477514267
2560.0,-0.011205247603356838
2816.0,0.0676225945353508
3072.0,0.030887922272086143
3328.0,0.01582101173698902
3584.0,-0.02323550172150135
3840.0,0.022485611960291862
4096.0,0.10773280262947083
4608.0,-0.06912074983119965
5120.0,-0.0665150061249733
5632.0,-0.0957612469792366
6144.0,0.03809531778097153
6656.0,-0.022150814533233643
7168.0,0.08751851320266724
7680.0,-0.007183450274169445
8192.0,-0.01828743703663349
9216.0,-0.02413991093635559
10240.0,0.04027480632066727
11264.0,0.03212778642773628
12288.0,-0.01579635962843895
13312.0,-0.029619291424751282
14336.0,0.026775000616908073
end
