version,3.0
numOfCh,1
type,point
parent_name,dirty_0dot069-1dot0
ch_type,1_1
kcount,1
numberNandB,1
brightnessNandB,1
carpet pos,0
pc,0
Time (ms),CH1 Auto-Correlation
1.0,1.2052593231201172
2.0,1.0990861654281616
3.0,1.0119924545288086
4.0,0.9396116137504578
5.0,0.8744640946388245
6.0,0.8253814578056335
7.0,0.784873902797699
8.0,0.7453482151031494
9.0,0.7027035355567932
10.0,0.6636852622032166
11.0,0.6278744339942932
12.0,0.5943275690078735
13.0,0.5740211009979248
14.0,0.5530697703361511
15.0,0.539080023765564
16.0,0.5267794132232666
18.0,0.5021803379058838
20.0,0.47003626823425293
22.0,0.43370699882507324
24.0,0.4152110815048218
26.0,0.39356449246406555
28.0,0.3744235932826996
30.0,0.3538428246974945
32.0,0.3354867398738861
36.0,0.26774469017982483
40.0,0.21705463528633118
44.0,0.19936776161193848
48.0,0.17595402896404266
52.0,0.15232771635055542
56.0,0.1254003494977951
60.0,0.11785975098609924
64.0,0.1023288443684578
72.0,0.09630351513624191
80.0,0.10522501915693283
88.0,0.09270104765892029
96.0,0.1256108433008194
104.0,0.14081794023513794
112.0,0.13184654712677002
120.0,0.14786234498023987
128.0,0.18490631878376007
144.0,0.13572272658348083
160.0,0.0997723788022995
176.0,0.07856446504592896
192.0,0.061288367956876755
208.0,0.051461026072502136
224.0,0.05975046008825302
240.0,0.06872773170471191
256.0,0.04383321851491928
288.0,0.02606399729847908
320.0,0.016249535605311394
352.0,0.0012103008339181542
384.0,-0.007989439181983471
416.0,0.0029552970081567764
448.0,-0.02162155695259571
480.0,-0.05021825060248375
512.0,-0.030526263639330864
576.0,-0.04996363818645477
640.0,-0.05241810157895088
704.0,-0.04620283097028732
768.0,-0.022821975871920586
832.0,-0.0200148094445467
896.0,-0.04069947451353073
960.0,-0.01908041536808014
1024.0,0.010862215422093868
1152.0,-0.008319027721881866
1280.0,-0.021665606647729874
1408.0,-0.015556213445961475
1536.0,0.00805678591132164
1664.0,-0.028230376541614532
1792.0,-0.02345944568514824
1920.0,-0.04629756137728691
2048.0,0.02285783179104328
2304.0,-0.03869232162833214
2560.0,0.062344759702682495
2816.0,-0.022951744496822357
3072.0,-0.026050137355923653
3328.0,-0.06260756403207779
3584.0,-0.035172853618860245
3840.0,-0.04279686510562897
4096.0,0.01311951782554388
4608.0,0.042634591460227966
5120.0,0.010761666111648083
5632.0,-0.01357682328671217
6144.0,0.012518892996013165
6656.0,0.04730097949504852
7168.0,-0.015170402824878693
7680.0,0.025261100381612778
8192.0,-0.06389419734477997
9216.0,0.028854945674538612
10240.0,-0.0548492968082428
11264.0,-0.00798648502677679
12288.0,0.056641146540641785
13312.0,-0.015680843964219093
14336.0,0.042528655380010605
end
