version,3.0
numOfCh,1
type,point
parent_name,dirty_0dot069-1dot0
ch_type,1_1
kcount,1
numberNandB,1
brightnessNandB,1
carpet pos,0
pc,0
Time (ms),CH1 Auto-Correlation
1.0,0.5638283491134644
2.0,0.5212752223014832
3.0,0.4863840639591217
4.0,0.4502653181552887
5.0,0.4231424629688263
6.0,0.4014520049095154
7.0,0.3801959455013275
8.0,0.36255598068237305
9.0,0.3538789451122284
10.0,0.3423237204551697
11.0,0.3292533755302429
12.0,0.3170493245124817
13.0,0.3011266887187958
14.0,0.2889275550842285
15.0,0.2800583839416504
16.0,0.27225467562675476
18.0,0.25513118505477905
20.0,0.23519960045814514
22.0,0.21609248220920563
24.0,0.20587754249572754
26.0,0.20614047348499298
28.0,0.21054942905902863
30.0,0.21763615310192108
32.0,0.22145959734916687
36.0,0.21673014760017395
40.0,0.20424732565879822
44.0,0.18920834362506866
48.0,0.16701197624206543
52.0,0.14810539782047272
56.0,0.12253439426422119
60.0,0.09341272711753845
64.0,0.08328025043010712
72.0,0.08798541128635406
80.0,0.0626281201839447
88.0,0.049799542874097824
96.0,0.05090918391942978
104.0,0.04273170977830887
112.0,0.034104544669389725
120.0,0.03126009553670883
128.0,0.035107050091028214
144.0,0.021421097218990326
160.0,0.006796845234930515
176.0,0.005156010389328003
192.0,-0.006141264457255602
208.0,-0.008271535858511925
224.0,-0.008661850355565548
240.0,-0.009861132130026817
256.0,-0.01302917767316103
288.0,-0.017505614086985588
320.0,0.015164056792855263
352.0,0.017508139833807945
384.0,-0.007435091305524111
416.0,-0.015604504384100437
448.0,-0.01601928286254406
480.0,-0.019158199429512024
512.0,-0.02113058604300022
576.0,-0.009950357489287853
640.0,-0.0072892047464847565
704.0,0.0032251584343612194
768.0,-0.009123248979449272
832.0,-0.018906081095337868
896.0,-0.010540246032178402
960.0,-0.012455680407583714
1024.0,-0.013305654749274254
1152.0,-0.004678577650338411
1280.0,-0.015429886989295483
1408.0,-0.018769949674606323
1536.0,-0.01989072933793068
1664.0,-0.003623632015660405
1792.0,0.026147620752453804
1920.0,-0.00348578579723835
2048.0,0.03976798802614212
2304.0,-0.019288159906864166
2560.0,-0.01388323400169611
2816.0,-0.004466343205422163
3072.0,-0.008780762553215027
3328.0,-0.004845278337597847
3584.0,-0.010902781039476395
3840.0,0.011606181040406227
4096.0,-0.01417480781674385
4608.0,0.012778867036104202
5120.0,-0.005383504554629326
5632.0,-0.006499089766293764
6144.0,-0.0244966559112072
6656.0,0.03239306062459946
7168.0,-0.008962922729551792
7680.0,-0.012616422958672047
8192.0,-0.01656782254576683
9216.0,0.020297862589359283
10240.0,-0.02368277683854103
11264.0,0.012488353066146374
12288.0,-0.018111620098352432
13312.0,0.011998533271253109
14336.0,0.02119937166571617
end
