version,3.0
numOfCh,1
type,point
parent_name,dirty_0dot069-1dot0
ch_type,1_1
kcount,1
numberNandB,1
brightnessNandB,1
carpet pos,0
pc,0
Time (ms),CH1 Auto-Correlation
1.0,0.5990476012229919
2.0,0.5634049773216248
3.0,0.5298687815666199
4.0,0.49685171246528625
5.0,0.4664750099182129
6.0,0.4378816485404968
7.0,0.41360899806022644
8.0,0.39166173338890076
9.0,0.37313079833984375
10.0,0.3588528335094452
11.0,0.34915176033973694
12.0,0.33442628383636475
13.0,0.3225220739841461
14.0,0.31283003091812134
15.0,0.30115681886672974
16.0,0.29106053709983826
18.0,0.2707982361316681
20.0,0.2536643147468567
22.0,0.24304944276809692
24.0,0.23419298231601715
26.0,0.2252739667892456
28.0,0.2142156958580017
30.0,0.20124517381191254
32.0,0.1906546652317047
36.0,0.1737188696861267
40.0,0.15621040761470795
44.0,0.1376200020313263
48.0,0.13278822600841522
52.0,0.13815151154994965
56.0,0.14533507823944092
60.0,0.14910875260829926
64.0,0.14449642598628998
72.0,0.12654443085193634
80.0,0.1134456917643547
88.0,0.11757999658584595
96.0,0.09894706308841705
104.0,0.0773862898349762
112.0,0.061535973101854324
120.0,0.05984048545360565
128.0,0.051975034177303314
144.0,0.052474912256002426
160.0,0.04541894793510437
176.0,0.027028214186429977
192.0,0.020508920773863792
208.0,0.016942385584115982
224.0,0.027097059413790703
240.0,0.04292461648583412
256.0,0.047821786254644394
288.0,0.03707040473818779
320.0,0.028025155887007713
352.0,0.03883132338523865
384.0,0.0308478195220232
416.0,0.024929700419306755
448.0,0.011869281530380249
480.0,0.006710220593959093
512.0,0.009314724244177341
576.0,0.020743349567055702
640.0,0.027900464832782745
704.0,0.015039226040244102
768.0,0.0015133243286982179
832.0,0.0311907809227705
896.0,0.05235328525304794
960.0,0.046256955713033676
1024.0,0.027658073231577873
1152.0,0.029920198023319244
1280.0,0.019762590527534485
1408.0,-0.003928209189325571
1536.0,0.0058265249244868755
1664.0,0.00800331961363554
1792.0,0.017029162496328354
1920.0,0.02034812979400158
2048.0,-0.005311029031872749
2304.0,0.0012601322960108519
2560.0,-0.0014202629681676626
2816.0,-0.00733065465465188
3072.0,-0.01752968691289425
3328.0,-0.018774045631289482
3584.0,-0.02737126126885414
3840.0,-0.014830744825303555
4096.0,-0.027953095734119415
4608.0,-0.019169090315699577
5120.0,-0.01837845891714096
5632.0,-0.023319637402892113
6144.0,-0.039413921535015106
6656.0,-0.035621047019958496
7168.0,-0.016333526000380516
7680.0,0.003356640925630927
8192.0,-0.012803011573851109
9216.0,0.0014552358770743012
10240.0,0.03528805449604988
11264.0,0.03237394616007805
12288.0,0.012888318859040737
13312.0,-0.01886402815580368
14336.0,-0.022053902968764305
end
