version,3.0
numOfCh,1
type,point
parent_name,dirty_0dot069-1dot0
ch_type,1_1
kcount,1
numberNandB,1
brightnessNandB,1
carpet pos,0
pc,0
Time (ms),CH1 Auto-Correlation
1.0,1.309532642364502
2.0,1.210052728652954
3.0,1.1198569536209106
4.0,1.0386501550674438
5.0,0.9629399180412292
6.0,0.9010437726974487
7.0,0.8526541590690613
8.0,0.8119986653327942
9.0,0.7716818451881409
10.0,0.7364256381988525
11.0,0.7007374167442322
12.0,0.6600424647331238
13.0,0.6235073208808899
14.0,0.5920493602752686
15.0,0.5626096725463867
16.0,0.5344008803367615
18.0,0.4967162013053894
20.0,0.46990957856178284
22.0,0.4460563063621521
24.0,0.426937073469162
26.0,0.41151782870292664
28.0,0.40051504969596863
30.0,0.38168343901634216
32.0,0.3578157126903534
36.0,0.3269675672054291
40.0,0.2803707420825958
44.0,0.2343420535326004
48.0,0.2077063024044037
52.0,0.17530032992362976
56.0,0.1599324643611908
60.0,0.14863863587379456
64.0,0.12270643562078476
72.0,0.09352341294288635
80.0,0.11836814880371094
88.0,0.1544993370771408
96.0,0.11741095781326294
104.0,0.11166940629482269
112.0,0.09257981181144714
120.0,0.07065010070800781
128.0,0.04773401841521263
144.0,0.04750601574778557
160.0,0.04018259048461914
176.0,0.026509959250688553
192.0,0.03665309026837349
208.0,0.08186930418014526
224.0,0.10595337301492691
240.0,0.08437976986169815
256.0,0.0956585481762886
288.0,0.0487104095518589
320.0,0.04393930733203888
352.0,-0.01842658780515194
384.0,-0.015923693776130676
416.0,-0.022075219079852104
448.0,-0.018596963956952095
480.0,0.08332491666078568
512.0,0.07199672609567642
576.0,0.07303702086210251
640.0,0.0022005052305758
704.0,-0.011428723111748695
768.0,-0.006683385465294123
832.0,0.029456255957484245
896.0,-0.013497424311935902
960.0,-0.025825347751379013
1024.0,-0.0052571226842701435
1152.0,0.11306431144475937
1280.0,0.021420005708932877
1408.0,-0.012780954129993916
1536.0,-0.0019636277575045824
1664.0,0.015390653163194656
1792.0,0.05123905465006828
1920.0,0.02111619897186756
2048.0,0.0250367633998394
2304.0,0.07806002348661423
2560.0,0.0056606074795126915
2816.0,-0.007828261703252792
3072.0,-0.007301639299839735
3328.0,0.04024212807416916
3584.0,-0.005781298037618399
3840.0,-0.03241069242358208
4096.0,-0.011071378365159035
4608.0,-0.013579288497567177
5120.0,0.0020443035755306482
5632.0,0.02171102911233902
6144.0,0.0006440862198360264
6656.0,-0.026898881420493126
7168.0,-0.04337400570511818
7680.0,-0.0011468427255749702
8192.0,0.012758737429976463
9216.0,-0.022359101101756096
10240.0,-0.015628475695848465
11264.0,-0.05895861238241196
12288.0,-0.0879346951842308
13312.0,-0.0932045429944992
14336.0,-0.09085852652788162
end
