version,3.0
numOfCh,1
type,point
parent_name,dirty_0dot069-1dot0
ch_type,1_1
kcount,1
numberNandB,1
brightnessNandB,1
carpet pos,0
pc,0
Time (ms),CH1 Auto-Correlation
1.0,1.152510166168213
2.0,1.0751292705535889
3.0,1.0070054531097412
4.0,0.9429419040679932
5.0,0.8951734900474548
6.0,0.8428648710250854
7.0,0.789475679397583
8.0,0.7377544045448303
9.0,0.6931136846542358
10.0,0.6527523398399353
11.0,0.6180933117866516
12.0,0.5871395468711853
13.0,0.5590534806251526
14.0,0.5298395156860352
15.0,0.5024625062942505
16.0,0.4833034574985504
18.0,0.4369756281375885
20.0,0.39154016971588135
22.0,0.36945396661758423
24.0,0.3642401695251465
26.0,0.3574863076210022
28.0,0.35753801465034485
30.0,0.3548352122306824
32.0,0.3489657938480377
36.0,0.33828821778297424
40.0,0.31731170415878296
44.0,0.2770274579524994
48.0,0.21909359097480774
52.0,0.1577698290348053
56.0,0.12676163017749786
60.0,0.12707747519016266
64.0,0.13905878365039825
72.0,0.1712779849767685
80.0,0.14797472953796387
88.0,0.10102620720863342
96.0,0.09463318437337875
104.0,0.09906955808401108
112.0,0.08402550965547562
120.0,0.06930655241012573
128.0,0.04466622695326805
144.0,0.034904904663562775
160.0,0.009433710016310215
176.0,0.01001750212162733
192.0,-0.002575742546468973
208.0,-0.015240195207297802
224.0,-0.013493979349732399
240.0,-0.011557618156075478
256.0,-0.012073148041963577
288.0,-0.003223477164283395
320.0,0.012340348213911057
352.0,0.024384034797549248
384.0,0.035824406892061234
416.0,0.013082866556942463
448.0,0.008917754516005516
480.0,0.05690794810652733
512.0,0.042032040655612946
576.0,0.07095348089933395
640.0,0.05996899679303169
704.0,0.028012540191411972
768.0,0.009172597900032997
832.0,0.001637125271372497
896.0,-0.002965915249660611
960.0,-0.004976246505975723
1024.0,0.024515865370631218
1152.0,0.016651267185807228
1280.0,0.04778911918401718
1408.0,0.019090808928012848
1536.0,-0.027210788801312447
1664.0,-0.026987290009856224
1792.0,-0.0217661801725626
1920.0,-0.016716444864869118
2048.0,0.014275613240897655
2304.0,0.0006153619615361094
2560.0,0.00942675955593586
2816.0,-0.007109847851097584
3072.0,-0.0046392097137868404
3328.0,-0.0041796136647462845
3584.0,-0.031047938391566277
3840.0,0.0069939009845256805
4096.0,-0.011936859227716923
4608.0,0.021115774288773537
5120.0,0.04048800840973854
5632.0,-0.020961957052350044
6144.0,-0.04965425282716751
6656.0,-0.03567972779273987
7168.0,-0.03944617882370949
7680.0,0.02781117893755436
8192.0,-0.02032732032239437
9216.0,-0.004627889487892389
10240.0,-0.03441418707370758
11264.0,-0.05007509887218475
12288.0,-0.019176319241523743
13312.0,0.049987707287073135
14336.0,0.05159180983901024
end
