version,3.0
numOfCh,1
type,point
parent_name,dirty_0dot069-1dot0
ch_type,1_1
kcount,1
numberNandB,1
brightnessNandB,1
carpet pos,0
pc,0
Time (ms),CH1 Auto-Correlation
1.0,0.5596674084663391
2.0,0.5225539803504944
3.0,0.4904722571372986
4.0,0.46205857396125793
5.0,0.43812963366508484
6.0,0.4214630424976349
7.0,0.4062977731227875
8.0,0.39347654581069946
9.0,0.38460856676101685
10.0,0.3773788511753082
11.0,0.3671127259731293
12.0,0.35467782616615295
13.0,0.34488168358802795
14.0,0.33556485176086426
15.0,0.32599586248397827
16.0,0.3182004690170288
18.0,0.3035091459751129
20.0,0.2935713231563568
22.0,0.2807571589946747
24.0,0.2654024064540863
26.0,0.24614214897155762
28.0,0.22646388411521912
30.0,0.21247714757919312
32.0,0.20248791575431824
36.0,0.18862806260585785
40.0,0.1779685765504837
44.0,0.17112332582473755
48.0,0.16789227724075317
52.0,0.16585709154605865
56.0,0.160195454955101
60.0,0.15330258011817932
64.0,0.14788630604743958
72.0,0.1447494924068451
80.0,0.12938299775123596
88.0,0.12372417747974396
96.0,0.1286613494157791
104.0,0.11926168948411942
112.0,0.11229768395423889
120.0,0.09145507216453552
128.0,0.07208744436502457
144.0,0.05364270880818367
160.0,0.0638490840792656
176.0,0.06375982612371445
192.0,0.04856002703309059
208.0,0.03303227946162224
224.0,0.022254465147852898
240.0,0.01215888001024723
256.0,-0.003922741394490004
288.0,-0.008197633549571037
320.0,0.0022394072730094194
352.0,-0.00583691569045186
384.0,-0.013538074679672718
416.0,-0.01276826299726963
448.0,-0.016894524917006493
480.0,-0.013583440333604813
512.0,-0.018500179052352905
576.0,-0.0154982665553689
640.0,-0.018452564254403114
704.0,-0.01991424337029457
768.0,-0.032425422221422195
832.0,-0.0328064002096653
896.0,-0.030618898570537567
960.0,-0.034541405737400055
1024.0,-0.028889641165733337
1152.0,-0.04333864152431488
1280.0,-0.01306114997714758
1408.0,0.011836117133498192
1536.0,0.019155899062752724
1664.0,0.02149486541748047
1792.0,-0.03132474422454834
1920.0,-0.0011019175872206688
2048.0,-0.018457014113664627
2304.0,-0.030572524294257164
2560.0,-0.039637692272663116
2816.0,0.00011374200403224677
3072.0,0.0006719163502566516
3328.0,0.030617589130997658
3584.0,0.03223361447453499
3840.0,-0.004748820327222347
4096.0,-0.021694999188184738
4608.0,0.0037670189049094915
5120.0,0.026951856911182404
5632.0,0.006993327289819717
6144.0,0.004354362841695547
6656.0,-0.03324340656399727
7168.0,-0.011908672749996185
7680.0,-0.03299814090132713
8192.0,0.0009076485293917358
9216.0,0.03806207329034805
10240.0,0.003539155935868621
11264.0,-0.01864091120660305
12288.0,-0.004646836314350367
13312.0,-0.010404671542346478
14336.0,0.04378712922334671
end
