version,3.0
numOfCh,1
type,point
parent_name,dirty_0dot069-1dot0
ch_type,1_1
kcount,1
numberNandB,1
brightnessNandB,1
carpet pos,0
pc,0
Time (ms),CH1 Auto-Correlation
1.0,0.9910888075828552
2.0,0.9110963344573975
3.0,0.8393300771713257
4.0,0.777066707611084
5.0,0.7246949076652527
6.0,0.679496705532074
7.0,0.6387796998023987
8.0,0.6069254875183105
9.0,0.5757136344909668
10.0,0.5552810430526733
11.0,0.5367180705070496
12.0,0.5174693465232849
13.0,0.49751606583595276
14.0,0.47180891036987305
15.0,0.44687768816947937
16.0,0.4266262650489807
18.0,0.3798610270023346
20.0,0.33836719393730164
22.0,0.3129562437534332
24.0,0.29868388175964355
26.0,0.290289044380188
28.0,0.2793021500110626
30.0,0.26167696714401245
32.0,0.24639225006103516
36.0,0.2413962036371231
40.0,0.2225348949432373
44.0,0.19347792863845825
48.0,0.17020687460899353
52.0,0.1559372842311859
56.0,0.14389920234680176
60.0,0.12312489002943039
64.0,0.10640920698642731
72.0,0.08741877973079681
80.0,0.0824919044971466
88.0,0.06623896956443787
96.0,0.06040703132748604
104.0,0.04246808588504791
112.0,0.054256804287433624
120.0,0.06510459631681442
128.0,0.07141894847154617
144.0,0.05372440442442894
160.0,0.014646189287304878
176.0,-0.011762036010622978
192.0,-0.017021898180246353
208.0,-0.011462616734206676
224.0,-0.02333778515458107
240.0,-0.015210666693747044
256.0,0.005316723138093948
288.0,-0.030991878360509872
320.0,-0.023015428334474564
352.0,-0.050319988280534744
384.0,-0.02913982979953289
416.0,-0.017255110666155815
448.0,-0.011454250663518906
480.0,-0.02463250793516636
512.0,-0.005907134618610144
576.0,-0.003158870618790388
640.0,0.025011252611875534
704.0,0.016981637105345726
768.0,-0.016093719750642776
832.0,0.036627329885959625
896.0,0.0669124647974968
960.0,0.02054947055876255
1024.0,-0.007307655178010464
1152.0,0.03018711693584919
1280.0,0.04981027916073799
1408.0,-0.01907852292060852
1536.0,-0.01155745517462492
1664.0,-0.03882422670722008
1792.0,0.020334038883447647
1920.0,-0.016507910564541817
2048.0,0.030648423358798027
2304.0,0.01819824054837227
2560.0,-0.026878656819462776
2816.0,-0.028076816350221634
3072.0,-0.017649920657277107
3328.0,-0.009373738430440426
3584.0,-0.0038327916990965605
3840.0,-0.01942509599030018
4096.0,-0.02698509953916073
4608.0,-0.02412313222885132
5120.0,-0.03642932325601578
5632.0,-0.018508410081267357
6144.0,0.00854539591819048
6656.0,0.010056031867861748
7168.0,-0.018232403323054314
7680.0,0.019599085673689842
8192.0,0.029033876955509186
9216.0,0.020687071606516838
10240.0,-0.005106821656227112
11264.0,-0.02031080797314644
12288.0,0.010547957383096218
13312.0,-0.024830756708979607
14336.0,-0.020844675600528717
end
