version,3.0
numOfCh,1
type,point
parent_name,dirty_0dot069-1dot0
ch_type,1_1
kcount,1
numberNandB,1
brightnessNandB,1
carpet pos,0
pc,0
Time (ms),CH1 Auto-Correlation
1.0,0.5798162817955017
2.0,0.5250867009162903
3.0,0.4792449474334717
4.0,0.44440320134162903
5.0,0.4149397313594818
6.0,0.39178258180618286
7.0,0.3626932203769684
8.0,0.3345562815666199
9.0,0.3128355145454407
10.0,0.2969377040863037
11.0,0.2852669060230255
12.0,0.27452969551086426
13.0,0.2605646550655365
14.0,0.25122886896133423
15.0,0.24052304029464722
16.0,0.2339472621679306
18.0,0.2136950045824051
20.0,0.19710154831409454
22.0,0.18354132771492004
24.0,0.1736041009426117
26.0,0.164338156580925
28.0,0.15801946818828583
30.0,0.15204620361328125
32.0,0.14332015812397003
36.0,0.12079450488090515
40.0,0.10303036868572235
44.0,0.08706843107938766
48.0,0.06938036531209946
52.0,0.06171739101409912
56.0,0.05645712837576866
60.0,0.05451713129878044
64.0,0.05236685648560524
72.0,0.06083960458636284
80.0,0.06524389237165451
88.0,0.06770367175340652
96.0,0.06653463840484619
104.0,0.0743439793586731
112.0,0.06983280181884766
120.0,0.058799512684345245
128.0,0.05270829796791077
144.0,0.03905103728175163
160.0,0.03288417309522629
176.0,0.03196384757757187
192.0,0.0341913178563118
208.0,0.03918427973985672
224.0,0.03664111718535423
240.0,0.035760946571826935
256.0,0.03246574476361275
288.0,0.021698851138353348
320.0,0.03635489568114281
352.0,0.06393833458423615
384.0,0.01742248237133026
416.0,0.005864638835191727
448.0,-0.0002885166904889047
480.0,-0.0040078735910356045
512.0,0.013115359470248222
576.0,-0.0013917559990659356
640.0,-0.012805762700736523
704.0,-0.011935287155210972
768.0,-0.006460231263190508
832.0,0.006590032018721104
896.0,-0.0031858428847044706
960.0,-0.01507694460451603
1024.0,-0.0214360561221838
1152.0,-0.01742774434387684
1280.0,-0.019120892509818077
1408.0,-0.03235549107193947
1536.0,-0.011973937973380089
1664.0,-0.020691946148872375
1792.0,0.01696014776825905
1920.0,-0.016649790108203888
2048.0,-0.004726516082882881
2304.0,-0.009109429083764553
2560.0,-0.006828756537288427
2816.0,-0.02694111131131649
3072.0,-0.012247084639966488
3328.0,-0.002141848672181368
3584.0,-0.006161158438771963
3840.0,-0.0025267715100198984
4096.0,0.0009081146563403308
4608.0,-0.020862756296992302
5120.0,0.013666043058037758
5632.0,0.028538191691040993
6144.0,0.02330510877072811
6656.0,0.00597182335332036
7168.0,-0.0007891808054409921
7680.0,-0.011154400184750557
8192.0,-0.01033965963870287
9216.0,-0.025757431983947754
10240.0,-0.00550712738186121
11264.0,0.013906402513384819
12288.0,0.03705422580242157
13312.0,-0.00044488580897450447
14336.0,-0.045368462800979614
end
