version,3.0
numOfCh,1
type,point
parent_name,dirty_0dot069-1dot0
ch_type,1_1
kcount,1
numberNandB,1
brightnessNandB,1
carpet pos,0
pc,0
Time (ms),CH1 Auto-Correlation
1.0,1.3261162042617798
2.0,1.2353780269622803
3.0,1.159699559211731
4.0,1.0944701433181763
5.0,1.0378433465957642
6.0,0.9889708161354065
7.0,0.9545379281044006
8.0,0.9189755916595459
9.0,0.8838006258010864
10.0,0.8445201516151428
11.0,0.8073925375938416
12.0,0.7784137725830078
13.0,0.7484230399131775
14.0,0.7273479104042053
15.0,0.7036352753639221
16.0,0.684529185295105
18.0,0.6531043648719788
20.0,0.6384280920028687
22.0,0.6214690208435059
24.0,0.5797423720359802
26.0,0.5452873706817627
28.0,0.5227147936820984
30.0,0.4994678497314453
32.0,0.46768641471862793
36.0,0.427458256483078
40.0,0.3988582491874695
44.0,0.35545191168785095
48.0,0.3078361451625824
52.0,0.2882915437221527
56.0,0.2537226974964142
60.0,0.24832840263843536
64.0,0.26658979058265686
72.0,0.26509764790534973
80.0,0.22534045577049255
88.0,0.16881215572357178
96.0,0.12208767235279083
104.0,0.10315451771020889
112.0,0.10415025800466537
120.0,0.06800719350576401
128.0,0.043257568031549454
144.0,0.03494130074977875
160.0,0.016074659302830696
176.0,-0.0027267783880233765
192.0,-0.008293365128338337
208.0,-0.012257495895028114
224.0,-0.00945321749895811
240.0,-0.006830688565969467
256.0,-0.011220569722354412
288.0,-0.01918620802462101
320.0,-0.029147811233997345
352.0,-0.019109686836600304
384.0,-0.017876768484711647
416.0,-0.023761246353387833
448.0,-0.009216527454555035
480.0,-0.0017618032870814204
512.0,0.00010032488353317603
576.0,0.07057497650384903
640.0,0.16525864601135254
704.0,0.013847904279828072
768.0,-0.010190206579864025
832.0,-0.02406916953623295
896.0,-0.020217562094330788
960.0,-0.01138234231621027
1024.0,0.003504524240270257
1152.0,0.036283064633607864
1280.0,0.02805531956255436
1408.0,0.03228732571005821
1536.0,0.0001990368327824399
1664.0,-0.04368706792593002
1792.0,-0.04633918032050133
1920.0,0.08180739730596542
2048.0,-0.016611089929938316
2304.0,-0.04571537300944328
2560.0,-0.004296155646443367
2816.0,0.0056662713177502155
3072.0,-0.009701673872768879
3328.0,0.08829101920127869
3584.0,0.005630322732031345
3840.0,0.020561695098876953
4096.0,-0.010088792070746422
4608.0,0.041554488241672516
5120.0,-0.015647459775209427
5632.0,-0.04872709512710571
6144.0,-0.009770470671355724
6656.0,0.06766049563884735
7168.0,0.01007113792002201
7680.0,0.008281896822154522
8192.0,-0.035610053688287735
9216.0,-0.06348642706871033
10240.0,0.0161569956690073
11264.0,0.0017790896818041801
12288.0,-0.05902108550071716
13312.0,-0.07275533676147461
14336.0,-0.08149933815002441
end
