version,3.0
numOfCh,1
type,point
parent_name,dirty_0dot069-1dot0
ch_type,1_1
kcount,1
numberNandB,1
brightnessNandB,1
carpet pos,0
pc,0
Time (ms),CH1 Auto-Correlation
1.0,0.9362270832061768
2.0,0.8720388412475586
3.0,0.8110313415527344
4.0,0.7595426440238953
5.0,0.7141082286834717
6.0,0.676023006439209
7.0,0.6441616415977478
8.0,0.6153586506843567
9.0,0.5833863019943237
10.0,0.5506289601325989
11.0,0.519628643989563
12.0,0.49515989422798157
13.0,0.4791349768638611
14.0,0.46015384793281555
15.0,0.4406537413597107
16.0,0.42356032133102417
18.0,0.38401898741722107
20.0,0.35178524255752563
22.0,0.3212221562862396
24.0,0.2940673828125
26.0,0.27226775884628296
28.0,0.2509874999523163
30.0,0.22649572789669037
32.0,0.20138579607009888
36.0,0.16781963407993317
40.0,0.14747248589992523
44.0,0.14478297531604767
48.0,0.14078263938426971
52.0,0.13467536866664886
56.0,0.13519921898841858
60.0,0.14235374331474304
64.0,0.1389097422361374
72.0,0.17456108331680298
80.0,0.17963355779647827
88.0,0.16585063934326172
96.0,0.1424984633922577
104.0,0.1241207867860794
112.0,0.10590294003486633
120.0,0.08476150035858154
128.0,0.0709225982427597
144.0,0.08637344837188721
160.0,0.10424836724996567
176.0,0.10536607354879379
192.0,0.11487255245447159
208.0,0.13315708935260773
224.0,0.09614208340644836
240.0,0.058195363730192184
256.0,0.05311259627342224
288.0,0.060849033296108246
320.0,0.032570283859968185
352.0,0.025240425020456314
384.0,0.008869531564414501
416.0,0.01991923339664936
448.0,0.013345005922019482
480.0,0.03462882339954376
512.0,0.04473690316081047
576.0,-0.0019426258513703942
640.0,-0.03657751530408859
704.0,-0.0043648649007081985
768.0,0.02588398940861225
832.0,0.017252085730433464
896.0,0.020304391160607338
960.0,0.022062353789806366
1024.0,0.02336050383746624
1152.0,-0.012058115564286709
1280.0,-0.04430047795176506
1408.0,-0.05644542723894119
1536.0,-0.03786573186516762
1664.0,-0.025003189221024513
1792.0,-0.02511187456548214
1920.0,-0.03378134220838547
2048.0,-0.019272008910775185
2304.0,-0.0027264270465821028
2560.0,-0.0036319068167358637
2816.0,0.005351840518414974
3072.0,0.07182101905345917
3328.0,0.059537310153245926
3584.0,-0.0081816166639328
3840.0,-0.018260100856423378
4096.0,-0.0005883331759832799
4608.0,-0.04327046498656273
5120.0,-0.0072586569003760815
5632.0,0.008557661436498165
6144.0,-0.010503300465643406
6656.0,-0.061321601271629333
7168.0,-0.068914495408535
7680.0,-0.01786482147872448
8192.0,0.031333036720752716
9216.0,0.03058355487883091
10240.0,-0.06180499866604805
11264.0,0.06581652164459229
12288.0,0.04572645202279091
13312.0,-0.048747770488262177
14336.0,0.02243250235915184
end
