version,3.0
numOfCh,1
type,point
parent_name,19e3e_0dot2-0dot1
ch_type,1_1
kcount,1
numberNandB,1
brightnessNandB,1
carpet pos,0
pc,0
Time (ms),CH1 Auto-Correlation
1.0,0.07136877626180649
2.0,0.06993109732866287
3.0,0.0685884952545166
4.0,0.06732866913080215
5.0,0.06616738438606262
6.0,0.06508305668830872
7.0,0.06404643505811691
8.0,0.06305009871721268
9.0,0.06208896264433861
10.0,0.061152391135692596
11.0,0.06023084744811058
12.0,0.05934179574251175
13.0,0.058471422642469406
14.0,0.057633042335510254
15.0,0.05679929628968239
16.0,0.05599944293498993
18.0,0.05442655831575394
20.0,0.05293668434023857
22.0,0.051611874252557755
24.0,0.05034540221095085
26.0,0.049077462404966354
28.0,0.047861069440841675
30.0,0.04664047062397003
32.0,0.04553437978029251
36.0,0.04357169568538666
40.0,0.0416891910135746
44.0,0.039833176881074905
48.0,0.03810841962695122
52.0,0.03665090352296829
56.0,0.035310596227645874
60.0,0.034181516617536545
64.0,0.03324776887893677
72.0,0.031374890357255936
80.0,0.02966586872935295
88.0,0.027997182682156563
96.0,0.02641238085925579
104.0,0.02474232204258442
112.0,0.023055361583828926
120.0,0.02111523039638996
128.0,0.019096987321972847
144.0,0.014788712374866009
160.0,0.01173425279557705
176.0,0.009333069436252117
192.0,0.007697177119553089
208.0,0.00620077271014452
224.0,0.005237266421318054
240.0,0.004809460137039423
256.0,0.0038340194150805473
288.0,0.0020919055677950382
320.0,0.0020796251483261585
352.0,0.0014997866237536073
384.0,0.0008490737527608871
416.0,-0.00026336978771723807
448.0,0.001802658080123365
480.0,0.002677945652976632
512.0,0.002985917730256915
576.0,0.0054054283536970615
640.0,0.008185620419681072
704.0,0.012228948064148426
768.0,0.010900505818426609
832.0,0.010275496169924736
896.0,0.0034142632503062487
960.0,0.00048520840937271714
1024.0,0.002875514095649123
1152.0,0.007020273711532354
1280.0,0.010111247189342976
1408.0,0.011485678143799305
1536.0,0.0084090456366539
1664.0,0.005093522369861603
1792.0,0.0012592794373631477
1920.0,0.0016321674920618534
2048.0,0.0013878485187888145
2304.0,0.007765339221805334
2560.0,0.007665593642741442
2816.0,-0.004436477553099394
3072.0,0.0059504881501197815
3328.0,0.0019696331582963467
3584.0,0.0004679436096921563
3840.0,0.008543554693460464
4096.0,-0.002819777000695467
4608.0,-0.0022096694447100163
5120.0,-0.005043396260589361
5632.0,-0.005742363166064024
6144.0,-0.010448748245835304
6656.0,-0.007614527363330126
7168.0,-0.010821080766618252
7680.0,-0.00947363581508398
8192.0,-0.005386822856962681
end
