version,3.0
numOfCh,1
type,point
parent_name,19e3e_0dot2-0dot1
ch_type,1_1
kcount,1
numberNandB,1
brightnessNandB,1
carpet pos,0
pc,0
Time (ms),CH1 Auto-Correlation
1.0,0.06950598210096359
2.0,0.06820676475763321
3.0,0.0669749528169632
4.0,0.06578309088945389
5.0,0.06460420787334442
6.0,0.06347949057817459
7.0,0.062367189675569534
8.0,0.0612906776368618
9.0,0.060247138142585754
10.0,0.0592309907078743
11.0,0.0582503005862236
12.0,0.0573241151869297
13.0,0.056404002010822296
14.0,0.05546441301703453
15.0,0.05454016476869583
16.0,0.053611643612384796
18.0,0.051837969571352005
20.0,0.05012985318899155
22.0,0.04849008098244667
24.0,0.04695433750748634
26.0,0.04551238194108009
28.0,0.044189631938934326
30.0,0.04292956367135048
32.0,0.041640505194664
36.0,0.039210230112075806
40.0,0.03681166097521782
44.0,0.034691840410232544
48.0,0.0330488458275795
52.0,0.031684599816799164
56.0,0.030595529824495316
60.0,0.029627198353409767
64.0,0.0286826454102993
72.0,0.02702581323683262
80.0,0.025664346292614937
88.0,0.02452484518289566
96.0,0.023204728960990906
104.0,0.02206036075949669
112.0,0.020670689642429352
120.0,0.019184434786438942
128.0,0.018022064119577408
144.0,0.016831882297992706
160.0,0.016280168667435646
176.0,0.01607397012412548
192.0,0.01471023727208376
208.0,0.01313077937811613
224.0,0.011548723094165325
240.0,0.010196696035563946
256.0,0.008372947573661804
288.0,0.004999972879886627
320.0,0.003593769855797291
352.0,0.003224607789888978
384.0,0.001686006784439087
416.0,-0.00044062186498194933
448.0,0.0005373234744183719
480.0,0.00153448898345232
512.0,0.0037378687411546707
576.0,0.004893589299172163
640.0,0.0016423731576651335
704.0,0.0002273733407491818
768.0,0.0001627519668545574
832.0,-0.0007477167528122663
896.0,-0.0007039370248094201
960.0,-0.00024008397303987294
1024.0,0.0010421880288049579
1152.0,0.0038259525317698717
1280.0,0.00905679538846016
1408.0,0.005355503410100937
1536.0,-0.0031233690679073334
1664.0,-0.0007418389432132244
1792.0,0.0031838789582252502
1920.0,0.005051290616393089
2048.0,-0.004360383842140436
2304.0,-0.00560305779799819
2560.0,-0.004947200883179903
2816.0,-0.007639666553586721
3072.0,-0.0025807314086705446
3328.0,-0.004382300190627575
3584.0,0.0004541720263659954
3840.0,-0.0057678623124957085
4096.0,-0.007772410288453102
4608.0,0.0006437479169107974
5120.0,-0.0008060191757977009
5632.0,0.002905184868723154
6144.0,-0.0035860328935086727
6656.0,0.0038756062276661396
7168.0,0.0004245028248988092
7680.0,-0.004819178022444248
8192.0,-0.0021258920896798372
end
