version,3.0
numOfCh,1
type,point
parent_name,19e3e_0dot2-0dot1
ch_type,1_1
kcount,1
numberNandB,1
brightnessNandB,1
carpet pos,0
pc,0
Time (ms),CH1 Auto-Correlation
1.0,0.059219855815172195
2.0,0.05801233649253845
3.0,0.056836530566215515
4.0,0.05569480359554291
5.0,0.05457836017012596
6.0,0.053515199571847916
7.0,0.05246112495660782
8.0,0.05145084857940674
9.0,0.050480470061302185
10.0,0.049548182636499405
11.0,0.04864127188920975
12.0,0.04775270074605942
13.0,0.04685989394783974
14.0,0.046025265008211136
15.0,0.04521334171295166
16.0,0.04444146156311035
18.0,0.04288611561059952
20.0,0.04136247932910919
22.0,0.039932962507009506
24.0,0.03866561874747276
26.0,0.037476517260074615
28.0,0.03633091598749161
30.0,0.035273123532533646
32.0,0.03427770361304283
36.0,0.03254121541976929
40.0,0.030973166227340698
44.0,0.029560338705778122
48.0,0.02834726870059967
52.0,0.027461973950266838
56.0,0.026765957474708557
60.0,0.02602587826550007
64.0,0.02544289641082287
72.0,0.024415167048573494
80.0,0.02298072911798954
88.0,0.021511508151888847
96.0,0.02053566463291645
104.0,0.019625654444098473
112.0,0.018906796351075172
120.0,0.01850123703479767
128.0,0.017966950312256813
144.0,0.017335282638669014
160.0,0.015626011416316032
176.0,0.013333736918866634
192.0,0.011915958486497402
208.0,0.011725865304470062
224.0,0.011954334564507008
240.0,0.011618169024586678
256.0,0.01136708166450262
288.0,0.009699007496237755
320.0,0.007443857379257679
352.0,0.00676192669197917
384.0,0.0062416368164122105
416.0,0.004324012435972691
448.0,0.00304509699344635
480.0,0.003362284740433097
512.0,0.004759929608553648
576.0,0.004999774973839521
640.0,0.005207240115851164
704.0,0.006260947789996862
768.0,0.005680586211383343
832.0,0.006313846912235022
896.0,0.0017098508542403579
960.0,-0.0010535551700741053
1024.0,-0.0020922271069139242
1152.0,-0.003545692190527916
1280.0,-0.0049193543381989
1408.0,-0.0018443034496158361
1536.0,0.0027096602134406567
1664.0,0.004863503389060497
1792.0,0.005867178086191416
1920.0,0.005878983996808529
2048.0,-0.000590863055549562
2304.0,-0.0021010669879615307
2560.0,0.0008787830010987818
2816.0,-0.0050588040612638
3072.0,-0.004101317375898361
3328.0,-0.0010990024311468005
3584.0,-0.002303335117176175
3840.0,-0.005959725473076105
4096.0,-0.003275476861745119
4608.0,-0.007895632646977901
5120.0,-0.005268962122499943
5632.0,-0.005167005583643913
6144.0,-0.008918280713260174
6656.0,-0.0035284850746393204
7168.0,0.004436527844518423
7680.0,0.008815491572022438
8192.0,0.003730399301275611
end
