version,3.0
numOfCh,1
type,point
parent_name,19e3e_0dot2-0dot1
ch_type,1_1
kcount,1
numberNandB,1
brightnessNandB,1
carpet pos,0
pc,0
Time (ms),CH1 Auto-Correlation
1.0,0.0685386061668396
2.0,0.06716358661651611
3.0,0.06583977490663528
4.0,0.06460539251565933
5.0,0.06343317776918411
6.0,0.06228354573249817
7.0,0.06117883324623108
8.0,0.06013902276754379
9.0,0.05912294238805771
10.0,0.05813602730631828
11.0,0.05719856172800064
12.0,0.05627858266234398
13.0,0.055420227348804474
14.0,0.05462700128555298
15.0,0.053845588117837906
16.0,0.05309433490037918
18.0,0.05160428211092949
20.0,0.05021258071064949
22.0,0.04892648756504059
24.0,0.04774244874715805
26.0,0.04662839323282242
28.0,0.04562056064605713
30.0,0.04461852088570595
32.0,0.043709445744752884
36.0,0.041966862976551056
40.0,0.04036642238497734
44.0,0.03891175985336304
48.0,0.037610121071338654
52.0,0.03658571094274521
56.0,0.035434283316135406
60.0,0.03418765217065811
64.0,0.03312717378139496
72.0,0.031471360474824905
80.0,0.029363317415118217
88.0,0.027055181562900543
96.0,0.02514428086578846
104.0,0.02333798259496689
112.0,0.021924179047346115
120.0,0.020920217037200928
128.0,0.02035002037882805
144.0,0.02011498622596264
160.0,0.020347677171230316
176.0,0.020102357491850853
192.0,0.019930431619286537
208.0,0.01838964782655239
224.0,0.016463767737150192
240.0,0.01564742997288704
256.0,0.01570633053779602
288.0,0.013267704285681248
320.0,0.011641141027212143
352.0,0.011236843653023243
384.0,0.010182136669754982
416.0,0.009347904473543167
448.0,0.008953277952969074
480.0,0.006741122808307409
512.0,0.0048011611215770245
576.0,0.005130497273057699
640.0,0.004279204178601503
704.0,0.0013429102255031466
768.0,0.0020693864207714796
832.0,-0.000431171094533056
896.0,-0.000848851865157485
960.0,0.0035020241048187017
1024.0,0.0033496019896119833
1152.0,0.0012563731288537383
1280.0,-0.004321248270571232
1408.0,-0.007876857183873653
1536.0,-0.006775399204343557
1664.0,-0.005451423581689596
1792.0,-0.004064882639795542
1920.0,-0.0019005538197234273
2048.0,-0.00017262824985664338
2304.0,-0.00046046715578995645
2560.0,-0.0038784872740507126
2816.0,0.0022620907984673977
3072.0,-0.0007936643087305129
3328.0,-0.00753352977335453
3584.0,-0.006409729830920696
3840.0,-0.0038859518244862556
4096.0,-0.0026011611334979534
4608.0,-0.004558382090181112
5120.0,0.006807446014136076
5632.0,0.00490578543394804
6144.0,0.0011526691960170865
6656.0,-0.002786237047985196
7168.0,0.0013864075299352407
7680.0,0.0033619138412177563
8192.0,-0.0028128118719905615
end
