version,3.0
numOfCh,1
type,point
parent_name,19e3e_0dot2-0dot1
ch_type,1_1
kcount,1
numberNandB,1
brightnessNandB,1
carpet pos,0
pc,0
Time (ms),CH1 Auto-Correlation
1.0,0.07006244361400604
2.0,0.06850294023752213
3.0,0.06711027771234512
4.0,0.06583694368600845
5.0,0.0645502582192421
6.0,0.0633065328001976
7.0,0.06210858002305031
8.0,0.0609661266207695
9.0,0.059875890612602234
10.0,0.05882483720779419
11.0,0.057790063321590424
12.0,0.056773941963911057
13.0,0.055788107216358185
14.0,0.05484209954738617
15.0,0.053865112364292145
16.0,0.0529155507683754
18.0,0.051221296191215515
20.0,0.049651410430669785
22.0,0.048043329268693924
24.0,0.04651627317070961
26.0,0.044915977865457535
28.0,0.043475884944200516
30.0,0.04214246943593025
32.0,0.04095707833766937
36.0,0.03854408860206604
40.0,0.03643890842795372
44.0,0.034401021897792816
48.0,0.032187703996896744
52.0,0.030290858820080757
56.0,0.02844528667628765
60.0,0.02652101404964924
64.0,0.024804074317216873
72.0,0.02223459631204605
80.0,0.020443545654416084
88.0,0.019132187590003014
96.0,0.01788165420293808
104.0,0.01669771783053875
112.0,0.01578785479068756
120.0,0.015097563154995441
128.0,0.014176316559314728
144.0,0.013062039390206337
160.0,0.013409306295216084
176.0,0.013375770300626755
192.0,0.012958030216395855
208.0,0.012086272239685059
224.0,0.011622111313045025
240.0,0.011110277846455574
256.0,0.009972166270017624
288.0,0.010634134523570538
320.0,0.010482401587069035
352.0,0.010237865149974823
384.0,0.007919950410723686
416.0,0.0008602899615652859
448.0,-0.0045875548385083675
480.0,-0.006177217699587345
512.0,-0.002226155949756503
576.0,0.0007028161780908704
640.0,0.0007639407995156944
704.0,0.0020930736791342497
768.0,-0.0008846833952702582
832.0,0.00048574095126241446
896.0,0.0029296730645000935
960.0,0.0029005478136241436
1024.0,0.0016925594536587596
1152.0,-0.0038593336939811707
1280.0,-0.0014040220994502306
1408.0,-0.0010398548329249024
1536.0,-0.002239014022052288
1664.0,0.000256463885307312
1792.0,0.0017775375163182616
1920.0,0.003475742181763053
2048.0,9.002105798572302e-05
2304.0,-0.0039121112786233425
2560.0,-0.004495987668633461
2816.0,0.0020619211718440056
3072.0,0.0001439276966266334
3328.0,-0.0046241101808846
3584.0,-0.0065297712571918964
3840.0,-0.0039437334053218365
4096.0,0.00046455266419798136
4608.0,-0.00010072478471556678
5120.0,-0.0023472814355045557
5632.0,0.004661697894334793
6144.0,-0.0013981105294078588
6656.0,-0.008602296002209187
7168.0,-0.0061499555595219135
7680.0,-0.009183639660477638
8192.0,-0.005628671497106552
end
