version,3.0
numOfCh,1
type,point
parent_name,19e3e_0dot2-0dot1
ch_type,1_1
kcount,1
numberNandB,1
brightnessNandB,1
carpet pos,0
pc,0
Time (ms),CH1 Auto-Correlation
1.0,0.056456997990608215
2.0,0.05529442057013512
3.0,0.054166462272405624
4.0,0.053128112107515335
5.0,0.05213899165391922
6.0,0.05116824433207512
7.0,0.05025818943977356
8.0,0.04938298463821411
9.0,0.04856884852051735
10.0,0.04778793826699257
11.0,0.04702376201748848
12.0,0.04627668485045433
13.0,0.04556331783533096
14.0,0.04489827901124954
15.0,0.0443182997405529
16.0,0.04374845698475838
18.0,0.04264768213033676
20.0,0.04157748073339462
22.0,0.04052862152457237
24.0,0.03949514403939247
26.0,0.03855994716286659
28.0,0.037638477981090546
30.0,0.03679078072309494
32.0,0.03599332645535469
36.0,0.03465791046619415
40.0,0.0334913395345211
44.0,0.032244887202978134
48.0,0.03117559291422367
52.0,0.030155854299664497
56.0,0.029137613251805305
60.0,0.02799973636865616
64.0,0.0269324891269207
72.0,0.024682706221938133
80.0,0.022644946351647377
88.0,0.021191978827118874
96.0,0.020193027332425117
104.0,0.01964283362030983
112.0,0.01991960033774376
120.0,0.0202028751373291
128.0,0.020092783495783806
144.0,0.01904585398733616
160.0,0.01848488487303257
176.0,0.017774391919374466
192.0,0.01739630289375782
208.0,0.01653456874191761
224.0,0.014440714381635189
240.0,0.012325161136686802
256.0,0.011027779430150986
288.0,0.009532083757221699
320.0,0.009861020371317863
352.0,0.010465182363986969
384.0,0.01030041929334402
416.0,0.009479724802076817
448.0,0.008054488338530064
480.0,0.005636121146380901
512.0,0.0036643310450017452
576.0,0.001637483248487115
640.0,-0.00022724250447936356
704.0,-0.00014955697406549007
768.0,0.0017967864405363798
832.0,0.0016248198226094246
896.0,0.0015442515723407269
960.0,0.0028360711876302958
1024.0,0.0034804551396518946
1152.0,0.0015070067020133138
1280.0,0.0027642063796520233
1408.0,0.005376745946705341
1536.0,0.0004903030348941684
1664.0,0.002175938803702593
1792.0,0.003446972696110606
1920.0,-0.0010914207668974996
2048.0,-0.002402218757197261
2304.0,-0.00513627752661705
2560.0,-0.009566627442836761
2816.0,-0.0024332385510206223
3072.0,-0.0019114798633381724
3328.0,-0.003036587266251445
3584.0,0.0005037621594965458
3840.0,-0.0040731849148869514
4096.0,-0.00451296754181385
4608.0,-0.004245262127369642
5120.0,-0.00679647596552968
5632.0,-0.006457865238189697
6144.0,-0.002436737297102809
6656.0,-0.0031794377136975527
7168.0,-0.00010930375719908625
7680.0,0.009431568905711174
8192.0,0.006580718792974949
end
