version,3.0
numOfCh,1
type,point
parent_name,19e3e_0dot2-0dot1
ch_type,1_1
kcount,1
numberNandB,1
brightnessNandB,1
carpet pos,0
pc,0
Time (ms),CH1 Auto-Correlation
1.0,0.06943892687559128
2.0,0.06818703562021255
3.0,0.06696688383817673
4.0,0.06583990156650543
5.0,0.06474359333515167
6.0,0.06368187069892883
7.0,0.06266915053129196
8.0,0.06166926771402359
9.0,0.06072264537215233
10.0,0.05982077494263649
11.0,0.05898435413837433
12.0,0.05819391459226608
13.0,0.0574474036693573
14.0,0.05670392885804176
15.0,0.05596635490655899
16.0,0.05524197593331337
18.0,0.053885601460933685
20.0,0.052684079855680466
22.0,0.051605161279439926
24.0,0.050577860325574875
26.0,0.04961468651890755
28.0,0.04871084541082382
30.0,0.047858383506536484
32.0,0.04703374579548836
36.0,0.045510631054639816
40.0,0.044119980186223984
44.0,0.04281187430024147
48.0,0.041417188942432404
52.0,0.03992453217506409
56.0,0.03846757858991623
60.0,0.03704637289047241
64.0,0.03574351221323013
72.0,0.03330932930111885
80.0,0.030792126432061195
88.0,0.028451303020119667
96.0,0.02659640461206436
104.0,0.025498103350400925
112.0,0.02426058053970337
120.0,0.022936156019568443
128.0,0.021747207269072533
144.0,0.02037212997674942
160.0,0.01876004785299301
176.0,0.01591392606496811
192.0,0.013233036734163761
208.0,0.011172858066856861
224.0,0.008992825634777546
240.0,0.0071893841959536076
256.0,0.006398830562829971
288.0,0.00522758811712265
320.0,0.005559317301958799
352.0,0.006559908855706453
384.0,0.006688089109957218
416.0,0.006494252011179924
448.0,0.006042948924005032
480.0,0.004611149895936251
512.0,0.0037561063654720783
576.0,0.00041283262544311583
640.0,-0.0059534418396651745
704.0,-0.008763800375163555
768.0,-0.007357775699347258
832.0,-0.006800906267017126
896.0,-0.004466593265533447
960.0,-0.0010875036241486669
1024.0,-0.004820590373128653
1152.0,-0.008250333368778229
1280.0,0.0004064968088641763
1408.0,0.0050159599632024765
1536.0,0.005468638613820076
1664.0,0.006605611182749271
1792.0,0.0019123406382277608
1920.0,0.0008737466996535659
2048.0,0.004003617446869612
2304.0,0.004607093520462513
2560.0,-0.0011150069767609239
2816.0,-0.0028733303770422935
3072.0,-0.002365288557484746
3328.0,-0.004810059908777475
3584.0,-0.0030315618496388197
3840.0,0.007390633225440979
4096.0,0.004090659320354462
4608.0,0.0012544248020276427
5120.0,-0.008149733766913414
5632.0,-0.0037151589058339596
6144.0,-0.0016266271704807878
6656.0,-0.007658541202545166
7168.0,-0.0008602245361544192
7680.0,0.00421314500272274
8192.0,-0.00823727436363697
end
