version,3.0
numOfCh,1
type,point
parent_name,19e3e_0dot2-0dot1
ch_type,1_1
kcount,1
numberNandB,1
brightnessNandB,1
carpet pos,0
pc,0
Time (ms),CH1 Auto-Correlation
1.0,0.083369679749012
2.0,0.08211259543895721
3.0,0.08088178932666779
4.0,0.07974069565534592
5.0,0.07865258306264877
6.0,0.07760515064001083
7.0,0.07657858729362488
8.0,0.07555994391441345
9.0,0.07459650188684464
10.0,0.07367230206727982
11.0,0.07276900857686996
12.0,0.07188226282596588
13.0,0.07101453095674515
14.0,0.07015951722860336
15.0,0.06933309137821198
16.0,0.06856449693441391
18.0,0.0670628771185875
20.0,0.06563669443130493
22.0,0.06426253169775009
24.0,0.0629916712641716
26.0,0.061726830899715424
28.0,0.060520753264427185
30.0,0.05942786857485771
32.0,0.05832582712173462
36.0,0.0561375617980957
40.0,0.054159849882125854
44.0,0.05221572518348694
48.0,0.050480347126722336
52.0,0.04870832338929176
56.0,0.04692234843969345
60.0,0.04553545266389847
64.0,0.04445222392678261
72.0,0.04285641014575958
80.0,0.04136822000145912
88.0,0.039716385304927826
96.0,0.038018420338630676
104.0,0.036587852984666824
112.0,0.035455189645290375
120.0,0.03457217290997505
128.0,0.03337373957037926
144.0,0.030609626322984695
160.0,0.02862178161740303
176.0,0.025706196203827858
192.0,0.023295041173696518
208.0,0.02074890024960041
224.0,0.01814144290983677
240.0,0.017010008916258812
256.0,0.016523608937859535
288.0,0.018004069104790688
320.0,0.017743902280926704
352.0,0.016116654500365257
384.0,0.013795610517263412
416.0,0.010558763518929482
448.0,0.009242434054613113
480.0,0.008612364530563354
512.0,0.006699162535369396
576.0,0.0033070282079279423
640.0,0.00037053439882583916
704.0,-0.00048751477152109146
768.0,0.0030996245332062244
832.0,0.0072938259690999985
896.0,0.01034398004412651
960.0,0.009730861522257328
1024.0,0.008424251340329647
1152.0,0.007478194311261177
1280.0,0.008493499830365181
1408.0,0.003189121140167117
1536.0,-0.004736745730042458
1664.0,-0.006135824602097273
1792.0,-0.007305383216589689
1920.0,-0.01659305766224861
2048.0,-0.022458743304014206
2304.0,-0.017935989424586296
2560.0,-0.016725104302167892
2816.0,-0.009462516754865646
3072.0,-0.01829328015446663
3328.0,-0.009335658513009548
3584.0,-0.00040274776984006166
3840.0,0.0004064694221597165
4096.0,0.007646396290510893
4608.0,0.00501320930197835
5120.0,0.011555285193026066
5632.0,0.005417890381067991
6144.0,0.0028833947144448757
6656.0,-0.006418725475668907
7168.0,-0.011315954849123955
7680.0,-0.009995567612349987
8192.0,-0.02041957713663578
end
