version,3.0
numOfCh,1
type,point
parent_name,19e3e_0dot2-0dot1
ch_type,1_1
kcount,1
numberNandB,1
brightnessNandB,1
carpet pos,0
pc,0
Time (ms),CH1 Auto-Correlation
1.0,0.06755958497524261
2.0,0.0662429928779602
3.0,0.06497012823820114
4.0,0.06374958902597427
5.0,0.06256797164678574
6.0,0.06143755838274956
7.0,0.06033958122134209
8.0,0.05928757041692734
9.0,0.058307718485593796
10.0,0.05740230530500412
11.0,0.05651054531335831
12.0,0.055620476603507996
13.0,0.05476276949048042
14.0,0.05390390753746033
15.0,0.0530882403254509
16.0,0.05231814458966255
18.0,0.05089427903294563
20.0,0.049555305391550064
22.0,0.048282377421855927
24.0,0.047077566385269165
26.0,0.04583641141653061
28.0,0.04458615928888321
30.0,0.0433473065495491
32.0,0.04219939559698105
36.0,0.040216173976659775
40.0,0.03880119323730469
44.0,0.03771094232797623
48.0,0.036778178066015244
52.0,0.03599340096116066
56.0,0.03544341027736664
60.0,0.03475896641612053
64.0,0.03407628834247589
72.0,0.032605260610580444
80.0,0.03111686185002327
88.0,0.029475489631295204
96.0,0.027555294334888458
104.0,0.025994854047894478
112.0,0.024467701092362404
120.0,0.023237429559230804
128.0,0.022592943161725998
144.0,0.02125081978738308
160.0,0.019449453800916672
176.0,0.016880370676517487
192.0,0.013786474242806435
208.0,0.011523007415235043
224.0,0.010592344217002392
240.0,0.009671187028288841
256.0,0.009381220676004887
288.0,0.008511831052601337
320.0,0.006991737522184849
352.0,0.007431194186210632
384.0,0.0069235460832715034
416.0,0.008580915629863739
448.0,0.01077624224126339
480.0,0.011872882954776287
512.0,0.01468184869736433
576.0,0.017540110275149345
640.0,0.019333619624376297
704.0,0.017666520550847054
768.0,0.010719913057982922
832.0,0.004384780768305063
896.0,3.233875031583011e-05
960.0,-3.478720100247301e-05
1024.0,0.0023497589863836765
1152.0,0.00545260077342391
1280.0,0.006819629576057196
1408.0,0.004029992967844009
1536.0,-0.004618242383003235
1664.0,-0.005966355558484793
1792.0,-0.0030701057985424995
1920.0,-0.005486101843416691
2048.0,-0.009355679154396057
2304.0,-0.01351564098149538
2560.0,-0.008657022379338741
2816.0,-0.009673267602920532
3072.0,-0.007808205205947161
3328.0,-0.0050556897185742855
3584.0,-0.0008800201467238367
3840.0,-0.0016009259270504117
4096.0,0.003656676271930337
4608.0,0.004609640687704086
5120.0,0.004183610435575247
5632.0,0.0004795026034116745
6144.0,-0.00571148656308651
6656.0,-0.008871247060596943
7168.0,-0.011631445027887821
7680.0,-0.004645589739084244
8192.0,0.0034115558955818415
end
