version,3.0
numOfCh,1
type,point
parent_name,19e3e_0dot2-0dot1
ch_type,1_1
kcount,1
numberNandB,1
brightnessNandB,1
carpet pos,0
pc,0
Time (ms),CH1 Auto-Correlation
1.0,0.07413554936647415
2.0,0.07292347401380539
3.0,0.07176695764064789
4.0,0.07064038515090942
5.0,0.06952371448278427
6.0,0.06842519342899323
7.0,0.06733303517103195
8.0,0.06627761572599411
9.0,0.06527316570281982
10.0,0.06430684030056
11.0,0.06338934600353241
12.0,0.06250707805156708
13.0,0.06163090467453003
14.0,0.060793597251176834
15.0,0.05997961387038231
16.0,0.0592040941119194
18.0,0.05769392475485802
20.0,0.05625234544277191
22.0,0.05488321930170059
24.0,0.053593460470438004
26.0,0.052394453436136246
28.0,0.05138648301362991
30.0,0.050472915172576904
32.0,0.04955524578690529
36.0,0.04783020168542862
40.0,0.04640471562743187
44.0,0.04520007595419884
48.0,0.044117748737335205
52.0,0.04288344085216522
56.0,0.04168691113591194
60.0,0.0406133234500885
64.0,0.03965328633785248
72.0,0.037166185677051544
80.0,0.03487993776798248
88.0,0.03318045660853386
96.0,0.032367415726184845
104.0,0.03197620064020157
112.0,0.03163440525531769
120.0,0.03123726136982441
128.0,0.03086874820291996
144.0,0.030093735083937645
160.0,0.029195325449109077
176.0,0.027302540838718414
192.0,0.02457779087126255
208.0,0.02214052528142929
224.0,0.02003285475075245
240.0,0.017542649060487747
256.0,0.01573052629828453
288.0,0.014225042425096035
320.0,0.013493341393768787
352.0,0.013254118151962757
384.0,0.013253632932901382
416.0,0.012877213768661022
448.0,0.012309697456657887
480.0,0.012468132190406322
512.0,0.013656781055033207
576.0,0.010676221922039986
640.0,0.009125408716499805
704.0,0.0051649268716573715
768.0,0.0011179873254150152
832.0,0.0017896428471431136
896.0,0.002074707532301545
960.0,0.003764391876757145
1024.0,0.002292515942826867
1152.0,-0.0006397815886884928
1280.0,-0.0044250814244151115
1408.0,-0.008425119332969189
1536.0,-0.008408848196268082
1664.0,-0.007599989417940378
1792.0,-0.0065873488783836365
1920.0,-0.0066047487780451775
2048.0,-0.008693431504070759
2304.0,-0.011769957840442657
2560.0,-0.009074767120182514
2816.0,-0.008265253156423569
3072.0,-0.007450185250490904
3328.0,-0.002397791249677539
3584.0,-0.005099544767290354
3840.0,-0.0021026229951530695
4096.0,-0.003140120767056942
4608.0,0.0024860743433237076
5120.0,0.008001289330422878
5632.0,0.007452070247381926
6144.0,-0.0006746815633960068
6656.0,-0.006562803406268358
7168.0,-0.006435450166463852
7680.0,-0.0020588913466781378
8192.0,-0.0006136086885817349
end
