version,3.0
numOfCh,1
type,point
parent_name,19e3e_0dot2-0dot1
ch_type,1_1
kcount,1
numberNandB,1
brightnessNandB,1
carpet pos,0
pc,0
Time (ms),CH1 Auto-Correlation
1.0,0.06910964101552963
2.0,0.06795162707567215
3.0,0.06682552397251129
4.0,0.06574130058288574
5.0,0.06473495811223984
6.0,0.06378169357776642
7.0,0.06283320486545563
8.0,0.061924856156110764
9.0,0.06102161854505539
10.0,0.0601084940135479
11.0,0.05921267345547676
12.0,0.05835239961743355
13.0,0.057515859603881836
14.0,0.056703485548496246
15.0,0.05590096488595009
16.0,0.05514168366789818
18.0,0.053678277879953384
20.0,0.05220987647771835
22.0,0.05077870562672615
24.0,0.04942214488983154
26.0,0.04805031418800354
28.0,0.04669320583343506
30.0,0.04534826800227165
32.0,0.04409179836511612
36.0,0.04186398908495903
40.0,0.039897434413433075
44.0,0.0380176343023777
48.0,0.036424290388822556
52.0,0.03504867106676102
56.0,0.03383002057671547
60.0,0.03279389441013336
64.0,0.03177053853869438
72.0,0.029807113111019135
80.0,0.027901362627744675
88.0,0.025937460362911224
96.0,0.02353118732571602
104.0,0.02123389206826687
112.0,0.019595874473452568
120.0,0.018338249996304512
128.0,0.016883984208106995
144.0,0.014444260857999325
160.0,0.012539759278297424
176.0,0.011086021549999714
192.0,0.009645526297390461
208.0,0.008245548233389854
224.0,0.007964574731886387
240.0,0.009087223559617996
256.0,0.00983519945293665
288.0,0.011749797500669956
320.0,0.013591890223324299
352.0,0.013321811333298683
384.0,0.013017375022172928
416.0,0.011647284030914307
448.0,0.006991164293140173
480.0,0.004105358384549618
512.0,0.0028039703611284494
576.0,-0.002427349565550685
640.0,-0.0035466814879328012
704.0,-0.003315436188131571
768.0,-0.0016496184980496764
832.0,0.0014691478572785854
896.0,0.0007221118430607021
960.0,-0.0017140604322776198
1024.0,-0.00574706494808197
1152.0,-0.005255255848169327
1280.0,-0.004485639277845621
1408.0,-0.008533122017979622
1536.0,-0.008455914445221424
1664.0,-0.004034544341266155
1792.0,-0.0014844354009255767
1920.0,-0.0008547359029762447
2048.0,-0.004728997591882944
2304.0,-0.0008850843878462911
2560.0,8.354189776582643e-05
2816.0,-0.0037847780622541904
3072.0,0.0005821773665957153
3328.0,-0.0038831972051411867
3584.0,0.0009425244643352926
3840.0,0.0027536475099623203
4096.0,0.0005895550129935145
4608.0,0.008141727186739445
5120.0,0.0036274639423936605
5632.0,0.00015868362970650196
6144.0,-0.002206984907388687
6656.0,-0.007555647287517786
7168.0,-0.0067185526713728905
7680.0,-0.00551554886624217
8192.0,-0.0010220574913546443
end
