version,3.0
numOfCh,1
type,point
parent_name,19e3e_0dot2-0dot1
ch_type,1_1
kcount,1
numberNandB,1
brightnessNandB,1
carpet pos,0
pc,0
Time (ms),CH1 Auto-Correlation
1.0,0.05667614936828613
2.0,0.0554923340678215
3.0,0.0543709471821785
4.0,0.053330905735492706
5.0,0.05232969671487808
6.0,0.05134866386651993
7.0,0.0503765232861042
8.0,0.049428246915340424
9.0,0.04846247285604477
10.0,0.04755978286266327
11.0,0.046677365899086
12.0,0.04584021121263504
13.0,0.044988710433244705
14.0,0.04416077956557274
15.0,0.043345700949430466
16.0,0.04253074526786804
18.0,0.0410083569586277
20.0,0.03958446905016899
22.0,0.03827757388353348
24.0,0.03702840581536293
26.0,0.03587030619382858
28.0,0.034762993454933167
30.0,0.033608801662921906
32.0,0.032529864460229874
36.0,0.030413242056965828
40.0,0.028320040553808212
44.0,0.026301700621843338
48.0,0.02459011971950531
52.0,0.023100685328245163
56.0,0.021689193323254585
60.0,0.020325256511569023
64.0,0.019077502191066742
72.0,0.016783127561211586
80.0,0.014580296352505684
88.0,0.012911390513181686
96.0,0.011604798957705498
104.0,0.010585707612335682
112.0,0.00947990920394659
120.0,0.008256875909864902
128.0,0.006962647661566734
144.0,0.004861108493059874
160.0,0.0038448625709861517
176.0,0.0045897155068814754
192.0,0.0050276354886591434
208.0,0.004925304092466831
224.0,0.0041398173198103905
240.0,0.0038633437361568213
256.0,0.003933602944016457
288.0,0.0030600589234381914
320.0,0.0007136772037483752
352.0,-0.0014269868843257427
384.0,-0.0031629647128283978
416.0,-0.003173788310959935
448.0,-0.0022584297694265842
480.0,-0.0013867035740986466
512.0,-0.0016783401370048523
576.0,0.0012240264331921935
640.0,0.0033752936869859695
704.0,0.0059889936819672585
768.0,0.008361674845218658
832.0,0.0067387912422418594
896.0,0.0005750797572545707
960.0,0.0017662165919318795
1024.0,0.0030218237079679966
1152.0,-0.000799946952611208
1280.0,0.002805784111842513
1408.0,0.006106970831751823
1536.0,0.0034823750611394644
1664.0,0.0002381410013185814
1792.0,0.0011032272595912218
1920.0,-0.000830251956358552
2048.0,0.0011193414684385061
2304.0,0.001560398144647479
2560.0,0.001321994001045823
2816.0,-0.0014054207131266594
3072.0,-0.004783551674336195
3328.0,0.0001411122502759099
3584.0,-0.00212790141813457
3840.0,-0.0010881406487897038
4096.0,-0.0026017255149781704
4608.0,0.00012310386227909476
5120.0,0.002314993878826499
5632.0,-0.0040925429202616215
6144.0,0.0005130613571964204
6656.0,-0.00011530265328474343
7168.0,-0.002188013633713126
7680.0,0.0019872733391821384
8192.0,-0.0027825532015413046
end
