version,3.0
numOfCh,1
type,point
parent_name,19e3e_0dot2-0dot1
ch_type,1_1
kcount,1
numberNandB,1
brightnessNandB,1
carpet pos,0
pc,0
Time (ms),CH1 Auto-Correlation
1.0,0.059958938509225845
2.0,0.05876067280769348
3.0,0.05760117992758751
4.0,0.05646636709570885
5.0,0.05539042502641678
6.0,0.05434657633304596
7.0,0.05332239717245102
8.0,0.05227174237370491
9.0,0.0512738935649395
10.0,0.05031007528305054
11.0,0.049424827098846436
12.0,0.04857324808835983
13.0,0.04779821261763573
14.0,0.047090258449316025
15.0,0.046394720673561096
16.0,0.04570319131016731
18.0,0.04445871338248253
20.0,0.043276045471429825
22.0,0.04209886118769646
24.0,0.04091240465641022
26.0,0.03972712159156799
28.0,0.03860357403755188
30.0,0.037496358156204224
32.0,0.036416955292224884
36.0,0.034434400498867035
40.0,0.032812006771564484
44.0,0.03129963576793671
48.0,0.029910100623965263
52.0,0.02866995707154274
56.0,0.02741982601583004
60.0,0.026160117238759995
64.0,0.025065194815397263
72.0,0.022564390674233437
80.0,0.02038688398897648
88.0,0.018351467326283455
96.0,0.016805345192551613
104.0,0.015651628375053406
112.0,0.014689062722027302
120.0,0.013980905525386333
128.0,0.013580515049397945
144.0,0.012567573226988316
160.0,0.010925687849521637
176.0,0.009114431217312813
192.0,0.007384330499917269
208.0,0.005820188205689192
224.0,0.00405893987044692
240.0,0.0031525418162345886
256.0,0.002470668638125062
288.0,0.0004932661540806293
320.0,-0.000385530962375924
352.0,0.0003871605440508574
384.0,0.0015527920331805944
416.0,0.0015046031912788749
448.0,0.002393842674791813
480.0,0.004292828030884266
512.0,0.004892515484243631
576.0,0.006102862302213907
640.0,0.005992489401251078
704.0,0.007852508686482906
768.0,0.0070156618021428585
832.0,0.004755685571581125
896.0,0.003548579989001155
960.0,0.0024876899551600218
1024.0,0.005788995418697596
1152.0,0.0074236649088561535
1280.0,0.0034817957784980536
1408.0,0.0013935331953689456
1536.0,-0.0010189064778387547
1664.0,-0.0019099435303360224
1792.0,0.0032160731498152018
1920.0,0.004327980801463127
2048.0,-0.00014373417070601135
2304.0,-0.00024056673282757401
2560.0,0.00027252978179603815
2816.0,-0.000534471997525543
3072.0,-0.0013397702714428306
3328.0,-0.002742241369560361
3584.0,-0.004627876449376345
3840.0,-0.004755851812660694
4096.0,-0.004643036983907223
4608.0,-0.004932498559355736
5120.0,-0.005392278544604778
5632.0,-0.0049307700246572495
6144.0,-0.0019011672120541334
6656.0,0.0014720322797074914
7168.0,-0.0007056910544633865
7680.0,0.003735731355845928
8192.0,-0.0017977828392758965
end
