version,3.0
numOfCh,1
type,point
parent_name,19e3e_0dot2-0dot1
ch_type,1_1
kcount,1
numberNandB,1
brightnessNandB,1
carpet pos,0
pc,0
Time (ms),CH1 Auto-Correlation
1.0,0.06896284967660904
2.0,0.06756612658500671
3.0,0.06626391410827637
4.0,0.06501414626836777
5.0,0.06381870061159134
6.0,0.06261410564184189
7.0,0.06151825189590454
8.0,0.06048884615302086
9.0,0.059458062052726746
10.0,0.058524247258901596
11.0,0.05761914700269699
12.0,0.05673184245824814
13.0,0.05583138018846512
14.0,0.05497060343623161
15.0,0.05413227900862694
16.0,0.053329646587371826
18.0,0.05186497047543526
20.0,0.050539277493953705
22.0,0.04918559268116951
24.0,0.04782852530479431
26.0,0.04654117673635483
28.0,0.045298416167497635
30.0,0.044112272560596466
32.0,0.04304718226194382
36.0,0.04102044180035591
40.0,0.03907417505979538
44.0,0.03725579380989075
48.0,0.03553096950054169
52.0,0.033934980630874634
56.0,0.032608143985271454
60.0,0.03146609291434288
64.0,0.03048609383404255
72.0,0.02843037247657776
80.0,0.02657468244433403
88.0,0.024741757661104202
96.0,0.022818509489297867
104.0,0.020934678614139557
112.0,0.018609315156936646
120.0,0.016156889498233795
128.0,0.013891981914639473
144.0,0.009406737051904202
160.0,0.00633656419813633
176.0,0.005461471620947123
192.0,0.005192531272768974
208.0,0.004505969118326902
224.0,0.003959954716265202
240.0,0.0029239540454000235
256.0,0.0024656266905367374
288.0,0.0011493979254737496
320.0,-0.00023392928414978087
352.0,-0.0013436181470751762
384.0,-0.003335286397486925
416.0,-0.003193013835698366
448.0,-0.0038833017461001873
480.0,-0.005376100540161133
512.0,-0.005159841850399971
576.0,-0.004218080081045628
640.0,-0.0036867104936391115
704.0,-0.0009480044827796519
768.0,0.00203305552713573
832.0,0.004798312671482563
896.0,0.004473183304071426
960.0,0.0025708882603794336
1024.0,-1.4056859981792513e-05
1152.0,0.0003317437367513776
1280.0,-0.0008903441485017538
1408.0,0.000681928766425699
1536.0,0.004374164156615734
1664.0,0.007461317349225283
1792.0,0.0016714428784325719
1920.0,-0.005911102518439293
2048.0,-0.008956486359238625
2304.0,-0.004963118117302656
2560.0,0.0026357637252658606
2816.0,7.705445750616491e-05
3072.0,0.000979056814685464
3328.0,0.0010160892270505428
3584.0,0.001339991926215589
3840.0,-0.0017872941680252552
4096.0,-0.0029608644545078278
4608.0,-0.005774781573563814
5120.0,-0.003585727885365486
5632.0,0.0012466446496546268
6144.0,-0.008019855245947838
6656.0,-0.0006869062781333923
7168.0,0.0019135902402922511
7680.0,-0.005290136206895113
8192.0,0.0050343540497124195
end
