version,3.0
numOfCh,1
type,point
parent_name,19e3e_0dot2-0dot1
ch_type,1_1
kcount,1
numberNandB,1
brightnessNandB,1
carpet pos,0
pc,0
Time (ms),CH1 Auto-Correlation
1.0,0.07606519758701324
2.0,0.07460018247365952
3.0,0.07322169095277786
4.0,0.07194645702838898
5.0,0.07070627063512802
6.0,0.06950154900550842
7.0,0.06836944073438644
8.0,0.06725984811782837
9.0,0.06624908745288849
10.0,0.06530891358852386
11.0,0.06433447450399399
12.0,0.06347987055778503
13.0,0.06263305991888046
14.0,0.06181984767317772
15.0,0.06097226217389107
16.0,0.06010119989514351
18.0,0.05833316594362259
20.0,0.05661693960428238
22.0,0.0549614354968071
24.0,0.053481828421354294
26.0,0.05212726071476936
28.0,0.050783392041921616
30.0,0.049408819526433945
32.0,0.04804673418402672
36.0,0.04560944437980652
40.0,0.04344207048416138
44.0,0.041369713842868805
48.0,0.03948115184903145
52.0,0.03774168714880943
56.0,0.03602522611618042
60.0,0.03441133350133896
64.0,0.03276067599654198
72.0,0.029666325077414513
80.0,0.026709919795393944
88.0,0.024150429293513298
96.0,0.021834753453731537
104.0,0.02009495161473751
112.0,0.01901872456073761
120.0,0.017877575010061264
128.0,0.016680914908647537
144.0,0.014121797867119312
160.0,0.01178726926445961
176.0,0.010187609121203423
192.0,0.009757611900568008
208.0,0.008776701055467129
224.0,0.007773971650749445
240.0,0.005775612313300371
256.0,0.0033577177673578262
288.0,0.0005964046576991677
320.0,0.0015504667535424232
352.0,0.0028728439938277006
384.0,0.0018481871811673045
416.0,0.0020138213876634836
448.0,0.0030629090033471584
480.0,0.0005820744554512203
512.0,-0.0020771250128746033
576.0,-1.1536909369169734e-05
640.0,-0.0015330013120546937
704.0,-0.0026394398882985115
768.0,-0.001555676688440144
832.0,0.0016016464214771986
896.0,0.0008289750549010932
960.0,0.0016721540596336126
1024.0,0.0028770396020263433
1152.0,0.003077614353969693
1280.0,0.005903458222746849
1408.0,0.00920144747942686
1536.0,0.0032101296819746494
1664.0,-0.0014372882433235645
1792.0,-0.0029683616012334824
1920.0,-0.0006234589964151382
2048.0,0.004312260542064905
2304.0,0.008177519775927067
2560.0,0.000621700775809586
2816.0,-0.004656409379094839
3072.0,-0.0029516068752855062
3328.0,-0.004552192520350218
3584.0,-0.005102360155433416
3840.0,-0.00744215864688158
4096.0,-0.0025377345737069845
4608.0,-0.0040416712872684
5120.0,-0.01131054200232029
5632.0,-0.002317975740879774
6144.0,-0.0013628542656078935
6656.0,0.0003841873840428889
7168.0,0.00141221156809479
7680.0,-0.007327770348638296
8192.0,0.005734523758292198
end
