version,3.0
numOfCh,1
type,point
parent_name,19e3e_0dot2-0dot1
ch_type,1_1
kcount,1
numberNandB,1
brightnessNandB,1
carpet pos,0
pc,0
Time (ms),CH1 Auto-Correlation
1.0,0.05879256874322891
2.0,0.05767271667718887
3.0,0.05659686401486397
4.0,0.05556155741214752
5.0,0.05454212799668312
6.0,0.053567130118608475
7.0,0.05263133347034454
8.0,0.05170142650604248
9.0,0.050801098346710205
10.0,0.049966804683208466
11.0,0.04914866015315056
12.0,0.04834914952516556
13.0,0.047576550394296646
14.0,0.046806830912828445
15.0,0.04607117921113968
16.0,0.045328229665756226
18.0,0.04386278614401817
20.0,0.04242862015962601
22.0,0.041144419461488724
24.0,0.03997308388352394
26.0,0.03884704038500786
28.0,0.03777429088950157
30.0,0.03675083816051483
32.0,0.03574347496032715
36.0,0.0338120274245739
40.0,0.031881287693977356
44.0,0.030011925846338272
48.0,0.028061071410775185
52.0,0.026181381195783615
56.0,0.024512771517038345
60.0,0.023078231140971184
64.0,0.0219587329775095
72.0,0.020372705534100533
80.0,0.019119227305054665
88.0,0.01792648807168007
96.0,0.016667449846863747
104.0,0.0158549714833498
112.0,0.01502333115786314
120.0,0.014377574436366558
128.0,0.0136850755661726
144.0,0.01129801757633686
160.0,0.009467766620218754
176.0,0.0074181086383759975
192.0,0.005973161663860083
208.0,0.005588609259575605
224.0,0.005264143459498882
240.0,0.005723017267882824
256.0,0.005789049901068211
288.0,0.005341807845979929
320.0,0.00521026412025094
352.0,0.006377761717885733
384.0,0.00796031579375267
416.0,0.007081637624651194
448.0,0.005642097443342209
480.0,0.0034725184086710215
512.0,-0.00029735174030065536
576.0,-0.0018614563159644604
640.0,-0.0033929087221622467
704.0,-0.002277387771755457
768.0,-0.000877797428984195
832.0,-0.0007439951878041029
896.0,-0.0012330509489402175
960.0,-0.00013725580356549472
1024.0,-0.0008278065943159163
1152.0,0.004295364487916231
1280.0,0.0049793049693107605
1408.0,-0.0018761983374133706
1536.0,-0.004030765034258366
1664.0,-0.0006024317699484527
1792.0,-0.004932318814098835
1920.0,-0.009600880555808544
2048.0,-0.008577829226851463
2304.0,-0.0014892119215801358
2560.0,-0.004496791400015354
2816.0,-0.004109570756554604
3072.0,-0.006889781448990107
3328.0,-0.0024285095278173685
3584.0,-0.005073048174381256
3840.0,-0.0028538538608700037
4096.0,-0.0043012225069105625
4608.0,0.0016451599076390266
5120.0,0.0008756648749113083
5632.0,0.004510550294071436
6144.0,0.004155317321419716
6656.0,0.002749035833403468
7168.0,0.0012531885877251625
7680.0,-0.0031209387816488743
8192.0,-0.0021184803918004036
end
