version,3.0
numOfCh,1
type,point
parent_name,19e3e_0dot2-0dot1
ch_type,1_1
kcount,1
numberNandB,1
brightnessNandB,1
carpet pos,0
pc,0
Time (ms),CH1 Auto-Correlation
1.0,0.05796919763088226
2.0,0.05645031854510307
3.0,0.054938483983278275
4.0,0.05358349531888962
5.0,0.05231231078505516
6.0,0.05113060772418976
7.0,0.050058163702487946
8.0,0.04908950626850128
9.0,0.048133064061403275
10.0,0.04715464636683464
11.0,0.046218130737543106
12.0,0.04526805132627487
13.0,0.04428144171833992
14.0,0.04332723841071129
15.0,0.042358893901109695
16.0,0.041440945118665695
18.0,0.03980370610952377
20.0,0.038240134716033936
22.0,0.03679123893380165
24.0,0.035430993884801865
26.0,0.034121572971343994
28.0,0.032921865582466125
30.0,0.03170274570584297
32.0,0.0303886067122221
36.0,0.027776217088103294
40.0,0.025499070063233376
44.0,0.023374265059828758
48.0,0.021256035193800926
52.0,0.019401276484131813
56.0,0.018126755952835083
60.0,0.017164580523967743
64.0,0.016123970970511436
72.0,0.014075880870223045
80.0,0.011970223858952522
88.0,0.01069267001003027
96.0,0.009508708491921425
104.0,0.008340727537870407
112.0,0.007937711663544178
120.0,0.0076827541925013065
128.0,0.006978435441851616
144.0,0.004956586752086878
160.0,0.0023147461470216513
176.0,-0.00039802916580811143
192.0,-0.0032586813904345036
208.0,-0.004162628203630447
224.0,-0.004286383744329214
240.0,-0.003765335539355874
256.0,-0.003344298806041479
288.0,-0.002384356688708067
320.0,-0.0035899807699024677
352.0,-0.0038274461403489113
384.0,-0.0009365117875859141
416.0,0.0033617988228797913
448.0,0.005631080362945795
480.0,0.006346054840832949
512.0,0.004038179758936167
576.0,-0.0016412908444181085
640.0,-0.0028997519984841347
704.0,-0.0025949699338525534
768.0,-0.002866854425519705
832.0,-0.0024321158416569233
896.0,-0.004355553071945906
960.0,-0.0035239793360233307
1024.0,-0.003969121258705854
1152.0,0.0021879062987864017
1280.0,0.0019192921463400126
1408.0,-0.001275068847462535
1536.0,-0.003801279002800584
1664.0,-0.00019519026682246476
1792.0,-0.004488114267587662
1920.0,-0.0023556421510875225
2048.0,-0.0009293388575315475
2304.0,0.0033130766823887825
2560.0,-0.0020735645666718483
2816.0,0.0026965353172272444
3072.0,-0.002308440627530217
3328.0,0.0020306657534092665
3584.0,0.0026903338730335236
3840.0,-0.005526403896510601
4096.0,-0.004990219604223967
4608.0,0.00035777079756371677
5120.0,-0.0010533554013818502
5632.0,-0.0019056013552471995
6144.0,-0.0017968325410038233
6656.0,0.00030942459125071764
7168.0,0.003594332141801715
7680.0,-0.0008403283427469432
8192.0,0.006084650754928589
end
