version,3.0
numOfCh,1
type,point
parent_name,19e3e_0dot2-0dot1
ch_type,1_1
kcount,1
numberNandB,1
brightnessNandB,1
carpet pos,0
pc,0
Time (ms),CH1 Auto-Correlation
1.0,0.07520125806331635
2.0,0.07392596453428268
3.0,0.07271913439035416
4.0,0.07158201932907104
5.0,0.07044925540685654
6.0,0.06934540718793869
7.0,0.06829927116632462
8.0,0.0672970861196518
9.0,0.06634136289358139
10.0,0.06543505191802979
11.0,0.0645284429192543
12.0,0.06365492194890976
13.0,0.0628318190574646
14.0,0.06205957382917404
15.0,0.061333123594522476
16.0,0.06059965491294861
18.0,0.05916507542133331
20.0,0.05777175351977348
22.0,0.056382857263088226
24.0,0.055042825639247894
26.0,0.053692787885665894
28.0,0.052513182163238525
30.0,0.05142853409051895
32.0,0.050314005464315414
36.0,0.048131976276636124
40.0,0.04609327390789986
44.0,0.044244635850191116
48.0,0.04249786585569382
52.0,0.040808793157339096
56.0,0.03907820209860802
60.0,0.03728236258029938
64.0,0.03566329553723335
72.0,0.03311041370034218
80.0,0.03108806535601616
88.0,0.029369855299592018
96.0,0.027492698282003403
104.0,0.025706805288791656
112.0,0.02411670796573162
120.0,0.02286178059875965
128.0,0.022022221237421036
144.0,0.020996784791350365
160.0,0.020177440717816353
176.0,0.018809836357831955
192.0,0.017246771603822708
208.0,0.01643286645412445
224.0,0.016349181532859802
240.0,0.017588995397090912
256.0,0.018823033198714256
288.0,0.018356574699282646
320.0,0.017072457820177078
352.0,0.013911822810769081
384.0,0.01133468933403492
416.0,0.010863333940505981
448.0,0.009752173908054829
480.0,0.008645955473184586
512.0,0.009083817712962627
576.0,0.012522095814347267
640.0,0.01039001252502203
704.0,0.005028374493122101
768.0,0.0023530456237494946
832.0,0.0038111095782369375
896.0,0.005922875367105007
960.0,0.004407273605465889
1024.0,0.0037953678984194994
1152.0,0.0017719644820317626
1280.0,0.00013923190999776125
1408.0,-9.584266081219539e-05
1536.0,-0.0004749863874167204
1664.0,-0.004193673841655254
1792.0,0.0007880462799221277
1920.0,-0.0015794119099155068
2048.0,-0.0004077958292327821
2304.0,0.0021172368433326483
2560.0,0.009643282741308212
2816.0,0.007694736123085022
3072.0,0.00895046629011631
3328.0,0.0011908754240721464
3584.0,-0.005773275624960661
3840.0,-0.012696661986410618
4096.0,-0.012745101936161518
4608.0,-0.011958605609834194
5120.0,-0.008718130178749561
5632.0,-0.0001670650817686692
6144.0,-0.0016997943166643381
6656.0,-0.013034786097705364
7168.0,-0.013275133445858955
7680.0,-0.005080857314169407
8192.0,0.0064972746185958385
end
