version,3.0
numOfCh,1
type,point
parent_name,19e3e_0dot2-0dot1
ch_type,1_1
kcount,1
numberNandB,1
brightnessNandB,1
carpet pos,0
pc,0
Time (ms),CH1 Auto-Correlation
1.0,0.055493585765361786
2.0,0.05427080765366554
3.0,0.05306730791926384
4.0,0.051917195320129395
5.0,0.05084000527858734
6.0,0.04979522526264191
7.0,0.04880167916417122
8.0,0.0478491447865963
9.0,0.046889204531908035
10.0,0.04594726115465164
11.0,0.04500818997621536
12.0,0.04410671442747116
13.0,0.043246928602457047
14.0,0.042417220771312714
15.0,0.04162231832742691
16.0,0.04084419086575508
18.0,0.039378680288791656
20.0,0.03795652091503143
22.0,0.03660045191645622
24.0,0.035326749086380005
26.0,0.034178633242845535
28.0,0.03303847461938858
30.0,0.03194558247923851
32.0,0.030879108235239983
36.0,0.028958037495613098
40.0,0.02741468884050846
44.0,0.026100492104887962
48.0,0.024930724874138832
52.0,0.023832662031054497
56.0,0.022660233080387115
60.0,0.021530117839574814
64.0,0.020377693697810173
72.0,0.018263788893818855
80.0,0.01636343076825142
88.0,0.015043754130601883
96.0,0.01398836076259613
104.0,0.01266409270465374
112.0,0.011131606064736843
120.0,0.009483495727181435
128.0,0.008042152971029282
144.0,0.00703854626044631
160.0,0.007108669262379408
176.0,0.00779491662979126
192.0,0.007403023075312376
208.0,0.006668309681117535
224.0,0.006369845476001501
240.0,0.006102710962295532
256.0,0.006363566964864731
288.0,0.008648952469229698
320.0,0.007614970672875643
352.0,0.0056356522254645824
384.0,0.0036905393935739994
416.0,0.0030700943898409605
448.0,0.002198032569140196
480.0,0.0016122881788760424
512.0,0.0018805398140102625
576.0,0.0025136726908385754
640.0,0.004092065617442131
704.0,0.0031619612127542496
768.0,0.00011854559852508828
832.0,0.002871081465855241
896.0,0.00488902535289526
960.0,0.0034656799398362637
1024.0,0.002046108478680253
1152.0,0.0009923496982082725
1280.0,0.0016054625157266855
1408.0,-0.0027938548009842634
1536.0,0.004992688074707985
1664.0,0.002355062635615468
1792.0,0.0003343191056046635
1920.0,0.0019132605521008372
2048.0,-0.0022236702498048544
2304.0,0.00016415065329056233
2560.0,0.0030653972644358873
2816.0,0.0007882759091444314
3072.0,-0.0027448665350675583
3328.0,-0.0029870711732655764
3584.0,-0.0006255221087485552
3840.0,-0.004489903338253498
4096.0,-0.003914769738912582
4608.0,-0.000186105229659006
5120.0,-0.002541427733376622
5632.0,-0.003574643051251769
6144.0,-0.005310902372002602
6656.0,-0.005022704601287842
7168.0,-0.004748827312141657
7680.0,-0.0033157288562506437
8192.0,-0.0007725637406110764
end
