version,3.0
numOfCh,1
type,point
parent_name,19e3e_0dot2-0dot1
ch_type,1_1
kcount,1
numberNandB,1
brightnessNandB,1
carpet pos,0
pc,0
Time (ms),CH1 Auto-Correlation
1.0,0.07644519209861755
2.0,0.07522068917751312
3.0,0.07406658679246902
4.0,0.0729219913482666
5.0,0.07182657718658447
6.0,0.07083167135715485
7.0,0.0698670968413353
8.0,0.06894383579492569
9.0,0.0680263340473175
10.0,0.06709001958370209
11.0,0.06621676683425903
12.0,0.06536693125963211
13.0,0.06455108523368835
14.0,0.06376547366380692
15.0,0.06300430744886398
16.0,0.06224995106458664
18.0,0.0608232319355011
20.0,0.059423867613077164
22.0,0.058075737208127975
24.0,0.05682738870382309
26.0,0.055677082389593124
28.0,0.054547764360904694
30.0,0.05348597466945648
32.0,0.05252749100327492
36.0,0.05073796585202217
40.0,0.048960499465465546
44.0,0.04722844064235687
48.0,0.045795947313308716
52.0,0.04438147321343422
56.0,0.04293458163738251
60.0,0.04163086786866188
64.0,0.04026476666331291
72.0,0.03765314072370529
80.0,0.03576914593577385
88.0,0.03424781560897827
96.0,0.032638080418109894
104.0,0.030988169834017754
112.0,0.029519658535718918
120.0,0.02856355346739292
128.0,0.02827267535030842
144.0,0.0280979685485363
160.0,0.027885550633072853
176.0,0.026330027729272842
192.0,0.024361513555049896
208.0,0.022437380626797676
224.0,0.020154321566224098
240.0,0.017980387434363365
256.0,0.016802635043859482
288.0,0.013854882679879665
320.0,0.010595222935080528
352.0,0.00858756247907877
384.0,0.005925280507653952
416.0,0.0032283510081470013
448.0,0.0007110649603419006
480.0,-0.001221679849550128
512.0,-0.0009569638059474528
576.0,0.0015377071686089039
640.0,0.002997174859046936
704.0,6.565514195244759e-05
768.0,-0.002564789494499564
832.0,0.000996183487586677
896.0,0.0022352393716573715
960.0,0.0007138182991184294
1024.0,0.00013143927208147943
1152.0,-0.0026614039670675993
1280.0,-0.004031056072562933
1408.0,-0.00915028527379036
1536.0,-0.015597056597471237
1664.0,-0.017568303272128105
1792.0,-0.013622340746223927
1920.0,-0.011378769762814045
2048.0,-0.008464002050459385
2304.0,-0.011622768826782703
2560.0,-0.01215873658657074
2816.0,-0.005037116818130016
3072.0,0.00041857283213175833
3328.0,0.008745628409087658
3584.0,0.007653460372239351
3840.0,0.008705439046025276
4096.0,0.018210100010037422
4608.0,0.010215207934379578
5120.0,-0.0019146330887451768
5632.0,-0.006008141208440065
6144.0,-0.022853480651974678
6656.0,-0.0012899343855679035
7168.0,-0.005584933795034885
7680.0,0.004223285708576441
8192.0,0.014910641126334667
end
