version,3.0
numOfCh,1
type,point
parent_name,19e3e_0dot2-0dot1
ch_type,1_1
kcount,1
numberNandB,1
brightnessNandB,1
carpet pos,0
pc,0
Time (ms),CH1 Auto-Correlation
1.0,0.06076826527714729
2.0,0.05951729416847229
3.0,0.05828933045268059
4.0,0.05712646618485451
5.0,0.05602285638451576
6.0,0.05496275797486305
7.0,0.05395616218447685
8.0,0.052980002015829086
9.0,0.052031174302101135
10.0,0.051108986139297485
11.0,0.05022186413407326
12.0,0.04938499629497528
13.0,0.0486023835837841
14.0,0.04787827655673027
15.0,0.04719884321093559
16.0,0.04654543474316597
18.0,0.04532383754849434
20.0,0.044147100299596786
22.0,0.04303526133298874
24.0,0.04204186424612999
26.0,0.04105721414089203
28.0,0.040104664862155914
30.0,0.03922245278954506
32.0,0.038442421704530716
36.0,0.03687356412410736
40.0,0.03533756360411644
44.0,0.03369280323386192
48.0,0.0322580486536026
52.0,0.03082820028066635
56.0,0.029480352997779846
60.0,0.02810998447239399
64.0,0.026758316904306412
72.0,0.024502726271748543
80.0,0.022617245092988014
88.0,0.021536823362112045
96.0,0.02098212018609047
104.0,0.01976260170340538
112.0,0.01808563433587551
120.0,0.0168757364153862
128.0,0.016531266272068024
144.0,0.016148766502738
160.0,0.016128893941640854
176.0,0.016335811465978622
192.0,0.016834845766425133
208.0,0.017386136576533318
224.0,0.016545409336686134
240.0,0.015185385942459106
256.0,0.013119228184223175
288.0,0.009785428643226624
320.0,0.0076029011979699135
352.0,0.006536048371344805
384.0,0.0074613275937736034
416.0,0.01041623204946518
448.0,0.01190343126654625
480.0,0.010205795057117939
512.0,0.006685183383524418
576.0,0.00595037592574954
640.0,0.004643608350306749
704.0,0.0017669264925643802
768.0,-0.0024588729720562696
832.0,-0.002728563966229558
896.0,-0.0047066351398825645
960.0,-0.00704575888812542
1024.0,-0.007956244051456451
1152.0,-0.009393267333507538
1280.0,-0.005425633862614632
1408.0,-0.00523748155683279
1536.0,-0.005447957664728165
1664.0,-0.0013076949398964643
1792.0,0.0038567937444895506
1920.0,0.007369977422058582
2048.0,0.008778815157711506
2304.0,0.010109908878803253
2560.0,0.00165330502204597
2816.0,-0.004091447219252586
3072.0,-0.01010102964937687
3328.0,-0.015720121562480927
3584.0,-0.014858479611575603
3840.0,-0.012826080434024334
4096.0,-0.0014792693546041846
4608.0,-0.002655712189152837
5120.0,-0.0034465184435248375
5632.0,-0.005307021085172892
6144.0,0.0035108542069792747
6656.0,0.01016507763415575
7168.0,0.008133391849696636
7680.0,0.0007299702847376466
8192.0,0.006527814548462629
end
