version,3.0
numOfCh,1
type,point
parent_name,19e3e_0dot2-0dot1
ch_type,1_1
kcount,1
numberNandB,1
brightnessNandB,1
carpet pos,0
pc,0
Time (ms),CH1 Auto-Correlation
1.0,0.05992429703474045
2.0,0.05861075222492218
3.0,0.05732601135969162
4.0,0.05609918758273125
5.0,0.054976727813482285
6.0,0.05392201617360115
7.0,0.052915070205926895
8.0,0.05195005610585213
9.0,0.05103695020079613
10.0,0.05016076937317848
11.0,0.04929344728589058
12.0,0.04846932739019394
13.0,0.047654904425144196
14.0,0.046878255903720856
15.0,0.04610373452305794
16.0,0.045342106372117996
18.0,0.04388429969549179
20.0,0.04242349788546562
22.0,0.04100606217980385
24.0,0.03956267982721329
26.0,0.0382254496216774
28.0,0.03702273219823837
30.0,0.03583429008722305
32.0,0.03467467799782753
36.0,0.032524462789297104
40.0,0.030666271224617958
44.0,0.029007654637098312
48.0,0.02743661403656006
52.0,0.02584279142320156
56.0,0.02430453523993492
60.0,0.02286459505558014
64.0,0.02162986248731613
72.0,0.0192488431930542
80.0,0.017012499272823334
88.0,0.015430549159646034
96.0,0.01402401551604271
104.0,0.012916941195726395
112.0,0.012220206670463085
120.0,0.011130908504128456
128.0,0.010129028931260109
144.0,0.008794362656772137
160.0,0.00863130297511816
176.0,0.007943030446767807
192.0,0.007709205616265535
208.0,0.007876606658101082
224.0,0.007527297828346491
240.0,0.007367960177361965
256.0,0.007502331398427486
288.0,0.006084352266043425
320.0,0.0022015839349478483
352.0,-0.0006272020982578397
384.0,-0.003015811089426279
416.0,-0.003705954644829035
448.0,-0.0028171653393656015
480.0,-0.0016485959058627486
512.0,-0.0026948389131575823
576.0,0.0018550555687397718
640.0,0.005684728268533945
704.0,0.0008502925629727542
768.0,-0.0008188445935957134
832.0,0.00282071391120553
896.0,0.003655211301520467
960.0,0.0005852771573700011
1024.0,-0.001499565434642136
1152.0,0.00327688897959888
1280.0,0.0036760480143129826
1408.0,0.007740186993032694
1536.0,0.0051180399022996426
1664.0,-0.00037644203985109925
1792.0,-0.0033180902246385813
1920.0,-0.004138707183301449
2048.0,-0.0038242300506681204
2304.0,-0.0036517097614705563
2560.0,-0.0006976908189244568
2816.0,-0.0004798720474354923
3072.0,0.0017260616878047585
3328.0,0.0018441410502418876
3584.0,-0.0038076182827353477
3840.0,0.0009071881650015712
4096.0,0.0015903740422800183
4608.0,0.003343099495396018
5120.0,-0.0018823827849701047
5632.0,0.0031754060182720423
6144.0,-0.007811218965798616
6656.0,-0.004997157026082277
7168.0,-0.0027061812579631805
7680.0,-0.007757403887808323
8192.0,-0.000860852946061641
end
