version,3.0
numOfCh,1
type,point
parent_name,19e3e_0dot2-0dot1
ch_type,1_1
kcount,1
numberNandB,1
brightnessNandB,1
carpet pos,0
pc,0
Time (ms),CH1 Auto-Correlation
1.0,0.07217178493738174
2.0,0.07084700465202332
3.0,0.06960082799196243
4.0,0.06839973479509354
5.0,0.06729579716920853
6.0,0.0662231519818306
7.0,0.0651768371462822
8.0,0.06418139487504959
9.0,0.06322721391916275
10.0,0.062293365597724915
11.0,0.06137702241539955
12.0,0.060513418167829514
13.0,0.05966952070593834
14.0,0.05883349850773811
15.0,0.05797918513417244
16.0,0.05718573182821274
18.0,0.05567989870905876
20.0,0.05429481342434883
22.0,0.05304862558841705
24.0,0.05185458064079285
26.0,0.050736065953969955
28.0,0.04965142905712128
30.0,0.048529356718063354
32.0,0.047459088265895844
36.0,0.045452989637851715
40.0,0.043468400835990906
44.0,0.04169038310647011
48.0,0.04003419354557991
52.0,0.03848102688789368
56.0,0.037047501653432846
60.0,0.03576508164405823
64.0,0.03466789424419403
72.0,0.03256557136774063
80.0,0.030385946854948997
88.0,0.028432514518499374
96.0,0.026462899520993233
104.0,0.02467835508286953
112.0,0.02319202572107315
120.0,0.021588416770100594
128.0,0.01991722732782364
144.0,0.01782045140862465
160.0,0.016116861253976822
176.0,0.015013710595667362
192.0,0.014089450240135193
208.0,0.013950579799711704
224.0,0.013652426190674305
240.0,0.013860124163329601
256.0,0.013906246051192284
288.0,0.01421305350959301
320.0,0.014770631678402424
352.0,0.014552085660398006
384.0,0.012961361557245255
416.0,0.011914706788957119
448.0,0.01083680335432291
480.0,0.008786511607468128
512.0,0.0065903267823159695
576.0,0.005662316456437111
640.0,0.0072288899682462215
704.0,0.005966620519757271
768.0,0.0053819878958165646
832.0,0.0006312223267741501
896.0,0.001282936311326921
960.0,-0.0029852543957531452
1024.0,-0.0060251024551689625
1152.0,-0.008218822069466114
1280.0,-0.008015512488782406
1408.0,-0.007616986520588398
1536.0,-0.011555462144315243
1664.0,-0.006012091413140297
1792.0,-0.00595098314806819
1920.0,-0.011225088499486446
2048.0,-0.00912428181618452
2304.0,-0.004949800204485655
2560.0,-0.0037338302936404943
2816.0,-0.0048946174792945385
3072.0,-0.0038553429767489433
3328.0,-0.004330803640186787
3584.0,-0.004040960688143969
3840.0,0.0032529074233025312
4096.0,0.0066794767044484615
4608.0,0.004348326474428177
5120.0,0.0030848791357129812
5632.0,0.0022401667665690184
6144.0,0.005721094086766243
6656.0,0.00025304785231128335
7168.0,-0.012543084099888802
7680.0,-0.014572059735655785
8192.0,-0.012879123911261559
end
