version,3.0
numOfCh,1
type,point
parent_name,19e3e_0dot2-0dot1
ch_type,1_1
kcount,1
numberNandB,1
brightnessNandB,1
carpet pos,0
pc,0
Time (ms),CH1 Auto-Correlation
1.0,0.06427134573459625
2.0,0.06293138861656189
3.0,0.06164205074310303
4.0,0.060428082942962646
5.0,0.05927238613367081
6.0,0.0581650584936142
7.0,0.057093020528554916
8.0,0.05604517459869385
9.0,0.05504314973950386
10.0,0.05413389205932617
11.0,0.05323309078812599
12.0,0.05237872526049614
13.0,0.05155215039849281
14.0,0.050763025879859924
15.0,0.04997671768069267
16.0,0.04920905828475952
18.0,0.047725576907396317
20.0,0.04633014276623726
22.0,0.04494956135749817
24.0,0.043686795979738235
26.0,0.042525775730609894
28.0,0.04142608121037483
30.0,0.04036039859056473
32.0,0.03930822014808655
36.0,0.03735708072781563
40.0,0.035530757158994675
44.0,0.03395206481218338
48.0,0.03249184787273407
52.0,0.031373701989650726
56.0,0.030529510229825974
60.0,0.029680315405130386
64.0,0.029050853103399277
72.0,0.02741609886288643
80.0,0.025476496666669846
88.0,0.023997420445084572
96.0,0.022479481995105743
104.0,0.021267855539917946
112.0,0.02029455453157425
120.0,0.019541246816515923
128.0,0.018969980999827385
144.0,0.0184805728495121
160.0,0.017045073211193085
176.0,0.014625062234699726
192.0,0.013457280583679676
208.0,0.012990397401154041
224.0,0.012942570261657238
240.0,0.013288313522934914
256.0,0.012731076218187809
288.0,0.012339445762336254
320.0,0.01103441696614027
352.0,0.0074407802894711494
384.0,0.004901177249848843
416.0,0.0046488260850310326
448.0,0.003294941270723939
480.0,0.002787633566185832
512.0,0.0034314640797674656
576.0,0.004631491377949715
640.0,0.002450334606692195
704.0,0.0008030427270568907
768.0,0.0013644775608554482
832.0,-0.0010379933519288898
896.0,0.00027945247711613774
960.0,-0.003750956617295742
1024.0,-0.008503753691911697
1152.0,-0.005598254501819611
1280.0,0.001371307997033
1408.0,0.0007216601516120136
1536.0,0.0006411612266674638
1664.0,-0.0047523207031190395
1792.0,-0.006085834465920925
1920.0,-0.004800654016435146
2048.0,-0.008235413581132889
2304.0,-0.00425810506567359
2560.0,-0.0011195351835340261
2816.0,0.002538425615057349
3072.0,0.007024614606052637
3328.0,0.005015731789171696
3584.0,0.0012032219674438238
3840.0,0.0014028953155502677
4096.0,0.0009799824329093099
4608.0,0.003263610415160656
5120.0,-0.009797698818147182
5632.0,-0.005304460413753986
6144.0,0.006977660581469536
6656.0,-0.004755646456032991
7168.0,-0.009696893393993378
7680.0,0.0036930800415575504
8192.0,-0.006762384437024593
end
