version,3.0
numOfCh,1
type,point
parent_name,19e3e_0dot2-0dot1
ch_type,1_1
kcount,1
numberNandB,1
brightnessNandB,1
carpet pos,0
pc,0
Time (ms),CH1 Auto-Correlation
1.0,0.07046335190534592
2.0,0.0687372088432312
3.0,0.06717988848686218
4.0,0.06579381227493286
5.0,0.06441634893417358
6.0,0.06307407468557358
7.0,0.06182967126369476
8.0,0.060607828199863434
9.0,0.059492260217666626
10.0,0.05836796388030052
11.0,0.057227324694395065
12.0,0.05611908435821533
13.0,0.05509979650378227
14.0,0.0540967620909214
15.0,0.05317524075508118
16.0,0.052287839353084564
18.0,0.050564609467983246
20.0,0.0489090234041214
22.0,0.0473671555519104
24.0,0.045941054821014404
26.0,0.04467036575078964
28.0,0.043355636298656464
30.0,0.04215890169143677
32.0,0.04102720320224762
36.0,0.0387687049806118
40.0,0.03671456500887871
44.0,0.03481912985444069
48.0,0.032905567437410355
52.0,0.030857957899570465
56.0,0.028932413086295128
60.0,0.02711763046681881
64.0,0.02558722347021103
72.0,0.022660864517092705
80.0,0.019680220633745193
88.0,0.01657566986978054
96.0,0.014024563133716583
104.0,0.011990455910563469
112.0,0.01099322084337473
120.0,0.010009774006903172
128.0,0.008406966924667358
144.0,0.005064381752163172
160.0,0.002922252519056201
176.0,0.001727034687064588
192.0,0.001479392172768712
208.0,0.002692850772291422
224.0,0.003728598589077592
240.0,0.00452142721042037
256.0,0.005594226066023111
288.0,0.004415661096572876
320.0,0.0027731629088521004
352.0,0.0018264295067638159
384.0,0.0013930897694081068
416.0,0.003995900042355061
448.0,0.004873971920460463
480.0,0.008187487721443176
512.0,0.009861755184829235
576.0,0.008489217609167099
640.0,0.006407755892723799
704.0,-0.0010055365273728967
768.0,-0.006649065762758255
832.0,-0.008337019011378288
896.0,-0.002710178727284074
960.0,-0.0016428573289886117
1024.0,-0.005304346326738596
1152.0,-0.001965396339073777
1280.0,-0.007773990742862225
1408.0,-0.005499089602380991
1536.0,-0.004918394144624472
1664.0,-0.007926702499389648
1792.0,-0.010054444894194603
1920.0,-0.013153263367712498
2048.0,-0.004612395074218512
2304.0,-0.0031849448569118977
2560.0,-0.0006583586800843477
2816.0,0.005841783247888088
3072.0,0.0034237788058817387
3328.0,0.007336061913520098
3584.0,0.0012032883241772652
3840.0,0.001751512405462563
4096.0,-0.004257990047335625
4608.0,-0.0027672438882291317
5120.0,-0.0030311618465930223
5632.0,0.00023707447689957917
6144.0,0.003601495176553726
6656.0,0.0007638153620064259
7168.0,0.00261271302588284
7680.0,-0.0056668915785849094
8192.0,0.00022007257211953402
end
