version,3.0
numOfCh,1
type,point
parent_name,19e3e_0dot2-0dot1
ch_type,1_1
kcount,1
numberNandB,1
brightnessNandB,1
carpet pos,0
pc,0
Time (ms),CH1 Auto-Correlation
1.0,0.07344581931829453
2.0,0.0720570832490921
3.0,0.07066740095615387
4.0,0.0694013386964798
5.0,0.06817246228456497
6.0,0.06700919568538666
7.0,0.06584764271974564
8.0,0.06472243368625641
9.0,0.06362853944301605
10.0,0.06261316686868668
11.0,0.061645280569791794
12.0,0.06073953956365585
13.0,0.059829868376255035
14.0,0.058983586728572845
15.0,0.058123983442783356
16.0,0.05729448050260544
18.0,0.05560754984617233
20.0,0.05395131930708885
22.0,0.05247872322797775
24.0,0.05107463523745537
26.0,0.04966875538229942
28.0,0.04837031662464142
30.0,0.04712353274226189
32.0,0.04588110372424126
36.0,0.04350394010543823
40.0,0.041573479771614075
44.0,0.039944592863321304
48.0,0.038325849920511246
52.0,0.036662500351667404
56.0,0.03520689532160759
60.0,0.03415010869503021
64.0,0.03315218538045883
72.0,0.03159591555595398
80.0,0.029727134853601456
88.0,0.027923567220568657
96.0,0.026598535478115082
104.0,0.02510569617152214
112.0,0.02375216782093048
120.0,0.023030241951346397
128.0,0.022414399310946465
144.0,0.021069219335913658
160.0,0.02063748985528946
176.0,0.01935543492436409
192.0,0.01796509325504303
208.0,0.015870774164795876
224.0,0.013489381410181522
240.0,0.011850408278405666
256.0,0.010326560586690903
288.0,0.00697777746245265
320.0,0.0031786879990249872
352.0,-0.00036513892700895667
384.0,-0.004403998609632254
416.0,-0.0058166286908090115
448.0,-0.005768160801380873
480.0,-0.007479483727365732
512.0,-0.010919773019850254
576.0,-0.013927406631410122
640.0,-0.012399070896208286
704.0,-0.012543290853500366
768.0,-0.011721932329237461
832.0,-0.007987785153090954
896.0,-0.0035667559131979942
960.0,-0.00188626314047724
1024.0,0.0028811353258788586
1152.0,0.00524558499455452
1280.0,0.001831666799262166
1408.0,-0.004015106707811356
1536.0,-0.005763866938650608
1664.0,-0.005137476604431868
1792.0,-0.0016839092131704092
1920.0,0.0008405486587435007
2048.0,0.0018892036750912666
2304.0,-0.0032039321959018707
2560.0,-0.0021259114146232605
2816.0,0.00021174480207264423
3072.0,0.0006794981309212744
3328.0,-0.0061106374487280846
3584.0,-0.00496872141957283
3840.0,0.002420863602310419
4096.0,0.0033934330567717552
4608.0,-0.005528904497623444
5120.0,0.0022534586023539305
5632.0,0.009732615202665329
6144.0,0.0027666541282087564
6656.0,0.0008105429005809128
7168.0,-0.004995908122509718
7680.0,-0.011882026679813862
8192.0,0.013810422271490097
end
