version,3.0
numOfCh,1
type,point
parent_name,19e3e_0dot2-0dot1
ch_type,1_1
kcount,1
numberNandB,1
brightnessNandB,1
carpet pos,0
pc,0
Time (ms),CH1 Auto-Correlation
1.0,0.07047462463378906
2.0,0.0690738633275032
3.0,0.06777635216712952
4.0,0.06650714576244354
5.0,0.06538277119398117
6.0,0.06432183086872101
7.0,0.06334801018238068
8.0,0.06234729290008545
9.0,0.06135641410946846
10.0,0.060360219329595566
11.0,0.0594133585691452
12.0,0.058521199971437454
13.0,0.05761904641985893
14.0,0.05673464760184288
15.0,0.055902380496263504
16.0,0.05506255477666855
18.0,0.05344541370868683
20.0,0.051937296986579895
22.0,0.05056443437933922
24.0,0.049236539751291275
26.0,0.047936227172613144
28.0,0.04667055606842041
30.0,0.04545154795050621
32.0,0.04432004317641258
36.0,0.042318955063819885
40.0,0.04018929600715637
44.0,0.03810981661081314
48.0,0.03603691980242729
52.0,0.034002527594566345
56.0,0.03206152841448784
60.0,0.030345531180500984
64.0,0.028612161055207253
72.0,0.025458548218011856
80.0,0.022861197590827942
88.0,0.020105673000216484
96.0,0.017658168449997902
104.0,0.016128389164805412
112.0,0.014925564639270306
120.0,0.01425967551767826
128.0,0.013796739280223846
144.0,0.012721813283860683
160.0,0.011816191487014294
176.0,0.010843053460121155
192.0,0.010003126226365566
208.0,0.008273852989077568
224.0,0.0064921206794679165
240.0,0.0046394518576562405
256.0,0.0037038649898022413
288.0,0.0022591743618249893
320.0,0.0014396986225619912
352.0,-0.0014331107959151268
384.0,-0.004285112023353577
416.0,-0.00539940781891346
448.0,-0.004957962781190872
480.0,-0.0031644259579479694
512.0,-0.0015573363052681088
576.0,-0.0009213618468493223
640.0,0.002412517787888646
704.0,0.0031348245684057474
768.0,-0.000559364736545831
832.0,-0.00298309326171875
896.0,-0.0011506088776513934
960.0,-0.0010436674347147346
1024.0,-0.0005227902438491583
1152.0,0.0016577928327023983
1280.0,-0.0028727089520543814
1408.0,-0.002683864440768957
1536.0,0.0017970538465306163
1664.0,0.0018392903730273247
1792.0,0.002187492558732629
1920.0,0.0012798139359802008
2048.0,0.0021939913276582956
2304.0,-0.004114136565476656
2560.0,-0.0064299218356609344
2816.0,0.006617753300815821
3072.0,0.008600511588156223
3328.0,-0.002368713729083538
3584.0,-0.0057550519704818726
3840.0,-0.008142963983118534
4096.0,-0.004725734703242779
4608.0,0.00076950469519943
5120.0,0.0034103039652109146
5632.0,-0.0017020467203110456
6144.0,-0.002018416067585349
6656.0,0.00163664307910949
7168.0,0.0027832994237542152
7680.0,0.006631882395595312
8192.0,0.0014807295519858599
end
