version,3.0
numOfCh,1
type,point
parent_name,19e3e_0dot2-0dot1
ch_type,1_1
kcount,1
numberNandB,1
brightnessNandB,1
carpet pos,0
pc,0
Time (ms),CH1 Auto-Correlation
1.0,0.05281105265021324
2.0,0.05145106464624405
3.0,0.0501275360584259
4.0,0.04883194714784622
5.0,0.047631364315748215
6.0,0.04649006202816963
7.0,0.04539426416158676
8.0,0.044393766671419144
9.0,0.043387848883867264
10.0,0.04238763824105263
11.0,0.041427940130233765
12.0,0.04045768827199936
13.0,0.03949473798274994
14.0,0.03854059800505638
15.0,0.03762027248740196
16.0,0.03677179664373398
18.0,0.035160187631845474
20.0,0.03365614265203476
22.0,0.032274000346660614
24.0,0.031012162566184998
26.0,0.02983603999018669
28.0,0.02879972569644451
30.0,0.027904490008950233
32.0,0.02709074132144451
36.0,0.02560565620660782
40.0,0.024114031344652176
44.0,0.02273922972381115
48.0,0.021390996873378754
52.0,0.02025122568011284
56.0,0.01933887228369713
60.0,0.01842201128602028
64.0,0.017478637397289276
72.0,0.015864355489611626
80.0,0.014340448193252087
88.0,0.012875915504992008
96.0,0.011714134365320206
104.0,0.010658091865479946
112.0,0.009606247767806053
120.0,0.008685240522027016
128.0,0.0078546442091465
144.0,0.005841272883117199
160.0,0.003643783973529935
176.0,0.0013198755914345384
192.0,6.454448157455772e-05
208.0,0.0002623458276502788
224.0,0.0008662200416438282
240.0,0.0006720543024130166
256.0,-2.973957271024119e-05
288.0,0.00019187234283890575
320.0,0.0002351264702156186
352.0,-0.001027636113576591
384.0,-0.0023571678902953863
416.0,-0.0025433755945414305
448.0,-0.0010799926239997149
480.0,-0.0012336296495050192
512.0,-0.003186449408531189
576.0,-0.0005997361149638891
640.0,-0.0011699431343004107
704.0,-0.0013622652040794492
768.0,0.001161630847491324
832.0,0.001823175116442144
896.0,0.0019130063010379672
960.0,0.0008985143504105508
1024.0,-0.00019801913003902882
1152.0,0.00043066893704235554
1280.0,0.004319286905229092
1408.0,0.005826826673001051
1536.0,0.004819103516638279
1664.0,0.0007499711355194449
1792.0,-0.0045462665148079395
1920.0,-0.004166831728070974
2048.0,0.000897261081263423
2304.0,0.0019439586903899908
2560.0,-0.0011632525129243731
2816.0,-0.0006388805923052132
3072.0,-0.00017513148486614227
3328.0,-0.001258842647075653
3584.0,-0.0004866919480264187
3840.0,0.0008071964839473367
4096.0,-0.0038025910034775734
4608.0,0.002626146888360381
5120.0,-0.0028005598578602076
5632.0,0.0017032563919201493
6144.0,0.000655987358186394
6656.0,-0.000738973671104759
7168.0,0.0015128942904993892
7680.0,-0.0037730049807578325
8192.0,-0.004547280725091696
end
