version,3.0
numOfCh,1
type,point
parent_name,dirty_50dot0-0dot1
ch_type,1_1
kcount,1
numberNandB,1
brightnessNandB,1
carpet pos,0
pc,0
Time (ms),CH1 Auto-Correlation
1.0,0.25876596570014954
2.0,0.2553412616252899
3.0,0.25317877531051636
4.0,0.25106948614120483
5.0,0.2495429366827011
6.0,0.2478242963552475
7.0,0.2459527850151062
8.0,0.2444746494293213
9.0,0.24286794662475586
10.0,0.24160143733024597
11.0,0.24001644551753998
12.0,0.23840074241161346
13.0,0.23709626495838165
14.0,0.23567724227905273
15.0,0.23414063453674316
16.0,0.2326430082321167
18.0,0.23011387884616852
20.0,0.22724002599716187
22.0,0.2242816984653473
24.0,0.22152329981327057
26.0,0.21939252316951752
28.0,0.21717213094234467
30.0,0.21477735042572021
32.0,0.21258355677127838
36.0,0.20804697275161743
40.0,0.20292316377162933
44.0,0.19827565550804138
48.0,0.195211261510849
52.0,0.1920003592967987
56.0,0.18833158910274506
60.0,0.18410073220729828
64.0,0.18053963780403137
72.0,0.1739596426486969
80.0,0.1689503788948059
88.0,0.1640973836183548
96.0,0.15845425426959991
104.0,0.15375570952892303
112.0,0.15011096000671387
120.0,0.1461670696735382
128.0,0.1411590278148651
144.0,0.13376179337501526
160.0,0.12808816134929657
176.0,0.12313752621412277
192.0,0.12143761664628983
208.0,0.11950323730707169
224.0,0.11559884995222092
240.0,0.11544924974441528
256.0,0.11453133821487427
288.0,0.10594388842582703
320.0,0.0905575081706047
352.0,0.07203532755374908
384.0,0.06058921664953232
416.0,0.05628339573740959
448.0,0.05492158606648445
480.0,0.05147197097539902
512.0,0.04397224262356758
576.0,0.019670862704515457
640.0,0.0038343912456184626
704.0,-0.006834705360233784
768.0,-0.011684146709740162
832.0,-0.020471787080168724
896.0,-0.020387323573231697
960.0,-0.014726800844073296
1024.0,-0.00937352329492569
1152.0,0.0061084795743227005
1280.0,0.033402275294065475
1408.0,0.044129181653261185
1536.0,0.05662592500448227
1664.0,0.046560656279325485
1792.0,0.026791825890541077
1920.0,0.0035518035292625427
2048.0,-0.017389966174960136
2304.0,-0.02467506192624569
2560.0,-0.011652003042399883
2816.0,0.02109113335609436
3072.0,0.03813040629029274
3328.0,0.048459380865097046
3584.0,-0.002530808560550213
3840.0,-0.030028188601136208
4096.0,-0.043211571872234344
4608.0,-0.04807445779442787
5120.0,-0.03322085365653038
5632.0,-0.05017269402742386
6144.0,-0.034999825060367584
6656.0,-0.0052327667362987995
7168.0,-0.04318973422050476
7680.0,-0.04524429515004158
8192.0,-0.028090083971619606
9216.0,-0.0012756215874105692
10240.0,0.00707255257293582
11264.0,0.018657786771655083
12288.0,0.018077338114380836
13312.0,0.01594332419335842
14336.0,0.010070289485156536
end
