version,3.0
numOfCh,1
type,point
parent_name,dirty_50dot0-0dot1
ch_type,1_1
kcount,1
numberNandB,1
brightnessNandB,1
carpet pos,0
pc,0
Time (ms),CH1 Auto-Correlation
1.0,0.32278403639793396
2.0,0.3177071809768677
3.0,0.31284481287002563
4.0,0.308378130197525
5.0,0.30414214730262756
6.0,0.29991087317466736
7.0,0.2958410978317261
8.0,0.2916643023490906
9.0,0.28788211941719055
10.0,0.28422170877456665
11.0,0.2810712158679962
12.0,0.27786168456077576
13.0,0.2745516300201416
14.0,0.27147188782691956
15.0,0.2680717706680298
16.0,0.2649562656879425
18.0,0.25902414321899414
20.0,0.254536896944046
22.0,0.2506084144115448
24.0,0.24753375351428986
26.0,0.24385809898376465
28.0,0.2403508722782135
30.0,0.23681886494159698
32.0,0.23330193758010864
36.0,0.2256702482700348
40.0,0.21736979484558105
44.0,0.20857363939285278
48.0,0.20055177807807922
52.0,0.19388233125209808
56.0,0.1870485544204712
60.0,0.18072207272052765
64.0,0.17478054761886597
72.0,0.16404636204242706
80.0,0.15672731399536133
88.0,0.15275274217128754
96.0,0.14947262406349182
104.0,0.14295485615730286
112.0,0.13939814269542694
120.0,0.13843204081058502
128.0,0.13704213500022888
144.0,0.128848597407341
160.0,0.12024242430925369
176.0,0.1135949119925499
192.0,0.1075005754828453
208.0,0.10274121165275574
224.0,0.10055754333734512
240.0,0.09574738144874573
256.0,0.09304843842983246
288.0,0.07979026436805725
320.0,0.06621769070625305
352.0,0.054089970886707306
384.0,0.0438474640250206
416.0,0.0402148999273777
448.0,0.028034374117851257
480.0,0.01711142808198929
512.0,0.01707611232995987
576.0,0.017755527049303055
640.0,0.01857900619506836
704.0,0.00988296139985323
768.0,-0.015197262167930603
832.0,-0.014175177551805973
896.0,-0.01588708721101284
960.0,-0.025614826008677483
1024.0,-0.032423924654722214
1152.0,-0.016671860590577126
1280.0,-0.01665637642145157
1408.0,-0.028080444782972336
1536.0,-0.039487455040216446
1664.0,-0.03689265996217728
1792.0,-0.01794641651213169
1920.0,-0.00109508924651891
2048.0,0.0072163175791502
2304.0,-0.01580783538520336
2560.0,-0.03530766814947128
2816.0,-0.04317794740200043
3072.0,-0.04583948478102684
3328.0,-0.03141963481903076
3584.0,-0.03696476295590401
3840.0,0.01824275776743889
4096.0,0.0658460408449173
4608.0,0.041970591992139816
5120.0,0.022429192438721657
5632.0,0.007161829154938459
6144.0,-0.03392760455608368
6656.0,-0.05024635046720505
7168.0,-0.026896631345152855
7680.0,-0.014066674746572971
8192.0,-0.01938616670668125
9216.0,0.06718967109918594
10240.0,-0.05833674222230911
11264.0,0.018613189458847046
12288.0,-0.023566171526908875
13312.0,0.058364201337099075
14336.0,-0.05228608474135399
end
