version,3.0
numOfCh,1
type,point
parent_name,dirty_50dot0-0dot1
ch_type,1_1
kcount,1
numberNandB,1
brightnessNandB,1
carpet pos,0
pc,0
Time (ms),CH1 Auto-Correlation
1.0,0.39141103625297546
2.0,0.3872887194156647
3.0,0.3841018080711365
4.0,0.38123980164527893
5.0,0.3785914182662964
6.0,0.37606948614120483
7.0,0.3735540509223938
8.0,0.37109944224357605
9.0,0.3686131536960602
10.0,0.36605390906333923
11.0,0.36372917890548706
12.0,0.36110997200012207
13.0,0.358863890171051
14.0,0.356503963470459
15.0,0.3540057837963104
16.0,0.35150617361068726
18.0,0.3465577960014343
20.0,0.3420421779155731
22.0,0.33748382329940796
24.0,0.33290472626686096
26.0,0.3286946713924408
28.0,0.32443979382514954
30.0,0.3204399645328522
32.0,0.3167547881603241
36.0,0.30960139632225037
40.0,0.3027728199958801
44.0,0.29620957374572754
48.0,0.2893514931201935
52.0,0.28183093667030334
56.0,0.2749794125556946
60.0,0.2685967981815338
64.0,0.2626815140247345
72.0,0.25242409110069275
80.0,0.24432973563671112
88.0,0.23849716782569885
96.0,0.23147857189178467
104.0,0.22316934168338776
112.0,0.21625779569149017
120.0,0.21201017498970032
128.0,0.20936429500579834
144.0,0.20438577234745026
160.0,0.19917459785938263
176.0,0.1929330974817276
192.0,0.18576091527938843
208.0,0.1822911947965622
224.0,0.17762243747711182
240.0,0.16902929544448853
256.0,0.15950556099414825
288.0,0.14644579589366913
320.0,0.14148132503032684
352.0,0.13049161434173584
384.0,0.12006448954343796
416.0,0.10411524027585983
448.0,0.09267312288284302
480.0,0.08685725182294846
512.0,0.08233334124088287
576.0,0.0879368782043457
640.0,0.09028592705726624
704.0,0.07793194055557251
768.0,0.0646517351269722
832.0,0.06139272451400757
896.0,0.053214941173791885
960.0,0.042054321616888046
1024.0,0.034689370542764664
1152.0,0.04339116811752319
1280.0,0.046240393072366714
1408.0,0.031187649816274643
1536.0,0.017128299921751022
1664.0,0.00994111318141222
1792.0,0.02472311072051525
1920.0,0.04480012506246567
2048.0,0.03768918290734291
2304.0,-0.0381280742585659
2560.0,-0.05070219188928604
2816.0,-0.03757181391119957
3072.0,-0.04195764660835266
3328.0,-0.05486614629626274
3584.0,-0.07011354714632034
3840.0,-0.04444234445691109
4096.0,-0.02013988606631756
4608.0,-0.03885941579937935
5120.0,-0.04765806347131729
5632.0,-0.04780395328998566
6144.0,-0.04071946442127228
6656.0,-0.06101679801940918
7168.0,-0.033523134887218475
7680.0,0.021315574645996094
8192.0,-0.006300500128418207
9216.0,0.060439933091402054
10240.0,-0.029072213917970657
11264.0,-0.0067901876755058765
12288.0,-0.01997150294482708
13312.0,0.002909807488322258
14336.0,0.015916218981146812
end
