version,3.0
numOfCh,1
type,point
parent_name,dirty_50dot0-0dot1
ch_type,1_1
kcount,1
numberNandB,1
brightnessNandB,1
carpet pos,0
pc,0
Time (ms),CH1 Auto-Correlation
1.0,0.22468851506710052
2.0,0.22037354111671448
3.0,0.21755903959274292
4.0,0.21511134505271912
5.0,0.2131262719631195
6.0,0.21106363832950592
7.0,0.20916497707366943
8.0,0.20729811489582062
9.0,0.2060304433107376
10.0,0.20465892553329468
11.0,0.20341937243938446
12.0,0.20183666050434113
13.0,0.20043466985225677
14.0,0.1989707052707672
15.0,0.19720225036144257
16.0,0.19576044380664825
18.0,0.1925331950187683
20.0,0.18957558274269104
22.0,0.18677955865859985
24.0,0.18364395201206207
26.0,0.1804620921611786
28.0,0.1779179722070694
30.0,0.17558690905570984
32.0,0.17297789454460144
36.0,0.16666311025619507
40.0,0.16141846776008606
44.0,0.15812037885189056
48.0,0.15543393790721893
52.0,0.1531057208776474
56.0,0.15160247683525085
60.0,0.15072877705097198
64.0,0.15025606751441956
72.0,0.14711317420005798
80.0,0.14439648389816284
88.0,0.13956435024738312
96.0,0.13210345804691315
104.0,0.12487023323774338
112.0,0.11629410833120346
120.0,0.10805701464414597
128.0,0.10002600401639938
144.0,0.0881870687007904
160.0,0.0800362080335617
176.0,0.07238748669624329
192.0,0.06522440165281296
208.0,0.05807138606905937
224.0,0.05363662168383598
240.0,0.05066070705652237
256.0,0.04907911270856857
288.0,0.05140739306807518
320.0,0.048586923629045486
352.0,0.04810825735330582
384.0,0.04246556758880615
416.0,0.035485412925481796
448.0,0.029123669490218163
480.0,0.023845182731747627
512.0,0.02138974517583847
576.0,0.010466200299561024
640.0,0.014334587380290031
704.0,0.012014980427920818
768.0,0.0041695693507790565
832.0,-0.005357307847589254
896.0,-0.014128006063401699
960.0,-0.01628669910132885
1024.0,-0.01712917350232601
1152.0,-0.014023730531334877
1280.0,-0.009835726581513882
1408.0,-0.0068613337352871895
1536.0,0.0030794222839176655
1664.0,0.021381059661507607
1792.0,0.022953210398554802
1920.0,0.028943050652742386
2048.0,0.030217735096812248
2304.0,0.05706721916794777
2560.0,0.029085323214530945
2816.0,-0.010640825144946575
3072.0,-0.011296792887151241
3328.0,-0.013321567326784134
3584.0,-0.014174636453390121
3840.0,-0.015757493674755096
4096.0,-0.018003595992922783
4608.0,-0.008809860795736313
5120.0,-0.001212351955473423
5632.0,0.0024470845237374306
6144.0,-0.00989727582782507
6656.0,-0.010532776825129986
7168.0,-0.001048940815962851
7680.0,0.0068990737199783325
8192.0,-0.015421565622091293
9216.0,-0.020333778113126755
10240.0,-0.027424823492765427
11264.0,-0.026758279651403427
12288.0,-0.020077601075172424
13312.0,-0.01754285767674446
14336.0,0.009874950163066387
end
