version,3.0
numOfCh,1
type,point
parent_name,dirty_50dot0-0dot1
ch_type,1_1
kcount,1
numberNandB,1
brightnessNandB,1
carpet pos,0
pc,0
Time (ms),CH1 Auto-Correlation
1.0,0.08277148753404617
2.0,0.08006148040294647
3.0,0.07833768427371979
4.0,0.07698948681354523
5.0,0.07561343908309937
6.0,0.07406890392303467
7.0,0.07268587499856949
8.0,0.07173395156860352
9.0,0.07050514966249466
10.0,0.06930916756391525
11.0,0.06881812959909439
12.0,0.0675058364868164
13.0,0.06668441742658615
14.0,0.06560495495796204
15.0,0.06447114795446396
16.0,0.06364309787750244
18.0,0.061950184404850006
20.0,0.06047823280096054
22.0,0.05881334841251373
24.0,0.056998640298843384
26.0,0.055242978036403656
28.0,0.053330276161432266
30.0,0.05174849182367325
32.0,0.05042603611946106
36.0,0.047519534826278687
40.0,0.04561159387230873
44.0,0.04427209869027138
48.0,0.043263792991638184
52.0,0.04219965264201164
56.0,0.041133392602205276
60.0,0.04009566828608513
64.0,0.03956746309995651
72.0,0.03744955360889435
80.0,0.035405196249485016
88.0,0.03334721550345421
96.0,0.03132561594247818
104.0,0.029103485867381096
112.0,0.026764575392007828
120.0,0.024579713121056557
128.0,0.02191983163356781
144.0,0.019066032022237778
160.0,0.016898661851882935
176.0,0.014098284766077995
192.0,0.011567073874175549
208.0,0.010435406118631363
224.0,0.011216345243155956
240.0,0.011928549036383629
256.0,0.010890972800552845
288.0,0.007703186944127083
320.0,0.006095373537391424
352.0,0.0036944798193871975
384.0,0.0032277500722557306
416.0,0.0035165611188858747
448.0,0.004597035702317953
480.0,0.005984765477478504
512.0,0.00799719151109457
576.0,0.008908651769161224
640.0,0.006149181630462408
704.0,0.004404320381581783
768.0,0.004512140993028879
832.0,0.007970869541168213
896.0,0.008247536607086658
960.0,0.004910959396511316
1024.0,0.003733835881575942
1152.0,0.008656329475343227
1280.0,0.005165464710444212
1408.0,0.0015634865267202258
1536.0,0.0015321836108341813
1664.0,0.0004894363810308278
1792.0,-0.006294107064604759
1920.0,-0.007621338590979576
2048.0,-0.0032760663889348507
2304.0,0.0035574769135564566
2560.0,0.0030768292490392923
2816.0,-0.001985102891921997
3072.0,-0.004202986601740122
3328.0,-0.005871098954230547
3584.0,-0.0054405624978244305
3840.0,-0.002657637232914567
4096.0,-0.007104458753019571
4608.0,-0.00784381851553917
5120.0,-0.007290706504136324
5632.0,-0.00816088542342186
6144.0,-0.007700428832322359
6656.0,-0.007961055263876915
7168.0,-0.0044064573012292385
7680.0,-0.0013771152589470148
8192.0,0.001855507493019104
9216.0,0.007834069430828094
10240.0,0.016442254185676575
11264.0,0.006833050400018692
12288.0,-0.006448316387832165
13312.0,-0.009257162921130657
14336.0,0.0012124500935897231
end
