version,3.0
numOfCh,1
type,point
parent_name,dirty_50dot0-0dot1
ch_type,1_1
kcount,1
numberNandB,1
brightnessNandB,1
carpet pos,0
pc,0
Time (ms),CH1 Auto-Correlation
1.0,0.15860295295715332
2.0,0.1556958556175232
3.0,0.15339618921279907
4.0,0.15179480612277985
5.0,0.15015019476413727
6.0,0.14894095063209534
7.0,0.14735238254070282
8.0,0.14619705080986023
9.0,0.14515948295593262
10.0,0.14417293667793274
11.0,0.14338015019893646
12.0,0.14212991297245026
13.0,0.14084087312221527
14.0,0.13968494534492493
15.0,0.13846226036548615
16.0,0.13735400140285492
18.0,0.1353030651807785
20.0,0.1325213462114334
22.0,0.12922793626785278
24.0,0.12621749937534332
26.0,0.1232672855257988
28.0,0.12097129970788956
30.0,0.1185726448893547
32.0,0.1161239892244339
36.0,0.11238130182027817
40.0,0.10861638933420181
44.0,0.10492376238107681
48.0,0.10133283585309982
52.0,0.09803453832864761
56.0,0.09608862549066544
60.0,0.09313951432704926
64.0,0.09005436301231384
72.0,0.08519379794597626
80.0,0.08111181110143661
88.0,0.07691237330436707
96.0,0.07342734187841415
104.0,0.07026242464780807
112.0,0.06739045679569244
120.0,0.06437484174966812
128.0,0.061403654515743256
144.0,0.05559387430548668
160.0,0.049514781683683395
176.0,0.04670358821749687
192.0,0.044387154281139374
208.0,0.04114813730120659
224.0,0.04013223201036453
240.0,0.04209519550204277
256.0,0.04205727204680443
288.0,0.03372008726000786
320.0,0.02592409960925579
352.0,0.024083198979496956
384.0,0.021671701222658157
416.0,0.020892877131700516
448.0,0.02028338983654976
480.0,0.017441412433981895
512.0,0.014410275965929031
576.0,0.005127263255417347
640.0,-0.002274749567732215
704.0,0.0047062900848686695
768.0,0.015179186128079891
832.0,0.020098136737942696
896.0,0.02278929017484188
960.0,0.02620357647538185
1024.0,0.020032687112689018
1152.0,0.007563410792499781
1280.0,0.014126643538475037
1408.0,0.019306348636746407
1536.0,0.01866118423640728
1664.0,0.004053020849823952
1792.0,0.007866207510232925
1920.0,0.016677414998412132
2048.0,0.01862218789756298
2304.0,0.03167705237865448
2560.0,0.009468034841120243
2816.0,-0.004863013979047537
3072.0,-0.005626751575618982
3328.0,-0.0016385180642828345
3584.0,-0.0077858371660113335
3840.0,-0.007239473983645439
4096.0,-0.005680525675415993
4608.0,0.001646112184971571
5120.0,-0.007706748321652412
5632.0,-0.009523575194180012
6144.0,-0.010367825627326965
6656.0,-0.010586638003587723
7168.0,-0.009615069255232811
7680.0,-0.014064664952456951
8192.0,-0.015825437381863594
9216.0,-0.00833324994891882
10240.0,-0.011792558245360851
11264.0,0.016260484233498573
12288.0,-0.017323844134807587
13312.0,-0.023789994418621063
14336.0,-0.028226176276803017
end
