version,3.0
numOfCh,1
type,point
parent_name,dirty_50dot0-0dot1
ch_type,1_1
kcount,1
numberNandB,1
brightnessNandB,1
carpet pos,0
pc,0
Time (ms),CH1 Auto-Correlation
1.0,0.05193689838051796
2.0,0.0495455227792263
3.0,0.04846610873937607
4.0,0.04776538163423538
5.0,0.04729247838258743
6.0,0.04639098420739174
7.0,0.0458497479557991
8.0,0.0453922338783741
9.0,0.04489580914378166
10.0,0.044364504516124725
11.0,0.043930571526288986
12.0,0.043319474905729294
13.0,0.043442919850349426
14.0,0.04299568384885788
15.0,0.0421418733894825
16.0,0.04194938391447067
18.0,0.04070519655942917
20.0,0.03956116735935211
22.0,0.03846763074398041
24.0,0.03767387196421623
26.0,0.03676735982298851
28.0,0.03595179319381714
30.0,0.03478951379656792
32.0,0.0341382659971714
36.0,0.03182265907526016
40.0,0.029861150309443474
44.0,0.02782154269516468
48.0,0.026139799505472183
52.0,0.024281401187181473
56.0,0.022454310208559036
60.0,0.02041218802332878
64.0,0.01813620701432228
72.0,0.014087258838117123
80.0,0.01066908985376358
88.0,0.0078976359218359
96.0,0.005972872953861952
104.0,0.004748476203531027
112.0,0.003999542910605669
120.0,0.0032515309285372496
128.0,0.0026468392461538315
144.0,0.0024516540579497814
160.0,0.0017349815461784601
176.0,0.0007358026341535151
192.0,0.0001182499690912664
208.0,-3.255254341638647e-05
224.0,-0.00020923773990944028
240.0,-0.00026775928563438356
256.0,-0.0001938188506755978
288.0,-0.0004168675804976374
320.0,-0.0004367617657408118
352.0,-0.0006040915031917393
384.0,-0.00046529059181921184
416.0,-0.0005892407498322427
448.0,-0.001370673649944365
480.0,-0.0015802267007529736
512.0,-0.0017378173070028424
576.0,-0.0018980259774252772
640.0,-0.0018088787328451872
704.0,-0.0005961426068097353
768.0,-0.00012426053581293672
832.0,8.570903446525335e-05
896.0,-0.0006465953774750233
960.0,-0.0004900079220533371
1024.0,-0.0004291140066925436
1152.0,-0.0007238921243697405
1280.0,-0.0006813642103224993
1408.0,-0.000883745145983994
1536.0,-0.0008951850468292832
1664.0,-0.0008505067671649158
1792.0,-0.0010589879238978028
1920.0,-0.0012091989628970623
2048.0,-0.000598666665609926
2304.0,-0.0008826997363939881
2560.0,-0.0008240615134127438
2816.0,-0.000886664493009448
3072.0,-0.000495099404361099
3328.0,-0.0006124993087723851
3584.0,-0.0004921843064948916
3840.0,-0.0004196705122012645
4096.0,0.002259138971567154
4608.0,0.0004068196867592633
5120.0,8.30749559099786e-05
5632.0,-0.00041391156264580786
6144.0,-0.00038901035441085696
6656.0,-0.0003082501352764666
7168.0,-0.0008070936892181635
7680.0,-0.0010284545132890344
8192.0,-0.000589647504966706
9216.0,0.0009745891438797116
10240.0,-4.1497754864394665e-05
11264.0,-0.001922313473187387
12288.0,-0.0001621517149033025
13312.0,0.0006720611709170043
14336.0,0.0001463647495256737
end
