version,3.0
numOfCh,1
type,point
parent_name,dirty_50dot0-0dot1
ch_type,1_1
kcount,1
numberNandB,1
brightnessNandB,1
carpet pos,0
pc,0
Time (ms),CH1 Auto-Correlation
1.0,0.4350740611553192
2.0,0.4301641881465912
3.0,0.4260985255241394
4.0,0.4224037826061249
5.0,0.4189379811286926
6.0,0.41568076610565186
7.0,0.41243693232536316
8.0,0.40895959734916687
9.0,0.40552228689193726
10.0,0.40233492851257324
11.0,0.39928072690963745
12.0,0.3961125910282135
13.0,0.39313066005706787
14.0,0.39031296968460083
15.0,0.38725778460502625
16.0,0.3841727077960968
18.0,0.37785011529922485
20.0,0.37129512429237366
22.0,0.36523041129112244
24.0,0.3592764735221863
26.0,0.35318219661712646
28.0,0.347750723361969
30.0,0.34212467074394226
32.0,0.3364054560661316
36.0,0.3257235884666443
40.0,0.3170158267021179
44.0,0.3080625832080841
48.0,0.29901501536369324
52.0,0.2900412082672119
56.0,0.2830115556716919
60.0,0.2762511968612671
64.0,0.27045175433158875
72.0,0.258614718914032
80.0,0.2487674057483673
88.0,0.23984356224536896
96.0,0.23206660151481628
104.0,0.2248476892709732
112.0,0.2165491133928299
120.0,0.20850767195224762
128.0,0.20212078094482422
144.0,0.18876497447490692
160.0,0.1788550317287445
176.0,0.17390939593315125
192.0,0.17766016721725464
208.0,0.1817789226770401
224.0,0.17814956605434418
240.0,0.16966083645820618
256.0,0.1635521948337555
288.0,0.1577070951461792
320.0,0.1524289846420288
352.0,0.14032946527004242
384.0,0.14411413669586182
416.0,0.15318383276462555
448.0,0.15847361087799072
480.0,0.15479306876659393
512.0,0.1511148065328598
576.0,0.12986236810684204
640.0,0.11545668542385101
704.0,0.10208533704280853
768.0,0.07918941229581833
832.0,0.05861973762512207
896.0,0.04937009513378143
960.0,0.04742127284407616
1024.0,0.047235455363988876
1152.0,0.04655960202217102
1280.0,-0.00010682403080863878
1408.0,0.011279594153165817
1536.0,0.008524032309651375
1664.0,-0.0018093644175678492
1792.0,0.03430071473121643
1920.0,0.011638212017714977
2048.0,0.0005265468498691916
2304.0,0.02589646726846695
2560.0,0.044485874474048615
2816.0,0.06695076823234558
3072.0,0.08353099226951599
3328.0,0.03785783052444458
3584.0,0.006559015717357397
3840.0,-0.007345294114202261
4096.0,-0.006425298750400543
4608.0,-0.038148511201143265
5120.0,-0.035449061542749405
5632.0,-0.042335495352745056
6144.0,-0.04482414200901985
6656.0,-0.05115140974521637
7168.0,-0.04492907226085663
7680.0,-0.043682608753442764
8192.0,-0.05365651100873947
9216.0,-0.0662243515253067
10240.0,-0.08424236625432968
11264.0,-0.052648380398750305
12288.0,-0.022105570882558823
13312.0,-0.03933750092983246
14336.0,-0.008142529055476189
end
