version,3.0
numOfCh,1
type,point
parent_name,dirty_50dot0-0dot1
ch_type,1_1
kcount,1
numberNandB,1
brightnessNandB,1
carpet pos,0
pc,0
Time (ms),CH1 Auto-Correlation
1.0,0.24422430992126465
2.0,0.24068260192871094
3.0,0.23788464069366455
4.0,0.23531535267829895
5.0,0.23309455811977386
6.0,0.23070219159126282
7.0,0.22885729372501373
8.0,0.2268734723329544
9.0,0.22490473091602325
10.0,0.22295790910720825
11.0,0.22103123366832733
12.0,0.21936732530593872
13.0,0.21764275431632996
14.0,0.21576030552387238
15.0,0.21388863027095795
16.0,0.21211689710617065
18.0,0.2087617814540863
20.0,0.20545856654644012
22.0,0.20249496400356293
24.0,0.19996942579746246
26.0,0.1976051777601242
28.0,0.1953505575656891
30.0,0.19288276135921478
32.0,0.19038429856300354
36.0,0.18625755608081818
40.0,0.18174539506435394
44.0,0.1774386465549469
48.0,0.17278949916362762
52.0,0.16809716820716858
56.0,0.16408219933509827
60.0,0.16028599441051483
64.0,0.1560487300157547
72.0,0.1478279083967209
80.0,0.1416614055633545
88.0,0.13703103363513947
96.0,0.13264630734920502
104.0,0.1273667961359024
112.0,0.12314416468143463
120.0,0.12121053785085678
128.0,0.12066636979579926
144.0,0.11786774545907974
160.0,0.11379820108413696
176.0,0.1103101596236229
192.0,0.10666230320930481
208.0,0.10554584860801697
224.0,0.10322752594947815
240.0,0.09969048947095871
256.0,0.09977217763662338
288.0,0.09273944050073624
320.0,0.08288463205099106
352.0,0.0764191597700119
384.0,0.07261251658201218
416.0,0.06946154683828354
448.0,0.06872991472482681
480.0,0.06723219901323318
512.0,0.07013208419084549
576.0,0.0754370391368866
640.0,0.07111255079507828
704.0,0.07090452313423157
768.0,0.07098712772130966
832.0,0.0728234276175499
896.0,0.07752586901187897
960.0,0.07499653100967407
1024.0,0.0765569731593132
1152.0,0.06778603792190552
1280.0,0.044945646077394485
1408.0,0.03213488683104515
1536.0,0.0163575429469347
1664.0,0.01862064003944397
1792.0,0.022566739469766617
1920.0,0.0280210692435503
2048.0,0.02276596426963806
2304.0,-0.0029636817052960396
2560.0,-0.007897496223449707
2816.0,-0.006216900423169136
3072.0,-0.005761160980910063
3328.0,-0.035495202988386154
3584.0,-0.055658672004938126
3840.0,-0.04145151749253273
4096.0,-0.03782038763165474
4608.0,-0.06117070093750954
5120.0,-0.029223665595054626
5632.0,-0.03144732117652893
6144.0,-0.0173104926943779
6656.0,-0.03190429136157036
7168.0,-0.024466287344694138
7680.0,-0.05502204969525337
8192.0,-0.029979262501001358
9216.0,-0.03989173099398613
10240.0,-0.0010645408183336258
11264.0,0.021823806688189507
12288.0,0.03860737755894661
13312.0,0.03652951121330261
14336.0,0.02949647046625614
end
