version,3.0
numOfCh,1
type,point
parent_name,dirty_50dot0-0dot1
ch_type,1_1
kcount,1
numberNandB,1
brightnessNandB,1
carpet pos,0
pc,0
Time (ms),CH1 Auto-Correlation
1.0,0.15219852328300476
2.0,0.14872223138809204
3.0,0.14635317027568817
4.0,0.1445118486881256
5.0,0.14298591017723083
6.0,0.14084750413894653
7.0,0.13909907639026642
8.0,0.13709942996501923
9.0,0.13536858558654785
10.0,0.13321810960769653
11.0,0.1315678209066391
12.0,0.12981247901916504
13.0,0.12836678326129913
14.0,0.12659922242164612
15.0,0.12470222264528275
16.0,0.12271811813116074
18.0,0.11939028650522232
20.0,0.1159180998802185
22.0,0.11270415782928467
24.0,0.10935311764478683
26.0,0.10580804944038391
28.0,0.10210754722356796
30.0,0.09914961457252502
32.0,0.09652910381555557
36.0,0.09304195642471313
40.0,0.09021329879760742
44.0,0.08802526444196701
48.0,0.08701035380363464
52.0,0.086124949157238
56.0,0.08582259714603424
60.0,0.08491427451372147
64.0,0.08374325186014175
72.0,0.08190003782510757
80.0,0.07938680052757263
88.0,0.07628505676984787
96.0,0.07335572689771652
104.0,0.06975515186786652
112.0,0.06423094868659973
120.0,0.05802982673048973
128.0,0.05288847163319588
144.0,0.0461285226047039
160.0,0.04907853156328201
176.0,0.0522201806306839
192.0,0.04503593593835831
208.0,0.032863471657037735
224.0,0.022431297227740288
240.0,0.014625117182731628
256.0,0.009823759086430073
288.0,0.007317428942769766
320.0,0.003132508136332035
352.0,0.007824582979083061
384.0,0.008156096562743187
416.0,0.003967178054153919
448.0,-0.0010587299475446343
480.0,-0.003826807253062725
512.0,-0.0058264294639229774
576.0,-0.005588654428720474
640.0,-0.007934349589049816
704.0,-0.009670139290392399
768.0,-0.009956634603440762
832.0,-0.009928859770298004
896.0,-0.010285788215696812
960.0,-0.01136003714054823
1024.0,-0.011052221059799194
1152.0,-0.011354219168424606
1280.0,-0.009695700369775295
1408.0,-0.007101006805896759
1536.0,-0.004378647077828646
1664.0,-0.0030098645947873592
1792.0,-0.0026856090407818556
1920.0,-0.0031646934803575277
2048.0,-0.00522212078794837
2304.0,-0.0008080305415205657
2560.0,-0.0008011892787180841
2816.0,-0.006898930761963129
3072.0,-0.007247081026434898
3328.0,-0.006858436856418848
3584.0,-0.01009265799075365
3840.0,-0.011040241457521915
4096.0,-0.01118460763245821
4608.0,0.011351113207638264
5120.0,0.01852516457438469
5632.0,-0.0053954049944877625
6144.0,-0.009505311027169228
6656.0,-0.006199900526553392
7168.0,-0.00285560404881835
7680.0,-0.00018194268341176212
8192.0,-0.0038444707170128822
9216.0,0.009620584547519684
10240.0,0.0165862999856472
11264.0,-0.007608054671436548
12288.0,-0.0049340371042490005
13312.0,-0.008260028436779976
14336.0,-0.011881091631948948
end
