version,3.0
numOfCh,1
type,point
parent_name,dirty_50dot0-0dot1
ch_type,1_1
kcount,1
numberNandB,1
brightnessNandB,1
carpet pos,0
pc,0
Time (ms),CH1 Auto-Correlation
1.0,0.16563381254673004
2.0,0.1630219966173172
3.0,0.16175605356693268
4.0,0.16082969307899475
5.0,0.15949095785617828
6.0,0.1583496332168579
7.0,0.1574510633945465
8.0,0.1563744992017746
9.0,0.15577149391174316
10.0,0.15499697625637054
11.0,0.15397687256336212
12.0,0.1532476395368576
13.0,0.15299968421459198
14.0,0.15207678079605103
15.0,0.15116968750953674
16.0,0.15016338229179382
18.0,0.1486215591430664
20.0,0.14696957170963287
22.0,0.14568525552749634
24.0,0.14422495663166046
26.0,0.142633855342865
28.0,0.14161475002765656
30.0,0.14010411500930786
32.0,0.13906608521938324
36.0,0.13681060075759888
40.0,0.13514414429664612
44.0,0.13384127616882324
48.0,0.13207638263702393
52.0,0.13001398742198944
56.0,0.12829984724521637
60.0,0.1268446296453476
64.0,0.12508240342140198
72.0,0.120670847594738
80.0,0.11559886485338211
88.0,0.11085546016693115
96.0,0.10615839064121246
104.0,0.10162179917097092
112.0,0.0977577194571495
120.0,0.09503518044948578
128.0,0.09269377589225769
144.0,0.08715138584375381
160.0,0.08249950408935547
176.0,0.0779513344168663
192.0,0.07533421367406845
208.0,0.07159126549959183
224.0,0.06730173528194427
240.0,0.06244044005870819
256.0,0.058732010424137115
288.0,0.05195721611380577
320.0,0.044830117374658585
352.0,0.039154548197984695
384.0,0.035371750593185425
416.0,0.028608553111553192
448.0,0.02391692064702511
480.0,0.02237582765519619
512.0,0.02206413820385933
576.0,0.022318538278341293
640.0,0.01599818654358387
704.0,0.012911762110888958
768.0,0.02150792069733143
832.0,0.026036452502012253
896.0,0.021772481501102448
960.0,0.013503823429346085
1024.0,0.00540559459477663
1152.0,-0.003334487322717905
1280.0,-0.010876686312258244
1408.0,-0.016969924792647362
1536.0,-0.02017740160226822
1664.0,-0.02139301411807537
1792.0,-0.02204682119190693
1920.0,-0.02068980038166046
2048.0,-0.020351745188236237
2304.0,-0.02221597172319889
2560.0,-0.022693466395139694
2816.0,-0.02375935949385166
3072.0,-0.021037399768829346
3328.0,-0.020312529057264328
3584.0,-0.0197384525090456
3840.0,-0.01813220977783203
4096.0,-0.016106007620692253
4608.0,-0.01216987892985344
5120.0,0.004139182157814503
5632.0,0.04738454893231392
6144.0,0.035530056804418564
6656.0,0.025999942794442177
7168.0,-0.006766430102288723
7680.0,-0.009021053090691566
8192.0,-0.0178518146276474
9216.0,-0.0195643100887537
10240.0,-0.011990992352366447
11264.0,-0.0021282299421727657
12288.0,-0.010120391845703125
13312.0,0.001376041560433805
14336.0,0.010238578543066978
end
