version,3.0
numOfCh,1
type,point
parent_name,dirty_50dot0-0dot1
ch_type,1_1
kcount,1
numberNandB,1
brightnessNandB,1
carpet pos,0
pc,0
Time (ms),CH1 Auto-Correlation
1.0,0.4545198082923889
2.0,0.4490848779678345
3.0,0.44424429535865784
4.0,0.43993866443634033
5.0,0.43542176485061646
6.0,0.4310930371284485
7.0,0.4268110990524292
8.0,0.4226284921169281
9.0,0.4183129370212555
10.0,0.4141455292701721
11.0,0.40998339653015137
12.0,0.4059462249279022
13.0,0.40176618099212646
14.0,0.3979165554046631
15.0,0.39471468329429626
16.0,0.3910180330276489
18.0,0.3840956687927246
20.0,0.3773646354675293
22.0,0.3709357976913452
24.0,0.36486443877220154
26.0,0.35879549384117126
28.0,0.3524516522884369
30.0,0.3465559780597687
32.0,0.34061336517333984
36.0,0.3292422592639923
40.0,0.31861770153045654
44.0,0.30797386169433594
48.0,0.297672837972641
52.0,0.2877441346645355
56.0,0.2789541184902191
60.0,0.27079203724861145
64.0,0.2635648250579834
72.0,0.24943174421787262
80.0,0.23590996861457825
88.0,0.2267848700284958
96.0,0.219831183552742
104.0,0.21282270550727844
112.0,0.20469450950622559
120.0,0.19638043642044067
128.0,0.1877492368221283
144.0,0.17155177891254425
160.0,0.15518532693386078
176.0,0.1433759182691574
192.0,0.13623765110969543
208.0,0.13104301691055298
224.0,0.12523843348026276
240.0,0.12248654663562775
256.0,0.12154973298311234
288.0,0.1269451379776001
320.0,0.12701302766799927
352.0,0.1118583083152771
384.0,0.09496992081403732
416.0,0.08833727240562439
448.0,0.06963763386011124
480.0,0.05553506687283516
512.0,0.05584661662578583
576.0,0.03852808475494385
640.0,0.0224966648966074
704.0,0.005396120250225067
768.0,0.011199620552361012
832.0,0.013829403556883335
896.0,0.0182136632502079
960.0,0.019429542124271393
1024.0,0.014241782948374748
1152.0,0.01598348096013069
1280.0,0.01982099749147892
1408.0,0.019722172990441322
1536.0,0.006642818450927734
1664.0,0.031224224716424942
1792.0,0.03276869282126427
1920.0,0.033691223710775375
2048.0,0.03571183606982231
2304.0,0.012320124544203281
2560.0,-0.008591288700699806
2816.0,-0.04941960424184799
3072.0,-0.03452540189027786
3328.0,-0.017959091812372208
3584.0,-0.01993689127266407
3840.0,-0.03883328661322594
4096.0,-0.006018532440066338
4608.0,-0.013100548647344112
5120.0,0.027125665917992592
5632.0,0.04414815083146095
6144.0,-0.028177805244922638
6656.0,-0.007575137075036764
7168.0,-0.009685569442808628
7680.0,-0.07066137343645096
8192.0,-0.032881125807762146
9216.0,0.040890082716941833
10240.0,-0.05714944377541542
11264.0,-0.037570565938949585
12288.0,-0.03798501193523407
13312.0,-0.13909734785556793
14336.0,0.05012809485197067
end
