version,3.0
numOfCh,1
type,point
parent_name,dirty_50dot0-0dot1
ch_type,1_1
kcount,1
numberNandB,1
brightnessNandB,1
carpet pos,0
pc,0
Time (ms),CH1 Auto-Correlation
1.0,0.28347280621528625
2.0,0.28002724051475525
3.0,0.27723461389541626
4.0,0.2748754024505615
5.0,0.27227920293807983
6.0,0.26999861001968384
7.0,0.2677200734615326
8.0,0.2654055655002594
9.0,0.26311659812927246
10.0,0.2611067295074463
11.0,0.2587008476257324
12.0,0.2561560273170471
13.0,0.2544790804386139
14.0,0.252388060092926
15.0,0.2505408525466919
16.0,0.24862699210643768
18.0,0.24534006416797638
20.0,0.24161599576473236
22.0,0.23838087916374207
24.0,0.23500049114227295
26.0,0.2319609373807907
28.0,0.22929026186466217
30.0,0.22663258016109467
32.0,0.22432951629161835
36.0,0.21936403214931488
40.0,0.2150057554244995
44.0,0.21108196675777435
48.0,0.2074497789144516
52.0,0.2041807323694229
56.0,0.2013707160949707
60.0,0.19845204055309296
64.0,0.19618430733680725
72.0,0.19290047883987427
80.0,0.1890486776828766
88.0,0.18425893783569336
96.0,0.18095892667770386
104.0,0.1756894439458847
112.0,0.1691991090774536
120.0,0.1631460189819336
128.0,0.1581767350435257
144.0,0.14686667919158936
160.0,0.1374116837978363
176.0,0.13000166416168213
192.0,0.12663932144641876
208.0,0.12369108200073242
224.0,0.11858294159173965
240.0,0.11381035298109055
256.0,0.10684707760810852
288.0,0.10638169944286346
320.0,0.11414119601249695
352.0,0.10837455838918686
384.0,0.09381028264760971
416.0,0.08333130925893784
448.0,0.07375853508710861
480.0,0.06666222959756851
512.0,0.05385487154126167
576.0,0.040095873177051544
640.0,0.02951888181269169
704.0,0.030086133629083633
768.0,0.01991349086165428
832.0,0.010228593833744526
896.0,-0.003775079268962145
960.0,-0.012220622040331364
1024.0,-0.017965611070394516
1152.0,-0.021634943783283234
1280.0,-0.019556870684027672
1408.0,-0.008860290050506592
1536.0,-0.0067718192003667355
1664.0,-0.006585974246263504
1792.0,-0.010080917738378048
1920.0,-0.015671901404857635
2048.0,-0.016503531485795975
2304.0,-0.015232966281473637
2560.0,-0.014327007345855236
2816.0,-0.015039925463497639
3072.0,-0.015630928799510002
3328.0,-0.019340239465236664
3584.0,-0.020851820707321167
3840.0,-0.02039286121726036
4096.0,-0.018050994724035263
4608.0,-0.01472521387040615
5120.0,0.06612419337034225
5632.0,0.08633987605571747
6144.0,0.005653063300997019
6656.0,-0.019452178850769997
7168.0,-0.020662639290094376
7680.0,-0.025145273655653
8192.0,-0.018592137843370438
9216.0,-0.025554118677973747
10240.0,0.008031480945646763
11264.0,-0.021475613117218018
12288.0,-0.04271794483065605
13312.0,-0.06637708097696304
14336.0,-0.11380746960639954
end
