version,3.0
numOfCh,1
type,point
parent_name,dirty_50dot0-0dot1
ch_type,1_1
kcount,1
numberNandB,1
brightnessNandB,1
carpet pos,0
pc,0
Time (ms),CH1 Auto-Correlation
1.0,0.1779794842004776
2.0,0.1744566112756729
3.0,0.1720857471227646
4.0,0.1699332296848297
5.0,0.1677522510290146
6.0,0.16590851545333862
7.0,0.16382339596748352
8.0,0.16204029321670532
9.0,0.16025714576244354
10.0,0.15877847373485565
11.0,0.15718373656272888
12.0,0.15586934983730316
13.0,0.1544552445411682
14.0,0.1530584841966629
15.0,0.1516934335231781
16.0,0.1505374014377594
18.0,0.1478450894355774
20.0,0.14556553959846497
22.0,0.14359895884990692
24.0,0.141465425491333
26.0,0.1393301635980606
28.0,0.13688771426677704
30.0,0.13456736505031586
32.0,0.13193750381469727
36.0,0.12699469923973083
40.0,0.12254214286804199
44.0,0.1186683252453804
48.0,0.11507666110992432
52.0,0.11179240792989731
56.0,0.10852602869272232
60.0,0.10480324178934097
64.0,0.10114181041717529
72.0,0.09465466439723969
80.0,0.08786342293024063
88.0,0.0806017592549324
96.0,0.07497267425060272
104.0,0.07155793905258179
112.0,0.06886691600084305
120.0,0.0664503201842308
128.0,0.06620938330888748
144.0,0.06370315700769424
160.0,0.057240378111600876
176.0,0.053537264466285706
192.0,0.05113076791167259
208.0,0.04794833064079285
224.0,0.042916376143693924
240.0,0.036306072026491165
256.0,0.030458219349384308
288.0,0.021580778062343597
320.0,0.014000484719872475
352.0,0.008299305103719234
384.0,0.008232642896473408
416.0,0.007434731815010309
448.0,0.006659813690930605
480.0,0.0017145585734397173
512.0,-0.001800418714992702
576.0,0.00026414994499646127
640.0,0.00431316951289773
704.0,0.0017800554633140564
768.0,0.007189089432358742
832.0,0.009798209182918072
896.0,0.014538809657096863
960.0,0.01817833073437214
1024.0,0.023919634521007538
1152.0,0.025190923362970352
1280.0,0.0047636632807552814
1408.0,-0.006309180520474911
1536.0,-0.008746377192437649
1664.0,-0.013355594128370285
1792.0,-0.01154364738613367
1920.0,-0.0018748040311038494
2048.0,0.0034791522193700075
2304.0,0.012744671665132046
2560.0,-0.005775115918368101
2816.0,-0.016068419441580772
3072.0,-0.01628909818828106
3328.0,-0.001379208522848785
3584.0,-0.0004979625227861106
3840.0,-0.01897328719496727
4096.0,-0.01646333374083042
4608.0,0.005210248287767172
5120.0,-0.012647767551243305
5632.0,-0.012076222337782383
6144.0,-0.01765875704586506
6656.0,9.319930541096255e-05
7168.0,-0.014637681655585766
7680.0,-0.011636382900178432
8192.0,-0.01918664388358593
9216.0,-0.004133857786655426
10240.0,0.0036774033214896917
11264.0,0.04734796658158302
12288.0,0.0025355161633342505
13312.0,-0.0168983805924654
14336.0,0.010176099836826324
end
