version,3.0
numOfCh,1
type,point
parent_name,dirty_50dot0-0dot1
ch_type,1_1
kcount,1
numberNandB,1
brightnessNandB,1
carpet pos,0
pc,0
Time (ms),CH1 Auto-Correlation
1.0,0.2032877653837204
2.0,0.20002323389053345
3.0,0.19738984107971191
4.0,0.1957511305809021
5.0,0.1938125640153885
6.0,0.19220897555351257
7.0,0.19084613025188446
8.0,0.1892000436782837
9.0,0.18772952258586884
10.0,0.1857321411371231
11.0,0.18375468254089355
12.0,0.18187662959098816
13.0,0.1804528534412384
14.0,0.17885449528694153
15.0,0.1771010309457779
16.0,0.17547878623008728
18.0,0.17184732854366302
20.0,0.16804684698581696
22.0,0.16469083726406097
24.0,0.16138699650764465
26.0,0.15772461891174316
28.0,0.15428324043750763
30.0,0.1510612666606903
32.0,0.14802666008472443
36.0,0.14209792017936707
40.0,0.1363150179386139
44.0,0.13143764436244965
48.0,0.1266406923532486
52.0,0.1213018000125885
56.0,0.11661733686923981
60.0,0.11298684775829315
64.0,0.11012215912342072
72.0,0.10506080090999603
80.0,0.09983279556035995
88.0,0.0946408286690712
96.0,0.08857893198728561
104.0,0.08055686205625534
112.0,0.07238934189081192
120.0,0.06599072366952896
128.0,0.062304265797138214
144.0,0.05837060511112213
160.0,0.052571799606084824
176.0,0.04677863419055939
192.0,0.04072612524032593
208.0,0.033176906406879425
224.0,0.027588382363319397
240.0,0.02489403635263443
256.0,0.02338339015841484
288.0,0.020481202751398087
320.0,0.02475970797240734
352.0,0.029769906774163246
384.0,0.03650230914354324
416.0,0.03997652977705002
448.0,0.037515267729759216
480.0,0.040130626410245895
512.0,0.04707428067922592
576.0,0.03835156559944153
640.0,0.024844758212566376
704.0,0.009044221602380276
768.0,0.0007838460733182728
832.0,0.00557082612067461
896.0,0.008712774142622948
960.0,0.0043463753536343575
1024.0,0.004373430740088224
1152.0,0.01458964217454195
1280.0,0.003397171851247549
1408.0,-0.005650024861097336
1536.0,-0.005310624837875366
1664.0,0.0033494606614112854
1792.0,0.011006796732544899
1920.0,-0.0074470797553658485
2048.0,-0.009527117013931274
2304.0,-0.010627896524965763
2560.0,-0.010392590425908566
2816.0,-0.012048371136188507
3072.0,-0.012869439087808132
3328.0,-0.014233502559363842
3584.0,-0.012783796526491642
3840.0,-0.012869642116129398
4096.0,-0.01325459685176611
4608.0,-0.014980788342654705
5120.0,-0.010521257296204567
5632.0,-0.008677300065755844
6144.0,-0.009154297411441803
6656.0,-0.007752034347504377
7168.0,-0.011680643074214458
7680.0,-0.013701378367841244
8192.0,-0.007100225891917944
9216.0,0.004888193216174841
10240.0,0.0316888764500618
11264.0,0.049845073372125626
12288.0,-0.018078844994306564
13312.0,-0.029004165902733803
14336.0,-0.04195356369018555
end
