version,3.0
numOfCh,1
type,point
parent_name,dirty_50dot0-0dot1
ch_type,1_1
kcount,1
numberNandB,1
brightnessNandB,1
carpet pos,0
pc,0
Time (ms),CH1 Auto-Correlation
1.0,0.2969931364059448
2.0,0.2929479777812958
3.0,0.29002687335014343
4.0,0.28744569420814514
5.0,0.28498876094818115
6.0,0.28297239542007446
7.0,0.28089508414268494
8.0,0.279006689786911
9.0,0.2769988775253296
10.0,0.275150865316391
11.0,0.2736150622367859
12.0,0.272336483001709
13.0,0.270969957113266
14.0,0.2694641649723053
15.0,0.26815301179885864
16.0,0.2669268846511841
18.0,0.2646635174751282
20.0,0.262215256690979
22.0,0.259662002325058
24.0,0.25692009925842285
26.0,0.2533128261566162
28.0,0.24976438283920288
30.0,0.24644748866558075
32.0,0.24307939410209656
36.0,0.23701252043247223
40.0,0.2317420095205307
44.0,0.22644123435020447
48.0,0.22128964960575104
52.0,0.21651703119277954
56.0,0.21267354488372803
60.0,0.20891523361206055
64.0,0.20558077096939087
72.0,0.19742245972156525
80.0,0.18960922956466675
88.0,0.18077930808067322
96.0,0.17183156311511993
104.0,0.16547343134880066
112.0,0.1590268760919571
120.0,0.15204598009586334
128.0,0.14458529651165009
144.0,0.13396082818508148
160.0,0.1241249218583107
176.0,0.11515525728464127
192.0,0.10776315629482269
208.0,0.09950176626443863
224.0,0.0925777480006218
240.0,0.08434804528951645
256.0,0.07343080639839172
288.0,0.05170147120952606
320.0,0.03764070197939873
352.0,0.029373520985245705
384.0,0.026552701368927956
416.0,0.020518284291028976
448.0,0.011426052078604698
480.0,0.0016319440910592675
512.0,-0.00791243463754654
576.0,-0.016155032441020012
640.0,-0.02047736756503582
704.0,-0.01969907432794571
768.0,-0.023642800748348236
832.0,-0.025165941566228867
896.0,-0.025932397693395615
960.0,-0.026455232873558998
1024.0,-0.027040373533964157
1152.0,-0.019102195277810097
1280.0,-0.005588650703430176
1408.0,0.0036385718267410994
1536.0,-0.000808954646345228
1664.0,0.014902381226420403
1792.0,0.05107411369681358
1920.0,0.059142760932445526
2048.0,0.05547209084033966
2304.0,-0.003497195430099964
2560.0,-0.025516200810670853
2816.0,-0.029389748349785805
3072.0,-0.015945905819535255
3328.0,0.013077004812657833
3584.0,0.02452997677028179
3840.0,0.01019979640841484
4096.0,-0.01273657288402319
4608.0,-0.02825186774134636
5120.0,0.019566642120480537
5632.0,-0.018200332298874855
6144.0,-0.04259186238050461
6656.0,-0.013102127239108086
7168.0,0.1108667328953743
7680.0,-0.015404535457491875
8192.0,-0.03359835967421532
9216.0,0.03529080003499985
10240.0,-0.018625950440764427
11264.0,-0.030881036072969437
12288.0,-0.03282058611512184
13312.0,-0.051159970462322235
14336.0,-0.051042716950178146
end
