version,3.0
numOfCh,1
type,point
parent_name,dirty_50dot0-0dot1
ch_type,1_1
kcount,1
numberNandB,1
brightnessNandB,1
carpet pos,0
pc,0
Time (ms),CH1 Auto-Correlation
1.0,0.09633898735046387
2.0,0.09275609254837036
3.0,0.09025804698467255
4.0,0.0881420224905014
5.0,0.08636537939310074
6.0,0.08462325483560562
7.0,0.0828632116317749
8.0,0.08142216503620148
9.0,0.07958716154098511
10.0,0.0781676173210144
11.0,0.07625201344490051
12.0,0.07484904676675797
13.0,0.07330836355686188
14.0,0.07151998579502106
15.0,0.07000447064638138
16.0,0.06848294287919998
18.0,0.06591644883155823
20.0,0.06351962685585022
22.0,0.06154818460345268
24.0,0.05949409678578377
26.0,0.05736507847905159
28.0,0.05503648892045021
30.0,0.053034164011478424
32.0,0.05099066346883774
36.0,0.046852923929691315
40.0,0.043100617825984955
44.0,0.03959953784942627
48.0,0.03650057315826416
52.0,0.03424901142716408
56.0,0.03188033774495125
60.0,0.030482204630970955
64.0,0.029340310022234917
72.0,0.027716603130102158
80.0,0.028205204755067825
88.0,0.028840506449341774
96.0,0.027152979746460915
104.0,0.02638343907892704
112.0,0.027832798659801483
120.0,0.028612250462174416
128.0,0.027178477495908737
144.0,0.020549781620502472
160.0,0.015649104490876198
176.0,0.01262300368398428
192.0,0.01140147540718317
208.0,0.012292604893445969
224.0,0.012031649239361286
240.0,0.012131177820265293
256.0,0.009924635291099548
288.0,0.00496941851451993
320.0,0.005286592990159988
352.0,0.0028485418297350407
384.0,0.0006873865495435894
416.0,0.0024237579200416803
448.0,0.003037156304344535
480.0,0.0025844781193882227
512.0,0.00058991729747504
576.0,0.00010580425441730767
640.0,-0.003160864347591996
704.0,-0.004725981969386339
768.0,-0.005622525699436665
832.0,-0.0035571157932281494
896.0,-0.003618708113208413
960.0,0.0023947509471327066
1024.0,0.00272867688909173
1152.0,0.008062618784606457
1280.0,-0.004209291655570269
1408.0,-0.00411875220015645
1536.0,-0.005991719663143158
1664.0,-0.0067106084898114204
1792.0,-0.0081086540594697
1920.0,-0.007706551346927881
2048.0,-0.00403674878180027
2304.0,-0.00037684314884245396
2560.0,-0.003865495091304183
2816.0,-0.00883306935429573
3072.0,-0.009373252280056477
3328.0,-0.002888723509386182
3584.0,0.0025398649740964174
3840.0,0.004372762981802225
4096.0,-0.0005217349389567971
4608.0,0.0011855800403282046
5120.0,0.0002244154311483726
5632.0,-0.0038814274594187737
6144.0,0.0037175677716732025
6656.0,-0.00455051613971591
7168.0,0.0017095134826377034
7680.0,-0.00441301055252552
8192.0,0.012554029934108257
9216.0,-0.0008874722407199442
10240.0,-0.007645880337804556
11264.0,-0.009237763471901417
12288.0,-0.0027383058331906796
13312.0,0.005716495215892792
14336.0,0.007454384583979845
end
