version,3.0
numOfCh,1
type,point
parent_name,dirty_50dot0-0dot1
ch_type,1_1
kcount,1
numberNandB,1
brightnessNandB,1
carpet pos,0
pc,0
Time (ms),CH1 Auto-Correlation
1.0,0.06003906950354576
2.0,0.05755063518881798
3.0,0.05673762783408165
4.0,0.055626340210437775
5.0,0.05462225154042244
6.0,0.05386357381939888
7.0,0.05336165800690651
8.0,0.05296189710497856
9.0,0.052283987402915955
10.0,0.05168222263455391
11.0,0.05087773874402046
12.0,0.050359517335891724
13.0,0.049734778702259064
14.0,0.049206264317035675
15.0,0.048570457845926285
16.0,0.04826557636260986
18.0,0.04740610346198082
20.0,0.046619705855846405
22.0,0.045650362968444824
24.0,0.044615164399147034
26.0,0.043909743428230286
28.0,0.042570631951093674
30.0,0.04155954346060753
32.0,0.039915695786476135
36.0,0.038007184863090515
40.0,0.03631063550710678
44.0,0.03471340611577034
48.0,0.03328971192240715
52.0,0.03162708133459091
56.0,0.030308963730931282
60.0,0.028572270646691322
64.0,0.0269929226487875
72.0,0.024637144058942795
80.0,0.022972341626882553
88.0,0.020630095154047012
96.0,0.019159257411956787
104.0,0.0179695263504982
112.0,0.016056396067142487
120.0,0.014696029014885426
128.0,0.013575909659266472
144.0,0.011553485877811909
160.0,0.009697525762021542
176.0,0.008054022677242756
192.0,0.005492854863405228
208.0,0.003919933922588825
224.0,0.002512098290026188
240.0,0.001285487785935402
256.0,0.000584420224186033
288.0,1.2933062862430234e-05
320.0,-0.0005230798851698637
352.0,-0.00129905273206532
384.0,-0.001873936620540917
416.0,-0.0023218111600726843
448.0,-0.0022314602974802256
480.0,-0.002923469291999936
512.0,-0.0032188850454986095
576.0,-0.0029457141645252705
640.0,-0.003289985004812479
704.0,-0.00277210446074605
768.0,-0.0016776511911302805
832.0,-0.0004791661922354251
896.0,0.004464765544980764
960.0,0.005857688374817371
1024.0,0.006320748012512922
1152.0,0.007813459262251854
1280.0,0.00951309222728014
1408.0,0.00498045701533556
1536.0,3.426328476052731e-05
1664.0,-0.0015356448711827397
1792.0,-0.0029340803157538176
1920.0,-0.0027402988635003567
2048.0,-0.0027506991755217314
2304.0,-0.001793020055629313
2560.0,0.0066141695715487
2816.0,-0.0005443826084956527
3072.0,-0.0012298658257350326
3328.0,-0.00250279251486063
3584.0,-0.0031591663137078285
3840.0,-0.0017942432314157486
4096.0,0.0014167176559567451
4608.0,-0.0009000441059470177
5120.0,-0.0012179140467196703
5632.0,-0.0019539634231477976
6144.0,-0.002845135284587741
6656.0,-0.001936808112077415
7168.0,-0.0014457027427852154
7680.0,-0.0006728869630023837
8192.0,-0.0023896347265690565
9216.0,-0.0020014189649373293
10240.0,-0.001651895814575255
11264.0,-0.001229654299095273
12288.0,0.0044213030487298965
13312.0,0.0007413308485411108
14336.0,0.0008403609390370548
end
