version,3.0
numOfCh,1
type,point
parent_name,dirty_50dot0-0dot1
ch_type,1_1
kcount,1
numberNandB,1
brightnessNandB,1
carpet pos,0
pc,0
Time (ms),CH1 Auto-Correlation
1.0,0.13444766402244568
2.0,0.13168548047542572
3.0,0.12982849776744843
4.0,0.12865477800369263
5.0,0.12777486443519592
6.0,0.12649433314800262
7.0,0.1254001408815384
8.0,0.12444978207349777
9.0,0.12355254590511322
10.0,0.1225433424115181
11.0,0.12189128994941711
12.0,0.12119542062282562
13.0,0.1204991564154625
14.0,0.11987048387527466
15.0,0.11955489963293076
16.0,0.11854163557291031
18.0,0.11738114058971405
20.0,0.1160961240530014
22.0,0.11448369175195694
24.0,0.1129903644323349
26.0,0.11158451437950134
28.0,0.10995215177536011
30.0,0.10802553594112396
32.0,0.10610215365886688
36.0,0.10328133404254913
40.0,0.1010173037648201
44.0,0.09817620366811752
48.0,0.09542068094015121
52.0,0.0925557091832161
56.0,0.09032237529754639
60.0,0.08805369585752487
64.0,0.08589696884155273
72.0,0.08208370208740234
80.0,0.07915022224187851
88.0,0.07601413875818253
96.0,0.07413290441036224
104.0,0.0733574777841568
112.0,0.07308577001094818
120.0,0.07338643074035645
128.0,0.07293961197137833
144.0,0.0677855908870697
160.0,0.06134768947958946
176.0,0.05570002272725105
192.0,0.0516955740749836
208.0,0.048035040497779846
224.0,0.044140081852674484
240.0,0.03984782472252846
256.0,0.03455108776688576
288.0,0.02181410975754261
320.0,0.01044928003102541
352.0,0.0038301306776702404
384.0,0.00032654881943017244
416.0,-0.0008862203103490174
448.0,-0.0008958727121353149
480.0,-0.000551889999769628
512.0,-0.0005612575332634151
576.0,-0.0020614489912986755
640.0,-0.0026912419125437737
704.0,-0.0018508074572309852
768.0,-0.002416192786768079
832.0,-0.0023671193048357964
896.0,-0.0020280564203858376
960.0,-0.0016100237844511867
1024.0,-0.0007267490727826953
1152.0,-0.0011452033650130033
1280.0,-0.0018889957573264837
1408.0,-0.0020696024876087904
1536.0,-0.0010699959238991141
1664.0,-0.0006574968574568629
1792.0,-0.0002359071368118748
1920.0,-0.000282636727206409
2048.0,-0.00018136147991754115
2304.0,-0.0007015352603048086
2560.0,-0.0008192399400286376
2816.0,0.009290063753724098
3072.0,0.005956667475402355
3328.0,-0.00043014739640057087
3584.0,-0.002563639311119914
3840.0,-0.0027784330304712057
4096.0,-0.0014591454528272152
4608.0,-0.0026185058522969484
5120.0,-0.0016756553668528795
5632.0,-0.0037321678828448057
6144.0,-0.0032862636726349592
6656.0,-0.002048608846962452
7168.0,-0.0038926557172089815
7680.0,-0.004074792377650738
8192.0,-0.0049841683357954025
9216.0,0.0013289133785292506
10240.0,-0.009280713275074959
11264.0,-0.009308002889156342
12288.0,-0.011129171587526798
13312.0,-0.01988544501364231
14336.0,0.025781774893403053
end
