version,3.0
numOfCh,1
type,point
parent_name,dirty_50dot0-0dot1
ch_type,1_1
kcount,1
numberNandB,1
brightnessNandB,1
carpet pos,0
pc,0
Time (ms),CH1 Auto-Correlation
1.0,0.05994787812232971
2.0,0.05700703710317612
3.0,0.05565337464213371
4.0,0.054257214069366455
5.0,0.0530741848051548
6.0,0.051811061799526215
7.0,0.05062727630138397
8.0,0.04948025569319725
9.0,0.049068089574575424
10.0,0.0479663610458374
11.0,0.0473671518266201
12.0,0.04670506715774536
13.0,0.04624774679541588
14.0,0.04550967365503311
15.0,0.04529757425189018
16.0,0.04470134526491165
18.0,0.043963734060525894
20.0,0.04277089610695839
22.0,0.041987739503383636
24.0,0.040825504809617996
26.0,0.03993432968854904
28.0,0.03831503167748451
30.0,0.03711641579866409
32.0,0.03598621115088463
36.0,0.03410664573311806
40.0,0.033151090145111084
44.0,0.031914498656988144
48.0,0.030765758827328682
52.0,0.029071100056171417
56.0,0.027812732383608818
60.0,0.026400811970233917
64.0,0.02464120462536812
72.0,0.02198784612119198
80.0,0.020416907966136932
88.0,0.020186109468340874
96.0,0.01942969486117363
104.0,0.018370086327195168
112.0,0.016514742746949196
120.0,0.015152579173445702
128.0,0.013120018877089024
144.0,0.011272735893726349
160.0,0.009929397143423557
176.0,0.008314273320138454
192.0,0.008029021322727203
208.0,0.007898948155343533
224.0,0.007897788658738136
240.0,0.008970524184405804
256.0,0.0096970796585083
288.0,0.005510194692760706
320.0,0.0005389119614847004
352.0,-0.0006243289681151509
384.0,-0.0008846316486597061
416.0,-0.0013698466354981065
448.0,-0.0016400840831920505
480.0,-0.0018187366658821702
512.0,-0.0019651297479867935
576.0,-0.0011398149654269218
640.0,9.968922677217051e-05
704.0,-0.00014291334082372487
768.0,-0.0007394820568151772
832.0,-0.0008404736872762442
896.0,-0.0012969004455953836
960.0,-0.001354510197415948
1024.0,-0.0005634760018438101
1152.0,-0.00039150702650658786
1280.0,0.0007669638725928962
1408.0,0.001811621943488717
1536.0,0.001835590461269021
1664.0,-0.000905584660358727
1792.0,-0.0013423057971522212
1920.0,-0.0017350711859762669
2048.0,-0.0017902733525261283
2304.0,-0.0016281045973300934
2560.0,-0.0012055172119289637
2816.0,-0.000607518944889307
3072.0,-0.001157908234745264
3328.0,-0.0015782125992700458
3584.0,-0.0016466532833874226
3840.0,-0.0018082119058817625
4096.0,-0.002941085258498788
4608.0,-0.0025395862758159637
5120.0,-0.0022572868037968874
5632.0,-0.0012160709593445063
6144.0,-0.0012022035662084818
6656.0,-0.0014771351125091314
7168.0,-0.001822958467528224
7680.0,-0.0006811071070842445
8192.0,0.0009828574256971478
9216.0,0.00038547482108697295
10240.0,0.010439294390380383
11264.0,-0.00014618822024203837
12288.0,-0.001483467174693942
13312.0,-0.001834029215388
14336.0,-0.0029905028641223907
end
