version,3.0
numOfCh,1
type,point
parent_name,19e3e_0dot069-1dot0
ch_type,1_1
kcount,1
numberNandB,1
brightnessNandB,1
carpet pos,0
pc,0
Time (ms),CH1 Auto-Correlation
1.0,0.06499273329973221
2.0,0.06422235071659088
3.0,0.06352725625038147
4.0,0.06286713480949402
5.0,0.062253255397081375
6.0,0.06167919561266899
7.0,0.061129309237003326
8.0,0.060621608048677444
9.0,0.060096170753240585
10.0,0.059590116143226624
11.0,0.05916241183876991
12.0,0.05871838703751564
13.0,0.05827440693974495
14.0,0.05783842131495476
15.0,0.05738368630409241
16.0,0.056969109922647476
18.0,0.056148480623960495
20.0,0.055388521403074265
22.0,0.05468539521098137
24.0,0.05406012386083603
26.0,0.05348113179206848
28.0,0.05289466679096222
30.0,0.05228440463542938
32.0,0.05172201618552208
36.0,0.0505765900015831
40.0,0.049501992762088776
44.0,0.048391204327344894
48.0,0.04725344479084015
52.0,0.0461420975625515
56.0,0.0450955405831337
60.0,0.044009678065776825
64.0,0.0428818054497242
72.0,0.04067692905664444
80.0,0.038496118038892746
88.0,0.036244165152311325
96.0,0.034197501838207245
104.0,0.03268519416451454
112.0,0.03114555962383747
120.0,0.029624979943037033
128.0,0.028316808864474297
144.0,0.026230137795209885
160.0,0.024196671321988106
176.0,0.022290438413619995
192.0,0.020637299865484238
208.0,0.019050316885113716
224.0,0.017569981515407562
240.0,0.016061104834079742
256.0,0.01497084740549326
288.0,0.012985210865736008
320.0,0.011802689172327518
352.0,0.01088583655655384
384.0,0.01012879703193903
416.0,0.009680301882326603
448.0,0.010511237196624279
480.0,0.010477392002940178
512.0,0.010734084993600845
576.0,0.0138954883441329
640.0,0.01731242425739765
704.0,0.016500432044267654
768.0,0.014240816235542297
832.0,0.010148261673748493
896.0,0.004817990120500326
960.0,0.0014680445892736316
1024.0,0.0018600929761305451
1152.0,0.0022395309060811996
1280.0,0.0046262904070317745
1408.0,0.0071009621024131775
1536.0,0.007618803530931473
1664.0,0.0017426214180886745
1792.0,-0.007578536402434111
1920.0,-0.011994796805083752
2048.0,-0.004972396418452263
2304.0,0.0055958847515285015
2560.0,0.0002789309364743531
2816.0,0.0033383453264832497
3072.0,0.0016099059721454978
3328.0,-0.005227443762123585
3584.0,0.004183344542980194
3840.0,0.008526780642569065
4096.0,0.0022904411889612675
4608.0,-0.0025757986586540937
5120.0,-0.0023627872578799725
5632.0,-0.012764640152454376
6144.0,-0.010833569802343845
6656.0,-0.011189711280167103
7168.0,-0.0219064112752676
7680.0,-0.008736783638596535
8192.0,-0.011867032386362553
end
