version,3.0
numOfCh,1
type,point
parent_name,19e3e_0dot069-1dot0
ch_type,1_1
kcount,1
numberNandB,1
brightnessNandB,1
carpet pos,0
pc,0
Time (ms),CH1 Auto-Correlation
1.0,0.09749902039766312
2.0,0.09661906957626343
3.0,0.095819391310215
4.0,0.09504570066928864
5.0,0.0943104475736618
6.0,0.09356899559497833
7.0,0.09291382133960724
8.0,0.09234464168548584
9.0,0.09176859259605408
10.0,0.09116523712873459
11.0,0.0906214639544487
12.0,0.09003341943025589
13.0,0.08945471048355103
14.0,0.08896160870790482
15.0,0.08843401074409485
16.0,0.08795268088579178
18.0,0.08698854595422745
20.0,0.08602261543273926
22.0,0.08514001220464706
24.0,0.08427862077951431
26.0,0.08346562087535858
28.0,0.08266463875770569
30.0,0.08193107694387436
32.0,0.08120784163475037
36.0,0.079869344830513
40.0,0.07867434620857239
44.0,0.07756736874580383
48.0,0.07642900943756104
52.0,0.07524948567152023
56.0,0.0741138681769371
60.0,0.07308566570281982
64.0,0.07204461842775345
72.0,0.06996652483940125
80.0,0.068159319460392
88.0,0.06638811528682709
96.0,0.0648958832025528
104.0,0.06380903720855713
112.0,0.06279551237821579
120.0,0.061750005930662155
128.0,0.06048019230365753
144.0,0.05906888097524643
160.0,0.05747860670089722
176.0,0.05532314255833626
192.0,0.05286228656768799
208.0,0.05082295835018158
224.0,0.048915572464466095
240.0,0.047128092497587204
256.0,0.04584752768278122
288.0,0.04267106205224991
320.0,0.039920222014188766
352.0,0.037278853356838226
384.0,0.033627379685640335
416.0,0.02992805652320385
448.0,0.026500839740037918
480.0,0.02333976700901985
512.0,0.020545030012726784
576.0,0.01633649505674839
640.0,0.014733467251062393
704.0,0.011982711032032967
768.0,0.010341855697333813
832.0,0.007972605526447296
896.0,0.004991538822650909
960.0,0.007214285898953676
1024.0,0.0077394284307956696
1152.0,0.003205098444595933
1280.0,-0.0010748954955488443
1408.0,0.0022679371759295464
1536.0,0.0046491376124322414
1664.0,0.007407008204609156
1792.0,0.003616747912019491
1920.0,-0.0007030614069662988
2048.0,-0.001438180566765368
2304.0,-0.002406546613201499
2560.0,-0.010785267688333988
2816.0,-0.02791350707411766
3072.0,-0.02949032187461853
3328.0,-0.017134305089712143
3584.0,-0.013487384654581547
3840.0,-0.012902136892080307
4096.0,-0.007981197908520699
4608.0,-0.01173215638846159
5120.0,-0.016642246395349503
5632.0,-0.01601549983024597
6144.0,-0.019309096038341522
6656.0,-0.016213852912187576
7168.0,0.010709489695727825
7680.0,0.016842635348439217
8192.0,0.018085401505231857
end
