version,3.0
numOfCh,1
type,point
parent_name,19e3e_0dot069-1dot0
ch_type,1_1
kcount,1
numberNandB,1
brightnessNandB,1
carpet pos,0
pc,0
Time (ms),CH1 Auto-Correlation
1.0,0.0764455795288086
2.0,0.07561445981264114
3.0,0.0748811811208725
4.0,0.07419966161251068
5.0,0.07352295517921448
6.0,0.07288030534982681
7.0,0.07222924381494522
8.0,0.07162926346063614
9.0,0.07108476758003235
10.0,0.07055206596851349
11.0,0.07004795223474503
12.0,0.06955571472644806
13.0,0.0690343827009201
14.0,0.06854261457920074
15.0,0.06805697083473206
16.0,0.06755653768777847
18.0,0.06655416637659073
20.0,0.06551899015903473
22.0,0.06451455503702164
24.0,0.06352988630533218
26.0,0.06257010996341705
28.0,0.061607591807842255
30.0,0.06072336435317993
32.0,0.059844277799129486
36.0,0.0580899603664875
40.0,0.05637942627072334
44.0,0.05472485348582268
48.0,0.05318433791399002
52.0,0.05160478502511978
56.0,0.05004663020372391
60.0,0.048534832894802094
64.0,0.04697345197200775
72.0,0.04388875141739845
80.0,0.040956612676382065
88.0,0.03809347003698349
96.0,0.035672083497047424
104.0,0.03369179368019104
112.0,0.03182319924235344
120.0,0.029977791011333466
128.0,0.0283717792481184
144.0,0.02546987123787403
160.0,0.022753244265913963
176.0,0.02015121839940548
192.0,0.017430379986763
208.0,0.015372196212410927
224.0,0.013701816089451313
240.0,0.01228280644863844
256.0,0.010801498778164387
288.0,0.007779382169246674
320.0,0.0038255155086517334
352.0,5.100223279441707e-05
384.0,-0.0020087335724383593
416.0,-0.002863507019355893
448.0,-0.002237380016595125
480.0,-0.0004832030099350959
512.0,0.0019782946910709143
576.0,0.0053413002751767635
640.0,0.005815704818814993
704.0,0.004697134252637625
768.0,0.004580144304782152
832.0,0.0044225649908185005
896.0,0.004008700605481863
960.0,0.0034549208357930183
1024.0,0.0007898188778199255
1152.0,0.0005254382849670947
1280.0,-0.0032796103041619062
1408.0,0.003216407960280776
1536.0,0.013111413456499577
1664.0,0.01184189971536398
1792.0,0.009811699390411377
1920.0,-0.0010850387625396252
2048.0,-0.0036423425190150738
2304.0,-0.003066828241571784
2560.0,0.0014185939216986299
2816.0,0.006119521800428629
3072.0,0.005083040334284306
3328.0,0.0015135747380554676
3584.0,-0.0004234108200762421
3840.0,-0.007581479847431183
4096.0,-0.009740062057971954
4608.0,-0.005486698355525732
5120.0,-0.002957009943202138
5632.0,0.005350273568183184
6144.0,-0.005101082846522331
6656.0,0.008236000314354897
7168.0,0.00631225761026144
7680.0,-0.0030850404873490334
8192.0,0.013142770156264305
end
