version,3.0
numOfCh,1
type,point
parent_name,19e3e_0dot069-1dot0
ch_type,1_1
kcount,1
numberNandB,1
brightnessNandB,1
carpet pos,0
pc,0
Time (ms),CH1 Auto-Correlation
1.0,0.07229730486869812
2.0,0.07112646102905273
3.0,0.07018960267305374
4.0,0.06943775713443756
5.0,0.06870084255933762
6.0,0.06795842945575714
7.0,0.06733705848455429
8.0,0.06675752997398376
9.0,0.06617366522550583
10.0,0.0656074807047844
11.0,0.06501203775405884
12.0,0.0643298402428627
13.0,0.06372340023517609
14.0,0.06312357634305954
15.0,0.06255636364221573
16.0,0.061997439712285995
18.0,0.06103544682264328
20.0,0.06004362180829048
22.0,0.059090036898851395
24.0,0.05808350816369057
26.0,0.05718008056282997
28.0,0.05626712366938591
30.0,0.05536438152194023
32.0,0.0545598641037941
36.0,0.05306955799460411
40.0,0.051699310541152954
44.0,0.05025872960686684
48.0,0.04883556440472603
52.0,0.047367893159389496
56.0,0.04601672291755676
60.0,0.044792018830776215
64.0,0.0434638112783432
72.0,0.04139560088515282
80.0,0.03950563818216324
88.0,0.03810308501124382
96.0,0.0366940051317215
104.0,0.035616543143987656
112.0,0.034354232251644135
120.0,0.03293426334857941
128.0,0.031732842326164246
144.0,0.029463231563568115
160.0,0.026974018663167953
176.0,0.024176843464374542
192.0,0.022518865764141083
208.0,0.021106485277414322
224.0,0.01988164521753788
240.0,0.018804069608449936
256.0,0.017028043046593666
288.0,0.012416147626936436
320.0,0.008372342213988304
352.0,0.00586375268176198
384.0,0.004333805292844772
416.0,0.0024629421532154083
448.0,0.0009545845678076148
480.0,0.0008436357602477074
512.0,0.001658530905842781
576.0,0.0035982539411634207
640.0,0.0033811263274401426
704.0,0.0030491328798234463
768.0,0.004438214004039764
832.0,0.004940043203532696
896.0,0.0049097309820353985
960.0,0.006582261063158512
1024.0,0.00642752181738615
1152.0,-0.004189669154584408
1280.0,-0.0014846818521618843
1408.0,-0.0012713470496237278
1536.0,0.001072147162631154
1664.0,-0.0012929855147376657
1792.0,-0.009377182461321354
1920.0,-0.012380201369524002
2048.0,-0.0062519097700715065
2304.0,0.0029484261758625507
2560.0,0.0014813403831794858
2816.0,0.000791665690485388
3072.0,0.0058712405152618885
3328.0,0.000929890782572329
3584.0,-0.005155705381184816
3840.0,-0.008379540406167507
4096.0,-0.013363305479288101
4608.0,-0.004066839348524809
5120.0,0.0012310427846387029
5632.0,0.0001052090956363827
6144.0,0.008389230817556381
6656.0,-0.0029615210369229317
7168.0,-0.009128302335739136
7680.0,-0.021663624793291092
8192.0,-0.006814287975430489
end
