version,3.0
numOfCh,1
type,point
parent_name,19e3e_0dot069-1dot0
ch_type,1_1
kcount,1
numberNandB,1
brightnessNandB,1
carpet pos,0
pc,0
Time (ms),CH1 Auto-Correlation
1.0,0.10442356020212173
2.0,0.10359793901443481
3.0,0.10281899571418762
4.0,0.10209473222494125
5.0,0.10139599442481995
6.0,0.10070700943470001
7.0,0.10000693798065186
8.0,0.09936699271202087
9.0,0.09878616034984589
10.0,0.09816506505012512
11.0,0.0975610613822937
12.0,0.0970081016421318
13.0,0.09644558280706406
14.0,0.09586569666862488
15.0,0.09529826790094376
16.0,0.09472372382879257
18.0,0.09371032565832138
20.0,0.09274666011333466
22.0,0.09180524945259094
24.0,0.0908835306763649
26.0,0.08999607712030411
28.0,0.08914729207754135
30.0,0.08832554519176483
32.0,0.08751450479030609
36.0,0.08585330843925476
40.0,0.0841943621635437
44.0,0.0826004296541214
48.0,0.08102958649396896
52.0,0.07950415462255478
56.0,0.07803981006145477
60.0,0.07666773349046707
64.0,0.07537472993135452
72.0,0.07303490489721298
80.0,0.07071157544851303
88.0,0.06869667023420334
96.0,0.0665721669793129
104.0,0.06444082409143448
112.0,0.06270957738161087
120.0,0.0611882358789444
128.0,0.05974607169628143
144.0,0.056815631687641144
160.0,0.054536838084459305
176.0,0.05242075026035309
192.0,0.050030287355184555
208.0,0.04750027135014534
224.0,0.04509371891617775
240.0,0.04301106929779053
256.0,0.04131017252802849
288.0,0.04134491831064224
320.0,0.04184360429644585
352.0,0.03903595358133316
384.0,0.03442997485399246
416.0,0.030634991824626923
448.0,0.025974610820412636
480.0,0.02249475196003914
512.0,0.021337514743208885
576.0,0.018595188856124878
640.0,0.01817602850496769
704.0,0.018895775079727173
768.0,0.01664537377655506
832.0,0.015515169128775597
896.0,0.015599195845425129
960.0,0.012809381820261478
1024.0,0.010525509715080261
1152.0,0.003010498359799385
1280.0,-0.0008185249753296375
1408.0,-0.005264296196401119
1536.0,-0.009784113615751266
1664.0,-0.016110090538859367
1792.0,-0.02290804125368595
1920.0,-0.03250332921743393
2048.0,-0.034882765263319016
2304.0,-0.029534878209233284
2560.0,-0.023581035435199738
2816.0,-0.02287609502673149
3072.0,-0.008530765771865845
3328.0,0.0035490295849740505
3584.0,0.004337171092629433
3840.0,0.003571518464013934
4096.0,0.012065771967172623
4608.0,0.012151324190199375
5120.0,-0.003176345257088542
5632.0,-0.0255715511739254
6144.0,-0.02610175870358944
6656.0,-0.022712893784046173
7168.0,-0.0064391703344881535
7680.0,0.00394609197974205
8192.0,0.014933556318283081
end
