version,3.0
numOfCh,1
type,point
parent_name,19e3e_0dot069-1dot0
ch_type,1_1
kcount,1
numberNandB,1
brightnessNandB,1
carpet pos,0
pc,0
Time (ms),CH1 Auto-Correlation
1.0,0.08423691242933273
2.0,0.08322978764772415
3.0,0.08238506317138672
4.0,0.08167286217212677
5.0,0.0810878574848175
6.0,0.0804692879319191
7.0,0.07992184907197952
8.0,0.0793362408876419
9.0,0.0787055566906929
10.0,0.07809655368328094
11.0,0.07752398401498795
12.0,0.07697319984436035
13.0,0.07647354900836945
14.0,0.07594814896583557
15.0,0.07543813437223434
16.0,0.07494325190782547
18.0,0.07398480176925659
20.0,0.0730297639966011
22.0,0.072147898375988
24.0,0.07124374806880951
26.0,0.0703672245144844
28.0,0.06951477378606796
30.0,0.06868201494216919
32.0,0.06780906021595001
36.0,0.06619267165660858
40.0,0.06480419635772705
44.0,0.06346774101257324
48.0,0.06209216266870499
52.0,0.06065851449966431
56.0,0.05918712168931961
60.0,0.05754077062010765
64.0,0.056110985577106476
72.0,0.053388483822345734
80.0,0.05099603161215782
88.0,0.04869237542152405
96.0,0.04654499143362045
104.0,0.04470293968915939
112.0,0.04306422173976898
120.0,0.04177843779325485
128.0,0.04045098274946213
144.0,0.038033220916986465
160.0,0.0361611470580101
176.0,0.03413289785385132
192.0,0.031638119369745255
208.0,0.028625410050153732
224.0,0.025510283187031746
240.0,0.022958163172006607
256.0,0.02041945420205593
288.0,0.015432336367666721
320.0,0.01074795052409172
352.0,0.007764208596199751
384.0,0.006745386403053999
416.0,0.0070930542424321175
448.0,0.007295429706573486
480.0,0.006618920713663101
512.0,0.006096272263675928
576.0,0.007241455838084221
640.0,0.004407169762998819
704.0,0.0010125598637387156
768.0,0.0020052925683557987
832.0,0.002286110306158662
896.0,4.640856059268117e-05
960.0,-0.003704532515257597
1024.0,-0.0032636120449751616
1152.0,-0.005569498520344496
1280.0,-0.009264476597309113
1408.0,-0.014986192807555199
1536.0,-0.012944632209837437
1664.0,-0.009259148500859737
1792.0,-0.011833150871098042
1920.0,-0.014653082937002182
2048.0,-0.016346249729394913
2304.0,-0.015265578404068947
2560.0,-0.009569741785526276
2816.0,0.005808137357234955
3072.0,0.008567556738853455
3328.0,0.0021850441116839647
3584.0,0.005375419277697802
3840.0,0.007365486118942499
4096.0,0.00911825429648161
4608.0,-0.005767380353063345
5120.0,-0.016035782173275948
5632.0,-0.011031356640160084
6144.0,-0.001737697166390717
6656.0,0.0025834778789430857
7168.0,0.009388812817633152
7680.0,-0.008514688350260258
8192.0,0.0004414867435116321
end
