version,3.0
numOfCh,1
type,point
parent_name,19e3e_0dot069-1dot0
ch_type,1_1
kcount,1
numberNandB,1
brightnessNandB,1
carpet pos,0
pc,0
Time (ms),CH1 Auto-Correlation
1.0,0.1093149408698082
2.0,0.10819180309772491
3.0,0.10731861740350723
4.0,0.10640764981508255
5.0,0.10569240152835846
6.0,0.10500910878181458
7.0,0.10434328019618988
8.0,0.10364421457052231
9.0,0.1029697135090828
10.0,0.102377749979496
11.0,0.10179544985294342
12.0,0.1012301966547966
13.0,0.100692979991436
14.0,0.10011149942874908
15.0,0.09949877858161926
16.0,0.09890474379062653
18.0,0.09779349714517593
20.0,0.09687811881303787
22.0,0.09600052237510681
24.0,0.09506931155920029
26.0,0.09417802095413208
28.0,0.09330419450998306
30.0,0.09248198568820953
32.0,0.09170255064964294
36.0,0.09010882675647736
40.0,0.08833935111761093
44.0,0.08656388521194458
48.0,0.08493538945913315
52.0,0.08344709128141403
56.0,0.08189714699983597
60.0,0.08064735680818558
64.0,0.07948295772075653
72.0,0.0772162452340126
80.0,0.07521349936723709
88.0,0.07344541698694229
96.0,0.07154039293527603
104.0,0.06963026523590088
112.0,0.06778550148010254
120.0,0.06570040434598923
128.0,0.06368672102689743
144.0,0.0598021075129509
160.0,0.056493405252695084
176.0,0.053929880261421204
192.0,0.05142560601234436
208.0,0.048844113945961
224.0,0.04653068631887436
240.0,0.043364379554986954
256.0,0.04086858406662941
288.0,0.0365358404815197
320.0,0.0341368205845356
352.0,0.034803323447704315
384.0,0.03418762981891632
416.0,0.03175782412290573
448.0,0.028056126087903976
480.0,0.024308405816555023
512.0,0.021493885666131973
576.0,0.017778681591153145
640.0,0.015769807621836662
704.0,0.015507248230278492
768.0,0.016224633902311325
832.0,0.021539747714996338
896.0,0.02556477300822735
960.0,0.026455527171492577
1024.0,0.027365854009985924
1152.0,0.02199208363890648
1280.0,0.02150011621415615
1408.0,0.01808062754571438
1536.0,0.014612366445362568
1664.0,0.011752558872103691
1792.0,0.01154263224452734
1920.0,0.017356134951114655
2048.0,0.020293526351451874
2304.0,0.0292450450360775
2560.0,0.02407822012901306
2816.0,0.015445825643837452
3072.0,0.0159152839332819
3328.0,0.014310651458799839
3584.0,-0.0003410371136851609
3840.0,-0.002861494431272149
4096.0,-0.004476628266274929
4608.0,-0.0030540800653398037
5120.0,0.0063264453783631325
5632.0,-0.010996226221323013
6144.0,-0.030031030997633934
6656.0,-0.024938104674220085
7168.0,-0.024873849004507065
7680.0,-0.002395425457507372
8192.0,-0.02314145490527153
end
