version,3.0
numOfCh,1
type,point
parent_name,19e3e_0dot069-1dot0
ch_type,1_1
kcount,1
numberNandB,1
brightnessNandB,1
carpet pos,0
pc,0
Time (ms),CH1 Auto-Correlation
1.0,0.05979464203119278
2.0,0.05898287147283554
3.0,0.058266378939151764
4.0,0.057569585740566254
5.0,0.056902945041656494
6.0,0.0563039593398571
7.0,0.0556766502559185
8.0,0.0551253966987133
9.0,0.05464468151330948
10.0,0.05414978787302971
11.0,0.05363047868013382
12.0,0.05316115543246269
13.0,0.05271424725651741
14.0,0.05221940577030182
15.0,0.05177236720919609
16.0,0.05132517218589783
18.0,0.05048944428563118
20.0,0.049668870866298676
22.0,0.04891747608780861
24.0,0.04817834496498108
26.0,0.04746231064200401
28.0,0.04680578038096428
30.0,0.04616423323750496
32.0,0.045541729778051376
36.0,0.04430755227804184
40.0,0.04327547922730446
44.0,0.042187001556158066
48.0,0.041065920144319534
52.0,0.03993973508477211
56.0,0.038832906633615494
60.0,0.03780503198504448
64.0,0.036953799426555634
72.0,0.0356476753950119
80.0,0.0343327634036541
88.0,0.03300544619560242
96.0,0.03170331194996834
104.0,0.030258188024163246
112.0,0.029244298115372658
120.0,0.02837078645825386
128.0,0.027319807559251785
144.0,0.0250803604722023
160.0,0.023168101906776428
176.0,0.021930165588855743
192.0,0.020518522709608078
208.0,0.018575238063931465
224.0,0.01644834131002426
240.0,0.014515222981572151
256.0,0.012910638935863972
288.0,0.010774539783596992
320.0,0.009402483701705933
352.0,0.00801165122538805
384.0,0.006986924912780523
416.0,0.004778669681400061
448.0,0.0030670969281345606
480.0,0.0018256761832162738
512.0,3.700566594488919e-05
576.0,-0.0056162946857512
640.0,-0.010166083462536335
704.0,-0.012115773744881153
768.0,-0.013149833306670189
832.0,-0.0154036246240139
896.0,-0.017635243013501167
960.0,-0.019733523949980736
1024.0,-0.02013482339680195
1152.0,-0.01656404696404934
1280.0,-0.009184103459119797
1408.0,-0.0013076995965093374
1536.0,0.005189537536352873
1664.0,0.008098619058728218
1792.0,0.008859042078256607
1920.0,0.011144702322781086
2048.0,0.011089019477367401
2304.0,0.004304005764424801
2560.0,-0.0029306637588888407
2816.0,-0.0038108881562948227
3072.0,-0.0008367091068066657
3328.0,-0.002123042708262801
3584.0,0.005786639638245106
3840.0,0.00013472401769831777
4096.0,0.0005425038398243487
4608.0,-0.0031800621654838324
5120.0,0.0035622359719127417
5632.0,0.003463486908003688
6144.0,-0.0015186083037406206
6656.0,-0.00979060959070921
7168.0,-0.004181707743555307
7680.0,0.004144792445003986
8192.0,0.0009430947247892618
end
