version,3.0
numOfCh,1
type,point
parent_name,19e3e_0dot069-1dot0
ch_type,1_1
kcount,1
numberNandB,1
brightnessNandB,1
carpet pos,0
pc,0
Time (ms),CH1 Auto-Correlation
1.0,0.07928403466939926
2.0,0.07847384363412857
3.0,0.07777716219425201
4.0,0.07710634917020798
5.0,0.07653756439685822
6.0,0.07598806917667389
7.0,0.07546345144510269
8.0,0.07496481388807297
9.0,0.074504055082798
10.0,0.07403520494699478
11.0,0.07353216409683228
12.0,0.07307925820350647
13.0,0.07261362671852112
14.0,0.07215646654367447
15.0,0.07172279804944992
16.0,0.07128100842237473
18.0,0.07041977345943451
20.0,0.06960301101207733
22.0,0.06891675293445587
24.0,0.06821854412555695
26.0,0.06747480481863022
28.0,0.06672938913106918
30.0,0.06599827110767365
32.0,0.0652494952082634
36.0,0.0640004575252533
40.0,0.06279334425926208
44.0,0.06167593598365784
48.0,0.06051364168524742
52.0,0.05934673547744751
56.0,0.058270618319511414
60.0,0.0571853406727314
64.0,0.05618010088801384
72.0,0.054159946739673615
80.0,0.052141912281513214
88.0,0.05021054670214653
96.0,0.048235177993774414
104.0,0.04624275118112564
112.0,0.04439257085323334
120.0,0.04242204874753952
128.0,0.04035675898194313
144.0,0.03742944449186325
160.0,0.03516673669219017
176.0,0.0333704799413681
192.0,0.03208130970597267
208.0,0.03106531873345375
224.0,0.030058246105909348
240.0,0.02909194864332676
256.0,0.028006823733448982
288.0,0.02584783174097538
320.0,0.024730240926146507
352.0,0.023543791845440865
384.0,0.02176693268120289
416.0,0.01895410194993019
448.0,0.016551975160837173
480.0,0.014718177728354931
512.0,0.012335440143942833
576.0,0.010838491842150688
640.0,0.008469602093100548
704.0,0.006185854785144329
768.0,0.00237904186360538
832.0,0.001390380784869194
896.0,0.0038296065758913755
960.0,0.003170841373503208
1024.0,-0.0014217497082427144
1152.0,-0.005565396975725889
1280.0,-0.005231055431067944
1408.0,-0.004810482729226351
1536.0,-0.0052884905599057674
1664.0,-0.005189176183193922
1792.0,-0.004771918058395386
1920.0,0.0031495406292378902
2048.0,0.006354016251862049
2304.0,0.0030030005145817995
2560.0,-0.005522753577679396
2816.0,-0.006220478564500809
3072.0,-0.00248708575963974
3328.0,0.006849036086350679
3584.0,0.003899884410202503
3840.0,0.0029901578091084957
4096.0,0.0022205295972526073
4608.0,-0.014142293483018875
5120.0,-0.028890574350953102
5632.0,-0.013744331896305084
6144.0,-0.008890782482922077
6656.0,-0.0015969026135280728
7168.0,-0.0019034096039831638
7680.0,0.013196907006204128
8192.0,0.001097658183425665
end
