version,3.0
numOfCh,1
type,point
parent_name,19e3e_0dot069-1dot0
ch_type,1_1
kcount,1
numberNandB,1
brightnessNandB,1
carpet pos,0
pc,0
Time (ms),CH1 Auto-Correlation
1.0,0.12141019105911255
2.0,0.12028512358665466
3.0,0.11935529857873917
4.0,0.1185600608587265
5.0,0.11774495244026184
6.0,0.11695624887943268
7.0,0.11614351719617844
8.0,0.11551076918840408
9.0,0.11473073810338974
10.0,0.11400773376226425
11.0,0.11328509449958801
12.0,0.11256424337625504
13.0,0.11192531138658524
14.0,0.11131589859724045
15.0,0.11079567670822144
16.0,0.11024221777915955
18.0,0.10901715606451035
20.0,0.10791279375553131
22.0,0.1069064661860466
24.0,0.10587181150913239
26.0,0.10485529899597168
28.0,0.10381171107292175
30.0,0.1027962937951088
32.0,0.10188470035791397
36.0,0.10000734776258469
40.0,0.09827132523059845
44.0,0.09654998034238815
48.0,0.0949455201625824
52.0,0.09346689283847809
56.0,0.09212001413106918
60.0,0.09076821058988571
64.0,0.08941860496997833
72.0,0.08648093044757843
80.0,0.08373166620731354
88.0,0.08146855980157852
96.0,0.07943107932806015
104.0,0.07727966457605362
112.0,0.07499203830957413
120.0,0.07296021282672882
128.0,0.07105685770511627
144.0,0.06729601323604584
160.0,0.06388861685991287
176.0,0.06031890958547592
192.0,0.05807029455900192
208.0,0.05667160451412201
224.0,0.05503504350781441
240.0,0.053105149418115616
256.0,0.051250189542770386
288.0,0.04807211086153984
320.0,0.046006690710783005
352.0,0.04331256449222565
384.0,0.04140682518482208
416.0,0.04017633572220802
448.0,0.03823456913232803
480.0,0.037564899772405624
512.0,0.0362948402762413
576.0,0.03663525730371475
640.0,0.03440098091959953
704.0,0.034502144902944565
768.0,0.03100050427019596
832.0,0.02678879164159298
896.0,0.024437693879008293
960.0,0.023813283070921898
1024.0,0.023183276876807213
1152.0,0.02675626054406166
1280.0,0.022791406139731407
1408.0,0.01844303496181965
1536.0,0.014734671451151371
1664.0,0.009845921769738197
1792.0,0.010164336301386356
1920.0,-0.00506951566785574
2048.0,-0.016066184267401695
2304.0,-0.02932179532945156
2560.0,-0.038956742733716965
2816.0,-0.04015402868390083
3072.0,-0.04021482169628143
3328.0,-0.05154979228973389
3584.0,-0.05023416504263878
3840.0,-0.04086107015609741
4096.0,-0.029471511021256447
4608.0,-0.03265558183193207
5120.0,-0.022865453734993935
5632.0,0.010750322602689266
6144.0,0.023326244205236435
6656.0,0.02537134662270546
7168.0,0.048799529671669006
7680.0,0.036319222301244736
8192.0,0.018933339044451714
end
