version,3.0
numOfCh,1
type,point
parent_name,19e3e_0dot069-1dot0
ch_type,1_1
kcount,1
numberNandB,1
brightnessNandB,1
carpet pos,0
pc,0
Time (ms),CH1 Auto-Correlation
1.0,0.08064351230859756
2.0,0.08002258092164993
3.0,0.07944975793361664
4.0,0.07887281477451324
5.0,0.07830934226512909
6.0,0.0777924433350563
7.0,0.07726477086544037
8.0,0.0767376646399498
9.0,0.07620454579591751
10.0,0.07567625492811203
11.0,0.07514576613903046
12.0,0.07464054971933365
13.0,0.07413516193628311
14.0,0.07362306863069534
15.0,0.07312538474798203
16.0,0.07263776659965515
18.0,0.07169663161039352
20.0,0.07075941562652588
22.0,0.06987142562866211
24.0,0.06902255862951279
26.0,0.06814012676477432
28.0,0.06727183610200882
30.0,0.06643737107515335
32.0,0.06559709459543228
36.0,0.06406528502702713
40.0,0.06271754950284958
44.0,0.061468325555324554
48.0,0.060291919857263565
52.0,0.059217192232608795
56.0,0.05819764360785484
60.0,0.05732237175107002
64.0,0.0564952977001667
72.0,0.05469826981425285
80.0,0.05321609973907471
88.0,0.05209104344248772
96.0,0.051149655133485794
104.0,0.05018097162246704
112.0,0.049027685075998306
120.0,0.04786013439297676
128.0,0.046800870448350906
144.0,0.0447462722659111
160.0,0.043064042925834656
176.0,0.04172757640480995
192.0,0.04029015079140663
208.0,0.03901289775967598
224.0,0.03816935047507286
240.0,0.03750348463654518
256.0,0.03634657338261604
288.0,0.033210691064596176
320.0,0.030664829537272453
352.0,0.026325231418013573
384.0,0.021997971460223198
416.0,0.020366089418530464
448.0,0.019411902874708176
480.0,0.018543796613812447
512.0,0.018533580005168915
576.0,0.018486090004444122
640.0,0.017358092591166496
704.0,0.015349515713751316
768.0,0.013431228697299957
832.0,0.014209850691258907
896.0,0.011174590326845646
960.0,0.00842813029885292
1024.0,0.007730821147561073
1152.0,0.00941864587366581
1280.0,0.008793484419584274
1408.0,0.007669405546039343
1536.0,-0.001453212695196271
1664.0,-0.007042563054710627
1792.0,-0.014638290740549564
1920.0,-0.017132805660367012
2048.0,-0.016538023948669434
2304.0,-0.012513380497694016
2560.0,-0.02082563005387783
2816.0,-0.023262297734618187
3072.0,-0.02103159762918949
3328.0,-0.02159942500293255
3584.0,-0.01363291498273611
3840.0,-0.016713624820113182
4096.0,-0.02075825445353985
4608.0,-0.004425048362463713
5120.0,-0.008515429683029652
5632.0,-0.003402160480618477
6144.0,0.003145676339045167
6656.0,0.00838716421276331
7168.0,0.014895987696945667
7680.0,0.022091126069426537
8192.0,0.042254041880369186
end
