version,3.0
numOfCh,1
type,point
parent_name,19e3e_0dot069-1dot0
ch_type,1_1
kcount,1
numberNandB,1
brightnessNandB,1
carpet pos,0
pc,0
Time (ms),CH1 Auto-Correlation
1.0,0.0721411257982254
2.0,0.07131749391555786
3.0,0.07061168551445007
4.0,0.07004107534885406
5.0,0.06947555392980576
6.0,0.06888537108898163
7.0,0.0683598741889
8.0,0.06781385093927383
9.0,0.06726659089326859
10.0,0.0667571946978569
11.0,0.06628093868494034
12.0,0.06578205525875092
13.0,0.06528664380311966
14.0,0.06482711434364319
15.0,0.06439375877380371
16.0,0.06396235525608063
18.0,0.06305624544620514
20.0,0.06222361698746681
22.0,0.0614335797727108
24.0,0.06059703603386879
26.0,0.05978257954120636
28.0,0.05905352532863617
30.0,0.05836687237024307
32.0,0.05765935406088829
36.0,0.056307077407836914
40.0,0.05494828522205353
44.0,0.053644198924303055
48.0,0.052477896213531494
52.0,0.05134476721286774
56.0,0.05027765780687332
60.0,0.04926219582557678
64.0,0.04831243306398392
72.0,0.046472568064928055
80.0,0.044965557754039764
88.0,0.04344058036804199
96.0,0.041844893246889114
104.0,0.040203552693128586
112.0,0.0386543907225132
120.0,0.03714584559202194
128.0,0.03606480360031128
144.0,0.034328870475292206
160.0,0.03225650265812874
176.0,0.03031204827129841
192.0,0.028740020468831062
208.0,0.0273282453417778
224.0,0.02640501968562603
240.0,0.02552737668156624
256.0,0.025043373927474022
288.0,0.02440459467470646
320.0,0.02405187487602234
352.0,0.0246884748339653
384.0,0.024355212226510048
416.0,0.02332339808344841
448.0,0.022277290001511574
480.0,0.019607968628406525
512.0,0.017019784078001976
576.0,0.014056354761123657
640.0,0.012369838543236256
704.0,0.011794224381446838
768.0,0.010460782796144485
832.0,0.010134694166481495
896.0,0.00556236831471324
960.0,0.003973350860178471
1024.0,0.0022216481156647205
1152.0,0.0004901929059997201
1280.0,-0.0013388589723035693
1408.0,-0.008443049155175686
1536.0,-0.014253743924200535
1664.0,-0.012693244963884354
1792.0,-0.014324712567031384
1920.0,-0.013769539073109627
2048.0,-0.009496232494711876
2304.0,-0.009253454394638538
2560.0,-0.008409762755036354
2816.0,-0.009148996323347092
3072.0,-0.004177074879407883
3328.0,0.0010666570160537958
3584.0,0.005531157832592726
3840.0,0.004022987559437752
4096.0,0.00027655440499074757
4608.0,0.0016001997282728553
5120.0,-0.0030140418093651533
5632.0,0.0033073099330067635
6144.0,-0.0011794809252023697
6656.0,-0.0024129138328135014
7168.0,-0.0029221742879599333
7680.0,0.004298697225749493
8192.0,0.009711223654448986
end
