version,3.0
numOfCh,1
type,point
parent_name,19e3e_0dot069-1dot0
ch_type,1_1
kcount,1
numberNandB,1
brightnessNandB,1
carpet pos,0
pc,0
Time (ms),CH1 Auto-Correlation
1.0,0.08539779484272003
2.0,0.08446875959634781
3.0,0.08364533632993698
4.0,0.0829317569732666
5.0,0.08222772181034088
6.0,0.08158080279827118
7.0,0.08090565353631973
8.0,0.0802602767944336
9.0,0.07962602376937866
10.0,0.07904913276433945
11.0,0.07846372574567795
12.0,0.07790233939886093
13.0,0.07739616185426712
14.0,0.07682083547115326
15.0,0.07626768946647644
16.0,0.07568970322608948
18.0,0.07456076890230179
20.0,0.07345248013734818
22.0,0.07237985730171204
24.0,0.07129829376935959
26.0,0.07030142098665237
28.0,0.06930943578481674
30.0,0.0683240070939064
32.0,0.06743239611387253
36.0,0.06562044471502304
40.0,0.06390499323606491
44.0,0.06231232360005379
48.0,0.06091333553195
52.0,0.05976105108857155
56.0,0.05848569795489311
60.0,0.05731789022684097
64.0,0.056301720440387726
72.0,0.05410819128155708
80.0,0.051972534507513046
88.0,0.04991719126701355
96.0,0.048106174916028976
104.0,0.04611377790570259
112.0,0.04416213184595108
120.0,0.042308662086725235
128.0,0.04065360873937607
144.0,0.037905894219875336
160.0,0.03615012764930725
176.0,0.034283872693777084
192.0,0.03147948905825615
208.0,0.029151443392038345
224.0,0.027030766010284424
240.0,0.025559626519680023
256.0,0.024308256804943085
288.0,0.02256139926612377
320.0,0.021223479881882668
352.0,0.019674118608236313
384.0,0.018601834774017334
416.0,0.017659258097410202
448.0,0.015502889640629292
480.0,0.013382396660745144
512.0,0.012387794442474842
576.0,0.010136086493730545
640.0,0.010226546786725521
704.0,0.01166361290961504
768.0,0.014517012983560562
832.0,0.016828281804919243
896.0,0.016651108860969543
960.0,0.016917774453759193
1024.0,0.012728818692266941
1152.0,0.0039646802470088005
1280.0,-0.0017283306224271655
1408.0,-0.00420680595561862
1536.0,-0.005731232929974794
1664.0,-0.0012627317337319255
1792.0,-0.001327052596025169
1920.0,-0.00033024008735083044
2048.0,0.00210139830596745
2304.0,0.0005263445200398564
2560.0,-0.002029906492680311
2816.0,-0.0022635741624981165
3072.0,-0.002119045704603195
3328.0,0.002640008693560958
3584.0,-0.003354976186528802
3840.0,-0.011044350452721119
4096.0,-0.007103340700268745
4608.0,-0.007777044083923101
5120.0,0.005391520913690329
5632.0,0.0019608745351433754
6144.0,0.007121804635971785
6656.0,0.004515937529504299
7168.0,0.007958275265991688
7680.0,-0.0027826500590890646
8192.0,-0.00999546516686678
end
