version,3.0
numOfCh,1
type,point
parent_name,19e3e_0dot069-1dot0
ch_type,1_1
kcount,1
numberNandB,1
brightnessNandB,1
carpet pos,0
pc,0
Time (ms),CH1 Auto-Correlation
1.0,0.09917861223220825
2.0,0.09816388040781021
3.0,0.09732520580291748
4.0,0.09653124213218689
5.0,0.09575671702623367
6.0,0.09506287425756454
7.0,0.09434489905834198
8.0,0.09359148144721985
9.0,0.09294169396162033
10.0,0.09234670549631119
11.0,0.09169726073741913
12.0,0.09104739874601364
13.0,0.09045998007059097
14.0,0.08984784036874771
15.0,0.0892399251461029
16.0,0.08866994827985764
18.0,0.0876215398311615
20.0,0.08663801848888397
22.0,0.0857032909989357
24.0,0.08484849333763123
26.0,0.08398919552564621
28.0,0.08317086100578308
30.0,0.08237004280090332
32.0,0.08165021240711212
36.0,0.08030284196138382
40.0,0.07893962413072586
44.0,0.07753589749336243
48.0,0.07628216594457626
52.0,0.07511943578720093
56.0,0.0740058645606041
60.0,0.07284712791442871
64.0,0.07161771506071091
72.0,0.06948334723711014
80.0,0.06750817596912384
88.0,0.06592818349599838
96.0,0.06478465348482132
104.0,0.06332647055387497
112.0,0.06179632991552353
120.0,0.060555923730134964
128.0,0.05915232002735138
144.0,0.05647445470094681
160.0,0.05391230806708336
176.0,0.051365166902542114
192.0,0.0480881966650486
208.0,0.04516590014100075
224.0,0.04249672219157219
240.0,0.0402921587228775
256.0,0.03818991780281067
288.0,0.03577640652656555
320.0,0.03290924057364464
352.0,0.029988626018166542
384.0,0.02594972588121891
416.0,0.022882644087076187
448.0,0.019939813762903214
480.0,0.01631753519177437
512.0,0.012227164581418037
576.0,0.006917848717421293
640.0,0.004227404482662678
704.0,0.0024888317566365004
768.0,0.0024129189550876617
832.0,0.0031551297288388014
896.0,0.0038122707046568394
960.0,0.007785629481077194
1024.0,0.01080702617764473
1152.0,0.00898834690451622
1280.0,0.010509294457733631
1408.0,0.007611279375851154
1536.0,-0.00010429162648506463
1664.0,-0.009166693314909935
1792.0,-0.012922514230012894
1920.0,-0.01537936832755804
2048.0,-0.016988564282655716
2304.0,-0.009301763959228992
2560.0,-0.004066692665219307
2816.0,0.002783684991300106
3072.0,0.0006633263546973467
3328.0,-0.004917083773761988
3584.0,-0.010484002530574799
3840.0,-0.005485196132212877
4096.0,0.010566829703748226
4608.0,0.012427577748894691
5120.0,-0.00907853338867426
5632.0,0.008567582815885544
6144.0,-0.03307877108454704
6656.0,-0.029344072565436363
7168.0,-0.01737288385629654
7680.0,-0.030679764226078987
8192.0,-0.0004325919144321233
end
