version,3.0
numOfCh,1
type,point
parent_name,19e3e_0dot069-1dot0
ch_type,1_1
kcount,1
numberNandB,1
brightnessNandB,1
carpet pos,0
pc,0
Time (ms),CH1 Auto-Correlation
1.0,0.09592623263597488
2.0,0.09513266384601593
3.0,0.09446609765291214
4.0,0.0938607007265091
5.0,0.09326569736003876
6.0,0.09273506700992584
7.0,0.0921810045838356
8.0,0.091638945043087
9.0,0.0910901203751564
10.0,0.09052078425884247
11.0,0.08998242765665054
12.0,0.08946781605482101
13.0,0.08896651864051819
14.0,0.08848536759614944
15.0,0.08803053945302963
16.0,0.08756124973297119
18.0,0.08657369017601013
20.0,0.0856468677520752
22.0,0.08475342392921448
24.0,0.08392296731472015
26.0,0.08306833356618881
28.0,0.08221228420734406
30.0,0.08140375465154648
32.0,0.08061788231134415
36.0,0.0791025459766388
40.0,0.07763341069221497
44.0,0.076141856610775
48.0,0.07467321306467056
52.0,0.07324580103158951
56.0,0.07197444140911102
60.0,0.07081858813762665
64.0,0.0697486475110054
72.0,0.06741608679294586
80.0,0.06486595422029495
88.0,0.062189314514398575
96.0,0.05954652652144432
104.0,0.05739429220557213
112.0,0.05580272898077965
120.0,0.05440536141395569
128.0,0.05312001332640648
144.0,0.050206925719976425
160.0,0.04720493033528328
176.0,0.04402768239378929
192.0,0.04172345623373985
208.0,0.04009473696351051
224.0,0.03844911605119705
240.0,0.036456577479839325
256.0,0.03466121852397919
288.0,0.03373634070158005
320.0,0.033016517758369446
352.0,0.03229517117142677
384.0,0.031894389539957047
416.0,0.03211046755313873
448.0,0.030789362266659737
480.0,0.02778012305498123
512.0,0.021541910246014595
576.0,0.013862604275345802
640.0,0.011099779978394508
704.0,0.0102850291877985
768.0,0.010774703696370125
832.0,0.009756113402545452
896.0,0.009757149033248425
960.0,0.005621503572911024
1024.0,-0.0001299580471822992
1152.0,-0.0019921420607715845
1280.0,-0.0003032291424460709
1408.0,-0.0035550305619835854
1536.0,-0.007217919919639826
1664.0,-0.003686498384922743
1792.0,0.004879245068877935
1920.0,0.008384020067751408
2048.0,0.01430340576916933
2304.0,0.012815306894481182
2560.0,0.013249031268060207
2816.0,0.007166773080825806
3072.0,0.006140553392469883
3328.0,-0.002185726771131158
3584.0,-0.012234542518854141
3840.0,-0.011619570665061474
4096.0,-0.005101632792502642
4608.0,0.008735071867704391
5120.0,0.012994666583836079
5632.0,-0.01862756721675396
6144.0,-0.027113545686006546
6656.0,-0.036167994141578674
7168.0,-0.011881699785590172
7680.0,-0.0012128803646191955
8192.0,-0.006439784541726112
end
