version,3.0
numOfCh,1
type,point
parent_name,19e3e_0dot069-1dot0
ch_type,1_1
kcount,1
numberNandB,1
brightnessNandB,1
carpet pos,0
pc,0
Time (ms),CH1 Auto-Correlation
1.0,0.08377239853143692
2.0,0.08288012444972992
3.0,0.08206427842378616
4.0,0.08130138367414474
5.0,0.08059120923280716
6.0,0.07993755489587784
7.0,0.07938379049301147
8.0,0.0787692591547966
9.0,0.07816778868436813
10.0,0.0776173397898674
11.0,0.07708153128623962
12.0,0.07654829323291779
13.0,0.07595852017402649
14.0,0.07537757605314255
15.0,0.07484059780836105
16.0,0.07424579560756683
18.0,0.07316874712705612
20.0,0.07210547477006912
22.0,0.07113555073738098
24.0,0.07020682096481323
26.0,0.06928668916225433
28.0,0.06842781603336334
30.0,0.06762761622667313
32.0,0.0668531060218811
36.0,0.06534293293952942
40.0,0.06392326951026917
44.0,0.06260211020708084
48.0,0.061430104076862335
52.0,0.06024712696671486
56.0,0.05903618410229683
60.0,0.05793532729148865
64.0,0.05682197958230972
72.0,0.05451057106256485
80.0,0.05241147056221962
88.0,0.050579361617565155
96.0,0.048679251223802567
104.0,0.04703982546925545
112.0,0.045810289680957794
120.0,0.044743429869413376
128.0,0.043746136128902435
144.0,0.04154722020030022
160.0,0.039755161851644516
176.0,0.0384097658097744
192.0,0.037370871752500534
208.0,0.03667360916733742
224.0,0.03662201017141342
240.0,0.03673233091831207
256.0,0.03623992204666138
288.0,0.032105304300785065
320.0,0.02776544913649559
352.0,0.02468864619731903
384.0,0.02279546670615673
416.0,0.02376619167625904
448.0,0.023928755894303322
480.0,0.02435348369181156
512.0,0.023197758942842484
576.0,0.02214912325143814
640.0,0.02271215058863163
704.0,0.024860838428139687
768.0,0.02474861405789852
832.0,0.02759048528969288
896.0,0.030646806582808495
960.0,0.030394207686185837
1024.0,0.03141016513109207
1152.0,0.030943801626563072
1280.0,0.023708276450634003
1408.0,0.019290782511234283
1536.0,0.012381400913000107
1664.0,0.010665756650269032
1792.0,0.008923301473259926
1920.0,0.010831579566001892
2048.0,0.006796030327677727
2304.0,0.0005915111978538334
2560.0,0.0009778309613466263
2816.0,-0.005544567946344614
3072.0,-0.023379279300570488
3328.0,-0.024216657504439354
3584.0,-0.014234649017453194
3840.0,-0.016087722033262253
4096.0,-0.03166438266634941
4608.0,-0.02658766135573387
5120.0,-0.028672851622104645
5632.0,-0.023569921031594276
6144.0,-0.027110198512673378
6656.0,-0.012608648277819157
7168.0,-0.005422378424555063
7680.0,0.0117186913266778
8192.0,0.00967155396938324
end
