version,3.0
numOfCh,1
type,point
parent_name,19e3e_0dot069-1dot0
ch_type,1_1
kcount,1
numberNandB,1
brightnessNandB,1
carpet pos,0
pc,0
Time (ms),CH1 Auto-Correlation
1.0,0.06693057715892792
2.0,0.06623350828886032
3.0,0.0656273290514946
4.0,0.06505877524614334
5.0,0.06452997028827667
6.0,0.06403864920139313
7.0,0.06355658173561096
8.0,0.0631212592124939
9.0,0.06267429888248444
10.0,0.062226809561252594
11.0,0.06177608296275139
12.0,0.061374496668577194
13.0,0.060945723205804825
14.0,0.060509324073791504
15.0,0.06009013578295708
16.0,0.05967751890420914
18.0,0.05891302973031998
20.0,0.05814683809876442
22.0,0.05742117390036583
24.0,0.056711602956056595
26.0,0.05600741133093834
28.0,0.055343687534332275
30.0,0.05464539676904678
32.0,0.05396300181746483
36.0,0.05262816697359085
40.0,0.05131881684064865
44.0,0.05004993826150894
48.0,0.04880698025226593
52.0,0.04755987599492073
56.0,0.04634298011660576
60.0,0.045104194432497025
64.0,0.0439518578350544
72.0,0.04183872044086456
80.0,0.039925575256347656
88.0,0.03818143531680107
96.0,0.0365956574678421
104.0,0.035075411200523376
112.0,0.033660318702459335
120.0,0.03223177045583725
128.0,0.030874470248818398
144.0,0.028280632570385933
160.0,0.025821011513471603
176.0,0.023229796439409256
192.0,0.020893080160021782
208.0,0.018372148275375366
224.0,0.016061583533883095
240.0,0.013933106325566769
256.0,0.011903722770512104
288.0,0.009006286039948463
320.0,0.007778287399560213
352.0,0.007270686328411102
384.0,0.006366570480167866
416.0,0.006388803943991661
448.0,0.0061479248106479645
480.0,0.005122344009578228
512.0,0.0018701074877753854
576.0,-0.0025015349965542555
640.0,-0.003051653504371643
704.0,-0.003325657919049263
768.0,-0.0031433571130037308
832.0,-0.002573297591879964
896.0,-0.0022212902549654245
960.0,-0.0020900501403957605
1024.0,-0.0037476010620594025
1152.0,0.0008074353681877255
1280.0,-0.00020485821005422622
1408.0,-0.0053472393192350864
1536.0,-0.0051431842148303986
1664.0,-0.0029204804450273514
1792.0,-0.0022948351688683033
1920.0,-0.000905506603885442
2048.0,0.00392120610922575
2304.0,0.00483418395742774
2560.0,-0.0057065156288445
2816.0,-0.007587671745568514
3072.0,0.004349954426288605
3328.0,0.00375107629224658
3584.0,-0.0005083075957372785
3840.0,-0.0025541908107697964
4096.0,0.0032493257895112038
4608.0,0.008038937114179134
5120.0,-0.0063622696325182915
5632.0,-0.010121774859726429
6144.0,-0.014474130235612392
6656.0,-0.003481269348412752
7168.0,0.0011720347683876753
7680.0,0.001957543194293976
8192.0,-0.00825156643986702
end
