version,3.0
numOfCh,1
type,point
parent_name,19e3e_0dot069-1dot0
ch_type,1_1
kcount,1
numberNandB,1
brightnessNandB,1
carpet pos,0
pc,0
Time (ms),CH1 Auto-Correlation
1.0,0.09493155777454376
2.0,0.09408660233020782
3.0,0.09344649314880371
4.0,0.09284812211990356
5.0,0.09221111238002777
6.0,0.09161102026700974
7.0,0.09102047234773636
8.0,0.09042304754257202
9.0,0.08991118520498276
10.0,0.08940937370061874
11.0,0.0889124646782875
12.0,0.08836651593446732
13.0,0.08788862824440002
14.0,0.08736561238765717
15.0,0.0868714451789856
16.0,0.08640401065349579
18.0,0.08549116551876068
20.0,0.08464695513248444
22.0,0.08382673561573029
24.0,0.08303943276405334
26.0,0.08228525519371033
28.0,0.08163619786500931
30.0,0.08095259219408035
32.0,0.0802815780043602
36.0,0.07886583358049393
40.0,0.0775897353887558
44.0,0.0764591246843338
48.0,0.07532846182584763
52.0,0.07423059642314911
56.0,0.07314185053110123
60.0,0.07206667959690094
64.0,0.071001335978508
72.0,0.06894616037607193
80.0,0.06703176349401474
88.0,0.06522103399038315
96.0,0.06335519999265671
104.0,0.06169964745640755
112.0,0.05997573211789131
120.0,0.05829710140824318
128.0,0.05666731670498848
144.0,0.05348549783229828
160.0,0.050037678331136703
176.0,0.04729897156357765
192.0,0.045084431767463684
208.0,0.04205247759819031
224.0,0.03934619948267937
240.0,0.03701312094926834
256.0,0.03530007228255272
288.0,0.03291318938136101
320.0,0.029775232076644897
352.0,0.027226494625210762
384.0,0.025332411751151085
416.0,0.02276729978621006
448.0,0.019260553643107414
480.0,0.01744069717824459
512.0,0.017244011163711548
576.0,0.017322571948170662
640.0,0.016554486006498337
704.0,0.013877645134925842
768.0,0.012105115689337254
832.0,0.013474141247570515
896.0,0.01735881343483925
960.0,0.020802989602088928
1024.0,0.021690180525183678
1152.0,0.017972538247704506
1280.0,0.015797249972820282
1408.0,0.01545677799731493
1536.0,0.014463921077549458
1664.0,0.014396416023373604
1792.0,0.010625790804624557
1920.0,0.013228224590420723
2048.0,0.02396232821047306
2304.0,0.010092382319271564
2560.0,-0.004110198933631182
2816.0,-0.005821020808070898
3072.0,0.009037625975906849
3328.0,0.002987759420648217
3584.0,0.002771705389022827
3840.0,0.0029641850851476192
4096.0,0.005504782777279615
4608.0,-0.01249021664261818
5120.0,-0.017087887972593307
5632.0,-0.00766081502661109
6144.0,-0.010531649924814701
6656.0,-0.02315709739923477
7168.0,-0.02343802899122238
7680.0,-0.016719145700335503
8192.0,-0.016470184549689293
end
