version,3.0
numOfCh,1
type,point
parent_name,19e3e_0dot069-1dot0
ch_type,1_1
kcount,1
numberNandB,1
brightnessNandB,1
carpet pos,0
pc,0
Time (ms),CH1 Auto-Correlation
1.0,0.08835197240114212
2.0,0.08768264949321747
3.0,0.08706823736429214
4.0,0.0864889919757843
5.0,0.08596397191286087
6.0,0.08543825149536133
7.0,0.08490699529647827
8.0,0.08437753468751907
9.0,0.08382106572389603
10.0,0.08329750597476959
11.0,0.08277676999568939
12.0,0.082274429500103
13.0,0.08177553117275238
14.0,0.08126607537269592
15.0,0.08077594637870789
16.0,0.08030577003955841
18.0,0.07931100577116013
20.0,0.07833205163478851
22.0,0.07740766555070877
24.0,0.0764857605099678
26.0,0.0756312757730484
28.0,0.07477062940597534
30.0,0.073911152780056
32.0,0.07308002561330795
36.0,0.07155075669288635
40.0,0.0700031965970993
44.0,0.0685763880610466
48.0,0.06727676093578339
52.0,0.06617536395788193
56.0,0.0651661604642868
60.0,0.06421484798192978
64.0,0.06330400705337524
72.0,0.06153250113129616
80.0,0.059800948947668076
88.0,0.05817927420139313
96.0,0.05668176710605621
104.0,0.05523966997861862
112.0,0.05369359999895096
120.0,0.05212707817554474
128.0,0.050727441906929016
144.0,0.048390086740255356
160.0,0.045930832624435425
176.0,0.04394568130373955
192.0,0.04269484430551529
208.0,0.04186316952109337
224.0,0.0406818650662899
240.0,0.03944507986307144
256.0,0.03829123079776764
288.0,0.03654535114765167
320.0,0.03400089219212532
352.0,0.03242906928062439
384.0,0.030802981927990913
416.0,0.029069125652313232
448.0,0.02624303102493286
480.0,0.023559482768177986
512.0,0.02218894101679325
576.0,0.019220151007175446
640.0,0.016208862885832787
704.0,0.010118577629327774
768.0,0.0036512084770947695
832.0,0.00205632159486413
896.0,0.004782770294696093
960.0,0.006659917999058962
1024.0,0.006720065604895353
1152.0,0.011971859261393547
1280.0,0.013803074136376381
1408.0,0.017802296206355095
1536.0,0.021684464067220688
1664.0,0.028328901156783104
1792.0,0.032523468136787415
1920.0,0.032000813633203506
2048.0,0.02656586654484272
2304.0,0.019064171239733696
2560.0,0.010795226320624352
2816.0,0.0041230302304029465
3072.0,0.006192234344780445
3328.0,0.014724275097250938
3584.0,0.026743361726403236
3840.0,0.023360153660178185
4096.0,0.009387126192450523
4608.0,-0.010215146467089653
5120.0,-0.011182475835084915
5632.0,-0.0075506665743887424
6144.0,-0.004641578998416662
6656.0,-0.016164526343345642
7168.0,-0.023622620850801468
7680.0,-0.020964892581105232
8192.0,-0.01933288387954235
end
