version,3.0
numOfCh,1
type,point
parent_name,19e3e_0dot069-1dot0
ch_type,1_1
kcount,1
numberNandB,1
brightnessNandB,1
carpet pos,0
pc,0
Time (ms),CH1 Auto-Correlation
1.0,0.08487089723348618
2.0,0.08406282216310501
3.0,0.08330941945314407
4.0,0.08264107257127762
5.0,0.08202087879180908
6.0,0.08142036199569702
7.0,0.08081002533435822
8.0,0.08021809905767441
9.0,0.07965672761201859
10.0,0.07907453179359436
11.0,0.07851377129554749
12.0,0.07798029482364655
13.0,0.07745875418186188
14.0,0.07693301141262054
15.0,0.07640394568443298
16.0,0.07589307427406311
18.0,0.07490796595811844
20.0,0.07401697337627411
22.0,0.07318853586912155
24.0,0.07240379601716995
26.0,0.07165531069040298
28.0,0.07094208896160126
30.0,0.0702148899435997
32.0,0.0695439800620079
36.0,0.06821118295192719
40.0,0.06691472977399826
44.0,0.06567975878715515
48.0,0.06461913138628006
52.0,0.06368176639080048
56.0,0.06284981966018677
60.0,0.06210356578230858
64.0,0.06136392056941986
72.0,0.059842657297849655
80.0,0.05827624350786209
88.0,0.05668129026889801
96.0,0.05512203648686409
104.0,0.05381784960627556
112.0,0.05264900624752045
120.0,0.05149327218532562
128.0,0.05035920813679695
144.0,0.04865732789039612
160.0,0.047413188964128494
176.0,0.046855777502059937
192.0,0.045647189021110535
208.0,0.044267911463975906
224.0,0.042751166969537735
240.0,0.04139731824398041
256.0,0.04057011380791664
288.0,0.03937378525733948
320.0,0.03827860206365585
352.0,0.037813905626535416
384.0,0.03696419298648834
416.0,0.03570874035358429
448.0,0.03484954312443733
480.0,0.03506048768758774
512.0,0.03507106751203537
576.0,0.03359397128224373
640.0,0.029990144073963165
704.0,0.025042638182640076
768.0,0.0227085892111063
832.0,0.022753437981009483
896.0,0.023402025923132896
960.0,0.02119920216500759
1024.0,0.022654542699456215
1152.0,0.020659832283854485
1280.0,0.014638086780905724
1408.0,0.012382354587316513
1536.0,0.011349642649292946
1664.0,0.0071826716884970665
1792.0,0.0036755953915417194
1920.0,0.0034903406631201506
2048.0,0.005087184254080057
2304.0,0.004562752787023783
2560.0,0.002392383525148034
2816.0,-0.0018616621382534504
3072.0,-0.0030521114822477102
3328.0,-0.002721402794122696
3584.0,-0.0013646919978782535
3840.0,-0.0055536748841404915
4096.0,-0.008858976885676384
4608.0,-0.012210150249302387
5120.0,-0.023330822587013245
5632.0,-0.020769484341144562
6144.0,-0.00531894713640213
6656.0,-0.003482092870399356
7168.0,0.003307182341814041
7680.0,-0.01215752400457859
8192.0,-0.0098010478541255
end
