version,3.0
numOfCh,1
type,point
parent_name,19e3e_0dot069-1dot0
ch_type,1_1
kcount,1
numberNandB,1
brightnessNandB,1
carpet pos,0
pc,0
Time (ms),CH1 Auto-Correlation
1.0,0.07682250440120697
2.0,0.07613357156515121
3.0,0.07547042518854141
4.0,0.07481034100055695
5.0,0.07421838492155075
6.0,0.0736510157585144
7.0,0.0730990394949913
8.0,0.07256050407886505
9.0,0.07207198441028595
10.0,0.07155101746320724
11.0,0.07111868262290955
12.0,0.07066552340984344
13.0,0.07020017504692078
14.0,0.06975522637367249
15.0,0.0692836195230484
16.0,0.06881243735551834
18.0,0.06794261932373047
20.0,0.06711149960756302
22.0,0.06622610241174698
24.0,0.065375417470932
26.0,0.06456827372312546
28.0,0.06378425657749176
30.0,0.06299860775470734
32.0,0.0622188001871109
36.0,0.06081852316856384
40.0,0.05938107520341873
44.0,0.057939231395721436
48.0,0.05663039907813072
52.0,0.0553862527012825
56.0,0.0542716346681118
60.0,0.05327824130654335
64.0,0.05233612284064293
72.0,0.05067899823188782
80.0,0.049049440771341324
88.0,0.04749005287885666
96.0,0.04580874741077423
104.0,0.04420674219727516
112.0,0.042606960982084274
120.0,0.040907640010118484
128.0,0.039265766739845276
144.0,0.03612436726689339
160.0,0.033498309552669525
176.0,0.03134286776185036
192.0,0.02913152240216732
208.0,0.027205940335989
224.0,0.025614434853196144
240.0,0.02390735037624836
256.0,0.02237611822783947
288.0,0.02089015208184719
320.0,0.019106827676296234
352.0,0.016751263290643692
384.0,0.015292457304894924
416.0,0.014492623507976532
448.0,0.012638821266591549
480.0,0.011029308661818504
512.0,0.009474540129303932
576.0,0.009230819530785084
640.0,0.009583036415278912
704.0,0.009290122427046299
768.0,0.00950691569596529
832.0,0.010919546708464622
896.0,0.01446226891130209
960.0,0.01598750241100788
1024.0,0.014801433309912682
1152.0,0.005441777873784304
1280.0,-0.0018846852472051978
1408.0,-0.00695732282474637
1536.0,-0.010819882154464722
1664.0,-0.01432089600712061
1792.0,-0.00967001635581255
1920.0,0.0005482843844220042
2048.0,0.0020309530664235353
2304.0,-0.00742298923432827
2560.0,-0.014083356596529484
2816.0,-0.0040282257832586765
3072.0,0.0025595761835575104
3328.0,0.0009161275811493397
3584.0,0.0005164372269064188
3840.0,0.001006613252684474
4096.0,0.002442154800519347
4608.0,-0.018639029935002327
5120.0,-0.025172002613544464
5632.0,-0.01557897124439478
6144.0,-0.005020623095333576
6656.0,0.0019266176968812943
7168.0,0.008513009175658226
7680.0,0.007720648776739836
8192.0,-0.0034502067137509584
end
