version,3.0
numOfCh,1
type,point
parent_name,0cd20_0dot4-1dot0
ch_type,1_1
kcount,1
numberNandB,1
brightnessNandB,1
carpet pos,0
pc,0
Time (ms),CH1 Auto-Correlation
1.0,0.12003690004348755
2.0,0.11502228677272797
3.0,0.11088442802429199
4.0,0.10574495792388916
5.0,0.10244416445493698
6.0,0.0988539606332779
7.0,0.09621886163949966
8.0,0.09381525218486786
9.0,0.0917024314403534
10.0,0.08995421230792999
11.0,0.0867147371172905
12.0,0.08419922739267349
13.0,0.08121917396783829
14.0,0.07811963558197021
15.0,0.07552579045295715
16.0,0.0733293816447258
18.0,0.06856417655944824
20.0,0.06533949077129364
22.0,0.06242486834526062
24.0,0.05936794355511665
26.0,0.05690455064177513
28.0,0.05394669249653816
30.0,0.05177817866206169
32.0,0.04939756914973259
36.0,0.045352738350629807
40.0,0.041923195123672485
44.0,0.03795614838600159
48.0,0.03531710058450699
52.0,0.03255164623260498
56.0,0.030022963881492615
60.0,0.02808033674955368
64.0,0.02706216834485531
72.0,0.02584683522582054
80.0,0.02477588690817356
88.0,0.023351285606622696
96.0,0.0222430769354105
104.0,0.022054243832826614
112.0,0.022218352183699608
120.0,0.02150760032236576
128.0,0.019481688737869263
144.0,0.01714402250945568
160.0,0.015404004603624344
176.0,0.012862126342952251
192.0,0.012207355350255966
208.0,0.01254679448902607
224.0,0.012174679897725582
240.0,0.009243405424058437
256.0,0.004015044309198856
288.0,0.002330309245735407
320.0,0.0041749668307602406
352.0,0.005692416336387396
384.0,0.005001109559088945
416.0,0.0017787854885682464
448.0,0.003572676097974181
480.0,0.003138143802061677
512.0,0.003246110398322344
576.0,0.0056927925907075405
640.0,0.0011819343781098723
704.0,0.0062850103713572025
768.0,0.0038250379730015993
832.0,0.0013824047055095434
896.0,0.007976717315614223
960.0,0.012836762703955173
1024.0,0.011401458643376827
1152.0,0.01164307538419962
1280.0,0.0032232548110187054
1408.0,0.0025617764331400394
1536.0,0.00690300902351737
1664.0,0.00030490802600979805
1792.0,-0.00360882212407887
1920.0,-0.0035472463350743055
2048.0,0.0002672026166692376
2304.0,-0.006713914684951305
2560.0,-0.002572939731180668
2816.0,-0.0029893796890974045
3072.0,0.004873283673077822
3328.0,-0.0016499509802088141
3584.0,0.00033127175993286073
3840.0,-0.0069281854666769505
4096.0,-0.0009398761903867126
4608.0,-0.0030012924689799547
5120.0,-0.009822978638112545
5632.0,-0.01209545973688364
6144.0,-0.0030938361305743456
6656.0,-0.015129512175917625
7168.0,0.0023037265054881573
7680.0,0.003979520872235298
8192.0,0.0004277544794604182
end
