version,3.0
numOfCh,1
type,point
parent_name,0cd20_0dot4-1dot0
ch_type,1_1
kcount,1
numberNandB,1
brightnessNandB,1
carpet pos,0
pc,0
Time (ms),CH1 Auto-Correlation
1.0,0.10283263027667999
2.0,0.09889525175094604
3.0,0.09508145600557327
4.0,0.09161534160375595
5.0,0.08848416805267334
6.0,0.08562216907739639
7.0,0.083010733127594
8.0,0.08056879043579102
9.0,0.0781601220369339
10.0,0.07588519155979156
11.0,0.07371434569358826
12.0,0.07172586768865585
13.0,0.06978432834148407
14.0,0.06800293177366257
15.0,0.06627654284238815
16.0,0.06471472978591919
18.0,0.061628200113773346
20.0,0.05888771265745163
22.0,0.056369099766016006
24.0,0.05370534211397171
26.0,0.05105181410908699
28.0,0.04864010587334633
30.0,0.046553388237953186
32.0,0.04482041299343109
36.0,0.04179177060723305
40.0,0.03910664841532707
44.0,0.036445263773202896
48.0,0.03428483381867409
52.0,0.03196924552321434
56.0,0.030018845573067665
60.0,0.028325114399194717
64.0,0.026833517476916313
72.0,0.023234406486153603
80.0,0.020335499197244644
88.0,0.018026290461421013
96.0,0.016015540808439255
104.0,0.014608156867325306
112.0,0.012855704873800278
120.0,0.010370892472565174
128.0,0.00824709702283144
144.0,0.005350323859602213
160.0,0.0035389037802815437
176.0,0.0037846709601581097
192.0,0.006024595350027084
208.0,0.007083456497639418
224.0,0.007179982960224152
240.0,0.00712784007191658
256.0,0.006501418072730303
288.0,0.007099934387952089
320.0,0.005543082486838102
352.0,0.00665769400075078
384.0,0.008907634764909744
416.0,0.008267080411314964
448.0,0.008355703204870224
480.0,0.007341963704675436
512.0,0.005543314386159182
576.0,0.006372123956680298
640.0,0.005649026483297348
704.0,0.004028657916933298
768.0,-0.005009392276406288
832.0,-0.009262056089937687
896.0,-0.005847863852977753
960.0,-0.009539566934108734
1024.0,-0.01667860709130764
1152.0,-0.006164589896798134
1280.0,-0.007429308723658323
1408.0,-0.007816649973392487
1536.0,-0.008620931766927242
1664.0,-0.004753174260258675
1792.0,-0.0011888497974723577
1920.0,-0.008989945985376835
2048.0,-0.0031062436755746603
2304.0,-0.006194600369781256
2560.0,-0.002005466725677252
2816.0,0.0005416173371486366
3072.0,0.0047101229429244995
3328.0,0.009547007270157337
3584.0,0.012209785170853138
3840.0,0.004909661132842302
4096.0,0.00721576577052474
4608.0,-0.00447241123765707
5120.0,-0.010405907407402992
5632.0,-0.005987117532640696
6144.0,0.0016789643559604883
6656.0,-0.000504097028169781
7168.0,0.006494457833468914
7680.0,0.012007326819002628
8192.0,-0.0027933174278587103
end
