version,3.0
numOfCh,1
type,point
parent_name,0cd20_0dot4-1dot0
ch_type,1_1
kcount,1
numberNandB,1
brightnessNandB,1
carpet pos,0
pc,0
Time (ms),CH1 Auto-Correlation
1.0,0.10694412142038345
2.0,0.10251178592443466
3.0,0.09856803715229034
4.0,0.09486130625009537
5.0,0.0914258062839508
6.0,0.0881538838148117
7.0,0.08511316776275635
8.0,0.08242640644311905
9.0,0.07972058653831482
10.0,0.0771666169166565
11.0,0.07477239519357681
12.0,0.07253903895616531
13.0,0.0704873725771904
14.0,0.06853149831295013
15.0,0.06670843809843063
16.0,0.06489334255456924
18.0,0.06179008260369301
20.0,0.0591205358505249
22.0,0.056482020765542984
24.0,0.05398019775748253
26.0,0.05170358344912529
28.0,0.04970007389783859
30.0,0.047950536012649536
32.0,0.046448010951280594
36.0,0.043675027787685394
40.0,0.04141707718372345
44.0,0.039296116679906845
48.0,0.037120603024959564
52.0,0.03506544232368469
56.0,0.03298056125640869
60.0,0.031313713639974594
64.0,0.02914920076727867
72.0,0.025044066831469536
80.0,0.020800795406103134
88.0,0.01730104349553585
96.0,0.015192123129963875
104.0,0.014140392653644085
112.0,0.013729983940720558
120.0,0.013948081992566586
128.0,0.013677769340574741
144.0,0.015052169561386108
160.0,0.013867462985217571
176.0,0.012109947390854359
192.0,0.011124658398330212
208.0,0.009982655756175518
224.0,0.006799576338380575
240.0,0.004711794201284647
256.0,0.004563955124467611
288.0,0.0045172530226409435
320.0,0.00637964578345418
352.0,0.007449681870639324
384.0,0.008963176049292088
416.0,0.01049035508185625
448.0,0.011506907641887665
480.0,0.01306055299937725
512.0,0.010230044834315777
576.0,0.0071067214012146
640.0,0.007857322692871094
704.0,0.005662568844854832
768.0,0.008162564598023891
832.0,0.008096504025161266
896.0,0.007635486777871847
960.0,0.007053488399833441
1024.0,-0.0006987359374761581
1152.0,0.0067829894833266735
1280.0,0.004040808882564306
1408.0,0.0026199768763035536
1536.0,0.00550285866484046
1664.0,0.0039710719138383865
1792.0,0.0007676811655983329
1920.0,-0.0034619884099811316
2048.0,-0.0008137429831549525
2304.0,-0.0021758819930255413
2560.0,0.00475966464728117
2816.0,-0.006369477137923241
3072.0,0.007288509048521519
3328.0,-0.008661509491503239
3584.0,0.003653943305835128
3840.0,-0.00445846701040864
4096.0,0.0036019287072122097
4608.0,-0.0025834215339273214
5120.0,0.0017055851640179753
5632.0,-0.0009308119770139456
6144.0,-0.004327805712819099
6656.0,-0.005115359555929899
7168.0,0.0003680765221361071
7680.0,0.0027488679625093937
8192.0,0.0008940842817537487
end
