version,3.0
numOfCh,1
type,point
parent_name,0cd20_0dot4-1dot0
ch_type,1_1
kcount,1
numberNandB,1
brightnessNandB,1
carpet pos,0
pc,0
Time (ms),CH1 Auto-Correlation
1.0,0.110711470246315
2.0,0.10582088679075241
3.0,0.1017119362950325
4.0,0.09778225421905518
5.0,0.09446358680725098
6.0,0.09101404994726181
7.0,0.0878525972366333
8.0,0.08486875891685486
9.0,0.08176013082265854
10.0,0.07868842780590057
11.0,0.07616515457630157
12.0,0.07374731451272964
13.0,0.07156907021999359
14.0,0.06975895166397095
15.0,0.06790748238563538
16.0,0.0659821555018425
18.0,0.0621846579015255
20.0,0.05877596512436867
22.0,0.05591263994574547
24.0,0.053322888910770416
26.0,0.05097324401140213
28.0,0.04877747967839241
30.0,0.0467197485268116
32.0,0.04488096758723259
36.0,0.04185570031404495
40.0,0.03913132846355438
44.0,0.03650377318263054
48.0,0.03402506187558174
52.0,0.03162769973278046
56.0,0.02906385064125061
60.0,0.026531154289841652
64.0,0.024428652599453926
72.0,0.023155314847826958
80.0,0.022777633741497993
88.0,0.021395957097411156
96.0,0.020158056169748306
104.0,0.01870497316122055
112.0,0.01784011721611023
120.0,0.01659717597067356
128.0,0.015554969199001789
144.0,0.013489844277501106
160.0,0.01386040449142456
176.0,0.014626664109528065
192.0,0.013177776709198952
208.0,0.007943005301058292
224.0,0.005967689212411642
240.0,0.00736719835549593
256.0,0.006696708966046572
288.0,0.004375533200800419
320.0,0.0034629306755959988
352.0,0.003220567014068365
384.0,0.0018140929751098156
416.0,0.0008693322306498885
448.0,-0.0015248516574501991
480.0,-0.0014941181289032102
512.0,0.0003885695477947593
576.0,-0.006561051122844219
640.0,-0.008943741209805012
704.0,-0.008207108825445175
768.0,-0.006729907356202602
832.0,-0.0033279829658567905
896.0,-0.0034512290731072426
960.0,-0.000997796538285911
1024.0,-0.0007710937061347067
1152.0,-0.0006211715517565608
1280.0,-0.00946304015815258
1408.0,-0.00513777369633317
1536.0,-0.0015626687090843916
1664.0,-0.003434798214584589
1792.0,0.002820775844156742
1920.0,0.0024584734346717596
2048.0,-0.0012392993085086346
2304.0,-0.007209462579339743
2560.0,-0.0067639900371432304
2816.0,0.002255548257380724
3072.0,-0.0023171224165707827
3328.0,-0.006970144808292389
3584.0,0.004838981665670872
3840.0,0.0176840927451849
4096.0,0.0047165267169475555
4608.0,-0.0040868609212338924
5120.0,-0.0008975864620879292
5632.0,0.0011584182502701879
6144.0,-0.006950628478080034
6656.0,-0.005369328428059816
7168.0,0.0011301056947559118
7680.0,0.00571142602711916
8192.0,0.007333254441618919
end
