version,3.0
numOfCh,1
type,point
parent_name,0cd20_0dot4-1dot0
ch_type,1_1
kcount,1
numberNandB,1
brightnessNandB,1
carpet pos,0
pc,0
Time (ms),CH1 Auto-Correlation
1.0,0.12237386405467987
2.0,0.11797671765089035
3.0,0.11391269415616989
4.0,0.11028880625963211
5.0,0.10699550807476044
6.0,0.10392974317073822
7.0,0.10099620372056961
8.0,0.09828601777553558
9.0,0.09585472196340561
10.0,0.09366535395383835
11.0,0.09164908528327942
12.0,0.08990448713302612
13.0,0.08801428973674774
14.0,0.08613886684179306
15.0,0.08443745225667953
16.0,0.08281991630792618
18.0,0.0797944888472557
20.0,0.07686872780323029
22.0,0.0741993710398674
24.0,0.07187487930059433
26.0,0.06936617195606232
28.0,0.06677740067243576
30.0,0.06446345150470734
32.0,0.062114786356687546
36.0,0.05818846821784973
40.0,0.05450381711125374
44.0,0.0510529950261116
48.0,0.04721682891249657
52.0,0.043639782816171646
56.0,0.04113791510462761
60.0,0.03897615522146225
64.0,0.03798486292362213
72.0,0.03651988506317139
80.0,0.03447379916906357
88.0,0.03198419138789177
96.0,0.029708463698625565
104.0,0.026869583874940872
112.0,0.024053962901234627
120.0,0.02084403857588768
128.0,0.018528785556554794
144.0,0.018089940771460533
160.0,0.015666304156184196
176.0,0.010899796150624752
192.0,0.00925582367926836
208.0,0.007607325911521912
224.0,0.006395701784640551
240.0,0.007355699315667152
256.0,0.007855895906686783
288.0,0.0005717866006307304
320.0,-0.001628822647035122
352.0,0.0003257670905441046
384.0,0.0018826270243152976
416.0,0.00601983442902565
448.0,0.002506816294044256
480.0,-0.0005166688933968544
512.0,0.0013138330541551113
576.0,-0.0009122928022406995
640.0,-0.007362428121268749
704.0,-0.01324389223009348
768.0,-0.012419149279594421
832.0,-0.012976824305951595
896.0,-0.012311195023357868
960.0,-0.005287317093461752
1024.0,-0.006035950966179371
1152.0,0.005760021973401308
1280.0,0.008412444964051247
1408.0,0.004098950419574976
1536.0,0.00210809288546443
1664.0,0.0009647361002862453
1792.0,0.00326870521530509
1920.0,-0.00844343937933445
2048.0,-0.01878352090716362
2304.0,-0.004731413908302784
2560.0,-0.002494941698387265
2816.0,0.006416895892471075
3072.0,0.001087056822143495
3328.0,-0.021881647408008575
3584.0,-0.014113259501755238
3840.0,-0.01165838073939085
4096.0,0.011571452021598816
4608.0,0.008720403537154198
5120.0,-0.0031584743410348892
5632.0,0.010993385687470436
6144.0,0.004191322717815638
6656.0,0.003308592364192009
7168.0,0.004421593155711889
7680.0,-0.013310487382113934
8192.0,-0.011752264574170113
end
