version,3.0
numOfCh,1
type,point
parent_name,0cd20_0dot4-1dot0
ch_type,1_1
kcount,1
numberNandB,1
brightnessNandB,1
carpet pos,0
pc,0
Time (ms),CH1 Auto-Correlation
1.0,0.11847623437643051
2.0,0.11463642865419388
3.0,0.11110884696245193
4.0,0.10773130506277084
5.0,0.10458165407180786
6.0,0.1016809269785881
7.0,0.09884674102067947
8.0,0.09616149961948395
9.0,0.0934867411851883
10.0,0.0909649059176445
11.0,0.08847193419933319
12.0,0.08609997481107712
13.0,0.0839148759841919
14.0,0.08184872567653656
15.0,0.07990358769893646
16.0,0.07793398946523666
18.0,0.07435827702283859
20.0,0.0712442696094513
22.0,0.06840290129184723
24.0,0.06571098417043686
26.0,0.06314164400100708
28.0,0.06061437726020813
30.0,0.058306317776441574
32.0,0.05626719817519188
36.0,0.05257153883576393
40.0,0.049420908093452454
44.0,0.046643324196338654
48.0,0.04437173530459404
52.0,0.0421186238527298
56.0,0.03998350724577904
60.0,0.03752252832055092
64.0,0.03519083186984062
72.0,0.03173265978693962
80.0,0.02887689508497715
88.0,0.026182202622294426
96.0,0.023781104013323784
104.0,0.021986188367009163
112.0,0.019323399290442467
120.0,0.01644258201122284
128.0,0.014747938141226768
144.0,0.01388607919216156
160.0,0.01340686995536089
176.0,0.011182154528796673
192.0,0.008141303434967995
208.0,0.0027719803620129824
224.0,-0.0010668355971574783
240.0,-0.0028932879213243723
256.0,-0.0022681914269924164
288.0,-0.001916459295898676
320.0,-0.0035214482340961695
352.0,0.0008413174655288458
384.0,0.001016266644001007
416.0,0.0011566749308258295
448.0,0.00448519317433238
480.0,0.004529186524450779
512.0,0.007788043934851885
576.0,0.004619205370545387
640.0,0.0015788641758263111
704.0,0.0005441179382614791
768.0,0.0007410041289404035
832.0,-0.000830260047223419
896.0,0.003515087766572833
960.0,0.0006576785817742348
1024.0,0.00026168348267674446
1152.0,-0.015834299847483635
1280.0,-0.011668507009744644
1408.0,0.007055065128952265
1536.0,0.00745511706918478
1664.0,0.00239533931016922
1792.0,-0.0007423958159051836
1920.0,-0.00023578917898703367
2048.0,-0.0005964867887087166
2304.0,0.005001717712730169
2560.0,-0.0071112364530563354
2816.0,0.0039378018118441105
3072.0,-0.001881592208519578
3328.0,0.0016982307424768806
3584.0,-0.006433593574911356
3840.0,0.011420655995607376
4096.0,-0.00896373763680458
4608.0,-0.0019639013335108757
5120.0,-0.0014650217490270734
5632.0,0.002049557166174054
6144.0,0.002108881250023842
6656.0,-0.0006472725071944296
7168.0,-0.008289995603263378
7680.0,-0.002192523330450058
8192.0,0.0008191881934180856
end
