version,3.0
numOfCh,1
type,point
parent_name,0cd20_0dot4-1dot0
ch_type,1_1
kcount,1
numberNandB,1
brightnessNandB,1
carpet pos,0
pc,0
Time (ms),CH1 Auto-Correlation
1.0,0.10844456404447556
2.0,0.10439614206552505
3.0,0.10092831403017044
4.0,0.09789199382066727
5.0,0.09511999040842056
6.0,0.09262660890817642
7.0,0.09009870141744614
8.0,0.087867870926857
9.0,0.08546048402786255
10.0,0.08321671187877655
11.0,0.08113300055265427
12.0,0.0792294591665268
13.0,0.07742886245250702
14.0,0.07579963654279709
15.0,0.07430199533700943
16.0,0.07267474383115768
18.0,0.06917886435985565
20.0,0.0663805827498436
22.0,0.06391943991184235
24.0,0.061627138406038284
26.0,0.059425339102745056
28.0,0.057581160217523575
30.0,0.05581270903348923
32.0,0.05395617336034775
36.0,0.05058436840772629
40.0,0.047907814383506775
44.0,0.045113202184438705
48.0,0.04265192896127701
52.0,0.04019397124648094
56.0,0.03756854310631752
60.0,0.03555862605571747
64.0,0.034051313996315
72.0,0.03150368854403496
80.0,0.030011245980858803
88.0,0.028803765773773193
96.0,0.0267589520663023
104.0,0.02552386373281479
112.0,0.023729991167783737
120.0,0.021618520841002464
128.0,0.020823141559958458
144.0,0.018368322402238846
160.0,0.015626490116119385
176.0,0.015372104942798615
192.0,0.01614559255540371
208.0,0.0167839415371418
224.0,0.015919283032417297
240.0,0.014043617062270641
256.0,0.01276558730751276
288.0,0.008097667247056961
320.0,0.006890184246003628
352.0,0.004496408626437187
384.0,0.00025574304163455963
416.0,-0.003416642313823104
448.0,-0.0015585594810545444
480.0,0.0009029925568029284
512.0,-0.0013337067794054747
576.0,0.0018226508982479572
640.0,-0.0011468788143247366
704.0,-0.0037717632949352264
768.0,-0.001396442879922688
832.0,-0.001268437597900629
896.0,0.000637486984487623
960.0,-0.0031135701574385166
1024.0,-0.005362673196941614
1152.0,-0.0081052640452981
1280.0,-0.006665905471891165
1408.0,-0.00764269195497036
1536.0,-0.00558804627507925
1664.0,-0.0001838511961977929
1792.0,0.0014128629118204117
1920.0,0.004008172079920769
2048.0,0.001958159962669015
2304.0,-0.0025863442569971085
2560.0,-0.0035691531375050545
2816.0,-0.005018035415560007
3072.0,-0.005929519422352314
3328.0,-0.0025912337005138397
3584.0,0.0006895334809087217
3840.0,-0.0037837675772607327
4096.0,-0.0010727362241595984
4608.0,0.006710223853588104
5120.0,-0.00022234080825001001
5632.0,-0.010366625152528286
6144.0,-0.0006711978348903358
6656.0,0.010102602653205395
7168.0,0.005259373225271702
7680.0,0.0019148143474012613
8192.0,-0.005052450578659773
end
