version,3.0
numOfCh,1
type,point
parent_name,0cd20_0dot4-1dot0
ch_type,1_1
kcount,1
numberNandB,1
brightnessNandB,1
carpet pos,0
pc,0
Time (ms),CH1 Auto-Correlation
1.0,0.09162324666976929
2.0,0.08808943629264832
3.0,0.08484409749507904
4.0,0.0817679911851883
5.0,0.0788741484284401
6.0,0.07624471932649612
7.0,0.07370973378419876
8.0,0.07137248665094376
9.0,0.06917102634906769
10.0,0.0671679675579071
11.0,0.06531894952058792
12.0,0.06360158324241638
13.0,0.06199366971850395
14.0,0.0605325885117054
15.0,0.059165969491004944
16.0,0.05781760811805725
18.0,0.05527361109852791
20.0,0.05256504938006401
22.0,0.049761854112148285
24.0,0.047140683978796005
26.0,0.04465285316109657
28.0,0.04247859865427017
30.0,0.04051654040813446
32.0,0.03874877467751503
36.0,0.0354766771197319
40.0,0.032480280846357346
44.0,0.029509078711271286
48.0,0.02729637920856476
52.0,0.025852954015135765
56.0,0.024853387847542763
60.0,0.023447629064321518
64.0,0.02129986509680748
72.0,0.018092768266797066
80.0,0.016878070309758186
88.0,0.01563624106347561
96.0,0.014125400222837925
104.0,0.01230654027312994
112.0,0.010564285330474377
120.0,0.008541428484022617
128.0,0.006566530093550682
144.0,0.003857094794511795
160.0,0.00346557330340147
176.0,0.0044408151879906654
192.0,0.00452086329460144
208.0,0.003553370712324977
224.0,0.0034655407071113586
240.0,0.0033497780095785856
256.0,0.002884204499423504
288.0,0.003437028732150793
320.0,0.001959072658792138
352.0,-0.0018521961756050587
384.0,0.00048796922783367336
416.0,0.004468536004424095
448.0,0.0024148127995431423
480.0,0.002653609961271286
512.0,0.00443534180521965
576.0,0.002961400430649519
640.0,0.00502906646579504
704.0,0.0024142907932400703
768.0,0.003465992398560047
832.0,0.005371774546802044
896.0,0.0012246883707121015
960.0,0.00010773036046884954
1024.0,0.0008863158873282373
1152.0,-0.007259193807840347
1280.0,-0.004850135650485754
1408.0,-0.004117422737181187
1536.0,-0.0001887349208118394
1664.0,0.0015870773931965232
1792.0,0.0022941974457353354
1920.0,0.004020321182906628
2048.0,0.007001679856330156
2304.0,0.004789565224200487
2560.0,0.002595276804640889
2816.0,-0.002589851850643754
3072.0,-0.003577863797545433
3328.0,-0.007584907580167055
3584.0,-0.0032552725169807673
3840.0,-0.0018958691507577896
4096.0,0.00048821006203070283
4608.0,0.0011310180416330695
5120.0,-0.004156080074608326
5632.0,-0.006881712935864925
6144.0,0.001961023546755314
6656.0,0.005645251367241144
7168.0,0.0053710551001131535
7680.0,-0.0027926780749112368
8192.0,-0.004398593213409185
end
