version,3.0
numOfCh,1
type,point
parent_name,0cd20_0dot4-1dot0
ch_type,1_1
kcount,1
numberNandB,1
brightnessNandB,1
carpet pos,0
pc,0
Time (ms),CH1 Auto-Correlation
1.0,0.1504918485879898
2.0,0.1412634700536728
3.0,0.13281957805156708
4.0,0.12467063963413239
5.0,0.1163291335105896
6.0,0.10801609605550766
7.0,0.10177449136972427
8.0,0.0976225957274437
9.0,0.0912381112575531
10.0,0.08654680848121643
11.0,0.08327952027320862
12.0,0.08072640746831894
13.0,0.07837118208408356
14.0,0.07610493153333664
15.0,0.07395225763320923
16.0,0.07198890298604965
18.0,0.0685509666800499
20.0,0.06482863426208496
22.0,0.06094760820269585
24.0,0.05734092369675636
26.0,0.0542743094265461
28.0,0.05230739340186119
30.0,0.049999359995126724
32.0,0.047618284821510315
36.0,0.04479459300637245
40.0,0.04431650787591934
44.0,0.04294320195913315
48.0,0.041260939091444016
52.0,0.03807478025555611
56.0,0.03605246916413307
60.0,0.03421657904982567
64.0,0.031676035374403
72.0,0.026292571797966957
80.0,0.02387251891195774
88.0,0.02334451489150524
96.0,0.023044036701321602
104.0,0.02059021033346653
112.0,0.018093563616275787
120.0,0.014435524120926857
128.0,0.009846373461186886
144.0,0.0063936891965568066
160.0,0.008178272284567356
176.0,0.0066941301338374615
192.0,0.006564007140696049
208.0,0.006122668739408255
224.0,0.003807393368333578
240.0,0.0036148526705801487
256.0,0.0057662660256028175
288.0,-0.0007608784944750369
320.0,-0.00834757648408413
352.0,-0.009510684758424759
384.0,-0.010007059201598167
416.0,-0.006881136912852526
448.0,-0.0069566103629767895
480.0,-0.0009457077831029892
512.0,0.0008737242314964533
576.0,0.010503500699996948
640.0,0.009615352377295494
704.0,0.016128912568092346
768.0,0.010187518782913685
832.0,0.0075747910887002945
896.0,-0.0026276279240846634
960.0,-0.005136944819241762
1024.0,-0.008883705362677574
1152.0,0.0008777410839684308
1280.0,0.004645010456442833
1408.0,0.005013003014028072
1536.0,0.0033568229991942644
1664.0,-0.005548012442886829
1792.0,-0.0013605316635221243
1920.0,-0.00862852856516838
2048.0,-0.0025221488904207945
2304.0,-0.0020558021496981382
2560.0,-0.005957738496363163
2816.0,-0.0064606135711073875
3072.0,-0.011697770096361637
3328.0,-0.007742336019873619
3584.0,0.003495635697618127
3840.0,-0.004532224964350462
4096.0,0.0051299710758030415
4608.0,0.0006565554067492485
5120.0,-0.002518356777727604
5632.0,-0.0027697933837771416
6144.0,0.0049248249270021915
6656.0,0.003934831824153662
7168.0,0.0021998900920152664
7680.0,0.0019557573832571507
8192.0,0.0043168929405510426
end
