version,3.0
numOfCh,1
type,point
parent_name,0cd20_0dot4-1dot0
ch_type,1_1
kcount,1
numberNandB,1
brightnessNandB,1
carpet pos,0
pc,0
Time (ms),CH1 Auto-Correlation
1.0,0.09932577610015869
2.0,0.09565918892621994
3.0,0.09218370169401169
4.0,0.08904238790273666
5.0,0.08617570251226425
6.0,0.08336286246776581
7.0,0.0807301327586174
8.0,0.07814313471317291
9.0,0.07580558955669403
10.0,0.07361280918121338
11.0,0.07160873711109161
12.0,0.06968311965465546
13.0,0.06775510311126709
14.0,0.06596360355615616
15.0,0.06425242125988007
16.0,0.06273644417524338
18.0,0.060098666697740555
20.0,0.057557668536901474
22.0,0.0549449622631073
24.0,0.05239420756697655
26.0,0.04966450855135918
28.0,0.04703133925795555
30.0,0.04466856271028519
32.0,0.04238235577940941
36.0,0.038368940353393555
40.0,0.035143427550792694
44.0,0.03234858065843582
48.0,0.029791222885251045
52.0,0.027736252173781395
56.0,0.025718875229358673
60.0,0.02420763298869133
64.0,0.023059723898768425
72.0,0.020884748548269272
80.0,0.01772311143577099
88.0,0.015608593821525574
96.0,0.013942660763859749
104.0,0.012504106387495995
112.0,0.010602363385260105
120.0,0.008796386420726776
128.0,0.007823565043509007
144.0,0.004575430881232023
160.0,0.0015591506380587816
176.0,3.5743760236073285e-05
192.0,-0.0006096280994825065
208.0,-0.001154333702288568
224.0,-0.0003833997470792383
240.0,0.00012853556836489588
256.0,0.0003860441502183676
288.0,0.0006327943410724401
320.0,0.0011776512255892158
352.0,-0.0007293149246834219
384.0,-0.003649995196610689
416.0,-0.005557833705097437
448.0,-0.005506129469722509
480.0,-0.004844130016863346
512.0,-0.0032487136777490377
576.0,-0.003832703223451972
640.0,-1.75739132828312e-05
704.0,0.0019410742679610848
768.0,0.0013490940909832716
832.0,-0.006021236535161734
896.0,-0.009933757595717907
960.0,-0.0026014852337539196
1024.0,0.007148984353989363
1152.0,0.003933087456971407
1280.0,-0.003197446931153536
1408.0,-0.0036828669253736734
1536.0,-0.0002931573835667223
1664.0,-0.0009339923853985965
1792.0,-2.951131682493724e-05
1920.0,-0.006112569011747837
2048.0,-0.005185275338590145
2304.0,-0.003280321601778269
2560.0,-0.0032337696757167578
2816.0,0.003661953844130039
3072.0,0.0058997697196900845
3328.0,0.00031214734190143645
3584.0,-0.003880559466779232
3840.0,0.0004909142735414207
4096.0,0.003897006856277585
4608.0,-0.002933978335931897
5120.0,-0.002728427993133664
5632.0,0.0005032868939451873
6144.0,0.0015386155573651195
6656.0,0.0030829422175884247
7168.0,0.0038228528574109077
7680.0,-0.0002472654450684786
8192.0,-0.006588031072169542
end
