version,3.0
numOfCh,1
type,point
parent_name,0cd20_0dot4-1dot0
ch_type,1_1
kcount,1
numberNandB,1
brightnessNandB,1
carpet pos,0
pc,0
Time (ms),CH1 Auto-Correlation
1.0,0.15364910662174225
2.0,0.14612069725990295
3.0,0.14021381735801697
4.0,0.13418181240558624
5.0,0.1274690479040146
6.0,0.12317723780870438
7.0,0.11887598037719727
8.0,0.11667774617671967
9.0,0.11355584114789963
10.0,0.10987897962331772
11.0,0.10742101073265076
12.0,0.10592452436685562
13.0,0.10267695784568787
14.0,0.10006745904684067
15.0,0.0979071706533432
16.0,0.09461075067520142
18.0,0.08989424258470535
20.0,0.08448568731546402
22.0,0.07978738099336624
24.0,0.07720378786325455
26.0,0.07620047777891159
28.0,0.07495772838592529
30.0,0.07030057907104492
32.0,0.06452333182096481
36.0,0.05823366716504097
40.0,0.054268766194581985
44.0,0.05020379647612572
48.0,0.04658603295683861
52.0,0.044569045305252075
56.0,0.04259910061955452
60.0,0.04054411128163338
64.0,0.039626993238925934
72.0,0.03719809651374817
80.0,0.034599147737026215
88.0,0.03203197568655014
96.0,0.03083076886832714
104.0,0.029486671090126038
112.0,0.026850786060094833
120.0,0.025064591318368912
128.0,0.02539929188787937
144.0,0.02543223835527897
160.0,0.022352641448378563
176.0,0.01849985308945179
192.0,0.015789341181516647
208.0,0.013511991128325462
224.0,0.012579075060784817
240.0,0.00916957389563322
256.0,0.00107026647310704
288.0,-0.003960955888032913
320.0,-0.0026832118164747953
352.0,-0.004311109893023968
384.0,-0.007753019221127033
416.0,-0.011271352879703045
448.0,-0.015234109945595264
480.0,-0.01377836987376213
512.0,-0.007200209889560938
576.0,0.000654469768051058
640.0,-0.002003881148993969
704.0,-0.009621914476156235
768.0,-0.0046435086987912655
832.0,-0.004574956838041544
896.0,-0.001375415944494307
960.0,-0.006955321878194809
1024.0,-0.0003689014702104032
1152.0,0.0056518991477787495
1280.0,0.004194164648652077
1408.0,0.006267254240810871
1536.0,0.005578001029789448
1664.0,-0.0007094172178767622
1792.0,-0.0030894060619175434
1920.0,0.0046437690034508705
2048.0,0.0038719919975847006
2304.0,-0.00018193645519204438
2560.0,-0.002364432206377387
2816.0,-0.005482765845954418
3072.0,-0.004146029707044363
3328.0,-0.0024197357706725597
3584.0,0.0023706485517323017
3840.0,-0.01891295611858368
4096.0,-0.0134248873218894
4608.0,-0.0030290987342596054
5120.0,-0.003440523287281394
5632.0,-0.007766568101942539
6144.0,0.00817162822932005
6656.0,0.008501330390572548
7168.0,-0.004425690043717623
7680.0,0.01031437050551176
8192.0,-0.0041493806056678295
end
