version,3.0
numOfCh,1
type,point
parent_name,0cd20_0dot4-1dot0
ch_type,1_1
kcount,1
numberNandB,1
brightnessNandB,1
carpet pos,0
pc,0
Time (ms),CH1 Auto-Correlation
1.0,0.09580347687005997
2.0,0.0918811708688736
3.0,0.08825238049030304
4.0,0.08482667803764343
5.0,0.08165742456912994
6.0,0.0787975937128067
7.0,0.07603702694177628
8.0,0.07356623560190201
9.0,0.0711924210190773
10.0,0.06894756108522415
11.0,0.06671763211488724
12.0,0.0645938590168953
13.0,0.06245455518364906
14.0,0.06070927903056145
15.0,0.059208944439888
16.0,0.05764419585466385
18.0,0.05491965636610985
20.0,0.05197235569357872
22.0,0.04931601136922836
24.0,0.04703003168106079
26.0,0.04488249123096466
28.0,0.04266511648893356
30.0,0.040595170110464096
32.0,0.03870229795575142
36.0,0.03553907945752144
40.0,0.03257279843091965
44.0,0.029984891414642334
48.0,0.027530930936336517
52.0,0.02594245783984661
56.0,0.02499709650874138
60.0,0.02412346936762333
64.0,0.02359740622341633
72.0,0.021390683948993683
80.0,0.019711101427674294
88.0,0.01872275583446026
96.0,0.017307771369814873
104.0,0.01564830355346203
112.0,0.014942590147256851
120.0,0.014728383161127567
128.0,0.01526651717722416
144.0,0.016522567719221115
160.0,0.0166891198605299
176.0,0.014098772779107094
192.0,0.010759148746728897
208.0,0.009437511675059795
224.0,0.011302351020276546
240.0,0.009537002071738243
256.0,0.007621620781719685
288.0,0.005469006951898336
320.0,0.005884797312319279
352.0,0.006663529202342033
384.0,0.004417954478412867
416.0,0.0009364975849166512
448.0,0.0010269718477502465
480.0,0.003929035738110542
512.0,0.003176820231601596
576.0,0.006037944462150335
640.0,0.005736059974879026
704.0,0.0013254368677735329
768.0,0.003986448049545288
832.0,0.0004868547257501632
896.0,0.0026489505544304848
960.0,0.00478413375094533
1024.0,0.001250817789696157
1152.0,0.000644662999548018
1280.0,-0.0006309813470579684
1408.0,-0.0004853558202739805
1536.0,0.0024364858400076628
1664.0,-0.0013427078956738114
1792.0,-0.004058028571307659
1920.0,-0.00515782693400979
2048.0,-0.008676850236952305
2304.0,-0.01009385660290718
2560.0,-0.012511905282735825
2816.0,-0.006864748429507017
3072.0,-0.0002902017440646887
3328.0,-0.00760080898180604
3584.0,-0.010649719275534153
3840.0,-0.005289094988256693
4096.0,-0.000895825563929975
4608.0,0.008891875855624676
5120.0,0.00502454349771142
5632.0,0.00450825085863471
6144.0,0.00800030492246151
6656.0,0.00012189534027129412
7168.0,-0.005597477313131094
7680.0,-0.003390343626961112
8192.0,-0.006229065824300051
end
