version,3.0
numOfCh,1
type,point
parent_name,0cd20_0dot4-1dot0
ch_type,1_1
kcount,1
numberNandB,1
brightnessNandB,1
carpet pos,0
pc,0
Time (ms),CH1 Auto-Correlation
1.0,0.09495874494314194
2.0,0.09097367525100708
3.0,0.08739965409040451
4.0,0.08420418202877045
5.0,0.08132210373878479
6.0,0.07866253703832626
7.0,0.07623586058616638
8.0,0.07381244748830795
9.0,0.07134199887514114
10.0,0.06897007673978806
11.0,0.06684506684541702
12.0,0.06484461575746536
13.0,0.06292249262332916
14.0,0.06113772094249725
15.0,0.059342872351408005
16.0,0.057661838829517365
18.0,0.054599836468696594
20.0,0.05196068808436394
22.0,0.0498209185898304
24.0,0.047799933701753616
26.0,0.04630110040307045
28.0,0.04487162083387375
30.0,0.04335053265094757
32.0,0.04164016991853714
36.0,0.0386274978518486
40.0,0.03572523966431618
44.0,0.03299589455127716
48.0,0.03004569001495838
52.0,0.027714375406503677
56.0,0.02534421905875206
60.0,0.02308540977537632
64.0,0.021568382158875465
72.0,0.01795857585966587
80.0,0.013753335922956467
88.0,0.010195820592343807
96.0,0.007236062083393335
104.0,0.005140185821801424
112.0,0.004339844919741154
120.0,0.003916221670806408
128.0,0.004098546225577593
144.0,0.005836790893226862
160.0,0.0060226330533623695
176.0,0.00575854629278183
192.0,0.006891124416142702
208.0,0.006976084318011999
224.0,0.006299370899796486
240.0,0.004188825376331806
256.0,0.002162732183933258
288.0,0.002459172159433365
320.0,0.0032835036981850863
352.0,0.0027131089009344578
384.0,0.002803042298182845
416.0,0.0011230410309508443
448.0,0.0030689050909131765
480.0,0.00464018015190959
512.0,0.007820055820047855
576.0,0.006204150151461363
640.0,0.0008076116209849715
704.0,-0.0013411707477644086
768.0,-0.001983439549803734
832.0,-0.004194996319711208
896.0,-0.005108031909912825
960.0,-0.004502788186073303
1024.0,-0.005934432614594698
1152.0,0.0012493816902861
1280.0,-0.004641866777092218
1408.0,-0.009313497692346573
1536.0,-0.01188033539801836
1664.0,-0.004652686417102814
1792.0,-0.0038364415522664785
1920.0,-0.006927789654582739
2048.0,-0.004048584494739771
2304.0,-0.0006897990242578089
2560.0,0.000644821731839329
2816.0,0.004304651636630297
3072.0,0.007006843574345112
3328.0,0.0022567291744053364
3584.0,-0.004622012842446566
3840.0,-0.006200908217579126
4096.0,0.001580010517500341
4608.0,0.000950167013797909
5120.0,0.00037693194462917745
5632.0,0.0034770891070365906
6144.0,-0.00018051356892101467
6656.0,-0.0054968614131212234
7168.0,-0.006218904163688421
7680.0,-0.0019531322177499533
8192.0,0.005560697056353092
end
