version,3.0
numOfCh,1
type,point
parent_name,0cd20_0dot4-1dot0
ch_type,1_1
kcount,1
numberNandB,1
brightnessNandB,1
carpet pos,0
pc,0
Time (ms),CH1 Auto-Correlation
1.0,0.09834006428718567
2.0,0.09437203407287598
3.0,0.09070396423339844
4.0,0.08732990175485611
5.0,0.08424325287342072
6.0,0.08141805976629257
7.0,0.07888047397136688
8.0,0.0764724612236023
9.0,0.07422702014446259
10.0,0.072288379073143
11.0,0.07035589218139648
12.0,0.06854310631752014
13.0,0.06669186055660248
14.0,0.06508860737085342
15.0,0.06342063099145889
16.0,0.06185798719525337
18.0,0.058825697749853134
20.0,0.055835288017988205
22.0,0.05309559777379036
24.0,0.05079656094312668
26.0,0.0485653430223465
28.0,0.04665209352970123
30.0,0.04471627250313759
32.0,0.04289471358060837
36.0,0.039431966841220856
40.0,0.0361233688890934
44.0,0.03342459350824356
48.0,0.031038474291563034
52.0,0.02882544696331024
56.0,0.02707075886428356
60.0,0.025953738018870354
64.0,0.025342829525470734
72.0,0.024559082463383675
80.0,0.023165512830018997
88.0,0.022118447348475456
96.0,0.020505372434854507
104.0,0.019288301467895508
112.0,0.018208904191851616
120.0,0.018295736983418465
128.0,0.018069960176944733
144.0,0.01731279492378235
160.0,0.016642795875668526
176.0,0.013549468480050564
192.0,0.009938979521393776
208.0,0.008600871078670025
224.0,0.007147908676415682
240.0,0.006200514268130064
256.0,0.006046079099178314
288.0,0.006474549416452646
320.0,0.004715460818260908
352.0,0.0036953131202608347
384.0,0.003323049284517765
416.0,0.005396287888288498
448.0,0.006951107643544674
480.0,0.005739161744713783
512.0,0.006461311597377062
576.0,0.0032908564899116755
640.0,0.005528316833078861
704.0,0.0013360873563215137
768.0,-0.006049045827239752
832.0,-0.010987603105604649
896.0,-0.0078281220048666
960.0,-0.004277745261788368
1024.0,-0.0029656842816621065
1152.0,-0.005065751727670431
1280.0,-0.0004342100291978568
1408.0,0.002667988184839487
1536.0,-0.00040797426481731236
1664.0,-0.0007332520326599479
1792.0,-0.0028402411844581366
1920.0,-0.0022512113209813833
2048.0,-0.0029917301144450903
2304.0,-0.0075132413767278194
2560.0,-0.008015675470232964
2816.0,-0.0027071326039731503
3072.0,0.0032744843047112226
3328.0,0.0006694478797726333
3584.0,0.0023736616130918264
3840.0,-0.0012896578991785645
4096.0,0.00177941401489079
4608.0,-0.0020308259408921003
5120.0,-0.0017340799095109105
5632.0,-0.0006601266795769334
6144.0,3.2764576189947547e-06
6656.0,-0.008653967641294003
7168.0,-0.004059659317135811
7680.0,0.003704826580360532
8192.0,-0.003231473034247756
end
