version,3.0
numOfCh,1
type,point
parent_name,0cd20_0dot4-1dot0
ch_type,1_1
kcount,1
numberNandB,1
brightnessNandB,1
carpet pos,0
pc,0
Time (ms),CH1 Auto-Correlation
1.0,0.1097288578748703
2.0,0.10555030405521393
3.0,0.10173434764146805
4.0,0.09830205887556076
5.0,0.09534187614917755
6.0,0.09257747232913971
7.0,0.08995447307825089
8.0,0.08744346350431442
9.0,0.08513128012418747
10.0,0.08299650251865387
11.0,0.08088389039039612
12.0,0.07881923019886017
13.0,0.0769265666604042
14.0,0.07500913739204407
15.0,0.0726926401257515
16.0,0.07031988352537155
18.0,0.06641190499067307
20.0,0.062929667532444
22.0,0.05965939536690712
24.0,0.056741759181022644
26.0,0.054025620222091675
28.0,0.05136727914214134
30.0,0.04898660257458687
32.0,0.046690091490745544
36.0,0.04293586313724518
40.0,0.03975334390997887
44.0,0.037486523389816284
48.0,0.03544963523745537
52.0,0.03354554995894432
56.0,0.03196859732270241
60.0,0.030551569536328316
64.0,0.029291005805134773
72.0,0.02581152506172657
80.0,0.02104729413986206
88.0,0.017701636999845505
96.0,0.014917985536158085
104.0,0.012570039369165897
112.0,0.011418978683650494
120.0,0.010848019272089005
128.0,0.010577602311968803
144.0,0.00985593069344759
160.0,0.009191670455038548
176.0,0.008563315495848656
192.0,0.007284331135451794
208.0,0.005702965427190065
224.0,0.003580434015020728
240.0,0.0006483634351752698
256.0,-0.0015847327886149287
288.0,-0.0015413929941132665
320.0,0.00021589035168290138
352.0,0.0036866392474621534
384.0,0.009436280466616154
416.0,0.012009776197373867
448.0,0.006970605347305536
480.0,0.004732716828584671
512.0,0.0029286439530551434
576.0,-0.006558189168572426
640.0,-0.006118834018707275
704.0,-0.0039535206742584705
768.0,-0.007830657996237278
832.0,-0.0053786421194672585
896.0,0.001000400516204536
960.0,-0.00365647254511714
1024.0,-0.010859597474336624
1152.0,-0.005816335324198008
1280.0,-0.002550019882619381
1408.0,-0.0011786327231675386
1536.0,0.004406320862472057
1664.0,0.005223049782216549
1792.0,-0.001764856744557619
1920.0,-0.006746400147676468
2048.0,-0.005649106577038765
2304.0,-0.007763378322124481
2560.0,-0.0003980016044806689
2816.0,0.002601348329335451
3072.0,0.005823635030537844
3328.0,-0.004181781318038702
3584.0,-0.007715343497693539
3840.0,-0.011127179488539696
4096.0,-0.0022193160839378834
4608.0,0.006074649281799793
5120.0,0.001965079689398408
5632.0,0.00434125866740942
6144.0,0.0029605496674776077
6656.0,-0.009249391965568066
7168.0,-0.00029464217368513346
7680.0,0.005101032555103302
8192.0,0.003830183995887637
end
