version,3.0
numOfCh,1
type,point
parent_name,0cd20_0dot4-1dot0
ch_type,1_1
kcount,1
numberNandB,1
brightnessNandB,1
carpet pos,0
pc,0
Time (ms),CH1 Auto-Correlation
1.0,0.09487992525100708
2.0,0.09094935655593872
3.0,0.08735168725252151
4.0,0.08404596149921417
5.0,0.08097757399082184
6.0,0.0781625434756279
7.0,0.07562326639890671
8.0,0.0731852725148201
9.0,0.07088697701692581
10.0,0.06882042437791824
11.0,0.06685467809438705
12.0,0.06480143964290619
13.0,0.06286769360303879
14.0,0.060962188988924026
15.0,0.059170905500650406
16.0,0.05738187953829765
18.0,0.05428755655884743
20.0,0.05137378349900246
22.0,0.04891567677259445
24.0,0.04653517156839371
26.0,0.04419761523604393
28.0,0.04200299456715584
30.0,0.039762988686561584
32.0,0.03744359686970711
36.0,0.03359964117407799
40.0,0.031170155853033066
44.0,0.029241451993584633
48.0,0.027297139167785645
52.0,0.025531630963087082
56.0,0.024024730548262596
60.0,0.02267996035516262
64.0,0.021808361634612083
72.0,0.0198903139680624
80.0,0.018104402348399162
88.0,0.016005413606762886
96.0,0.014381264336407185
104.0,0.013450178317725658
112.0,0.013387732207775116
120.0,0.012734981253743172
128.0,0.012079214677214622
144.0,0.010630415752530098
160.0,0.00902213528752327
176.0,0.009009341709315777
192.0,0.011283756233751774
208.0,0.011492441408336163
224.0,0.012992307543754578
240.0,0.014352982863783836
256.0,0.012143490836024284
288.0,0.006684648338705301
320.0,0.005432764999568462
352.0,0.002566106617450714
384.0,0.0042069461196660995
416.0,0.0025778310373425484
448.0,0.003875468159094453
480.0,0.0028847011271864176
512.0,0.0004574094491545111
576.0,-0.0049079833552241325
640.0,-0.008000080473721027
704.0,-0.004946485161781311
768.0,-0.0009823522996157408
832.0,-0.0007351239328272641
896.0,-0.0004902163054794073
960.0,0.0004322369350120425
1024.0,0.0027481629513204098
1152.0,0.004528841469436884
1280.0,0.0026469912845641375
1408.0,0.003535744035616517
1536.0,0.0027747543063014746
1664.0,0.0027725014369934797
1792.0,0.000754219014197588
1920.0,-0.006653024349361658
2048.0,-0.008766149170696735
2304.0,-0.010900850407779217
2560.0,-0.007191971875727177
2816.0,-0.00207412987947464
3072.0,-0.001969935605302453
3328.0,-0.007105313707143068
3584.0,-0.0113445483148098
3840.0,-0.001522950828075409
4096.0,0.0028545288369059563
4608.0,0.006150859873741865
5120.0,0.002147333463653922
5632.0,-0.0012713049072772264
6144.0,0.00452466169372201
6656.0,0.0005154417012818158
7168.0,-0.0026954219210892916
7680.0,0.0034454888664186
8192.0,-0.007258669473230839
end
