version,3.0
numOfCh,1
type,point
parent_name,0cd20_0dot4-1dot0
ch_type,1_1
kcount,1
numberNandB,1
brightnessNandB,1
carpet pos,0
pc,0
Time (ms),CH1 Auto-Correlation
1.0,0.10430420935153961
2.0,0.10026732832193375
3.0,0.09668659418821335
4.0,0.09335088729858398
5.0,0.09033140540122986
6.0,0.08749726414680481
7.0,0.08488038927316666
8.0,0.08243894577026367
9.0,0.08003030717372894
10.0,0.07780209183692932
11.0,0.07575371861457825
12.0,0.07368557900190353
13.0,0.07182648032903671
14.0,0.07002174854278564
15.0,0.06836441159248352
16.0,0.06678632646799088
18.0,0.06375271826982498
20.0,0.06092141568660736
22.0,0.0583500936627388
24.0,0.05574997887015343
26.0,0.053299129009246826
28.0,0.051012903451919556
30.0,0.04901276156306267
32.0,0.04709155485033989
36.0,0.04298524931073189
40.0,0.038741860538721085
44.0,0.03550327941775322
48.0,0.032736338675022125
52.0,0.030436143279075623
56.0,0.02841970883309841
60.0,0.026026278734207153
64.0,0.02352479286491871
72.0,0.020852169021964073
80.0,0.01993550918996334
88.0,0.018533090129494667
96.0,0.0171480942517519
104.0,0.016046864911913872
112.0,0.014742100611329079
120.0,0.013256948441267014
128.0,0.01207356434315443
144.0,0.009488693438470364
160.0,0.00817032065242529
176.0,0.009086325764656067
192.0,0.009245038032531738
208.0,0.008256852626800537
224.0,0.006006943993270397
240.0,0.0029352426063269377
256.0,-0.0009783521527424455
288.0,-0.0048268036916852
320.0,0.000892214069608599
352.0,0.005185842979699373
384.0,0.004772714339196682
416.0,0.002077969256788492
448.0,0.004386557266116142
480.0,0.004779675509780645
512.0,0.006148010492324829
576.0,0.009961471892893314
640.0,0.004184875637292862
704.0,0.0023418464697897434
768.0,0.006861797068268061
832.0,0.0014859774382784963
896.0,-0.0016832011751830578
960.0,0.0020012222230434418
1024.0,0.005674479529261589
1152.0,0.003374475985765457
1280.0,0.0036581666208803654
1408.0,0.00592610752210021
1536.0,0.005766065325587988
1664.0,-0.001771088340319693
1792.0,-0.003291219938546419
1920.0,0.0047183893620967865
2048.0,0.011193408630788326
2304.0,0.001758517581038177
2560.0,0.0021424703299999237
2816.0,-0.001133739948272705
3072.0,0.00022049028484616429
3328.0,0.001919879694469273
3584.0,-0.008474322967231274
3840.0,-0.0019435836002230644
4096.0,0.00021016095706727356
4608.0,-0.004876391496509314
5120.0,-0.0021974246483296156
5632.0,0.00014693010598421097
6144.0,0.0005672311526723206
6656.0,-0.0038723256438970566
7168.0,-0.01132927555590868
7680.0,-0.0039954534731805325
8192.0,-0.0024170437827706337
end
