version,3.0
numOfCh,1
type,point
parent_name,0cd20_0dot4-1dot0
ch_type,1_1
kcount,1
numberNandB,1
brightnessNandB,1
carpet pos,0
pc,0
Time (ms),CH1 Auto-Correlation
1.0,0.12311970442533493
2.0,0.11784690618515015
3.0,0.11347194015979767
4.0,0.1094447523355484
5.0,0.1060713455080986
6.0,0.10248498618602753
7.0,0.09953511506319046
8.0,0.09716590493917465
9.0,0.09488166123628616
10.0,0.09230451285839081
11.0,0.08998927474021912
12.0,0.08817679435014725
13.0,0.08628031611442566
14.0,0.0847180187702179
15.0,0.08304986357688904
16.0,0.08163563907146454
18.0,0.07852786779403687
20.0,0.07612324506044388
22.0,0.07291285693645477
24.0,0.0693131536245346
26.0,0.06676844507455826
28.0,0.06426768749952316
30.0,0.062191106379032135
32.0,0.059785038232803345
36.0,0.05591103807091713
40.0,0.05217853561043739
44.0,0.04778192564845085
48.0,0.043995629996061325
52.0,0.04163835197687149
56.0,0.03956935927271843
60.0,0.03752002492547035
64.0,0.03525615856051445
72.0,0.03117450326681137
80.0,0.02710416540503502
88.0,0.022779108956456184
96.0,0.0182809941470623
104.0,0.013926465064287186
112.0,0.011135106906294823
120.0,0.008869951590895653
128.0,0.008266270160675049
144.0,0.004642327316105366
160.0,0.0034716157242655754
176.0,0.004668388515710831
192.0,0.005712177138775587
208.0,0.0052231657318770885
224.0,0.002477348083630204
240.0,0.0012778305681422353
256.0,0.0006754042697139084
288.0,0.004143916070461273
320.0,0.002393427537754178
352.0,0.004178898874670267
384.0,0.002752849366515875
416.0,0.001453246921300888
448.0,0.0023354918230324984
480.0,-0.00022111230646260083
512.0,-0.002732326742261648
576.0,-0.002923625288531184
640.0,-0.0014556566020473838
704.0,0.006141373421996832
768.0,0.0015889634378254414
832.0,-0.0015467237681150436
896.0,0.002763450378552079
960.0,-0.0009761432302184403
1024.0,-0.003765447996556759
1152.0,-0.0033801596146076918
1280.0,-0.003031121101230383
1408.0,0.0014887304278090596
1536.0,0.0007640004041604698
1664.0,-0.007635639049112797
1792.0,-0.012203064747154713
1920.0,-0.0036253465805202723
2048.0,-0.00523474020883441
2304.0,0.00048402443644590676
2560.0,-0.0009122070041485131
2816.0,-0.0015372250927612185
3072.0,0.01123629417270422
3328.0,0.0010633699130266905
3584.0,0.001139059429988265
3840.0,-0.004220377188175917
4096.0,-0.0024796584621071815
4608.0,-0.007219231221824884
5120.0,-0.006928306072950363
5632.0,-0.0023402683436870575
6144.0,0.006754759699106216
6656.0,0.011893498711287975
7168.0,0.002514963736757636
7680.0,-0.00550383934751153
8192.0,-0.0038612429052591324
end
