version,3.0
numOfCh,1
type,point
parent_name,ff67b_3dot0-1dot0
ch_type,1_1
kcount,1
numberNandB,1
brightnessNandB,1
carpet pos,0
pc,0
Time (ms),CH1 Auto-Correlation
1.0,0.01686314307153225
2.0,0.013874668627977371
3.0,0.011842065490782261
4.0,0.010409658774733543
5.0,0.009242212399840355
6.0,0.008316624909639359
7.0,0.007539109792560339
8.0,0.0069597819820046425
9.0,0.006482711061835289
10.0,0.006089525762945414
11.0,0.005898616276681423
12.0,0.0056267534382641315
13.0,0.00537550263106823
14.0,0.0050430819392204285
15.0,0.004750717896968126
16.0,0.004454235080629587
18.0,0.0038887241389602423
20.0,0.003241254948079586
22.0,0.002918758662417531
24.0,0.002702785423025489
26.0,0.0026466127019375563
28.0,0.0025703951250761747
30.0,0.0024179404135793447
32.0,0.0022591305896639824
36.0,0.001975966151803732
40.0,0.001754176220856607
44.0,0.0017319160979241133
48.0,0.0018140972824767232
52.0,0.0017028591828420758
56.0,0.0018385698786005378
60.0,0.0017899407539516687
64.0,0.0015795428771525621
72.0,0.0013388288207352161
80.0,0.0012048262869939208
88.0,0.0010615390492603183
96.0,0.0007611986948177218
104.0,0.0008967105532065034
112.0,0.0007346012280322611
120.0,0.000492654275149107
128.0,3.508136069285683e-05
144.0,6.02748013989185e-06
160.0,2.5288129108957946e-05
176.0,0.0004884650115855038
192.0,0.0006670547882094979
208.0,0.00024103702162392437
224.0,-5.4299434850690886e-05
240.0,-0.00012163503561168909
256.0,3.3220167097169906e-05
288.0,-0.0004827470111194998
320.0,-0.00018327370344195515
352.0,-0.0004081037768628448
384.0,-0.00044950650772079825
416.0,-0.0005545460153371096
448.0,-0.0006474562687799335
480.0,-0.0005672837141901255
512.0,-0.00012070628872606903
576.0,-0.0001222569844685495
640.0,0.00022302352590486407
704.0,0.00030538608552888036
768.0,-0.000430780608439818
832.0,-0.00023234511900227517
896.0,-9.869799396255985e-05
960.0,-4.9335336370859295e-05
1024.0,-2.02590581466211e-05
1152.0,0.0001611243060324341
1280.0,0.000627341796644032
1408.0,0.0006929593509994447
1536.0,-4.741215525427833e-05
1664.0,-0.0007143783732317388
1792.0,-0.000532086007297039
1920.0,0.0001661769492784515
2048.0,-0.00012488894572015852
2304.0,-0.0003715463972184807
2560.0,0.0001631594350328669
2816.0,0.00021669804118573666
3072.0,-0.0005941158160567284
3328.0,-0.00014231792010832578
3584.0,-0.0005171519005671144
3840.0,0.0002827257849276066
4096.0,0.0003621657961048186
4608.0,-0.0002601242158561945
5120.0,0.0003222778032068163
5632.0,-9.184078953694552e-05
6144.0,7.463558722520247e-05
6656.0,0.000335103104589507
7168.0,-0.0002443156554363668
7680.0,0.00039870099863037467
8192.0,-0.0001133228579419665
end
