version,3.0
numOfCh,1
type,point
parent_name,ff67b_3dot0-1dot0
ch_type,1_1
kcount,1
numberNandB,1
brightnessNandB,1
carpet pos,0
pc,0
Time (ms),CH1 Auto-Correlation
1.0,0.01528798695653677
2.0,0.012399633415043354
3.0,0.010347205214202404
4.0,0.008862695656716824
5.0,0.007719972170889378
6.0,0.006764254532754421
7.0,0.0060787508264184
8.0,0.005468943156301975
9.0,0.004928265698254108
10.0,0.00455289613455534
11.0,0.004415928851813078
12.0,0.004253853112459183
13.0,0.003961495123803616
14.0,0.003705129027366638
15.0,0.0035459010396152735
16.0,0.003313618479296565
18.0,0.0029760946054011583
20.0,0.002629560185596347
22.0,0.0022583401296287775
24.0,0.002043275162577629
26.0,0.0017512048361822963
28.0,0.0014520440017804503
30.0,0.0014557811664417386
32.0,0.0014051491161808372
36.0,0.0012997437734156847
40.0,0.0009827918838709593
44.0,0.000939908146392554
48.0,0.0008341990178450942
52.0,0.0005827356944791973
56.0,0.0004367547808215022
60.0,0.00031262519769370556
64.0,0.00024371697509195656
72.0,0.00016544041864108294
80.0,-1.331090425082948e-05
88.0,-1.9817385691567324e-05
96.0,0.00019590645388234407
104.0,0.00011676760186674073
112.0,4.245236050337553e-05
120.0,-7.704950985498726e-05
128.0,-0.00029709009686484933
144.0,8.297971362480894e-05
160.0,9.52964837779291e-05
176.0,-9.119101378018968e-06
192.0,0.00010770333028631285
208.0,-0.0001127419964177534
224.0,-0.0007194902864284813
240.0,-0.0003978262247983366
256.0,-0.0005177006823942065
288.0,2.1774534616270103e-05
320.0,0.00035570387262851
352.0,0.00043928317609243095
384.0,-0.0004641615960281342
416.0,-0.0008605592302046716
448.0,-0.0006534112035296857
480.0,-0.0007725371979176998
512.0,-0.00047855140292085707
576.0,-6.491473322967067e-05
640.0,0.00019040050392504781
704.0,0.00046889198711141944
768.0,0.00048826696001924574
832.0,0.0003333925851620734
896.0,-4.771861495100893e-05
960.0,0.0006207092083059251
1024.0,6.983367711654864e-06
1152.0,-0.0003416763502173126
1280.0,-0.00022906044614501297
1408.0,-0.00010074137389892712
1536.0,9.609138942323625e-05
1664.0,-3.5772045521298423e-05
1792.0,-0.00016998634964693338
1920.0,-0.0004777798894792795
2048.0,-0.00027879117988049984
2304.0,5.643543408950791e-05
2560.0,-0.00048823992256075144
2816.0,-7.736846600892022e-05
3072.0,0.0002264539070893079
3328.0,-1.3735987522522919e-05
3584.0,-0.00014105060836300254
3840.0,0.00028356409166008234
4096.0,3.152017234242521e-05
4608.0,6.213917367858812e-05
5120.0,-3.106495569227263e-05
5632.0,0.00018874982197303325
6144.0,-2.516469612601213e-05
6656.0,-0.00021972449030727148
7168.0,0.00014762765204068273
7680.0,-0.00010577133798506111
8192.0,-0.00020206895715091377
end
