version,3.0
numOfCh,1
type,point
parent_name,ff67b_3dot0-1dot0
ch_type,1_1
kcount,1
numberNandB,1
brightnessNandB,1
carpet pos,0
pc,0
Time (ms),CH1 Auto-Correlation
1.0,0.016383947804570198
2.0,0.013325178064405918
3.0,0.011224365793168545
4.0,0.009784726426005363
5.0,0.008542326278984547
6.0,0.007520156446844339
7.0,0.006717154756188393
8.0,0.006067467387765646
9.0,0.005538591183722019
10.0,0.0049722641706466675
11.0,0.004585576243698597
12.0,0.004429718479514122
13.0,0.004301025997847319
14.0,0.004039563238620758
15.0,0.0037408825010061264
16.0,0.0035634697414934635
18.0,0.0031146786641329527
20.0,0.0027286051772534847
22.0,0.0024378099478781223
24.0,0.0021293824538588524
26.0,0.0019398692529648542
28.0,0.0017919999081641436
30.0,0.0015693116001784801
32.0,0.0014055698411539197
36.0,0.0011133062653243542
40.0,0.001118315733037889
44.0,0.0010542235104367137
48.0,0.0010073876474052668
52.0,0.0009344963473267853
56.0,0.001101921545341611
60.0,0.0008380681974813342
64.0,0.0007436647429130971
72.0,0.00023948168382048607
80.0,-0.00013243424473330379
88.0,-0.00018423274741508067
96.0,-0.0001967044809134677
104.0,-0.0002202112227678299
112.0,-0.0003670016012620181
120.0,-0.00045160859008319676
128.0,-0.0005936825182288885
144.0,-0.0007198561797849834
160.0,-0.0005566587205976248
176.0,-0.0005566633772104979
192.0,-0.0002524718875065446
208.0,0.0002432519686408341
224.0,0.00017292375559918582
240.0,-2.509963815100491e-05
256.0,0.0001626700395718217
288.0,-0.0003592865541577339
320.0,-0.00031114197918213904
352.0,-0.0005986179457977414
384.0,0.00013095223403070122
416.0,-0.0002835280611179769
448.0,-0.00032220970024354756
480.0,-5.9651916672009975e-05
512.0,0.0005959016270935535
576.0,-0.00015376729425042868
640.0,8.141036960296333e-05
704.0,-0.0005178547580726445
768.0,-0.00015872021322138608
832.0,0.0005785802495665848
896.0,0.0005851311725564301
960.0,-7.392458064714447e-05
1024.0,0.0001313918619416654
1152.0,0.00010898945038206875
1280.0,-0.00025063505745492876
1408.0,-0.00015310043818317354
1536.0,-0.00015091402747202665
1664.0,0.00024014367954805493
1792.0,-0.00018497965356800705
1920.0,-0.0003003167803399265
2048.0,-6.356880476232618e-05
2304.0,-0.0002158261340809986
2560.0,-9.437595144845545e-05
2816.0,0.00022060175251681358
3072.0,-0.0004147793515585363
3328.0,-0.00016232293273787946
3584.0,0.00043613024172373116
3840.0,-9.780442633200437e-05
4096.0,-0.00019195165077690035
4608.0,-7.006628584349528e-05
5120.0,2.383949322393164e-05
5632.0,8.444132254226133e-05
6144.0,1.891035026346799e-05
6656.0,-6.955996468605008e-06
7168.0,0.00015648282715119421
7680.0,-4.916701800539158e-05
8192.0,-3.8956412026891485e-05
end
