version,3.0
numOfCh,1
type,point
parent_name,ff67b_3dot0-1dot0
ch_type,1_1
kcount,1
numberNandB,1
brightnessNandB,1
carpet pos,0
pc,0
Time (ms),CH1 Auto-Correlation
1.0,0.016783196479082108
2.0,0.013739235699176788
3.0,0.011566179804503918
4.0,0.009968316182494164
5.0,0.00877527054399252
6.0,0.007802725303918123
7.0,0.006977577693760395
8.0,0.0063082133419811726
9.0,0.005833400879055262
10.0,0.005375923588871956
11.0,0.005023975856602192
12.0,0.004624074324965477
13.0,0.004256975371390581
14.0,0.0040095108561217785
15.0,0.0038536142092198133
16.0,0.0036622104234993458
18.0,0.003386320313438773
20.0,0.003183049615472555
22.0,0.00303780660033226
24.0,0.0028863605111837387
26.0,0.0026589164044708014
28.0,0.002371876733377576
30.0,0.0022547924891114235
32.0,0.0022037725429981947
36.0,0.001596021349541843
40.0,0.0013193688355386257
44.0,0.0012064911425113678
48.0,0.0011248078662902117
52.0,0.0006753349443897605
56.0,0.0005956022068858147
60.0,0.0007504216628149152
64.0,0.0009136616718024015
72.0,0.0006577402236871421
80.0,0.00043052888941019773
88.0,0.0006524211494252086
96.0,0.0003259318764321506
104.0,0.00015348409942816943
112.0,0.00030265585519373417
120.0,0.0006302533438429236
128.0,0.0006393432850018144
144.0,0.0006017329287715256
160.0,7.752223609713838e-05
176.0,0.0004343771142885089
192.0,0.0003270886081736535
208.0,2.218886947957799e-06
224.0,-0.0002476725494489074
240.0,0.00022549391724169254
256.0,0.00019947889086324722
288.0,9.684870747150853e-05
320.0,-8.04198716650717e-05
352.0,-0.00042896124068647623
384.0,0.00015815970255061984
416.0,0.00039307380211539567
448.0,0.00029923568945378065
480.0,-0.00011143958545289934
512.0,-0.0002593846002127975
576.0,0.00012781360419467092
640.0,0.00044999539386481047
704.0,-0.00026780052576214075
768.0,-0.0006876777042634785
832.0,-0.00013618465163744986
896.0,0.000725269375834614
960.0,0.0002644786727614701
1024.0,0.0002408263535471633
1152.0,-0.00030804993002675474
1280.0,-0.00035421038046479225
1408.0,-0.0004357503494247794
1536.0,-3.7986461393302307e-05
1664.0,-0.0001948672579601407
1792.0,-0.00024602815392427146
1920.0,-0.00044363431516103446
2048.0,-0.0007470731507055461
2304.0,-0.00019703905854839832
2560.0,-0.00024333481269422919
2816.0,0.00018555877613835037
3072.0,0.00012725339911412448
3328.0,6.218408816494048e-05
3584.0,0.0002990946522913873
3840.0,0.0003230305446777493
4096.0,8.356623766303528e-06
4608.0,0.0001312619133386761
5120.0,-0.0001827855739975348
5632.0,-0.00018524928600527346
6144.0,-0.00041457120096310973
6656.0,-4.155045098741539e-05
7168.0,-7.717333937762305e-05
7680.0,0.00031024814234115183
8192.0,-0.00020825826504733413
end
