version,3.0
numOfCh,1
type,point
parent_name,ff67b_3dot0-1dot0
ch_type,1_1
kcount,1
numberNandB,1
brightnessNandB,1
carpet pos,0
pc,0
Time (ms),CH1 Auto-Correlation
1.0,0.017304465174674988
2.0,0.014308109879493713
3.0,0.012092170305550098
4.0,0.010339208878576756
5.0,0.009109108708798885
6.0,0.008149810135364532
7.0,0.007435282692313194
8.0,0.0068278382532298565
9.0,0.0062810154631733894
10.0,0.005978054832667112
11.0,0.005519653670489788
12.0,0.0050605284050107
13.0,0.004631830845028162
14.0,0.004372571595013142
15.0,0.004128966946154833
16.0,0.0038363866042345762
18.0,0.003448018105700612
20.0,0.003245541825890541
22.0,0.003176666097715497
24.0,0.003156132297590375
26.0,0.0029334882274270058
28.0,0.002486974699422717
30.0,0.0021846878807991743
32.0,0.0019529140554368496
36.0,0.001672475365921855
40.0,0.0014592997031286359
44.0,0.0014175543328747153
48.0,0.001446990529075265
52.0,0.001299861236475408
56.0,0.0011251976247876883
60.0,0.0010836189612746239
64.0,0.0012200484052300453
72.0,0.0011188467033207417
80.0,0.0012181031052023172
88.0,0.0009326284052804112
96.0,0.0005262083723209798
104.0,0.0007573704933747649
112.0,0.0012507073115557432
120.0,0.0010550542501732707
128.0,0.000913380878046155
144.0,0.00075104198185727
160.0,0.0006244214600883424
176.0,0.0004755349946208298
192.0,0.0005675997817888856
208.0,0.0004038690240122378
224.0,0.00012509031512308866
240.0,0.0001917901827255264
256.0,3.4539293665147852e-06
288.0,-5.0702816224657e-05
320.0,-2.1448911411425797e-06
352.0,-0.0003186137764714658
384.0,0.00024837238015607
416.0,-0.00011640042066574097
448.0,-0.0003147738170810044
480.0,-0.0003096168802585453
512.0,-0.0008108134497888386
576.0,-0.0003770089242607355
640.0,-0.0005691371043212712
704.0,-0.0005605805781669915
768.0,-0.0006184887024573982
832.0,-0.0008485316066071391
896.0,-0.0005780425854027271
960.0,-0.0002607849019113928
1024.0,0.0003185603709425777
1152.0,0.00027956298436038196
1280.0,-0.00027518754359334707
1408.0,-0.00035881009534932673
1536.0,-0.0002096848766086623
1664.0,-3.9279449993046e-05
1792.0,0.00017553946236148477
1920.0,0.00015236389299388975
2048.0,0.0002185926423408091
2304.0,0.0002482373674865812
2560.0,-0.00017107397434301674
2816.0,-6.613493314944208e-05
3072.0,-1.5647494365111925e-05
3328.0,-3.9194521377794445e-05
3584.0,-0.0003811391070485115
3840.0,-3.591166387195699e-05
4096.0,-8.269355748780072e-05
4608.0,0.000582809851039201
5120.0,-0.0005748972180299461
5632.0,0.0003172485448885709
6144.0,-0.00021881361317355186
6656.0,0.00025035045109689236
7168.0,-0.00017211874364875257
7680.0,-0.00010160689998883754
8192.0,-0.0001068379424395971
end
