version,3.0
numOfCh,1
type,point
parent_name,ff67b_3dot0-1dot0
ch_type,1_1
kcount,1
numberNandB,1
brightnessNandB,1
carpet pos,0
pc,0
Time (ms),CH1 Auto-Correlation
1.0,0.016058998182415962
2.0,0.013086589053273201
3.0,0.010918543674051762
4.0,0.009224116802215576
5.0,0.008006757125258446
6.0,0.007033554371446371
7.0,0.006160401273518801
8.0,0.005363793112337589
9.0,0.0046716732904314995
10.0,0.004182679578661919
11.0,0.003723396686837077
12.0,0.003396363463252783
13.0,0.0031288950704038143
14.0,0.003008265746757388
15.0,0.0027965290937572718
16.0,0.00255642575211823
18.0,0.0021875614766031504
20.0,0.0021037207916378975
22.0,0.0018400062108412385
24.0,0.0017985275480896235
26.0,0.001678049797192216
28.0,0.0016674239886924624
30.0,0.0017348331166431308
32.0,0.0017118342220783234
36.0,0.0014609884237870574
40.0,0.0014266925863921642
44.0,0.001416518003679812
48.0,0.001191810006275773
52.0,0.0009159151231870055
56.0,0.0010672226781025529
60.0,0.0015036361292004585
64.0,0.0015756571665406227
72.0,0.0006580703193321824
80.0,0.0003180458734277636
88.0,0.00035032068262808025
96.0,0.0002816601190716028
104.0,0.00028340794960968196
112.0,0.00021775526693090796
120.0,-0.00017109578766394407
128.0,4.126678322791122e-05
144.0,0.0002204161137342453
160.0,0.0006986830849200487
176.0,0.00021694906172342598
192.0,0.00011649997031781822
208.0,9.40205281949602e-05
224.0,-1.3719713933824096e-05
240.0,-0.0005568352644331753
256.0,-0.0005335124442353845
288.0,-0.0004534509207587689
320.0,-0.0004222552524879575
352.0,-0.00032854004530236125
384.0,-7.928007107693702e-05
416.0,-0.00028484323411248624
448.0,-0.00019676500232890248
480.0,-0.0003043625911232084
512.0,-0.0002729069674387574
576.0,0.00031974693411029875
640.0,0.00021769420709460974
704.0,0.00014124777226243168
768.0,0.0003321342228446156
832.0,-0.00013910947018302977
896.0,-0.00011958399409195408
960.0,0.00023704500927124172
1024.0,-0.0002948772453237325
1152.0,3.9863363781478256e-05
1280.0,0.0001222474529640749
1408.0,3.2067200663732365e-05
1536.0,-6.680397927993909e-05
1664.0,8.339530904777348e-05
1792.0,-0.00022373412502929568
1920.0,-0.00010881367779802531
2048.0,-0.0004884718218818307
2304.0,2.999603566422593e-05
2560.0,0.0002746878599282354
2816.0,-0.0006322835688479245
3072.0,-0.00015660948702134192
3328.0,0.0001315416011493653
3584.0,0.0005451876204460859
3840.0,7.85428419476375e-05
4096.0,-0.0001842797064455226
4608.0,-7.275067764567211e-05
5120.0,-3.0415285436902195e-05
5632.0,-3.5392320569371805e-05
6144.0,-0.00015297028585337102
6656.0,-0.0001392689737258479
7168.0,0.000358034681994468
7680.0,-0.00014122968423180282
8192.0,6.407043110812083e-05
end
