version,3.0
numOfCh,1
type,point
parent_name,ff67b_3dot0-1dot0
ch_type,1_1
kcount,1
numberNandB,1
brightnessNandB,1
carpet pos,0
pc,0
Time (ms),CH1 Auto-Correlation
1.0,0.016844509169459343
2.0,0.01392119936645031
3.0,0.011840052902698517
4.0,0.010244288481771946
5.0,0.009023299440741539
6.0,0.007970625534653664
7.0,0.007170806173235178
8.0,0.0066166892647743225
9.0,0.006052143406122923
10.0,0.005580754019320011
11.0,0.005110256839543581
12.0,0.0048076980747282505
13.0,0.004624424502253532
14.0,0.004360712133347988
15.0,0.004236435983330011
16.0,0.0040114386938512325
18.0,0.003640812588855624
20.0,0.0033397467341274023
22.0,0.0030854849610477686
24.0,0.0029456298798322678
26.0,0.002853019628673792
28.0,0.002659793244674802
30.0,0.0022931157145649195
32.0,0.002029391471296549
36.0,0.001397002604790032
40.0,0.001217881916090846
44.0,0.001125936396420002
48.0,0.0008855744381435215
52.0,0.0008705361397005618
56.0,0.0012187134707346559
60.0,0.0012593399733304977
64.0,0.0013500924687832594
72.0,0.0008188997162505984
80.0,0.0006436012918129563
88.0,0.0007819610182195902
96.0,0.0003737507504411042
104.0,0.00016784977924544364
112.0,0.00021638716862071306
120.0,0.00030589030939154327
128.0,0.000589093950111419
144.0,0.0004084235115442425
160.0,0.0002698898606467992
176.0,-0.0005278750904835761
192.0,-0.00037990929558873177
208.0,-0.00018988647207152098
224.0,0.00032422266667708755
240.0,0.0002513945510145277
256.0,0.00016735853569116443
288.0,-0.00024222585489042103
320.0,-0.0006707391003146768
352.0,-0.0005147448973730206
384.0,-0.0006169236730784178
416.0,-0.0009302048129029572
448.0,-0.0003013747918885201
480.0,-0.0002590964431874454
512.0,-0.00027307303389534354
576.0,-0.0002772660809569061
640.0,0.00021056327386759222
704.0,0.00019833688565995544
768.0,0.00015205434465315193
832.0,-0.0003134514845442027
896.0,-0.00025347573682665825
960.0,-0.0002499939000699669
1024.0,-0.0003027968923561275
1152.0,0.00040276459185406566
1280.0,0.0005164865870028734
1408.0,8.743085345486179e-05
1536.0,-1.3754398423770908e-05
1664.0,-0.0005933633074164391
1792.0,6.53992674415349e-06
1920.0,0.00012306410644669086
2048.0,0.0001717523264233023
2304.0,0.00035428436240181327
2560.0,-0.00023089123715180904
2816.0,-0.00031648899312131107
3072.0,7.152752368710935e-05
3328.0,0.0002321908832527697
3584.0,9.861832950264215e-05
3840.0,-0.00037005834747105837
4096.0,-7.737077248748392e-05
4608.0,0.00017263457993976772
5120.0,-4.603812158165965e-06
5632.0,0.0001331518724327907
6144.0,-0.000238482651184313
6656.0,-6.159865006338805e-05
7168.0,0.00023906333080958575
7680.0,-0.00026239815633744
8192.0,0.00015575297584291548
end
