version,3.0
numOfCh,1
type,point
parent_name,ff67b_3dot0-1dot0
ch_type,1_1
kcount,1
numberNandB,1
brightnessNandB,1
carpet pos,0
pc,0
Time (ms),CH1 Auto-Correlation
1.0,0.016042467206716537
2.0,0.013130519539117813
3.0,0.011028365232050419
4.0,0.00947290938347578
5.0,0.008341921493411064
6.0,0.00735886674374342
7.0,0.006554051768034697
8.0,0.00596690783277154
9.0,0.005503366235643625
10.0,0.005056961439549923
11.0,0.004770256578922272
12.0,0.004279561340808868
13.0,0.00396179361268878
14.0,0.0036172145046293736
15.0,0.003242050763219595
16.0,0.002752679632976651
18.0,0.0023346312809735537
20.0,0.0020579597912728786
22.0,0.001792046008631587
24.0,0.001792921801097691
26.0,0.0017617351841181517
28.0,0.0016897298628464341
30.0,0.0016431851545348763
32.0,0.001746624824590981
36.0,0.0015478914137929678
40.0,0.0015298704383894801
44.0,0.0015488272765651345
48.0,0.001376085914671421
52.0,0.0011687425430864096
56.0,0.001186989014968276
60.0,0.001177524565719068
64.0,0.001012010732665658
72.0,0.0012419738341122866
80.0,0.0010318610584363341
88.0,0.00046745160943828523
96.0,0.00012131151015637442
104.0,0.00036944562452845275
112.0,0.000720434938557446
120.0,0.0006113109411671758
128.0,0.0005370919825509191
144.0,0.0003603700315579772
160.0,0.00012156942102592438
176.0,-8.955132943810895e-05
192.0,-0.00022055691806599498
208.0,-0.00041449462878517807
224.0,-0.0005797993508167565
240.0,-0.0006415576208382845
256.0,-0.0004063824308104813
288.0,-0.0003922161995433271
320.0,-0.00029292405815795064
352.0,0.00016277810209430754
384.0,2.430738641123753e-05
416.0,0.0001346324133919552
448.0,-0.00020649388898164034
480.0,0.00011559712584130466
512.0,0.0003869373176712543
576.0,0.0005420452798716724
640.0,8.115218224702403e-05
704.0,-0.000411648623412475
768.0,-0.0003304292040411383
832.0,-0.00032838358310982585
896.0,-0.00038903855602256954
960.0,0.00016175434575416148
1024.0,-0.00020502618281170726
1152.0,0.00011358376650605351
1280.0,-0.0003367320750840008
1408.0,0.00025534158339723945
1536.0,8.587478077970445e-05
1664.0,-0.0007646454032510519
1792.0,0.0003734880010597408
1920.0,0.00014612618542741984
2048.0,-0.00014579335402231663
2304.0,-3.686591298901476e-05
2560.0,0.00027770581073127687
2816.0,-0.0002392430615145713
3072.0,0.00011826061381725594
3328.0,-0.00019042097846977413
3584.0,-8.803552918834612e-05
3840.0,0.00023239772417582572
4096.0,-0.0005941315903328359
4608.0,5.018041520088445e-06
5120.0,4.820057802135125e-05
5632.0,-6.587933967239223e-06
6144.0,-0.00017733374261297286
6656.0,-2.5544732125126757e-05
7168.0,-0.0002219519519712776
7680.0,0.00020043017866555601
8192.0,-2.632386349432636e-05
end
