version,3.0
numOfCh,1
type,point
parent_name,ff67b_3dot0-1dot0
ch_type,1_1
kcount,1
numberNandB,1
brightnessNandB,1
carpet pos,0
pc,0
Time (ms),CH1 Auto-Correlation
1.0,0.016681166365742683
2.0,0.013616688549518585
3.0,0.0115774841979146
4.0,0.010048769414424896
5.0,0.008793359622359276
6.0,0.007827804423868656
7.0,0.0070410724729299545
8.0,0.006388674024492502
9.0,0.005909294821321964
10.0,0.005418114364147186
11.0,0.004914717748761177
12.0,0.004406029358506203
13.0,0.0039578648284077644
14.0,0.0035545378923416138
15.0,0.00326606840826571
16.0,0.0030474241357296705
18.0,0.0027803550474345684
20.0,0.002514698076993227
22.0,0.002233141101896763
24.0,0.0020562380086630583
26.0,0.0020171869546175003
28.0,0.002044237684458494
30.0,0.001933787832967937
32.0,0.0018438315019011497
36.0,0.0015131060499697924
40.0,0.0012102595064789057
44.0,0.001225129934027791
48.0,0.0009952981490641832
52.0,0.0005522032151930034
56.0,0.00034533729194663465
60.0,1.3749981917499099e-05
64.0,-0.00036972283851355314
72.0,-0.0001863232027972117
80.0,-0.00013126603153068572
88.0,-0.00026387328398413956
96.0,-0.00027120354934595525
104.0,-0.0001920390350278467
112.0,-0.000265649490756914
120.0,0.00012873778177890927
128.0,0.00034478105953894556
144.0,0.00022437909501604736
160.0,0.0006643173401243985
176.0,0.0003807567118201405
192.0,-0.00020378334738779813
208.0,-1.4090620425122324e-05
224.0,8.845005504554138e-05
240.0,6.834820669610053e-05
256.0,-0.00014834861212875694
288.0,0.0001311285450356081
320.0,0.000341474253218621
352.0,0.0007328748470172286
384.0,0.0004966852138750255
416.0,7.318115240195766e-05
448.0,-8.169615466613322e-05
480.0,0.00016515236347913742
512.0,4.9017344281310216e-06
576.0,-0.0003166647511534393
640.0,-0.0005099994014017284
704.0,-0.0006443489110097289
768.0,-0.0005096223903819919
832.0,0.00018774779164232314
896.0,-0.00011040424578823149
960.0,-0.0003887798811774701
1024.0,-0.0005344300298020244
1152.0,7.011395791778341e-05
1280.0,0.00013985505211167037
1408.0,0.00013146072160452604
1536.0,5.308729305397719e-05
1664.0,-7.767562783556059e-05
1792.0,-0.0002478123642504215
1920.0,5.961353235761635e-05
2048.0,0.00016452965792268515
2304.0,6.0644983022939414e-05
2560.0,-0.0001408275857102126
2816.0,-3.8876005419297144e-05
3072.0,1.1912123909496586e-06
3328.0,0.0001013318687910214
3584.0,0.0002154757094103843
3840.0,0.00019295381207484752
4096.0,-9.030905857798643e-06
4608.0,-0.00023922728723846376
5120.0,3.427517367526889e-05
5632.0,-0.00010438903700560331
6144.0,-0.0002463026321493089
6656.0,-8.044802234508097e-05
7168.0,0.00029707810608670115
7680.0,0.00026492372853681445
8192.0,-0.0003582719946280122
end
