version,3.0
numOfCh,1
type,point
parent_name,ff67b_3dot0-1dot0
ch_type,1_1
kcount,1
numberNandB,1
brightnessNandB,1
carpet pos,0
pc,0
Time (ms),CH1 Auto-Correlation
1.0,0.016742970794439316
2.0,0.01371927559375763
3.0,0.011563608422875404
4.0,0.010169251821935177
5.0,0.00905962660908699
6.0,0.00819258950650692
7.0,0.007428956683725119
8.0,0.00675792433321476
9.0,0.006201796233654022
10.0,0.005614031106233597
11.0,0.0052039348520338535
12.0,0.004870120901614428
13.0,0.004627089947462082
14.0,0.004485577344894409
15.0,0.004274633713066578
16.0,0.004072329495102167
18.0,0.0036378640215843916
20.0,0.0030689514242112637
22.0,0.0026117286179214716
24.0,0.002252937061712146
26.0,0.0020977924577891827
28.0,0.002064627129584551
30.0,0.0018944329349324107
32.0,0.0016377142164856195
36.0,0.0014638686552643776
40.0,0.0014008873840793967
44.0,0.0009715346386656165
48.0,0.0007164865382947028
52.0,0.00046954333083704114
56.0,0.00032262085005640984
60.0,0.00032929982990026474
64.0,0.00035803011269308627
72.0,0.000525362731423229
80.0,0.0005850528832525015
88.0,0.00039290214772336185
96.0,-0.0001814260904211551
104.0,-0.0002512657374609262
112.0,-0.00023698988661635667
120.0,-0.0002777214103844017
128.0,-0.00036620977334678173
144.0,-0.00020491988107096404
160.0,0.00019215908832848072
176.0,2.181282798119355e-05
192.0,5.215833880356513e-05
208.0,2.0093417333555408e-05
224.0,-0.0002245055657112971
240.0,-9.604168008081615e-05
256.0,-0.00046556946472264826
288.0,-5.522398350876756e-05
320.0,-0.0002825446135830134
352.0,3.296233990113251e-05
384.0,-0.0002011539472732693
416.0,-0.0003132298297714442
448.0,0.00024520140141248703
480.0,9.116697765421122e-05
512.0,-0.0002911826013587415
576.0,-0.00034433064865879714
640.0,-0.0002500907867215574
704.0,-7.737905980320647e-05
768.0,-2.6899870135821402e-05
832.0,0.00038746470818296075
896.0,-0.00022528554836753756
960.0,0.0004023553046863526
1024.0,-0.00015459026326425374
1152.0,-0.0003009570646099746
1280.0,-0.00035514781484380364
1408.0,0.00022036978043615818
1536.0,-5.5518790759379044e-05
1664.0,8.203071774914861e-05
1792.0,-2.512553328415379e-05
1920.0,6.913252582307905e-05
2048.0,0.0002027005684794858
2304.0,7.054597517708316e-05
2560.0,-0.00017150293570011854
2816.0,-2.204229349445086e-05
3072.0,6.288282020250335e-05
3328.0,1.2503171092248522e-05
3584.0,0.0001384052011417225
3840.0,-9.233388118445873e-05
4096.0,-0.00013917041360400617
4608.0,-0.00018378585809841752
5120.0,-9.605564991943538e-05
5632.0,8.248810627264902e-05
6144.0,0.0001781449536792934
6656.0,-0.00012297366629354656
7168.0,-0.00018580484902486205
7680.0,0.00022078462643548846
8192.0,-0.00022781026200391352
end
