version,3.0
numOfCh,1
type,point
parent_name,ff67b_3dot0-1dot0
ch_type,1_1
kcount,1
numberNandB,1
brightnessNandB,1
carpet pos,0
pc,0
Time (ms),CH1 Auto-Correlation
1.0,0.016555728390812874
2.0,0.013589361682534218
3.0,0.011474705301225185
4.0,0.01003228034824133
5.0,0.008892943151295185
6.0,0.007872458547353745
7.0,0.007085161283612251
8.0,0.006432932335883379
9.0,0.005877058487385511
10.0,0.005592029076069593
11.0,0.00528357271105051
12.0,0.0049866121262311935
13.0,0.004621951375156641
14.0,0.004343070555478334
15.0,0.004130428656935692
16.0,0.0038136036600917578
18.0,0.003385614138096571
20.0,0.0029497374780476093
22.0,0.0026893881149590015
24.0,0.0026560225524008274
26.0,0.0023597648832947016
28.0,0.0020620853174477816
30.0,0.0018814934883266687
32.0,0.0018788558663800359
36.0,0.0018703622044995427
40.0,0.001869166735559702
44.0,0.0019591059535741806
48.0,0.0016595602501183748
52.0,0.0014008396537974477
56.0,0.0013078504707664251
60.0,0.0013363147154450417
64.0,0.0010994431795552373
72.0,0.0006882325978949666
80.0,0.0007296262192539871
88.0,0.0005380326183512807
96.0,0.00023562685237266123
104.0,0.0004075047327205539
112.0,0.00032986197038553655
120.0,0.00039034339715726674
128.0,9.657503687776625e-05
144.0,-0.000171310908626765
160.0,-7.460208144038916e-05
176.0,7.344295590883121e-05
192.0,-0.00012963936023879796
208.0,0.0004004640504717827
224.0,0.00032669826759956777
240.0,-9.632208093535155e-05
256.0,-3.2327399821951985e-05
288.0,-0.00037971892743371427
320.0,-0.00022089290723670274
352.0,2.416909956082236e-05
384.0,-0.00013351738743949682
416.0,0.0005058022798039019
448.0,1.2859796697739512e-05
480.0,0.00019192164472769946
512.0,-5.98152155362186e-06
576.0,-0.0004697044496424496
640.0,-0.00014321209164336324
704.0,-0.0005173286772333086
768.0,-0.00046147528337314725
832.0,3.5398850741330534e-05
896.0,4.034359153592959e-05
960.0,-0.0004980854573659599
1024.0,-0.00016400747699663043
1152.0,0.0002823369868565351
1280.0,-0.00037637827335856855
1408.0,-0.00016750337090343237
1536.0,0.00045877578668296337
1664.0,0.00017497675435151905
1792.0,0.00012305789277888834
1920.0,-6.157508323667571e-05
2048.0,6.740505682500952e-07
2304.0,-1.2627786418306641e-05
2560.0,0.0001567137223901227
2816.0,5.250437607173808e-05
3072.0,-5.5770669860066846e-05
3328.0,-0.00037799772690050304
3584.0,-0.00013649409811478108
3840.0,-6.376787496265024e-05
4096.0,0.00010720652062445879
4608.0,-6.664810643997043e-05
5120.0,-0.00020309395040385425
5632.0,-0.0004172784392721951
6144.0,0.00012419966515153646
6656.0,0.0003523314371705055
7168.0,-0.00026051525492221117
7680.0,0.00010251898493152112
8192.0,6.238525384105742e-05
end
