version,3.0
numOfCh,1
type,point
parent_name,ff67b_3dot0-1dot0
ch_type,1_1
kcount,1
numberNandB,1
brightnessNandB,1
carpet pos,0
pc,0
Time (ms),CH1 Auto-Correlation
1.0,0.017657024785876274
2.0,0.014742905274033546
3.0,0.012552611529827118
4.0,0.010953173972666264
5.0,0.00956245418637991
6.0,0.008507593534886837
7.0,0.007583823055028915
8.0,0.006977492477744818
9.0,0.0064538405276834965
10.0,0.005928083322942257
11.0,0.005615644622594118
12.0,0.00542147783562541
13.0,0.005153088830411434
14.0,0.0048835910856723785
15.0,0.004577684216201305
16.0,0.0043529123067855835
18.0,0.004134109243750572
20.0,0.0036722475197166204
22.0,0.003331040032207966
24.0,0.003230516565963626
26.0,0.0032842657528817654
28.0,0.0031252114567905664
30.0,0.002887377981096506
32.0,0.0025689387694001198
36.0,0.0024620259646326303
40.0,0.0022161940578371286
44.0,0.0017966143786907196
48.0,0.0015230359276756644
52.0,0.0015535822603851557
56.0,0.0015278552891686559
60.0,0.0011669446248561144
64.0,0.0009389571496285498
72.0,0.0003848430060315877
80.0,0.0006341858534142375
88.0,0.0013835985446348786
96.0,0.001260110642760992
104.0,0.0010248090839013457
112.0,0.000741706055123359
120.0,0.0008194228284992278
128.0,0.00031817815033718944
144.0,-0.0005115681560710073
160.0,-0.0003489021328277886
176.0,-0.00014025947893969715
192.0,0.00017834888421930373
208.0,0.0001889837731141597
224.0,0.0003368762554600835
240.0,8.140361387631856e-06
256.0,-0.0011042450787499547
288.0,-0.0007864131475798786
320.0,-0.00022524769883602858
352.0,-0.0005248062079772353
384.0,-0.00031180461519397795
416.0,1.8579858078737743e-05
448.0,1.528963548480533e-05
480.0,1.4338927030621562e-05
512.0,0.0008109529153443873
576.0,0.0006784173310734332
640.0,-0.00020280499302316457
704.0,-0.0006880749715492129
768.0,-0.0009057031129486859
832.0,-0.0002716241287998855
896.0,-0.00012648598931264132
960.0,0.0002194746775785461
1024.0,-1.2184946172055788e-06
1152.0,0.00012793556379619986
1280.0,-0.000683057471178472
1408.0,4.821701077162288e-05
1536.0,0.00018991493561770767
1664.0,0.00042919389670714736
1792.0,-0.00031923173810355365
1920.0,-0.00027978591970168054
2048.0,-0.0001909192360471934
2304.0,-0.0001840253098635003
2560.0,-0.0002488957834430039
2816.0,0.0001962209353223443
3072.0,-0.00019663351122289896
3328.0,0.0005010055610910058
3584.0,-0.0008302484638988972
3840.0,0.0005250778631307185
4096.0,-0.00039159657899290323
4608.0,8.903251000447199e-05
5120.0,-0.00012250631698407233
5632.0,-2.1798128727823496e-05
6144.0,-0.0001400607288815081
6656.0,6.913890683790669e-05
7168.0,0.0002685250074137002
7680.0,-0.00013951832079328597
8192.0,-0.00024248051340691745
end
