version,3.0
numOfCh,1
type,point
parent_name,ff67b_3dot0-1dot0
ch_type,1_1
kcount,1
numberNandB,1
brightnessNandB,1
carpet pos,0
pc,0
Time (ms),CH1 Auto-Correlation
1.0,0.015951339155435562
2.0,0.013033809140324593
3.0,0.010886208154261112
4.0,0.009321732446551323
5.0,0.008121510967612267
6.0,0.007293696980923414
7.0,0.006564662326127291
8.0,0.0059810965321958065
9.0,0.005478296894580126
10.0,0.005175590980798006
11.0,0.0049447608180344105
12.0,0.004667909815907478
13.0,0.0044073970057070255
14.0,0.004046850372105837
15.0,0.0038056413177400827
16.0,0.0034856032580137253
18.0,0.003130718832835555
20.0,0.002698555588722229
22.0,0.002387656131759286
24.0,0.002151835011318326
26.0,0.0019498888868838549
28.0,0.001952527672983706
30.0,0.0019074956653639674
32.0,0.0018752842443063855
36.0,0.0017749215476214886
40.0,0.001541264820843935
44.0,0.0013138661161065102
48.0,0.0011130603961646557
52.0,0.000987669569440186
56.0,0.0006451939116232097
60.0,0.00026015969342552125
64.0,0.00020442419918254018
72.0,0.0003046642814297229
80.0,0.0004276864929124713
88.0,0.0005527641042135656
96.0,0.00047890693531371653
104.0,0.0007951408624649048
112.0,0.0005839095101691782
120.0,0.000623702653683722
128.0,0.00035127176670357585
144.0,0.0002580983273219317
160.0,-0.0001493738527642563
176.0,-0.0005069967592135072
192.0,-0.0005927355960011482
208.0,-0.0004506760451477021
224.0,-0.0001493766176281497
240.0,-0.0004592978220898658
256.0,-0.0006891380180604756
288.0,0.00035396372550167143
320.0,0.0004977267817594111
352.0,0.0003588625986594707
384.0,0.00020046373538207263
416.0,-0.00010621657565934584
448.0,0.0002547675103414804
480.0,1.3734662388742436e-05
512.0,0.00019811390666291118
576.0,-0.00010381390166003257
640.0,2.259394750581123e-05
704.0,-0.0005335184396244586
768.0,-0.0006210753344930708
832.0,-0.0006217862828634679
896.0,-7.730181096121669e-05
960.0,-6.820027920184657e-05
1024.0,-0.00024055973335634917
1152.0,-0.00038289724034257233
1280.0,1.701787914498709e-05
1408.0,-6.342792767100036e-05
1536.0,-0.0003538677701726556
1664.0,6.934102566447109e-05
1792.0,0.0003949550446122885
1920.0,0.0002495530934538692
2048.0,-0.00010055227903649211
2304.0,8.613395766587928e-05
2560.0,0.00010155559721169993
2816.0,-0.0003420468419790268
3072.0,-0.00021186885714996606
3328.0,-0.00018936063861474395
3584.0,4.27257691626437e-05
3840.0,0.00020049970771651715
4096.0,0.00028361548902466893
4608.0,9.926878192345612e-06
5120.0,-0.00028948599356226623
5632.0,0.00011460595851531252
6144.0,6.8132485466776416e-06
6656.0,-0.0004470568965189159
7168.0,-1.0895172636082862e-05
7680.0,0.00015584290667902678
8192.0,-0.00012736176722683012
end
