version,3.0
numOfCh,1
type,point
parent_name,ff67b_3dot0-1dot0
ch_type,1_1
kcount,1
numberNandB,1
brightnessNandB,1
carpet pos,0
pc,0
Time (ms),CH1 Auto-Correlation
1.0,0.01680701971054077
2.0,0.013865589164197445
3.0,0.011637196876108646
4.0,0.009942998178303242
5.0,0.008632549084722996
6.0,0.007662910036742687
7.0,0.00690112542361021
8.0,0.0062920390628278255
9.0,0.00570589117705822
10.0,0.0051686423830688
11.0,0.004864032845944166
12.0,0.0046492889523506165
13.0,0.004449690226465464
14.0,0.004370407667011023
15.0,0.004138513933867216
16.0,0.003986179828643799
18.0,0.0035547390580177307
20.0,0.003074919804930687
22.0,0.0026866751722991467
24.0,0.002456626622006297
26.0,0.0022044088691473007
28.0,0.0018543207552284002
30.0,0.0017569160554558039
32.0,0.00180914590600878
36.0,0.0016335808904841542
40.0,0.0015455175889655948
44.0,0.0011307778768241405
48.0,0.0008997957920655608
52.0,0.0008869656594470143
56.0,0.0008561327704228461
60.0,0.0009220107458531857
64.0,0.0007663252181373537
72.0,0.0005896119400858879
80.0,0.00045475474325940013
88.0,0.0007337684510275722
96.0,0.0005088335601612926
104.0,0.0007427965756505728
112.0,0.0008999688434414566
120.0,0.0008270698017440736
128.0,0.0006957147852517664
144.0,0.0006726876017637551
160.0,0.0006104131462052464
176.0,0.0009998324094340205
192.0,0.0009543796186335385
208.0,0.0003711296012625098
224.0,0.0008503361023031175
240.0,0.0008501712582074106
256.0,0.0003889726649504155
288.0,0.0004941883962601423
320.0,0.00038411031709983945
352.0,0.0005638992879539728
384.0,0.0005055548390373588
416.0,0.00047858606558293104
448.0,0.00047452517901547253
480.0,0.00026667246129363775
512.0,0.000392639049096033
576.0,0.0002460134564898908
640.0,1.1253070624661632e-05
704.0,5.21063593623694e-05
768.0,0.0005133209633640945
832.0,0.00012785640137735754
896.0,8.302526111947373e-05
960.0,0.00034296317608095706
1024.0,-0.00010616199142532423
1152.0,-0.00035375470179133117
1280.0,-0.00041964775300584733
1408.0,-0.0004937541671097279
1536.0,-0.0005624645855277777
1664.0,-0.00013692324864678085
1792.0,-0.00019912402785848826
1920.0,-0.0004266113101039082
2048.0,-0.00047989885206334293
2304.0,-0.0003823176957666874
2560.0,-0.0003453563549555838
2816.0,-0.00033363219699822366
3072.0,-0.00031179090728983283
3328.0,-0.0001731495140120387
3584.0,3.218969504814595e-05
3840.0,0.00013853669224772602
4096.0,9.856064571067691e-05
4608.0,0.0003746727597899735
5120.0,0.00012385407171677798
5632.0,0.00026727482327260077
6144.0,0.00022093024745117873
6656.0,-0.00033215165603905916
7168.0,-0.0005707175005227327
7680.0,-0.000599304330535233
8192.0,0.0001637783570913598
end
