version,3.0
numOfCh,1
type,point
parent_name,ff67b_3dot0-1dot0
ch_type,1_1
kcount,1
numberNandB,1
brightnessNandB,1
carpet pos,0
pc,0
Time (ms),CH1 Auto-Correlation
1.0,0.016133852303028107
2.0,0.013103215023875237
3.0,0.010981937870383263
4.0,0.009376352652907372
5.0,0.008112723007798195
6.0,0.007186387665569782
7.0,0.0063665458001196384
8.0,0.005644706077873707
9.0,0.005028106737881899
10.0,0.004549246281385422
11.0,0.004178806208074093
12.0,0.003863259218633175
13.0,0.003581149270758033
14.0,0.0033798597287386656
15.0,0.0031370704527944326
16.0,0.003063490614295006
18.0,0.0026651390362530947
20.0,0.0023944710846990347
22.0,0.0023780178744345903
24.0,0.0022098564077168703
26.0,0.0020010920707136393
28.0,0.0017696800641715527
30.0,0.0018808861495926976
32.0,0.0019869524985551834
36.0,0.0014994785888120532
40.0,0.0012560487957671285
44.0,0.0008384175016544759
48.0,0.00039550013025291264
52.0,0.00020477861107792705
56.0,0.00013169604062568396
60.0,1.553216679894831e-05
64.0,2.9768960303044878e-05
72.0,0.0001565160055179149
80.0,-9.827189933275804e-05
88.0,-0.0003433717356529087
96.0,-0.00028655826463364065
104.0,-0.0001877174072433263
112.0,0.00010447629756527022
120.0,9.29916204768233e-05
128.0,2.6112056730198674e-05
144.0,1.7882310203276575e-05
160.0,0.00017478031804785132
176.0,0.00012686592526733875
192.0,0.00015808019088581204
208.0,-0.00022235260985326022
224.0,-0.00032869927235879004
240.0,8.651612006360665e-05
256.0,0.0007658505928702652
288.0,0.00047449106932617724
320.0,0.00031701879925094545
352.0,7.251442002598196e-05
384.0,9.20649563340703e-06
416.0,-0.0005333379376679659
448.0,-0.00037725266884081066
480.0,2.9619215638376772e-05
512.0,0.00010124400432687253
576.0,-0.0002566128387115896
640.0,-0.0003312330227345228
704.0,-0.00031362034496851265
768.0,-0.00022838498989585787
832.0,-0.0004910182906314731
896.0,-0.0002622583706397563
960.0,-0.0002643242769408971
1024.0,8.285933290608227e-06
1152.0,-0.00013928176485933363
1280.0,-0.0004579327942337841
1408.0,-0.0001898329792311415
1536.0,6.34045063634403e-05
1664.0,-0.00034639149089343846
1792.0,8.037419320316985e-05
1920.0,0.0001530884183011949
2048.0,0.0003636313776951283
2304.0,4.218793037580326e-05
2560.0,0.00010849153477465734
2816.0,-0.00020267626678105444
3072.0,0.00011892415204783902
3328.0,-0.0002345884859096259
3584.0,6.76405688864179e-05
3840.0,-4.85090131405741e-05
4096.0,3.984559589298442e-05
4608.0,0.0002612916869111359
5120.0,-0.0002626017085276544
5632.0,5.17135085829068e-05
6144.0,-1.3932070942246355e-05
6656.0,9.966381185222417e-05
7168.0,-0.00028794791433028877
7680.0,0.0003329610335640609
8192.0,-8.017286018002778e-05
end
