version,3.0
numOfCh,1
type,point
parent_name,ff67b_3dot0-1dot0
ch_type,1_1
kcount,1
numberNandB,1
brightnessNandB,1
carpet pos,0
pc,0
Time (ms),CH1 Auto-Correlation
1.0,0.015981029719114304
2.0,0.013074509799480438
3.0,0.010975582525134087
4.0,0.009552490897476673
5.0,0.008528382517397404
6.0,0.007795191835612059
7.0,0.007196449209004641
8.0,0.0067284200340509415
9.0,0.006190876942127943
10.0,0.005685450974851847
11.0,0.00531875342130661
12.0,0.004975144751369953
13.0,0.004738090559840202
14.0,0.004427206236869097
15.0,0.004156490322202444
16.0,0.003963778261095285
18.0,0.0035759243182837963
20.0,0.0031751561909914017
22.0,0.0028829332441091537
24.0,0.002658768557012081
26.0,0.0024597609881311655
28.0,0.0022029373794794083
30.0,0.002035874407738447
32.0,0.0019147847779095173
36.0,0.001809983979910612
40.0,0.00213228864595294
44.0,0.002154780551791191
48.0,0.0021180242765694857
52.0,0.002150737214833498
56.0,0.0017925086431205273
60.0,0.0016111279837787151
64.0,0.001295089372433722
72.0,0.0012649452546611428
80.0,0.001507613924331963
88.0,0.0014444236876443028
96.0,0.001148549490608275
104.0,0.0011436586501076818
112.0,0.0009061686578206718
120.0,0.001072389422915876
128.0,0.0010205988073721528
144.0,0.0006592233548872173
160.0,0.00023336373851634562
176.0,-0.0001235075615113601
192.0,9.336965013062581e-05
208.0,-0.0002028147573582828
224.0,-0.00010407611989649013
240.0,0.0009217025362886488
256.0,0.0008510163170285523
288.0,0.0003691340680234134
320.0,0.00019584072288125753
352.0,-7.51759871491231e-05
384.0,7.864995131967589e-05
416.0,-0.0006538919406011701
448.0,-0.000482106173876673
480.0,-0.0005498537793755531
512.0,-0.00026364714722149074
576.0,-0.0001614308130228892
640.0,-4.140106830163859e-05
704.0,5.437004438135773e-05
768.0,0.00021339506201911718
832.0,0.00036705919774249196
896.0,3.1540232157567516e-05
960.0,-0.00041369569953531027
1024.0,-0.0006815218948759139
1152.0,-0.0008148459019139409
1280.0,-0.0009648961131460965
1408.0,0.0001669709599809721
1536.0,0.0005347823025658727
1664.0,0.0005388553836382926
1792.0,0.00012338021770119667
1920.0,-0.0005422952235676348
2048.0,-0.0006014328682795167
2304.0,-0.00016157011850737035
2560.0,-0.0003591801505535841
2816.0,-0.0006075472920201719
3072.0,-8.946059824666008e-05
3328.0,-3.704383198055439e-05
3584.0,0.00017514661885797977
3840.0,0.00027745519764721394
4096.0,0.0005865571438334882
4608.0,-0.00025457379524596035
5120.0,-0.00016146930283866823
5632.0,0.0005904213758185506
6144.0,0.00025680463295429945
6656.0,-0.0004596199141815305
7168.0,-0.0001969534787349403
7680.0,6.142936763353646e-05
8192.0,-0.0003100862668361515
end
