version,3.0
numOfCh,1
type,point
parent_name,ff67b_3dot0-1dot0
ch_type,1_1
kcount,1
numberNandB,1
brightnessNandB,1
carpet pos,0
pc,0
Time (ms),CH1 Auto-Correlation
1.0,0.016614308580756187
2.0,0.013612774200737476
3.0,0.011512855999171734
4.0,0.009906645864248276
5.0,0.008697600103914738
6.0,0.007718237116932869
7.0,0.006925159599632025
8.0,0.006301662884652615
9.0,0.005778972990810871
10.0,0.005345707293599844
11.0,0.004968573804944754
12.0,0.004712357185781002
13.0,0.004350938834249973
14.0,0.0040863193571567535
15.0,0.003810323541983962
16.0,0.003660268848761916
18.0,0.0034804733004420996
20.0,0.003137900261208415
22.0,0.0027680813800543547
24.0,0.002556628780439496
26.0,0.0023988771717995405
28.0,0.0022504383232444525
30.0,0.0022731400094926357
32.0,0.0022638908121734858
36.0,0.0023298088926821947
40.0,0.002276176121085882
44.0,0.0022099583875387907
48.0,0.0021158771123737097
52.0,0.0015411152271553874
56.0,0.001137172686867416
60.0,0.0008997182594612241
64.0,0.0008175366674549878
72.0,0.0005193061078898609
80.0,0.0002496133965905756
88.0,2.4490809664712287e-05
96.0,-0.00041360416798852384
104.0,-0.0009281670791096985
112.0,-0.0009005125029943883
120.0,-0.0004948719870299101
128.0,-0.0003657698107417673
144.0,-0.0005888998857699335
160.0,-0.0005973890656605363
176.0,-0.0006230960716493428
192.0,-0.00025989575078710914
208.0,-0.0003207028203178197
224.0,-2.3969059839146212e-05
240.0,-2.178089926019311e-05
256.0,0.0003217053599655628
288.0,0.0002191127568949014
320.0,-0.0002467840095050633
352.0,0.00017818750347942114
384.0,-0.00028193529578857124
416.0,-0.00017048735753633082
448.0,-0.00032779996399767697
480.0,-0.00024737505009397864
512.0,0.00023642450105398893
576.0,0.00034032537951134145
640.0,0.00047700133291073143
704.0,-0.0001652532519074157
768.0,-0.0003490335075184703
832.0,-0.00015155212895479053
896.0,-0.0001353403931716457
960.0,-0.00046911207027733326
1024.0,-0.0004521542286965996
1152.0,-0.00032814289443194866
1280.0,0.00035280699376016855
1408.0,-9.226171096088365e-05
1536.0,-8.486495789838955e-05
1664.0,0.0005000208038836718
1792.0,-4.776857622346142e-06
1920.0,1.3011011105845682e-05
2048.0,0.00018057537090498954
2304.0,-1.9068127585342154e-05
2560.0,-8.394198812311515e-05
2816.0,-0.00020104872237425297
3072.0,0.00027747111744247377
3328.0,-0.00019799471192527562
3584.0,-0.0001639367255847901
3840.0,-0.00011259943130426109
4096.0,-0.00010240346455248073
4608.0,0.00021651298447977751
5120.0,-0.00014327331155072898
5632.0,-0.00033480432466603816
6144.0,0.00015084173355717212
6656.0,0.00013885954103898257
7168.0,-0.00014154946256894618
7680.0,-0.00016029193648137152
8192.0,3.431246295804158e-05
end
