version,3.0
numOfCh,1
type,point
parent_name,ff67b_3dot0-1dot0
ch_type,1_1
kcount,1
numberNandB,1
brightnessNandB,1
carpet pos,0
pc,0
Time (ms),CH1 Auto-Correlation
1.0,0.015793336555361748
2.0,0.012876981869339943
3.0,0.010947403497993946
4.0,0.00946859735995531
5.0,0.008254890330135822
6.0,0.007285932078957558
7.0,0.0064191631972789764
8.0,0.0057556298561394215
9.0,0.005147859919816256
10.0,0.004630451090633869
11.0,0.004180037882179022
12.0,0.003990287892520428
13.0,0.003765938337892294
14.0,0.0034470362588763237
15.0,0.0032093811314553022
16.0,0.0029983948916196823
18.0,0.002754866611212492
20.0,0.0025720831472426653
22.0,0.0024330804590135813
24.0,0.0022087295074015856
26.0,0.0021166298538446426
28.0,0.0019928771071135998
30.0,0.00202034879475832
32.0,0.0018847578903660178
36.0,0.0014828667044639587
40.0,0.0011339897755533457
44.0,0.0008994528325274587
48.0,0.0006958458106964827
52.0,0.0006813837680965662
56.0,0.0009479266009293497
60.0,0.001162493135780096
64.0,0.0013218995882198215
72.0,0.0012823540018871427
80.0,0.001197107252664864
88.0,0.0009977028239518404
96.0,0.0005720821209251881
104.0,0.000667030515614897
112.0,0.0002889457973651588
120.0,0.0002209654776379466
128.0,0.0003010244108736515
144.0,0.0007388076046481729
160.0,0.0003156040911562741
176.0,-9.836533718043938e-05
192.0,0.0005271986010484397
208.0,-2.3046239221002907e-05
224.0,-0.00021337038197088987
240.0,-0.000570973614230752
256.0,0.0001277242845389992
288.0,1.5795896615600213e-05
320.0,-3.0424620490521193e-05
352.0,0.00010949669376714155
384.0,0.00020008266437798738
416.0,-0.00021153387206140906
448.0,-0.00022691331105306745
480.0,0.00017061537073459476
512.0,0.0003127303789369762
576.0,-0.0003853730158880353
640.0,-0.0004729422798845917
704.0,-0.00020738721650559455
768.0,-0.00029077421640977263
832.0,-7.830152026144788e-05
896.0,-0.00017784543160814792
960.0,-0.0003365321026649326
1024.0,-0.00021035599638707936
1152.0,5.540865822695196e-05
1280.0,2.8267671950743534e-05
1408.0,6.552563718287274e-05
1536.0,-0.00011064406862715259
1664.0,-0.00013838600716553628
1792.0,-0.00016465493536088616
1920.0,9.207807124766987e-06
2048.0,0.00023526781296823174
2304.0,-7.423049828503281e-05
2560.0,-0.00024067125923465937
2816.0,-1.7233696780749597e-05
3072.0,0.00014243590703699738
3328.0,-9.72409252426587e-05
3584.0,0.0004268650955054909
3840.0,0.00015764283307362348
4096.0,-5.987097028992139e-05
4608.0,-0.0001461503270547837
5120.0,-0.00010937178012682125
5632.0,-5.729738768422976e-05
6144.0,-1.29668005683925e-05
6656.0,0.00010616143117658794
7168.0,-0.00012066309864167124
7680.0,-0.0001564741542097181
8192.0,-0.00036928083864040673
end
