version,3.0
numOfCh,1
type,point
parent_name,ff67b_3dot0-1dot0
ch_type,1_1
kcount,1
numberNandB,1
brightnessNandB,1
carpet pos,0
pc,0
Time (ms),CH1 Auto-Correlation
1.0,0.01697668246924877
2.0,0.013976430520415306
3.0,0.011704343371093273
4.0,0.010111067444086075
5.0,0.008896734565496445
6.0,0.007942884229123592
7.0,0.00714097311720252
8.0,0.006391739938408136
9.0,0.005983081180602312
10.0,0.0056238928809762
11.0,0.005287995096296072
12.0,0.0049918219447135925
13.0,0.004720401018857956
14.0,0.0044489228166639805
15.0,0.004096686374396086
16.0,0.0039144097827374935
18.0,0.003680973080918193
20.0,0.0034947688691318035
22.0,0.0033572723623365164
24.0,0.003117468673735857
26.0,0.0027570987585932016
28.0,0.0025948353577405214
30.0,0.002590646967291832
32.0,0.002555472543463111
36.0,0.002024983987212181
40.0,0.0018772734329104424
44.0,0.0018647888209670782
48.0,0.0018885917961597443
52.0,0.0017675060080364347
56.0,0.0014421828091144562
60.0,0.001050407881848514
64.0,0.001001077122054994
72.0,0.000708158069755882
80.0,0.0006041554734110832
88.0,0.0012649325653910637
96.0,0.001169894589111209
104.0,0.0007781947497278452
112.0,0.0006898114806972444
120.0,0.0006458413554355502
128.0,0.0006004906608723104
144.0,0.00024523373576812446
160.0,0.0002966164902318269
176.0,1.2275037079234608e-05
192.0,-0.0002833696489688009
208.0,-0.00026505437563173473
224.0,6.777433009119704e-05
240.0,0.00024324649712070823
256.0,0.00032444141106680036
288.0,-7.591464509459911e-06
320.0,-0.0002520578564144671
352.0,2.3666469132876955e-05
384.0,0.00038493063766509295
416.0,0.00018387836462352425
448.0,1.1015375093847979e-05
480.0,-0.000427818187745288
512.0,-0.0003849943168461323
576.0,-0.0005565744359046221
640.0,-6.575003499165177e-05
704.0,-0.00032636953983455896
768.0,4.8472702474100515e-05
832.0,-0.0005003364640288055
896.0,-0.000310682924464345
960.0,-0.0005699701723642647
1024.0,-0.0007155518978834152
1152.0,-0.0004751139204017818
1280.0,-0.0001718377461656928
1408.0,-0.0003004224272444844
1536.0,0.00031399348517879844
1664.0,6.541141920024529e-05
1792.0,9.59327444434166e-05
1920.0,9.201554348692298e-05
2048.0,-3.513098636176437e-05
2304.0,6.732503970852122e-05
2560.0,-5.724162110709585e-05
2816.0,-0.00017485296120867133
3072.0,6.641912477789447e-05
3328.0,-0.00028867769287899137
3584.0,0.00015024092863313854
3840.0,0.000509071396663785
4096.0,6.73319591442123e-05
4608.0,-0.00018883930169977248
5120.0,-0.0003204191743861884
5632.0,0.00020868194405920804
6144.0,0.000137937706313096
6656.0,-7.851757982280105e-05
7168.0,-0.00018532875401433557
7680.0,0.00025337544502690434
8192.0,5.631088060908951e-05
end
