version,3.0
numOfCh,1
type,point
parent_name,0-cuts
ch_type,1_1
kcount,1
numberNandB,1
brightnessNandB,1
carpet pos,0
pc,0
Time (ms),CH1 Auto-Correlation
1.0,0.07724231481552124
2.0,0.0767207220196724
3.0,0.0761946439743042
4.0,0.0756697729229927
5.0,0.07516416907310486
6.0,0.07467207312583923
7.0,0.07419437170028687
8.0,0.07372130453586578
9.0,0.07325230538845062
10.0,0.07278113067150116
11.0,0.07233518362045288
12.0,0.0718938484787941
13.0,0.07145579904317856
14.0,0.07102279365062714
15.0,0.07059144973754883
16.0,0.0701531395316124
18.0,0.06930941343307495
20.0,0.06850817054510117
22.0,0.0677216574549675
24.0,0.06691727042198181
26.0,0.06614958494901657
28.0,0.0654236301779747
30.0,0.06469903886318207
32.0,0.06398586183786392
36.0,0.06257881969213486
40.0,0.06115085631608963
44.0,0.059735007584095
48.0,0.058391328901052475
52.0,0.057123251259326935
56.0,0.05591479688882828
60.0,0.05482244864106178
64.0,0.05378012731671333
72.0,0.05189377814531326
80.0,0.050248079001903534
88.0,0.04874790459871292
96.0,0.04726267233490944
104.0,0.04581824690103531
112.0,0.04468527436256409
120.0,0.043506551533937454
128.0,0.04225337877869606
144.0,0.03944006562232971
160.0,0.03704671189188957
176.0,0.03502962738275528
192.0,0.03297681361436844
208.0,0.0311227198690176
224.0,0.02953917346894741
240.0,0.027462191879749298
256.0,0.025401532649993896
288.0,0.022614283487200737
320.0,0.020184645429253578
352.0,0.017791911959648132
384.0,0.016524383798241615
416.0,0.016067497432231903
448.0,0.014984024688601494
480.0,0.01365211233496666
512.0,0.012765143066644669
576.0,0.01116400770843029
640.0,0.009742164053022861
704.0,0.008925002068281174
768.0,0.008832997642457485
832.0,0.010025667026638985
896.0,0.012026270851492882
960.0,0.012801672331988811
1024.0,0.014784823171794415
1152.0,0.011989268474280834
1280.0,0.004181345459073782
1408.0,-0.0018375235376879573
1536.0,-0.00490771746262908
1664.0,-0.01035566721111536
1792.0,-0.011780577711760998
1920.0,-0.008311356417834759
2048.0,-0.000664997030980885
2304.0,-0.0012566311052069068
2560.0,-0.007815475575625896
2816.0,-0.013432808220386505
3072.0,-0.0016515081515535712
3328.0,-0.0008675368153490126
3584.0,0.002736638532951474
3840.0,0.000420406082412228
4096.0,0.0014247455401346087
4608.0,-0.008135033771395683
5120.0,-0.02341345138847828
5632.0,-0.020011259242892265
6144.0,-0.01829766295850277
6656.0,-0.0020355733577162027
7168.0,0.003051577601581812
7680.0,0.014588059857487679
8192.0,0.0004610373289324343
9216.0,-0.001235634321346879
10240.0,0.008266104385256767
11264.0,0.020626476034522057
12288.0,0.0013449897523969412
13312.0,-0.024645084515213966
14336.0,-0.006230821833014488
end
