version,3.0
numOfCh,1
type,point
parent_name,0-cuts
ch_type,1_1
kcount,1
numberNandB,1
brightnessNandB,1
carpet pos,0
pc,0
Time (ms),CH1 Auto-Correlation
1.0,0.0848843976855278
2.0,0.08433310687541962
3.0,0.08379335701465607
4.0,0.08325479179620743
5.0,0.08270380645990372
6.0,0.08214762806892395
7.0,0.08159004151821136
8.0,0.08104176819324493
9.0,0.08050300925970078
10.0,0.07996831089258194
11.0,0.07945007085800171
12.0,0.07893861830234528
13.0,0.07842648774385452
14.0,0.07792820036411285
15.0,0.07742373645305634
16.0,0.07691065967082977
18.0,0.07591282576322556
20.0,0.07493773847818375
22.0,0.07400403916835785
24.0,0.07310330867767334
26.0,0.07220393419265747
28.0,0.0713120773434639
30.0,0.07044504582881927
32.0,0.06957605481147766
36.0,0.06792081892490387
40.0,0.06630618870258331
44.0,0.06476593017578125
48.0,0.06324627250432968
52.0,0.06182470545172691
56.0,0.06045530363917351
60.0,0.0591430738568306
64.0,0.05795401707291603
72.0,0.05568114295601845
80.0,0.05347833037376404
88.0,0.051270611584186554
96.0,0.0492972731590271
104.0,0.047614578157663345
112.0,0.04638323560357094
120.0,0.045216698199510574
128.0,0.04420994967222214
144.0,0.04250796139240265
160.0,0.04153724014759064
176.0,0.040835507214069366
192.0,0.03965572640299797
208.0,0.038337256759405136
224.0,0.037062786519527435
240.0,0.0361313559114933
256.0,0.03525879606604576
288.0,0.03161908686161041
320.0,0.027872372418642044
352.0,0.024123629555106163
384.0,0.02064773254096508
416.0,0.017788249999284744
448.0,0.014425769448280334
480.0,0.011167734861373901
512.0,0.009533345699310303
576.0,0.0077619245275855064
640.0,0.004489868879318237
704.0,0.0020208582282066345
768.0,-0.0019819133449345827
832.0,-0.00739668682217598
896.0,-0.009922473691403866
960.0,-0.009753121063113213
1024.0,-0.011339845135807991
1152.0,-0.01954057812690735
1280.0,-0.018954848870635033
1408.0,-0.01721123792231083
1536.0,-0.013017182238399982
1664.0,-0.0035668709315359592
1792.0,-0.002570263808593154
1920.0,-0.003647831967100501
2048.0,-0.0026043120305985212
2304.0,0.006421145051717758
2560.0,0.010623098351061344
2816.0,0.0020511490292847157
3072.0,-0.0038972010370343924
3328.0,-0.00785304605960846
3584.0,-0.011898541823029518
3840.0,-0.015751296654343605
4096.0,-0.0011659844312816858
4608.0,0.0074979206547141075
5120.0,0.009235446341335773
5632.0,-0.015931997448205948
6144.0,-0.023792902007699013
6656.0,-0.005294452887028456
7168.0,0.0207914300262928
7680.0,0.00753262173384428
8192.0,-0.008384634740650654
9216.0,0.0058302199468016624
10240.0,-0.009683182463049889
11264.0,-0.00034419199801050127
12288.0,0.025506576523184776
13312.0,-0.01653842069208622
14336.0,0.005827403627336025
end
