version,3.0
numOfCh,1
type,point
parent_name,0-cuts
ch_type,1_1
kcount,1
numberNandB,1
brightnessNandB,1
carpet pos,0
pc,0
Time (ms),CH1 Auto-Correlation
1.0,0.061768922954797745
2.0,0.061359137296676636
3.0,0.06095137819647789
4.0,0.06053511053323746
5.0,0.06012286990880966
6.0,0.05971595644950867
7.0,0.05931709334254265
8.0,0.05891379341483116
9.0,0.05851919576525688
10.0,0.058128777891397476
11.0,0.057736121118068695
12.0,0.0573403462767601
13.0,0.056945767253637314
14.0,0.056539833545684814
15.0,0.05614890158176422
16.0,0.05575050041079521
18.0,0.05497016757726669
20.0,0.054194603115320206
22.0,0.05344294756650925
24.0,0.052712853997945786
26.0,0.05199367552995682
28.0,0.05126691609621048
30.0,0.05053219199180603
32.0,0.049804288893938065
36.0,0.048404842615127563
40.0,0.04706844314932823
44.0,0.045783206820487976
48.0,0.04448825865983963
52.0,0.04320753738284111
56.0,0.04197346419095993
60.0,0.04079574719071388
64.0,0.039649948477745056
72.0,0.03745036572217941
80.0,0.03544639050960541
88.0,0.033663760870695114
96.0,0.03214079514145851
104.0,0.03075554221868515
112.0,0.029581869021058083
120.0,0.028607375919818878
128.0,0.02776012010872364
144.0,0.026213664561510086
160.0,0.025417296215891838
176.0,0.024451181292533875
192.0,0.02306457795202732
208.0,0.02144811674952507
224.0,0.019780056551098824
240.0,0.018118515610694885
256.0,0.01683354377746582
288.0,0.014012299478054047
320.0,0.011616269126534462
352.0,0.009777087718248367
384.0,0.008289594203233719
416.0,0.005781789310276508
448.0,0.0027094841934740543
480.0,0.0009779465617612004
512.0,9.128063538810238e-05
576.0,0.00022166158305481076
640.0,0.0007333018002100289
704.0,0.003105391748249531
768.0,0.003695743391290307
832.0,0.0021750761661678553
896.0,0.0023630564101040363
960.0,0.004085987340658903
1024.0,0.0035672192461788654
1152.0,-7.680718408664688e-05
1280.0,-0.0028877677395939827
1408.0,-0.006171945482492447
1536.0,-0.0037902123294770718
1664.0,-0.003391331061720848
1792.0,-0.006648865994066
1920.0,-0.006791402120143175
2048.0,-0.007414461579173803
2304.0,-0.008892927318811417
2560.0,-0.011754768900573254
2816.0,-0.010390729643404484
3072.0,-0.0075451284646987915
3328.0,-0.0023897665087133646
3584.0,0.0028995575848966837
3840.0,0.0019279281841591
4096.0,0.0017819992499426007
4608.0,0.007734538055956364
5120.0,0.0033662724308669567
5632.0,0.0031681442633271217
6144.0,-0.004824004136025906
6656.0,-0.002101088874042034
7168.0,-0.005492069758474827
7680.0,-0.006165045779198408
8192.0,-0.00722431531175971
9216.0,0.003877736860886216
10240.0,-0.004238266497850418
11264.0,0.006346188019961119
12288.0,0.002487764460965991
13312.0,0.0016611020546406507
14336.0,-0.0007906900718808174
end
