version,3.0
numOfCh,1
type,point
parent_name,0-cuts
ch_type,1_1
kcount,1
numberNandB,1
brightnessNandB,1
carpet pos,0
pc,0
Time (ms),CH1 Auto-Correlation
1.0,0.03316979110240936
2.0,0.032963961362838745
3.0,0.03276188299059868
4.0,0.03256671130657196
5.0,0.03237780183553696
6.0,0.03218775615096092
7.0,0.03199950233101845
8.0,0.03181467577815056
9.0,0.03163256496191025
10.0,0.03145730495452881
11.0,0.03128006309270859
12.0,0.031105391681194305
13.0,0.030936874449253082
14.0,0.030772807076573372
15.0,0.030604958534240723
16.0,0.030439725145697594
18.0,0.030120613053441048
20.0,0.029800057411193848
22.0,0.029483484104275703
24.0,0.029168060049414635
26.0,0.028855107724666595
28.0,0.028551265597343445
30.0,0.028249571099877357
32.0,0.02796606346964836
36.0,0.02743617072701454
40.0,0.026953035965561867
44.0,0.02647797018289566
48.0,0.026013216003775597
52.0,0.025548158213496208
56.0,0.02511298842728138
60.0,0.02471908926963806
64.0,0.024328164756298065
72.0,0.023591266945004463
80.0,0.02293512225151062
88.0,0.02226664125919342
96.0,0.021608786657452583
104.0,0.020969169214367867
112.0,0.020374823361635208
120.0,0.01992814429104328
128.0,0.019520370289683342
144.0,0.018641304224729538
160.0,0.01781601272523403
176.0,0.017078252509236336
192.0,0.016580108553171158
208.0,0.01619051583111286
224.0,0.0158383846282959
240.0,0.015515536069869995
256.0,0.015364409424364567
288.0,0.01444157026708126
320.0,0.013212795369327068
352.0,0.012317362241446972
384.0,0.011483456939458847
416.0,0.011273935437202454
448.0,0.011168036609888077
480.0,0.010958921164274216
512.0,0.010528835467994213
576.0,0.009619341231882572
640.0,0.007570159621536732
704.0,0.004370721522718668
768.0,0.003181654494255781
832.0,0.0019415204878896475
896.0,0.0007523950771428645
960.0,-0.0005898684612475336
1024.0,-0.0005518359830603004
1152.0,-0.002888951450586319
1280.0,-0.005040712188929319
1408.0,-0.0068897223100066185
1536.0,-0.007077675312757492
1664.0,-0.0074166422709822655
1792.0,-0.00826690997928381
1920.0,-0.007124665193259716
2048.0,-0.007944975048303604
2304.0,-0.00835590623319149
2560.0,-0.008128773421049118
2816.0,-0.0038509778678417206
3072.0,-0.0015331768663600087
3328.0,0.0024156528525054455
3584.0,0.005972039420157671
3840.0,0.006994906347244978
4096.0,0.005885262507945299
4608.0,0.0016918543260544538
5120.0,-0.0009471426601521671
5632.0,-0.005153860431164503
6144.0,-0.00882631167769432
6656.0,-0.004208196420222521
7168.0,0.002716172719374299
7680.0,0.0030910458881407976
8192.0,0.0005686161457560956
9216.0,-0.0031531406566500664
10240.0,0.0019966927357017994
11264.0,0.004121349658817053
12288.0,-0.004119525197893381
13312.0,-0.002474613720551133
14336.0,0.00477174436673522
end
