version,3.0
numOfCh,1
type,point
parent_name,0-cuts
ch_type,1_1
kcount,1
numberNandB,1
brightnessNandB,1
carpet pos,0
pc,0
Time (ms),CH1 Auto-Correlation
1.0,0.08657048642635345
2.0,0.0860385075211525
3.0,0.08553830534219742
4.0,0.08503410965204239
5.0,0.08454173058271408
6.0,0.08406177908182144
7.0,0.08357713371515274
8.0,0.08308929204940796
9.0,0.08260829001665115
10.0,0.08212979137897491
11.0,0.08167162537574768
12.0,0.08123202621936798
13.0,0.08078396320343018
14.0,0.08035001158714294
15.0,0.07991597801446915
16.0,0.07947587221860886
18.0,0.07859155535697937
20.0,0.0777268260717392
22.0,0.07687517255544662
24.0,0.07603967189788818
26.0,0.07519242912530899
28.0,0.07436395436525345
30.0,0.07351268082857132
32.0,0.07268430292606354
36.0,0.07112319022417068
40.0,0.06962660700082779
44.0,0.0681515485048294
48.0,0.06672133505344391
52.0,0.0652884691953659
56.0,0.06381251662969589
60.0,0.062321536242961884
64.0,0.06093409284949303
72.0,0.05819995701313019
80.0,0.05566266179084778
88.0,0.053236983716487885
96.0,0.05086037889122963
104.0,0.048610858619213104
112.0,0.04649239405989647
120.0,0.04456539452075958
128.0,0.04293619841337204
144.0,0.040568139404058456
160.0,0.03887638449668884
176.0,0.03687215968966484
192.0,0.034558553248643875
208.0,0.03195055574178696
224.0,0.029382696375250816
240.0,0.027577092871069908
256.0,0.026017695665359497
288.0,0.023175684735178947
320.0,0.021062495186924934
352.0,0.0190409105271101
384.0,0.016631515696644783
416.0,0.014773046597838402
448.0,0.013240857049822807
480.0,0.012783496640622616
512.0,0.012082844041287899
576.0,0.010482612065970898
640.0,0.006762391421943903
704.0,0.0015863723820075393
768.0,-0.003548297332599759
832.0,-0.005178244784474373
896.0,-0.007465775590389967
960.0,-0.009942464530467987
1024.0,-0.0071807666681706905
1152.0,-0.00036394191556610167
1280.0,-0.0022254432551562786
1408.0,-0.006264398340135813
1536.0,-0.008974578231573105
1664.0,-0.00803297944366932
1792.0,-0.008488506078720093
1920.0,-0.009214471094310284
2048.0,-0.009822798892855644
2304.0,-0.009177970699965954
2560.0,-0.008997384458780289
2816.0,-0.0035905095282942057
3072.0,-0.0004304989706724882
3328.0,-0.009149395860731602
3584.0,-0.0013558808714151382
3840.0,0.005063314456492662
4096.0,0.0006839239504188299
4608.0,0.001288250321522355
5120.0,-0.002911191200837493
5632.0,-0.0034782204311341047
6144.0,-0.009505287744104862
6656.0,-0.012172707356512547
7168.0,0.0021258515771478415
7680.0,-0.003138529835268855
8192.0,-0.008729913271963596
9216.0,0.004266080912202597
10240.0,0.017849735915660858
11264.0,0.004768380429595709
12288.0,0.006067928392440081
13312.0,-0.0113733671605587
14336.0,-0.015164029784500599
end
