version,3.0
numOfCh,1
type,point
parent_name,0-cuts
ch_type,1_1
kcount,1
numberNandB,1
brightnessNandB,1
carpet pos,0
pc,0
Time (ms),CH1 Auto-Correlation
1.0,0.022893713787198067
2.0,0.02271896041929722
3.0,0.02254510670900345
4.0,0.022376714274287224
5.0,0.022210722789168358
6.0,0.02204461768269539
7.0,0.021880118176341057
8.0,0.02171320654451847
9.0,0.021546745672822
10.0,0.02138638310134411
11.0,0.021232062950730324
12.0,0.02108093351125717
13.0,0.020925652235746384
14.0,0.02077380381524563
15.0,0.02062498964369297
16.0,0.020472463220357895
18.0,0.02016902156174183
20.0,0.019864998757839203
22.0,0.01956539787352085
24.0,0.019275140017271042
26.0,0.01898101717233658
28.0,0.01870226487517357
30.0,0.018432851880788803
32.0,0.01817370392382145
36.0,0.017654260620474815
40.0,0.017125900834798813
44.0,0.016596851870417595
48.0,0.016091082245111465
52.0,0.015621891245245934
56.0,0.015161377377808094
60.0,0.014711875468492508
64.0,0.01429694052785635
72.0,0.01355569064617157
80.0,0.012928667478263378
88.0,0.012334772385656834
96.0,0.011800476349890232
104.0,0.011331887915730476
112.0,0.010922788642346859
120.0,0.010560153052210808
128.0,0.01021889690309763
144.0,0.00954678189009428
160.0,0.008786245249211788
176.0,0.008023121394217014
192.0,0.0072144861333072186
208.0,0.006411185022443533
224.0,0.005752144381403923
240.0,0.0053804786875844
256.0,0.005163711495697498
288.0,0.0049364292062819
320.0,0.00506819412112236
352.0,0.0048420848324894905
384.0,0.004310590215027332
416.0,0.0038519890513271093
448.0,0.0036322898231446743
480.0,0.0034905297216027975
512.0,0.0029355906881392
576.0,0.0027091449592262506
640.0,0.0028542245272547007
704.0,0.0018778771627694368
768.0,0.001434852136299014
832.0,0.0014850604347884655
896.0,0.002043843036517501
960.0,0.0022861415054649115
1024.0,0.0009427743498235941
1152.0,-0.001602462027221918
1280.0,-0.0019817135762423277
1408.0,-0.0015133095439523458
1536.0,-0.00024066730111371726
1664.0,0.0009248972637578845
1792.0,0.0003097212756983936
1920.0,-0.00039599885349161923
2048.0,-0.00043260210077278316
2304.0,0.002803641837090254
2560.0,0.0029740058816969395
2816.0,-0.00030066724866628647
3072.0,-0.001908913953229785
3328.0,-0.0029048589058220387
3584.0,-0.005360410548746586
3840.0,-0.005860339850187302
4096.0,-0.004499775357544422
4608.0,-0.0010857842862606049
5120.0,0.0006510140374302864
5632.0,-0.0010825032368302345
6144.0,-0.002475871704518795
6656.0,0.0007132040918804705
7168.0,0.003668799763545394
7680.0,0.0030111793894320726
8192.0,0.0029916551429778337
9216.0,-4.916412308375584e-06
10240.0,0.0018778113881126046
11264.0,-0.004499491304159164
12288.0,-0.00446653924882412
13312.0,-0.0018548163352534175
14336.0,-0.005765367764979601
end
