version,3.0
numOfCh,1
type,point
parent_name,0-cuts
ch_type,1_1
kcount,1
numberNandB,1
brightnessNandB,1
carpet pos,0
pc,0
Time (ms),CH1 Auto-Correlation
1.0,0.024733280763030052
2.0,0.024538395926356316
3.0,0.024344205856323242
4.0,0.024151606485247612
5.0,0.023961029946804047
6.0,0.023770950734615326
7.0,0.02358761616051197
8.0,0.023404622450470924
9.0,0.023222990334033966
10.0,0.023041600361466408
11.0,0.022860132157802582
12.0,0.022677499800920486
13.0,0.022497396916151047
14.0,0.022317158058285713
15.0,0.022136753425002098
16.0,0.02196134626865387
18.0,0.021613435819745064
20.0,0.021267935633659363
22.0,0.02092784270644188
24.0,0.020609397441148758
26.0,0.020288284868001938
28.0,0.019970599561929703
30.0,0.01964721642434597
32.0,0.019331838935613632
36.0,0.018727866932749748
40.0,0.018138723447918892
44.0,0.0175493024289608
48.0,0.016989756375551224
52.0,0.016440456733107567
56.0,0.015884816646575928
60.0,0.015332094393670559
64.0,0.01480264775454998
72.0,0.013758022338151932
80.0,0.012786087580025196
88.0,0.011861911974847317
96.0,0.011013305746018887
104.0,0.010186531580984592
112.0,0.009418221190571785
120.0,0.008732890710234642
128.0,0.008094988763332367
144.0,0.006815415341407061
160.0,0.0057610683143138885
176.0,0.0049827005714178085
192.0,0.004481891170144081
208.0,0.0038100513629615307
224.0,0.003010211745277047
240.0,0.0023863252718001604
256.0,0.001991797238588333
288.0,0.0014957517851144075
320.0,0.0011112306965515018
352.0,0.000206508077098988
384.0,-0.0007464001537300646
416.0,-0.0013084718957543373
448.0,-0.001239100587554276
480.0,-0.0009384911390952766
512.0,-0.0005262505728751421
576.0,-3.780225233640522e-05
640.0,0.000207717705052346
704.0,1.8022350559476763e-05
768.0,-0.0009997886372730136
832.0,-0.0009259723592549562
896.0,-5.85109883104451e-05
960.0,0.00058985804207623
1024.0,0.0004439742479007691
1152.0,-0.0015422594733536243
1280.0,-0.0011302231578156352
1408.0,0.001212698989547789
1536.0,0.0005487978924065828
1664.0,-0.0011679704766720533
1792.0,-0.0008186668856069446
1920.0,-0.00037084671203047037
2048.0,-6.351958290906623e-05
2304.0,-0.0023045234847813845
2560.0,-0.002878965809941292
2816.0,0.0009064482874237001
3072.0,0.002845477545633912
3328.0,0.0008904315182007849
3584.0,-0.0014415063196793199
3840.0,0.0008400546503253281
4096.0,-0.0023063605185598135
4608.0,-0.0009094236302189529
5120.0,0.0003371294878888875
5632.0,-0.001218145596794784
6144.0,0.0009444672032259405
6656.0,0.0026801724452525377
7168.0,-0.001219288446009159
7680.0,-0.002531812060624361
8192.0,-0.0012873015366494656
9216.0,0.0033593594562262297
10240.0,-0.00011844938853755593
11264.0,-0.0018029996426776052
12288.0,0.0025348260533064604
13312.0,-0.004191291518509388
14336.0,-0.006445699371397495
end
