version,3.0
numOfCh,1
type,point
parent_name,0-cuts
ch_type,1_1
kcount,1
numberNandB,1
brightnessNandB,1
carpet pos,0
pc,0
Time (ms),CH1 Auto-Correlation
1.0,0.09421848505735397
2.0,0.09377982467412949
3.0,0.09335342794656754
4.0,0.09294357150793076
5.0,0.09254323691129684
6.0,0.09212835878133774
7.0,0.09171821177005768
8.0,0.09132035821676254
9.0,0.09091714024543762
10.0,0.09052694588899612
11.0,0.0901370570063591
12.0,0.08976489305496216
13.0,0.0893985852599144
14.0,0.08903353661298752
15.0,0.0886647030711174
16.0,0.08830336481332779
18.0,0.08762070536613464
20.0,0.08698739856481552
22.0,0.08640497177839279
24.0,0.08581830561161041
26.0,0.08526623994112015
28.0,0.08474016189575195
30.0,0.08422838151454926
32.0,0.08371101319789886
36.0,0.08269205689430237
40.0,0.08170224726200104
44.0,0.08072837442159653
48.0,0.07978437095880508
52.0,0.0789407342672348
56.0,0.07815340906381607
60.0,0.0774061307311058
64.0,0.07666830718517303
72.0,0.07514685392379761
80.0,0.07366114109754562
88.0,0.07219052314758301
96.0,0.07096190750598907
104.0,0.0699165090918541
112.0,0.06892736256122589
120.0,0.06783626973628998
128.0,0.06682033836841583
144.0,0.06485527008771896
160.0,0.062471069395542145
176.0,0.06015771999955177
192.0,0.05821472033858299
208.0,0.05640123784542084
224.0,0.05456079915165901
240.0,0.0528482049703598
256.0,0.05165030062198639
288.0,0.049889761954545975
320.0,0.048499543219804764
352.0,0.046061817556619644
384.0,0.0435323640704155
416.0,0.04167666286230087
448.0,0.04000911861658096
480.0,0.03866713494062424
512.0,0.037365108728408813
576.0,0.0368354506790638
640.0,0.034391649067401886
704.0,0.032889313995838165
768.0,0.030820978805422783
832.0,0.030149925500154495
896.0,0.031337909400463104
960.0,0.032177750021219254
1024.0,0.032445237040519714
1152.0,0.03254452347755432
1280.0,0.03219311684370041
1408.0,0.033340439200401306
1536.0,0.03663359954953194
1664.0,0.03401732072234154
1792.0,0.02924208529293537
1920.0,0.0237986259162426
2048.0,0.017033779993653297
2304.0,0.01344548910856247
2560.0,0.010973983444273472
2816.0,0.007067184429615736
3072.0,-0.0022548746783286333
3328.0,-0.007947301492094994
3584.0,-0.01780909113585949
3840.0,-0.018932761624455452
4096.0,-0.008388624526560307
4608.0,-0.012486967258155346
5120.0,-0.021045172587037086
5632.0,-0.019272036850452423
6144.0,-0.012377617880702019
6656.0,-0.012354985810816288
7168.0,-0.013257711194455624
7680.0,-0.009830395691096783
8192.0,-0.017920153215527534
9216.0,-0.021830327808856964
10240.0,-0.021549981087446213
11264.0,-0.01980571076273918
12288.0,-0.012609467841684818
13312.0,-0.007234245538711548
14336.0,-0.011602649465203285
end
