version,3.0
numOfCh,1
type,point
parent_name,0-cuts
ch_type,1_1
kcount,1
numberNandB,1
brightnessNandB,1
carpet pos,0
pc,0
Time (ms),CH1 Auto-Correlation
1.0,0.04726294055581093
2.0,0.04681803658604622
3.0,0.046379927545785904
4.0,0.04593802988529205
5.0,0.04549027979373932
6.0,0.045065246522426605
7.0,0.04464740306138992
8.0,0.04424552991986275
9.0,0.04385233670473099
10.0,0.04345124587416649
11.0,0.04305826500058174
12.0,0.042680662125349045
13.0,0.04230397567152977
14.0,0.041929543018341064
15.0,0.041569799184799194
16.0,0.04120594635605812
18.0,0.04052227362990379
20.0,0.03984494507312775
22.0,0.03917250782251358
24.0,0.03851975500583649
26.0,0.0379054918885231
28.0,0.03732224181294441
30.0,0.03676244989037514
32.0,0.03624407574534416
36.0,0.035312581807374954
40.0,0.03443698585033417
44.0,0.0336388424038887
48.0,0.03286774829030037
52.0,0.032109975814819336
56.0,0.03139328584074974
60.0,0.03071998991072178
64.0,0.030090320855379105
72.0,0.028910057619214058
80.0,0.0277789868414402
88.0,0.026568006724119186
96.0,0.025514591485261917
104.0,0.024679942056536674
112.0,0.02408926747739315
120.0,0.023629335686564445
128.0,0.023060228675603867
144.0,0.021927261725068092
160.0,0.020752839744091034
176.0,0.019536934792995453
192.0,0.01874111406505108
208.0,0.01770070567727089
224.0,0.016376392915844917
240.0,0.015010730363428593
256.0,0.013992204330861568
288.0,0.011459372006356716
320.0,0.010112806223332882
352.0,0.00890620518475771
384.0,0.008236533962190151
416.0,0.007461876142770052
448.0,0.007420874200761318
480.0,0.0077152554877102375
512.0,0.007535262033343315
576.0,0.005614830646663904
640.0,0.005917680449783802
704.0,0.0073871491476893425
768.0,0.0078103141859173775
832.0,0.009504346176981926
896.0,0.010624883696436882
960.0,0.010501401498913765
1024.0,0.008850520476698875
1152.0,0.005315120797604322
1280.0,0.003144178306683898
1408.0,-0.0004359078884590417
1536.0,-0.0027763324324041605
1664.0,-0.002563833026215434
1792.0,-0.0020965097937732935
1920.0,-0.0015219331253319979
2048.0,7.059251220198348e-05
2304.0,0.0016050870763137937
2560.0,-0.0007726449985057116
2816.0,-0.0011036214418709278
3072.0,0.0017477069050073624
3328.0,0.003853475907817483
3584.0,0.004619297571480274
3840.0,0.00034949358087033033
4096.0,0.0017463426338508725
4608.0,-0.004916310776025057
5120.0,-0.0037048053927719593
5632.0,-0.0007007369422353804
6144.0,0.004408989101648331
6656.0,-0.00011703152267728001
7168.0,-0.001195484772324562
7680.0,-0.002410297282040119
8192.0,-0.002054003067314625
9216.0,0.004215184133499861
10240.0,-0.006115416996181011
11264.0,-0.01157214306294918
12288.0,-0.010059166699647903
13312.0,-0.01263248361647129
14336.0,-0.01339690387248993
end
