version,3.0
numOfCh,1
type,point
parent_name,0-cuts
ch_type,1_1
kcount,1
numberNandB,1
brightnessNandB,1
carpet pos,0
pc,0
Time (ms),CH1 Auto-Correlation
1.0,0.07456807047128677
2.0,0.07414508610963821
3.0,0.07373140007257462
4.0,0.07332412153482437
5.0,0.07291586697101593
6.0,0.0725083202123642
7.0,0.0720965564250946
8.0,0.0716901645064354
9.0,0.07129613310098648
10.0,0.07090821862220764
11.0,0.07052996009588242
12.0,0.07015259563922882
13.0,0.06978597491979599
14.0,0.06941955536603928
15.0,0.06906318664550781
16.0,0.06870821863412857
18.0,0.06802163273096085
20.0,0.06735987216234207
22.0,0.06673534959554672
24.0,0.06615129858255386
26.0,0.06558272242546082
28.0,0.06500215083360672
30.0,0.06442822515964508
32.0,0.06388498842716217
36.0,0.06287402659654617
40.0,0.061941709369421005
44.0,0.0610252246260643
48.0,0.06017858162522316
52.0,0.05934741348028183
56.0,0.05850888043642044
60.0,0.057705819606781006
64.0,0.05694194510579109
72.0,0.05548202246427536
80.0,0.05398458242416382
88.0,0.05266743153333664
96.0,0.051405712962150574
104.0,0.05039450526237488
112.0,0.04968339949846268
120.0,0.048896875232458115
128.0,0.04800890386104584
144.0,0.04606028273701668
160.0,0.04416169971227646
176.0,0.04283460974693298
192.0,0.04186921939253807
208.0,0.04090733081102371
224.0,0.03940911963582039
240.0,0.038058698177337646
256.0,0.03672250732779503
288.0,0.03488971292972565
320.0,0.03347547724843025
352.0,0.03226538002490997
384.0,0.030573932453989983
416.0,0.029870416969060898
448.0,0.02952597849071026
480.0,0.028886837884783745
512.0,0.02816770039498806
576.0,0.026790687814354897
640.0,0.024211958050727844
704.0,0.021369364112615585
768.0,0.020564915612339973
832.0,0.019738098606467247
896.0,0.017479604110121727
960.0,0.01411361712962389
1024.0,0.012596544809639454
1152.0,0.013115623965859413
1280.0,0.014045072719454765
1408.0,0.012844687327742577
1536.0,0.011005808599293232
1664.0,0.009809362702071667
1792.0,0.008846685290336609
1920.0,0.009095191024243832
2048.0,0.005366788245737553
2304.0,-0.002722096163779497
2560.0,-0.011452085338532925
2816.0,-0.014594510197639465
3072.0,-0.02035791426897049
3328.0,-0.018544895574450493
3584.0,-0.019026782363653183
3840.0,-0.020575765520334244
4096.0,-0.02024887315928936
4608.0,-0.016695313155651093
5120.0,-0.005689335986971855
5632.0,0.0010858591413125396
6144.0,0.005856087431311607
6656.0,0.010085911490023136
7168.0,0.00444459542632103
7680.0,-0.007037035189568996
8192.0,-0.009697589091956615
9216.0,-0.02518976666033268
10240.0,-0.02802148461341858
11264.0,-0.006668030750006437
12288.0,0.01758188009262085
13312.0,0.022222330793738365
14336.0,0.03385395184159279
end
