version,3.0
numOfCh,1
type,point
parent_name,0-cuts
ch_type,1_1
kcount,1
numberNandB,1
brightnessNandB,1
carpet pos,0
pc,0
Time (ms),CH1 Auto-Correlation
1.0,0.02857804112136364
2.0,0.028381967917084694
3.0,0.02818947471678257
4.0,0.02800099365413189
5.0,0.02781287208199501
6.0,0.027623197063803673
7.0,0.027432942762970924
8.0,0.02724766731262207
9.0,0.027059076353907585
10.0,0.02687002345919609
11.0,0.02667716145515442
12.0,0.02648395113646984
13.0,0.026296565309166908
14.0,0.026111310347914696
15.0,0.02592688426375389
16.0,0.025746075436472893
18.0,0.025382714346051216
20.0,0.025017978623509407
22.0,0.024646302685141563
24.0,0.0242699533700943
26.0,0.023896779865026474
28.0,0.02353605441749096
30.0,0.023191940039396286
32.0,0.022851474583148956
36.0,0.02218407392501831
40.0,0.021551601588726044
44.0,0.020936081185936928
48.0,0.02034110203385353
52.0,0.019788792356848717
56.0,0.019277093932032585
60.0,0.018756810575723648
64.0,0.01824914664030075
72.0,0.01726658083498478
80.0,0.01636556163430214
88.0,0.015463520772755146
96.0,0.014631044119596481
104.0,0.013841628096997738
112.0,0.01308836042881012
120.0,0.012353980913758278
128.0,0.011646349914371967
144.0,0.010430888272821903
160.0,0.009503312408924103
176.0,0.008745649829506874
192.0,0.008110687136650085
208.0,0.0074891806580126286
224.0,0.006836882792413235
240.0,0.0062177749350667
256.0,0.005716413259506226
288.0,0.005175236612558365
320.0,0.004221589770168066
352.0,0.0034070475958287716
384.0,0.0026189754717051983
416.0,0.002104849787428975
448.0,0.001447310671210289
480.0,0.0011765038361772895
512.0,0.0011095424415543675
576.0,0.0012947744689881802
640.0,0.0012887921184301376
704.0,0.0007585039711557329
768.0,-0.0006956549477763474
832.0,-0.0008998204139061272
896.0,0.0007174811325967312
960.0,0.0018522050231695175
1024.0,0.0015816742088645697
1152.0,-5.153891470399685e-05
1280.0,0.00014003417163621634
1408.0,1.669031917117536e-05
1536.0,-9.691680315881968e-05
1664.0,-0.0023603797890245914
1792.0,-0.005022564437240362
1920.0,-0.0047582159750163555
2048.0,-0.004451892338693142
2304.0,0.0014672345714643598
2560.0,0.003046612488105893
2816.0,-0.0006588742253370583
3072.0,-0.0013422052143141627
3328.0,0.00400142278522253
3584.0,0.0037275762297213078
3840.0,0.0011539559345692396
4096.0,0.0007350148516707122
4608.0,-7.94065126683563e-05
5120.0,-0.003019970841705799
5632.0,-0.001164906658232212
6144.0,-0.006270734593272209
6656.0,-0.0018336226930841804
7168.0,-0.00025650596944615245
7680.0,0.0012742157559841871
8192.0,0.005944304633885622
9216.0,-0.004484247881919146
10240.0,-0.003576846094802022
11264.0,-0.0011104097357019782
12288.0,0.00046105007641017437
13312.0,-0.0009846780449151993
14336.0,0.0012794070644304156
end
