version,3.0
numOfCh,1
type,point
parent_name,0-cuts
ch_type,1_1
kcount,1
numberNandB,1
brightnessNandB,1
carpet pos,0
pc,0
Time (ms),CH1 Auto-Correlation
1.0,0.03595346212387085
2.0,0.035752251744270325
3.0,0.03555690124630928
4.0,0.035368844866752625
5.0,0.0351819209754467
6.0,0.03499830514192581
7.0,0.034818001091480255
8.0,0.03463660553097725
9.0,0.03445494920015335
10.0,0.0342738963663578
11.0,0.03409644961357117
12.0,0.03391949087381363
13.0,0.03374294191598892
14.0,0.03357432410120964
15.0,0.03340715914964676
16.0,0.033248282968997955
18.0,0.032936837524175644
20.0,0.0326254665851593
22.0,0.03231921046972275
24.0,0.03201461583375931
26.0,0.031721461564302444
28.0,0.03144162893295288
30.0,0.031167127192020416
32.0,0.030893472954630852
36.0,0.030373582616448402
40.0,0.029913362115621567
44.0,0.029463980346918106
48.0,0.029008472338318825
52.0,0.02856382541358471
56.0,0.028141643851995468
60.0,0.02777133323252201
64.0,0.02744711935520172
72.0,0.026811612769961357
80.0,0.026166662573814392
88.0,0.02551720105111599
96.0,0.024903567507863045
104.0,0.024324480444192886
112.0,0.023736048489809036
120.0,0.023198550567030907
128.0,0.0227279681712389
144.0,0.0218105036765337
160.0,0.020916389301419258
176.0,0.020073048770427704
192.0,0.01896558329463005
208.0,0.017734911292791367
224.0,0.016447078436613083
240.0,0.015151908621191978
256.0,0.014173666946589947
288.0,0.012810887768864632
320.0,0.011466517113149166
352.0,0.010177778080105782
384.0,0.009034150280058384
416.0,0.007924536243081093
448.0,0.007198893930763006
480.0,0.006384469103068113
512.0,0.0054099662229418755
576.0,0.0037916849832981825
640.0,0.00135041493922472
704.0,-0.0005570339853875339
768.0,-0.0025744610466063023
832.0,-0.003932642284780741
896.0,-0.005117857363075018
960.0,-0.005413444712758064
1024.0,-0.004872444551438093
1152.0,-0.004604835528880358
1280.0,-0.004299196880310774
1408.0,-0.003506157547235489
1536.0,-0.002349255606532097
1664.0,-0.004039986524730921
1792.0,-0.006225791294127703
1920.0,-0.008072733879089355
2048.0,-0.008320302702486515
2304.0,-0.0061449212953448296
2560.0,0.0021383457351475954
2816.0,0.007238234858959913
3072.0,0.006612261291593313
3328.0,0.0019523673690855503
3584.0,-0.0026795135345309973
3840.0,-0.0035639156121760607
4096.0,0.0014395697508007288
4608.0,0.0010057853069156408
5120.0,-0.005809328518807888
5632.0,-0.002338986610993743
6144.0,0.0023212330415844917
6656.0,-0.0035256703849881887
7168.0,0.004235415253788233
7680.0,0.0012246719561517239
8192.0,-0.00588308647274971
9216.0,-0.009480305947363377
10240.0,0.004289886448532343
11264.0,0.007543145213276148
12288.0,-0.010855010710656643
13312.0,0.009875310584902763
14336.0,0.01210468914359808
end
