version,3.0
numOfCh,1
type,point
parent_name,0-cuts
ch_type,1_1
kcount,1
numberNandB,1
brightnessNandB,1
carpet pos,0
pc,0
Time (ms),CH1 Auto-Correlation
1.0,0.11452168226242065
2.0,0.11398366838693619
3.0,0.11345851421356201
4.0,0.11293373256921768
5.0,0.11242805421352386
6.0,0.11193519085645676
7.0,0.11144980043172836
8.0,0.1109662801027298
9.0,0.11050485819578171
10.0,0.11005333811044693
11.0,0.10961642861366272
12.0,0.10917801409959793
13.0,0.10874871909618378
14.0,0.10833120346069336
15.0,0.10791685432195663
16.0,0.10749710351228714
18.0,0.10669249296188354
20.0,0.10591388493776321
22.0,0.10511866956949234
24.0,0.1043638214468956
26.0,0.10362248867750168
28.0,0.1028863787651062
30.0,0.10213757306337357
32.0,0.10139808058738708
36.0,0.10000786185264587
40.0,0.0987534448504448
44.0,0.09753137826919556
48.0,0.09627354145050049
52.0,0.0951230525970459
56.0,0.09410074353218079
60.0,0.09314584732055664
64.0,0.09214303642511368
72.0,0.09023405611515045
80.0,0.08863532543182373
88.0,0.087275929749012
96.0,0.08594224601984024
104.0,0.08448667824268341
112.0,0.08290911465883255
120.0,0.08134853094816208
128.0,0.07969296723604202
144.0,0.07704602926969528
160.0,0.07431326806545258
176.0,0.07095693051815033
192.0,0.06738916784524918
208.0,0.06432833522558212
224.0,0.06130264326930046
240.0,0.058457791805267334
256.0,0.056273769587278366
288.0,0.05215141177177429
320.0,0.04904256761074066
352.0,0.046377066522836685
384.0,0.04414720460772514
416.0,0.041334886103868484
448.0,0.03956077992916107
480.0,0.038043078035116196
512.0,0.036375872790813446
576.0,0.032746054232120514
640.0,0.030139563605189323
704.0,0.030439088121056557
768.0,0.0317378006875515
832.0,0.03123285062611103
896.0,0.03078935481607914
960.0,0.03119909018278122
1024.0,0.03309560567140579
1152.0,0.03255951777100563
1280.0,0.027631716802716255
1408.0,0.024089224636554718
1536.0,0.017473580315709114
1664.0,0.01197135541588068
1792.0,0.010025333613157272
1920.0,0.007327483966946602
2048.0,0.002077278681099415
2304.0,0.006701495964080095
2560.0,0.002006767550483346
2816.0,0.001856931601651013
3072.0,0.005432677920907736
3328.0,0.0023956643417477608
3584.0,0.0029125346336513758
3840.0,0.005059463437646627
4096.0,0.006013146601617336
4608.0,-0.005010564345866442
5120.0,-0.01901661790907383
5632.0,-0.022669266909360886
6144.0,-0.039585381746292114
6656.0,-0.031221389770507812
7168.0,-0.0470261424779892
7680.0,-0.031223280355334282
8192.0,-0.02437489852309227
9216.0,-0.026029618456959724
10240.0,-0.010367726907134056
11264.0,-0.010663165710866451
12288.0,-0.009227307513356209
13312.0,0.034772634506225586
14336.0,0.04509184882044792
end
