version,3.0
numOfCh,1
type,point
parent_name,0-cuts
ch_type,1_1
kcount,1
numberNandB,1
brightnessNandB,1
carpet pos,0
pc,0
Time (ms),CH1 Auto-Correlation
1.0,0.025012250989675522
2.0,0.024815639480948448
3.0,0.024623166769742966
4.0,0.024430125951766968
5.0,0.02424093894660473
6.0,0.02405558153986931
7.0,0.023877829313278198
8.0,0.023701030761003494
9.0,0.023528149351477623
10.0,0.02335359714925289
11.0,0.023188650608062744
12.0,0.02302302047610283
13.0,0.022855564951896667
14.0,0.022686675190925598
15.0,0.02252301573753357
16.0,0.022358650341629982
18.0,0.02204062044620514
20.0,0.021717311814427376
22.0,0.02139699086546898
24.0,0.021082205697894096
26.0,0.020775146782398224
28.0,0.0204771738499403
30.0,0.02018854022026062
32.0,0.01990370638668537
36.0,0.019358273595571518
40.0,0.01883254013955593
44.0,0.01832023449242115
48.0,0.017818322405219078
52.0,0.017326902598142624
56.0,0.016854949295520782
60.0,0.016420723870396614
64.0,0.016025027260184288
72.0,0.015325653366744518
80.0,0.014730976894497871
88.0,0.014191955327987671
96.0,0.01361682265996933
104.0,0.013066423125565052
112.0,0.012608356773853302
120.0,0.012220333330333233
128.0,0.011887649074196815
144.0,0.011329068802297115
160.0,0.010648902505636215
176.0,0.009995298460125923
192.0,0.009261506609618664
208.0,0.008309857919812202
224.0,0.007337623741477728
240.0,0.006637494079768658
256.0,0.0061638387851417065
288.0,0.0056785885244607925
320.0,0.005447315983474255
352.0,0.0054126218892633915
384.0,0.005488612689077854
416.0,0.005120543763041496
448.0,0.004723669495433569
480.0,0.00416426220908761
512.0,0.0035494379699230194
576.0,0.002582327462732792
640.0,0.0022575664333999157
704.0,0.002583250403404236
768.0,0.0031427175272256136
832.0,0.004193424247205257
896.0,0.005628966260701418
960.0,0.006020397413522005
1024.0,0.00488433800637722
1152.0,0.0036417199298739433
1280.0,0.004027259070426226
1408.0,0.0041119931265711784
1536.0,0.003514691488817334
1664.0,0.004065577872097492
1792.0,0.004168972373008728
1920.0,0.003015051130205393
2048.0,0.0008278386667370796
2304.0,-0.001373126171529293
2560.0,-0.0008083502762019634
2816.0,0.0010302909649908543
3072.0,0.0021498771384358406
3328.0,-0.0015275431796908379
3584.0,-0.003436255268752575
3840.0,-0.004393512383103371
4096.0,-0.0060780164785683155
4608.0,-0.003352605039253831
5120.0,-0.0043351538479328156
5632.0,-0.006205550394952297
6144.0,-0.004542359616607428
6656.0,-0.004165186081081629
7168.0,-0.0018988619558513165
7680.0,0.0003386560711078346
8192.0,0.0005835436750203371
9216.0,0.001519818906672299
10240.0,0.00036452716449275613
11264.0,0.002338142367079854
12288.0,0.00279610394500196
13312.0,-0.003285452025011182
14336.0,-0.0025983229279518127
end
