version,3.0
numOfCh,1
type,point
parent_name,0-cuts
ch_type,1_1
kcount,1
numberNandB,1
brightnessNandB,1
carpet pos,0
pc,0
Time (ms),CH1 Auto-Correlation
1.0,0.035995639860630035
2.0,0.035791702568531036
3.0,0.035593751817941666
4.0,0.03539625555276871
5.0,0.035197727382183075
6.0,0.035003919154405594
7.0,0.03481188416481018
8.0,0.03461918607354164
9.0,0.034424711018800735
10.0,0.03423718735575676
11.0,0.034049976617097855
12.0,0.03386686369776726
13.0,0.03368641063570976
14.0,0.033502016216516495
15.0,0.03331640735268593
16.0,0.03313261270523071
18.0,0.03277107700705528
20.0,0.032432690262794495
22.0,0.03210166096687317
24.0,0.03176582604646683
26.0,0.031427811831235886
28.0,0.031100856140255928
30.0,0.0307883620262146
32.0,0.030469607561826706
36.0,0.029851920902729034
40.0,0.029240023344755173
44.0,0.028660202398896217
48.0,0.028118111193180084
52.0,0.027610396966338158
56.0,0.027117425575852394
60.0,0.026620283722877502
64.0,0.02616061083972454
72.0,0.025365935638546944
80.0,0.024643221870064735
88.0,0.024004383012652397
96.0,0.02337959036231041
104.0,0.022707952186465263
112.0,0.02209038846194744
120.0,0.021442968398332596
128.0,0.020857855677604675
144.0,0.01988888345658779
160.0,0.019114675000309944
176.0,0.01831778883934021
192.0,0.017587613314390182
208.0,0.0168408565223217
224.0,0.01590275950729847
240.0,0.015139811672270298
256.0,0.01471447292715311
288.0,0.01381928101181984
320.0,0.012546101585030556
352.0,0.011614667251706123
384.0,0.011299430392682552
416.0,0.011242191307246685
448.0,0.010579253546893597
480.0,0.009936610236763954
512.0,0.009493482299149036
576.0,0.008226214908063412
640.0,0.008135013282299042
704.0,0.008697624318301678
768.0,0.00856942031532526
832.0,0.00870115403085947
896.0,0.008718815632164478
960.0,0.008741158060729504
1024.0,0.007892378605902195
1152.0,0.005983666982501745
1280.0,0.005321977660059929
1408.0,0.004177736584097147
1536.0,0.0037239158991724253
1664.0,0.0048293680883944035
1792.0,0.006599286571145058
1920.0,0.007812758907675743
2048.0,0.005875567905604839
2304.0,0.0027091135270893574
2560.0,0.0039766645058989525
2816.0,0.004748654551804066
3072.0,0.0038967961445450783
3328.0,0.000907900626771152
3584.0,0.0005857225623913109
3840.0,-0.0033932651858776808
4096.0,-0.0068196686916053295
4608.0,-0.006106432527303696
5120.0,-0.0043748412281274796
5632.0,-0.006217312067747116
6144.0,-0.0037818329874426126
6656.0,-0.0021905265748500824
7168.0,-0.003767174668610096
7680.0,-0.0062521942891180515
8192.0,-0.0039381911046803
9216.0,-0.002281045541167259
10240.0,-0.010527413338422775
11264.0,-0.006582571193575859
12288.0,-0.0054840827360749245
13312.0,-0.011800379492342472
14336.0,0.01582716777920723
end
