version,3.0
numOfCh,1
type,point
parent_name,0-cuts
ch_type,1_1
kcount,1
numberNandB,1
brightnessNandB,1
carpet pos,0
pc,0
Time (ms),CH1 Auto-Correlation
1.0,0.054539285600185394
2.0,0.054128363728523254
3.0,0.05371677875518799
4.0,0.05330653861165047
5.0,0.05289351940155029
6.0,0.05249953269958496
7.0,0.05211632698774338
8.0,0.051736053079366684
9.0,0.05134780704975128
10.0,0.05096166208386421
11.0,0.05059251934289932
12.0,0.05022123083472252
13.0,0.04985833913087845
14.0,0.049496665596961975
15.0,0.049147188663482666
16.0,0.048798829317092896
18.0,0.04813416302204132
20.0,0.04746473208069801
22.0,0.046793293207883835
24.0,0.0461227148771286
26.0,0.045442935079336166
28.0,0.0447503998875618
30.0,0.0440668985247612
32.0,0.043415069580078125
36.0,0.04224444180727005
40.0,0.0411108136177063
44.0,0.040016427636146545
48.0,0.03895004466176033
52.0,0.03789938986301422
56.0,0.03688483685255051
60.0,0.03586841747164726
64.0,0.03487285226583481
72.0,0.03295949101448059
80.0,0.03133206069469452
88.0,0.0299686212092638
96.0,0.028721796348690987
104.0,0.027458371594548225
112.0,0.026270534843206406
120.0,0.02518129162490368
128.0,0.02415640279650688
144.0,0.02220001071691513
160.0,0.02025093324482441
176.0,0.01876365765929222
192.0,0.01757216453552246
208.0,0.016286544501781464
224.0,0.014986968599259853
240.0,0.0139941880479455
256.0,0.013465662486851215
288.0,0.013297272846102715
320.0,0.012763328850269318
352.0,0.011384514160454273
384.0,0.009274204261600971
416.0,0.00599137507379055
448.0,0.0032197064720094204
480.0,0.002499218564480543
512.0,0.0025525193195790052
576.0,0.0020323037169873714
640.0,0.004218062851577997
704.0,0.004138832446187735
768.0,0.002606832655146718
832.0,0.0017788480035960674
896.0,0.00236637145280838
960.0,0.0033116652630269527
1024.0,0.0018915327964350581
1152.0,-0.0006849833880551159
1280.0,0.000795185100287199
1408.0,-0.002472803695127368
1536.0,-0.003127783304080367
1664.0,-0.0018378911772742867
1792.0,-0.0041060373187065125
1920.0,-0.005120827350765467
2048.0,-0.004063135478645563
2304.0,-0.007746865041553974
2560.0,-0.005493144504725933
2816.0,0.002177558373659849
3072.0,-0.0020107643213123083
3328.0,-0.00564210768789053
3584.0,-0.006717621348798275
3840.0,-0.0038580656982958317
4096.0,0.0011751307174563408
4608.0,0.0027348303701728582
5120.0,0.005307409446686506
5632.0,0.0037364535965025425
6144.0,-0.0007820172468200326
6656.0,0.0012752520851790905
7168.0,0.0011185257462784648
7680.0,-0.00265350379049778
8192.0,-0.005908379331231117
9216.0,-0.003971495665609837
10240.0,0.009311651811003685
11264.0,-0.008635235019028187
12288.0,-0.004277615807950497
13312.0,-0.004568501841276884
14336.0,-0.012111756019294262
end
