version,3.0
numOfCh,1
type,point
parent_name,0-cuts
ch_type,1_1
kcount,1
numberNandB,1
brightnessNandB,1
carpet pos,0
pc,0
Time (ms),CH1 Auto-Correlation
1.0,0.028811663389205933
2.0,0.02863149717450142
3.0,0.0284518264234066
4.0,0.028271352872252464
5.0,0.02809062972664833
6.0,0.02791166864335537
7.0,0.027734778821468353
8.0,0.027563955634832382
9.0,0.027393396943807602
10.0,0.027225403115153313
11.0,0.02706178091466427
12.0,0.0268966406583786
13.0,0.026736825704574585
14.0,0.026576705276966095
15.0,0.026425275951623917
16.0,0.026274826377630234
18.0,0.02597433142364025
20.0,0.025680648162961006
22.0,0.025393186137080193
24.0,0.02511177957057953
26.0,0.02483067847788334
28.0,0.02455918863415718
30.0,0.024288425222039223
32.0,0.024012776091694832
36.0,0.023454714566469193
40.0,0.022888580337166786
44.0,0.022331183776259422
48.0,0.021790847182273865
52.0,0.02126304991543293
56.0,0.02077031321823597
60.0,0.020283997058868408
64.0,0.019799968227744102
72.0,0.018972108140587807
80.0,0.018279969692230225
88.0,0.01769004762172699
96.0,0.017119942232966423
104.0,0.01654430478811264
112.0,0.015999674797058105
120.0,0.015502539463341236
128.0,0.014988100156188011
144.0,0.013872065581381321
160.0,0.012935042381286621
176.0,0.012263628654181957
192.0,0.011693447828292847
208.0,0.011197167448699474
224.0,0.010885593481361866
240.0,0.010493369773030281
256.0,0.010067740455269814
288.0,0.009153127670288086
320.0,0.00838761031627655
352.0,0.00760274613276124
384.0,0.006439709570258856
416.0,0.005011160392314196
448.0,0.0038523732218891382
480.0,0.0031621854286640882
512.0,0.0025199546944350004
576.0,0.0006768814637325704
640.0,-0.0017356951721012592
704.0,-0.003175684018060565
768.0,-0.0029104556888341904
832.0,-0.002896884921938181
896.0,-0.0035533795598894358
960.0,-0.004475828260183334
1024.0,-0.004434579983353615
1152.0,-0.005081073846668005
1280.0,-0.006689399480819702
1408.0,-0.006096516270190477
1536.0,-0.005686094518750906
1664.0,-0.0054697757586836815
1792.0,-0.006396951153874397
1920.0,-0.004274016711860895
2048.0,-0.0036031119525432587
2304.0,-0.0014363889349624515
2560.0,-0.00024399859830737114
2816.0,0.0010699639096856117
3072.0,0.006675416603684425
3328.0,0.00809258222579956
3584.0,0.0005190800875425339
3840.0,-0.006910067051649094
4096.0,-0.00950194988399744
4608.0,-0.004490856546908617
5120.0,0.004186304286122322
5632.0,0.009586818516254425
6144.0,0.00552607886493206
6656.0,0.0014954607468098402
7168.0,-0.010198263451457024
7680.0,-0.008439960889518261
8192.0,0.0013086112448945642
9216.0,-0.0016110972501337528
10240.0,-0.0009085916681215167
11264.0,0.005672898143529892
12288.0,-0.004161150194704533
13312.0,-0.001967694377526641
14336.0,0.0021456321701407433
end
