version,3.0
numOfCh,1
type,point
parent_name,0-cuts
ch_type,1_1
kcount,1
numberNandB,1
brightnessNandB,1
carpet pos,0
pc,0
Time (ms),CH1 Auto-Correlation
1.0,0.06170448660850525
2.0,0.06132703647017479
3.0,0.06096372380852699
4.0,0.06060697138309479
5.0,0.06024569645524025
6.0,0.05988903343677521
7.0,0.05953573063015938
8.0,0.05917498841881752
9.0,0.05881056562066078
10.0,0.05844714865088463
11.0,0.05808781087398529
12.0,0.05773014575242996
13.0,0.0573752224445343
14.0,0.057017531245946884
15.0,0.05665964633226395
16.0,0.05631376430392265
18.0,0.05564339831471443
20.0,0.05499710142612457
22.0,0.054371073842048645
24.0,0.05375475808978081
26.0,0.05317425727844238
28.0,0.05260082706809044
30.0,0.05201899632811546
32.0,0.051466476172208786
36.0,0.050491951406002045
40.0,0.04960477352142334
44.0,0.048765990883111954
48.0,0.0479605607688427
52.0,0.04720333591103554
56.0,0.04642147198319435
60.0,0.0456075482070446
64.0,0.04482434317469597
72.0,0.04331514611840248
80.0,0.041805144399404526
88.0,0.04034372791647911
96.0,0.03900476545095444
104.0,0.03758589178323746
112.0,0.036154698580503464
120.0,0.03483222797513008
128.0,0.03363078460097313
144.0,0.03158963471651077
160.0,0.029309401288628578
176.0,0.027238691225647926
192.0,0.02529485896229744
208.0,0.023785067722201347
224.0,0.022401727735996246
240.0,0.021074065938591957
256.0,0.019711684435606003
288.0,0.01747780106961727
320.0,0.015964848920702934
352.0,0.015335568226873875
384.0,0.015460001304745674
416.0,0.015288139693439007
448.0,0.014627167023718357
480.0,0.014196892268955708
512.0,0.014139060862362385
576.0,0.013209624215960503
640.0,0.012605479918420315
704.0,0.010231523774564266
768.0,0.00547812320291996
832.0,0.002037062542513013
896.0,-0.0008251945255324244
960.0,-0.004155826289206743
1024.0,-0.006190948653966188
1152.0,-0.0046548619866371155
1280.0,-0.0062669855542480946
1408.0,-0.011465536430478096
1536.0,-0.014486273750662804
1664.0,-0.010096368379890919
1792.0,-0.005077603738754988
1920.0,-0.0024488342460244894
2048.0,0.0029921308159828186
2304.0,0.009375994093716145
2560.0,0.010955092497169971
2816.0,0.011347954161465168
3072.0,0.00853351317346096
3328.0,-0.002705960301682353
3584.0,-0.0046842279843986034
3840.0,-0.004369934555143118
4096.0,-0.005598537623882294
4608.0,-0.0027405766304582357
5120.0,-0.0027208025567233562
5632.0,-0.014949756674468517
6144.0,-0.01444640289992094
6656.0,-0.005859052762389183
7168.0,0.003532357746735215
7680.0,-0.0004976774216629565
8192.0,-0.008849218487739563
9216.0,-0.009685405530035496
10240.0,0.006243583746254444
11264.0,0.0014203534228727221
12288.0,0.004746007267385721
13312.0,0.008500561118125916
14336.0,0.0066649774089455605
end
