version,3.0
numOfCh,1
type,point
parent_name,0-cuts
ch_type,1_1
kcount,1
numberNandB,1
brightnessNandB,1
carpet pos,0
pc,0
Time (ms),CH1 Auto-Correlation
1.0,0.13732151687145233
2.0,0.13676519691944122
3.0,0.13621820509433746
4.0,0.1356751173734665
5.0,0.13513794541358948
6.0,0.13459883630275726
7.0,0.13405412435531616
8.0,0.1335151642560959
9.0,0.13298369944095612
10.0,0.13245519995689392
11.0,0.1319395899772644
12.0,0.13143160939216614
13.0,0.1309202015399933
14.0,0.13041381537914276
15.0,0.12991344928741455
16.0,0.12942281365394592
18.0,0.12841366231441498
20.0,0.1274520605802536
22.0,0.12651599943637848
24.0,0.12559422850608826
26.0,0.12471304833889008
28.0,0.12386763095855713
30.0,0.12302851676940918
32.0,0.12221293896436691
36.0,0.12067843973636627
40.0,0.11920467019081116
44.0,0.11776452511548996
48.0,0.11637872457504272
52.0,0.11505557596683502
56.0,0.11383268237113953
60.0,0.1127510741353035
64.0,0.11169828474521637
72.0,0.10970786213874817
80.0,0.10781969875097275
88.0,0.10587567090988159
96.0,0.10390153527259827
104.0,0.10208497196435928
112.0,0.10030224174261093
120.0,0.09846776723861694
128.0,0.09662666916847229
144.0,0.09351157397031784
160.0,0.09104734659194946
176.0,0.08897104859352112
192.0,0.087059386074543
208.0,0.08533724397420883
224.0,0.08314328640699387
240.0,0.08082278072834015
256.0,0.07876481115818024
288.0,0.0755540058016777
320.0,0.073551706969738
352.0,0.07163754105567932
384.0,0.06908977031707764
416.0,0.06533923000097275
448.0,0.06150943040847778
480.0,0.0565895177423954
512.0,0.05279309302568436
576.0,0.048559971153736115
640.0,0.04313404858112335
704.0,0.03842318058013916
768.0,0.03528405353426933
832.0,0.03115084022283554
896.0,0.026825938373804092
960.0,0.024180330336093903
1024.0,0.024470193311572075
1152.0,0.023901674896478653
1280.0,0.019820768386125565
1408.0,0.02412939816713333
1536.0,0.030242513865232468
1664.0,0.03259674832224846
1792.0,0.031909067183732986
1920.0,0.03155753016471863
2048.0,0.03083116188645363
2304.0,0.0339433029294014
2560.0,0.02557188831269741
2816.0,0.024449113756418228
3072.0,0.0171616580337286
3328.0,0.010348917916417122
3584.0,0.006582002155482769
3840.0,0.011047832667827606
4096.0,0.01798105426132679
4608.0,0.01253251451998949
5120.0,0.004156892653554678
5632.0,-0.014462213963270187
6144.0,-0.014213304966688156
6656.0,-0.02136399783194065
7168.0,-0.046169113367795944
7680.0,-0.03278082236647606
8192.0,-0.0163510050624609
9216.0,-0.0395539365708828
10240.0,-0.06855674088001251
11264.0,-0.047315485775470734
12288.0,-0.06407101452350616
13312.0,-0.03910592570900917
14336.0,0.006475904490798712
end
