version,3.0
numOfCh,1
type,point
parent_name,0-cuts
ch_type,1_1
kcount,1
numberNandB,1
brightnessNandB,1
carpet pos,0
pc,0
Time (ms),CH1 Auto-Correlation
1.0,0.0974295511841774
2.0,0.09689728915691376
3.0,0.09637120366096497
4.0,0.0958499163389206
5.0,0.09533408284187317
6.0,0.0948176234960556
7.0,0.09431371092796326
8.0,0.09380513429641724
9.0,0.09331093728542328
10.0,0.09281576424837112
11.0,0.09232744574546814
12.0,0.0918470025062561
13.0,0.09136390686035156
14.0,0.09087732434272766
15.0,0.09041085839271545
16.0,0.08994690328836441
18.0,0.08903378248214722
20.0,0.08812008053064346
22.0,0.08724337071180344
24.0,0.08640289306640625
26.0,0.08554869890213013
28.0,0.08470526337623596
30.0,0.08387395739555359
32.0,0.08307870477437973
36.0,0.0815349742770195
40.0,0.08001609146595001
44.0,0.07849939167499542
48.0,0.07690505683422089
52.0,0.07534240931272507
56.0,0.07391588389873505
60.0,0.07260724157094955
64.0,0.07139018177986145
72.0,0.06886279582977295
80.0,0.06628093123435974
88.0,0.063605397939682
96.0,0.06089246645569801
104.0,0.058610014617443085
112.0,0.05678556486964226
120.0,0.055272746831178665
128.0,0.05391186848282814
144.0,0.05105314031243324
160.0,0.04808972403407097
176.0,0.045162685215473175
192.0,0.04252103343605995
208.0,0.040352340787649155
224.0,0.03879517316818237
240.0,0.03768276795744896
256.0,0.03664484620094299
288.0,0.03561500087380409
320.0,0.03484617546200752
352.0,0.03388560563325882
384.0,0.03341125324368477
416.0,0.03230174258351326
448.0,0.031382232904434204
480.0,0.029918614774942398
512.0,0.026071207597851753
576.0,0.016574956476688385
640.0,0.01347903348505497
704.0,0.014442349784076214
768.0,0.01442947518080473
832.0,0.01513697300106287
896.0,0.014988427050411701
960.0,0.010679910890758038
1024.0,0.0036900078412145376
1152.0,0.0005380315124057233
1280.0,0.0007418766617774963
1408.0,-0.0007510885479860008
1536.0,-0.008870656602084637
1664.0,-0.00570891285315156
1792.0,-0.0006820625276304781
1920.0,0.004439355805516243
2048.0,0.008217654190957546
2304.0,0.010946892201900482
2560.0,0.009612731635570526
2816.0,0.007349140476435423
3072.0,0.004830439109355211
3328.0,0.0024009363260120153
3584.0,-0.0031530731357634068
3840.0,-0.012619252316653728
4096.0,-0.009495513513684273
4608.0,0.0044887978583574295
5120.0,0.004968253895640373
5632.0,0.0020889011211693287
6144.0,-0.022258955985307693
6656.0,-0.02895067073404789
7168.0,-0.031256064772605896
7680.0,-0.011087976396083832
8192.0,-0.004634992219507694
9216.0,-0.01257574837654829
10240.0,-0.005248961038887501
11264.0,-0.004241009708493948
12288.0,0.0057028005830943584
13312.0,0.009276838041841984
14336.0,-0.0016268022591248155
end
