version,3.0
numOfCh,1
type,point
parent_name,0-cuts
ch_type,1_1
kcount,1
numberNandB,1
brightnessNandB,1
carpet pos,0
pc,0
Time (ms),CH1 Auto-Correlation
1.0,0.0669037401676178
2.0,0.06635269522666931
3.0,0.06581000983715057
4.0,0.06527687609195709
5.0,0.06476317346096039
6.0,0.06427191197872162
7.0,0.06379223614931107
8.0,0.06333605945110321
9.0,0.06287983059883118
10.0,0.06242142990231514
11.0,0.06195611134171486
12.0,0.061491459608078
13.0,0.061034318059682846
14.0,0.06056585535407066
15.0,0.06010383740067482
16.0,0.05962665379047394
18.0,0.05870320647954941
20.0,0.0578283816576004
22.0,0.05699385330080986
24.0,0.05618513002991676
26.0,0.05539398640394211
28.0,0.05460410565137863
30.0,0.053809866309165955
32.0,0.05303925275802612
36.0,0.051599714905023575
40.0,0.05026260018348694
44.0,0.04897785186767578
48.0,0.04779491201043129
52.0,0.046662528067827225
56.0,0.045537594705820084
60.0,0.044440340250730515
64.0,0.04348418861627579
72.0,0.04163356125354767
80.0,0.03990551084280014
88.0,0.03820144757628441
96.0,0.03658450022339821
104.0,0.03535332903265953
112.0,0.034325990825891495
120.0,0.03339976444840431
128.0,0.03260970488190651
144.0,0.030802786350250244
160.0,0.02904479205608368
176.0,0.027280418202280998
192.0,0.02579089067876339
208.0,0.024329641833901405
224.0,0.02281758189201355
240.0,0.021194888278841972
256.0,0.019379565492272377
288.0,0.0158724132925272
320.0,0.01225186511874199
352.0,0.00920712947845459
384.0,0.008340064436197281
416.0,0.007800296414643526
448.0,0.0073648481629788876
480.0,0.005654016509652138
512.0,0.005114893428981304
576.0,0.0037375374231487513
640.0,0.002353156451135874
704.0,0.0011375884059816599
768.0,0.0015749490121379495
832.0,0.0012151282280683517
896.0,-0.0018661811482161283
960.0,-0.0019151755841448903
1024.0,-0.002897576428949833
1152.0,-0.007099121809005737
1280.0,-0.009465229697525501
1408.0,-0.006308769807219505
1536.0,-0.0013365731574594975
1664.0,0.0010135178454220295
1792.0,-0.0006747999577783048
1920.0,-0.0037998678162693977
2048.0,-0.008065888658165932
2304.0,0.0018859723350033164
2560.0,0.01100820954889059
2816.0,0.012402446009218693
3072.0,0.007311434485018253
3328.0,0.001879188697785139
3584.0,-0.004569356795400381
3840.0,-0.003194348653778434
4096.0,-0.005370090249925852
4608.0,-0.0011570921633392572
5120.0,0.0074415369890630245
5632.0,0.005337573122233152
6144.0,-0.0055890330113470554
6656.0,-0.011534921824932098
7168.0,-0.01742311380803585
7680.0,-0.0024215795565396547
8192.0,0.007992533035576344
9216.0,-0.002600367646664381
10240.0,-0.006925780326128006
11264.0,-0.007795663550496101
12288.0,-0.012973450124263763
13312.0,0.01233085710555315
14336.0,0.012091219425201416
end
