version,3.0
numOfCh,1
type,point
parent_name,0-cuts
ch_type,1_1
kcount,1
numberNandB,1
brightnessNandB,1
carpet pos,0
pc,0
Time (ms),CH1 Auto-Correlation
1.0,0.10135321319103241
2.0,0.1007726639509201
3.0,0.10019593685865402
4.0,0.09962332248687744
5.0,0.09906890988349915
6.0,0.09850950539112091
7.0,0.09795723855495453
8.0,0.09741981327533722
9.0,0.09690159559249878
10.0,0.0963728055357933
11.0,0.09586217254400253
12.0,0.09535791724920273
13.0,0.09486466646194458
14.0,0.09437059611082077
15.0,0.09387865662574768
16.0,0.09338215738534927
18.0,0.09244027733802795
20.0,0.09153289347887039
22.0,0.0906439796090126
24.0,0.0897824838757515
26.0,0.0889565572142601
28.0,0.08814971148967743
30.0,0.08733171224594116
32.0,0.08653460443019867
36.0,0.08496478199958801
40.0,0.08345373719930649
44.0,0.08200504630804062
48.0,0.0805852934718132
52.0,0.07915874570608139
56.0,0.07786199450492859
60.0,0.0766950324177742
64.0,0.0755496472120285
72.0,0.0733499601483345
80.0,0.07121739536523819
88.0,0.06917759776115417
96.0,0.06702790409326553
104.0,0.06497655063867569
112.0,0.06322257965803146
120.0,0.06174410507082939
128.0,0.06028071790933609
144.0,0.057510554790496826
160.0,0.05477049574255943
176.0,0.05147402733564377
192.0,0.048362597823143005
208.0,0.04588805139064789
224.0,0.04380864277482033
240.0,0.04167803376913071
256.0,0.03961412236094475
288.0,0.03777942806482315
320.0,0.03763329237699509
352.0,0.036445338279008865
384.0,0.03424932807683945
416.0,0.031107215210795403
448.0,0.028381628915667534
480.0,0.025093786418437958
512.0,0.021918848156929016
576.0,0.018520750105381012
640.0,0.01844155788421631
704.0,0.017847221344709396
768.0,0.017759645357728004
832.0,0.018139058724045753
896.0,0.01898282952606678
960.0,0.018531911075115204
1024.0,0.016783714294433594
1152.0,0.008824702352285385
1280.0,0.00330906268209219
1408.0,0.0004955280455760658
1536.0,-0.0048266323283314705
1664.0,-0.005642916075885296
1792.0,-0.009291297756135464
1920.0,-0.018162455409765244
2048.0,-0.026600677520036697
2304.0,-0.03251770883798599
2560.0,-0.022993268445134163
2816.0,-0.023428339511156082
3072.0,-0.020865540951490402
3328.0,-0.012552888132631779
3584.0,0.0013719723792746663
3840.0,1.1415443168516504e-06
4096.0,-0.001821185345761478
4608.0,0.008150674402713776
5120.0,0.011418855749070644
5632.0,-0.007829698733985424
6144.0,-0.016893113031983376
6656.0,-0.019968971610069275
7168.0,-0.032420046627521515
7680.0,-0.01233187410980463
8192.0,0.0013542681699618697
9216.0,0.01650979183614254
10240.0,0.023197084665298462
11264.0,0.016570916399359703
12288.0,-0.00682143634185195
13312.0,-0.020694918930530548
14336.0,-0.021289588883519173
end
