version,3.0
numOfCh,1
type,point
parent_name,0-cuts
ch_type,1_1
kcount,1
numberNandB,1
brightnessNandB,1
carpet pos,0
pc,0
Time (ms),CH1 Auto-Correlation
1.0,0.0705365538597107
2.0,0.07004000246524811
3.0,0.06956599652767181
4.0,0.0691056028008461
5.0,0.06864340603351593
6.0,0.06819392740726471
7.0,0.0677458718419075
8.0,0.0673011839389801
9.0,0.06686201691627502
10.0,0.06643036752939224
11.0,0.0659923329949379
12.0,0.06556187570095062
13.0,0.06511545926332474
14.0,0.06467444449663162
15.0,0.06422427296638489
16.0,0.0637982115149498
18.0,0.06296174973249435
20.0,0.06216845288872719
22.0,0.06142667308449745
24.0,0.06069209426641464
26.0,0.05998987331986427
28.0,0.05930359289050102
30.0,0.05860673263669014
32.0,0.05794719606637955
36.0,0.05667978525161743
40.0,0.05543513223528862
44.0,0.05418979376554489
48.0,0.05293707549571991
52.0,0.051728688180446625
56.0,0.0505630262196064
60.0,0.04942696541547775
64.0,0.048304758965969086
72.0,0.04604049026966095
80.0,0.04378752410411835
88.0,0.04180864989757538
96.0,0.040093813091516495
104.0,0.03853631392121315
112.0,0.036970704793930054
120.0,0.035477228462696075
128.0,0.03408714756369591
144.0,0.03143521025776863
160.0,0.02861630730330944
176.0,0.025815822184085846
192.0,0.023511117324233055
208.0,0.02078685723245144
224.0,0.01810256764292717
240.0,0.01559540070593357
256.0,0.013378201983869076
288.0,0.009991292841732502
320.0,0.007213109638541937
352.0,0.006401085294783115
384.0,0.006471502594649792
416.0,0.0066140503622591496
448.0,0.00630777794867754
480.0,0.005346547346562147
512.0,0.0033644004724919796
576.0,-0.000943673774600029
640.0,-0.0023167813196778297
704.0,-0.002670624293386936
768.0,-0.002587211085483432
832.0,-0.0015309784794226289
896.0,-0.00033394130878150463
960.0,0.0008335978491231799
1024.0,0.0018236424075439572
1152.0,0.0017181956209242344
1280.0,-0.002170761814340949
1408.0,-0.0020270980894565582
1536.0,-0.004172397777438164
1664.0,-0.0053245145827531815
1792.0,-0.00422916142269969
1920.0,-0.0031788938213139772
2048.0,-0.005943922325968742
2304.0,0.00220234296284616
2560.0,0.0012925704941153526
2816.0,-0.0006568179232999682
3072.0,0.0037403663154691458
3328.0,0.003298400202766061
3584.0,0.004942505620419979
3840.0,0.002638245467096567
4096.0,0.0033536639530211687
4608.0,0.0028162398375570774
5120.0,-0.0007065988029353321
5632.0,-0.007486688904464245
6144.0,-0.008194941096007824
6656.0,-0.013947590254247189
7168.0,-0.0090852165594697
7680.0,0.0001020552299451083
8192.0,-0.0023900072555989027
9216.0,-0.008194265887141228
10240.0,-0.0038300417363643646
11264.0,-0.0035196400713175535
12288.0,0.009232715703547001
13312.0,0.00747525691986084
14336.0,-0.01703394576907158
end
