version,3.0
numOfCh,1
type,point
parent_name,0-cuts
ch_type,1_1
kcount,1
numberNandB,1
brightnessNandB,1
carpet pos,0
pc,0
Time (ms),CH1 Auto-Correlation
1.0,0.07075671851634979
2.0,0.07022702693939209
3.0,0.06970036774873734
4.0,0.06918417662382126
5.0,0.06867442280054092
6.0,0.0681501030921936
7.0,0.06762713938951492
8.0,0.0671127513051033
9.0,0.06659272313117981
10.0,0.06608162075281143
11.0,0.0655747652053833
12.0,0.0650671198964119
13.0,0.06456807255744934
14.0,0.06407196074724197
15.0,0.06358655542135239
16.0,0.06312405318021774
18.0,0.062214549630880356
20.0,0.06130456179380417
22.0,0.060432758182287216
24.0,0.059583164751529694
26.0,0.05878257006406784
28.0,0.05800003930926323
30.0,0.057242151349782944
32.0,0.056521233171224594
36.0,0.05518390238285065
40.0,0.05400638282299042
44.0,0.05292578041553497
48.0,0.05188298597931862
52.0,0.050884947180747986
56.0,0.04992186650633812
60.0,0.04897484928369522
64.0,0.048124734312295914
72.0,0.046635184437036514
80.0,0.045318443328142166
88.0,0.044088609516620636
96.0,0.04301499202847481
104.0,0.04195202514529228
112.0,0.040921665728092194
120.0,0.039926689118146896
128.0,0.039270754903554916
144.0,0.038769885897636414
160.0,0.03834337741136551
176.0,0.03717992827296257
192.0,0.035952143371105194
208.0,0.03468822315335274
224.0,0.033431828022003174
240.0,0.03206546604633331
256.0,0.030850015580654144
288.0,0.029169002547860146
320.0,0.028807509690523148
352.0,0.028607597574591637
384.0,0.028001053258776665
416.0,0.026365580037236214
448.0,0.023280208930373192
480.0,0.020206371322274208
512.0,0.017669489607214928
576.0,0.01523501519113779
640.0,0.01357010006904602
704.0,0.01597950980067253
768.0,0.014725515618920326
832.0,0.014321095310151577
896.0,0.013640818186104298
960.0,0.010534107685089111
1024.0,0.010422362014651299
1152.0,0.014482355676591396
1280.0,0.011121142655611038
1408.0,0.009135664440691471
1536.0,0.01086997427046299
1664.0,0.007886221632361412
1792.0,0.006530849728733301
1920.0,0.00952154491096735
2048.0,0.00887234415858984
2304.0,0.0073505849577486515
2560.0,-0.0008274795836769044
2816.0,-0.005036747083067894
3072.0,-0.00598933408036828
3328.0,-0.005691145546734333
3584.0,-0.005660629831254482
3840.0,-0.009846510365605354
4096.0,-0.011024937964975834
4608.0,-0.010054555721580982
5120.0,-0.010346475057303905
5632.0,-0.005108204670250416
6144.0,-0.003598033683374524
6656.0,0.0025939864572137594
7168.0,0.009882649406790733
7680.0,0.010519759729504585
8192.0,0.007179957814514637
9216.0,0.004928251262754202
10240.0,0.0026686545461416245
11264.0,-0.01622430421411991
12288.0,-0.01580624282360077
13312.0,-0.05035822093486786
14336.0,-0.03242746368050575
end
