version,3.0
numOfCh,1
type,point
parent_name,0-cuts
ch_type,1_1
kcount,1
numberNandB,1
brightnessNandB,1
carpet pos,0
pc,0
Time (ms),CH1 Auto-Correlation
1.0,0.06515897810459137
2.0,0.0647452250123024
3.0,0.06434159725904465
4.0,0.06394083052873611
5.0,0.06354033946990967
6.0,0.06315205991268158
7.0,0.06277089565992355
8.0,0.06239471212029457
9.0,0.06203462556004524
10.0,0.06168496981263161
11.0,0.061331093311309814
12.0,0.06098413094878197
13.0,0.060629915446043015
14.0,0.060271646827459335
15.0,0.0599173866212368
16.0,0.05957220494747162
18.0,0.058905668556690216
20.0,0.05829498544335365
22.0,0.057739757001399994
24.0,0.05720159411430359
26.0,0.05668528750538826
28.0,0.056181248277425766
30.0,0.05568677932024002
32.0,0.055197738111019135
36.0,0.05430036410689354
40.0,0.053394075483083725
44.0,0.052478838711977005
48.0,0.05162127688527107
52.0,0.05077597126364708
56.0,0.05000852048397064
60.0,0.049206387251615524
64.0,0.04837533086538315
72.0,0.04674496129155159
80.0,0.04516468569636345
88.0,0.04389706254005432
96.0,0.04280906543135643
104.0,0.04176314175128937
112.0,0.040748100727796555
120.0,0.03985336050391197
128.0,0.03891794756054878
144.0,0.03759631887078285
160.0,0.036320582032203674
176.0,0.034880656749010086
192.0,0.03345077484846115
208.0,0.03229840099811554
224.0,0.0313030481338501
240.0,0.030296150594949722
256.0,0.029550278559327126
288.0,0.027445567771792412
320.0,0.025629805400967598
352.0,0.023758459836244583
384.0,0.022939695045351982
416.0,0.02243191935122013
448.0,0.021410131826996803
480.0,0.019088128581643105
512.0,0.01702844351530075
576.0,0.014130455441772938
640.0,0.011835252866148949
704.0,0.009652272798120975
768.0,0.00725369481369853
832.0,0.0050295074470341206
896.0,0.0030470644123852253
960.0,0.0023240805603563786
1024.0,0.0016580690862610936
1152.0,3.907330665242625e-06
1280.0,-0.003995716571807861
1408.0,-0.005788550712168217
1536.0,-0.005576642695814371
1664.0,-0.004411780741065741
1792.0,-0.004415456671267748
1920.0,-0.006593811325728893
2048.0,-0.01057684887200594
2304.0,-0.006355786696076393
2560.0,-0.00582817243412137
2816.0,-0.0013177681248635054
3072.0,0.0024342795368283987
3328.0,0.007205198053270578
3584.0,0.017010586336255074
3840.0,0.01975932903587818
4096.0,0.018123259767889977
4608.0,-0.005060854833573103
5120.0,-0.02053823322057724
5632.0,-0.023725196719169617
6144.0,-0.008965926244854927
6656.0,0.005318214185535908
7168.0,0.005058194976300001
7680.0,0.013657364062964916
8192.0,-0.0012224987149238586
9216.0,-0.03322090208530426
10240.0,-0.004199071321636438
11264.0,0.001764839282259345
12288.0,-0.007273929193615913
13312.0,-0.004001869820058346
14336.0,0.03872370719909668
end
