version,3.0
numOfCh,1
type,point
parent_name,0-cuts
ch_type,1_1
kcount,1
numberNandB,1
brightnessNandB,1
carpet pos,0
pc,0
Time (ms),CH1 Auto-Correlation
1.0,0.06455997377634048
2.0,0.06404802948236465
3.0,0.06353248655796051
4.0,0.06303085386753082
5.0,0.06253336369991302
6.0,0.06205902621150017
7.0,0.06160441413521767
8.0,0.06114976853132248
9.0,0.06068505719304085
10.0,0.06022299453616142
11.0,0.059771277010440826
12.0,0.05932086333632469
13.0,0.058865033090114594
14.0,0.058411695063114166
15.0,0.05796634405851364
16.0,0.05751679465174675
18.0,0.05664125457406044
20.0,0.05576654523611069
22.0,0.05491447448730469
24.0,0.05408497899770737
26.0,0.053280334919691086
28.0,0.05248509347438812
30.0,0.05170754715800285
32.0,0.050968583673238754
36.0,0.049517422914505005
40.0,0.048119284212589264
44.0,0.04677949473261833
48.0,0.045506324619054794
52.0,0.04429444298148155
56.0,0.04314148798584938
60.0,0.04206203296780586
64.0,0.041133638471364975
72.0,0.03938004747033119
80.0,0.03768988326191902
88.0,0.03606385737657547
96.0,0.03458183631300926
104.0,0.03305502608418465
112.0,0.03157205507159233
120.0,0.03016885742545128
128.0,0.028810616582632065
144.0,0.026581764221191406
160.0,0.025020606815814972
176.0,0.023366054520010948
192.0,0.02135065197944641
208.0,0.019002335146069527
224.0,0.01656355895102024
240.0,0.014097797684371471
256.0,0.011839338578283787
288.0,0.007860234007239342
320.0,0.00597900478169322
352.0,0.004714642651379108
384.0,0.003404234303161502
416.0,0.0026072943583130836
448.0,0.0021204003132879734
480.0,0.0022698489483445883
512.0,0.0027994669508188963
576.0,0.0008582958835177124
640.0,-0.0011517914244905114
704.0,-0.0042668418027460575
768.0,-0.007311462890356779
832.0,-0.010406489484012127
896.0,-0.009890517219901085
960.0,-0.00763030257076025
1024.0,-0.007164971902966499
1152.0,-0.007764964830130339
1280.0,-0.009396348148584366
1408.0,-0.009882016107439995
1536.0,-0.008108464069664478
1664.0,-0.007349916733801365
1792.0,-0.005086940247565508
1920.0,-1.3654316717293113e-05
2048.0,0.006108290981501341
2304.0,0.005544315092265606
2560.0,0.008104713633656502
2816.0,0.006834359373897314
3072.0,0.004131045192480087
3328.0,-0.0031646382994949818
3584.0,-0.005195272155106068
3840.0,-0.011598095297813416
4096.0,-0.014964778907597065
4608.0,0.0018965734634548426
5120.0,0.004286624025553465
5632.0,0.0009936210699379444
6144.0,-0.008739524520933628
6656.0,0.0012216364266350865
7168.0,0.006919295992702246
7680.0,0.004364104475826025
8192.0,-0.0031326361931860447
9216.0,-0.0014394130557775497
10240.0,0.000983640318736434
11264.0,-0.002847118303179741
12288.0,-0.0029126249719411135
13312.0,-0.0017790193669497967
14336.0,0.005294740665704012
end
