version,3.0
numOfCh,1
type,point
parent_name,0-cuts
ch_type,1_1
kcount,1
numberNandB,1
brightnessNandB,1
carpet pos,0
pc,0
Time (ms),CH1 Auto-Correlation
1.0,0.09186729788780212
2.0,0.09125612676143646
3.0,0.09065374732017517
4.0,0.09006600081920624
5.0,0.08948282152414322
6.0,0.08889653533697128
7.0,0.08833184838294983
8.0,0.08777043223381042
9.0,0.08721519261598587
10.0,0.08667527884244919
11.0,0.08614526689052582
12.0,0.08560985326766968
13.0,0.08508268743753433
14.0,0.0845545083284378
15.0,0.08402904123067856
16.0,0.08352091908454895
18.0,0.08250731974840164
20.0,0.08151400834321976
22.0,0.08055979758501053
24.0,0.07965023815631866
26.0,0.07879359275102615
28.0,0.07795166224241257
30.0,0.0771368220448494
32.0,0.07631169259548187
36.0,0.07469257712364197
40.0,0.07311638444662094
44.0,0.07160159200429916
48.0,0.07011385262012482
52.0,0.068663589656353
56.0,0.0672757625579834
60.0,0.06592042744159698
64.0,0.06456276774406433
72.0,0.062068287283182144
80.0,0.05984969809651375
88.0,0.05771773308515549
96.0,0.05568237975239754
104.0,0.05381958931684494
112.0,0.05227920413017273
120.0,0.05083732306957245
128.0,0.049553804099559784
144.0,0.04743530973792076
160.0,0.0453411266207695
176.0,0.043805330991744995
192.0,0.04305816441774368
208.0,0.043120644986629486
224.0,0.04326491057872772
240.0,0.0431930311024189
256.0,0.04287651553750038
288.0,0.041308507323265076
320.0,0.0380362942814827
352.0,0.034386783838272095
384.0,0.0314209945499897
416.0,0.029555298388004303
448.0,0.028171397745609283
480.0,0.027444330975413322
512.0,0.02786446548998356
576.0,0.02908226288855076
640.0,0.026744423434138298
704.0,0.02123386040329933
768.0,0.014599734917283058
832.0,0.010605555027723312
896.0,0.006540767382830381
960.0,0.0020885884296149015
1024.0,-0.00022822790197096765
1152.0,-0.005493721459060907
1280.0,-0.007082614116370678
1408.0,-0.004279678221791983
1536.0,-0.012176314368844032
1664.0,-0.012019298039376736
1792.0,-0.007938352413475513
1920.0,-0.0034363523591309786
2048.0,-0.0025910644326359034
2304.0,-0.0017929653404280543
2560.0,-0.0022778448183089495
2816.0,-0.005919124931097031
3072.0,-0.008842484094202518
3328.0,-0.014530889689922333
3584.0,-0.009604370221495628
3840.0,-0.009169221855700016
4096.0,-0.003556968178600073
4608.0,-0.010427762754261494
5120.0,-0.013339417986571789
5632.0,-0.012860892340540886
6144.0,-0.010837309993803501
6656.0,-0.00836186297237873
7168.0,0.005610599648207426
7680.0,0.011359192430973053
8192.0,0.012146967463195324
9216.0,-0.016470935195684433
10240.0,0.020641228184103966
11264.0,0.002822921145707369
12288.0,0.013516503386199474
13312.0,-0.02244308777153492
14336.0,-0.002894917270168662
end
