version,3.0
numOfCh,1
type,point
parent_name,0-cuts
ch_type,1_1
kcount,1
numberNandB,1
brightnessNandB,1
carpet pos,0
pc,0
Time (ms),CH1 Auto-Correlation
1.0,0.08868608623743057
2.0,0.08823451399803162
3.0,0.08778675645589828
4.0,0.08735165745019913
5.0,0.08692805469036102
6.0,0.08651218563318253
7.0,0.0860908031463623
8.0,0.08568060398101807
9.0,0.08527205139398575
10.0,0.08487319201231003
11.0,0.08447763323783875
12.0,0.08408056944608688
13.0,0.08368612825870514
14.0,0.08329853415489197
15.0,0.08291882276535034
16.0,0.08255120366811752
18.0,0.08179792761802673
20.0,0.0810551568865776
22.0,0.08033277094364166
24.0,0.07961636036634445
26.0,0.07891310751438141
28.0,0.07823123782873154
30.0,0.07758817076683044
32.0,0.07696477323770523
36.0,0.07573643326759338
40.0,0.07451082766056061
44.0,0.07327147573232651
48.0,0.07205391675233841
52.0,0.07094191014766693
56.0,0.06991496682167053
60.0,0.0689079761505127
64.0,0.06794892251491547
72.0,0.0660582035779953
80.0,0.06420852243900299
88.0,0.06250951439142227
96.0,0.060945186764001846
104.0,0.0595645010471344
112.0,0.05834103748202324
120.0,0.05718513950705528
128.0,0.056012995541095734
144.0,0.05396045371890068
160.0,0.052382148802280426
176.0,0.05075165256857872
192.0,0.04947087541222572
208.0,0.0485452264547348
224.0,0.04768850654363632
240.0,0.04665493965148926
256.0,0.04535704851150513
288.0,0.042083386331796646
320.0,0.039083514362573624
352.0,0.03791441395878792
384.0,0.037677936255931854
416.0,0.03765420243144035
448.0,0.03653375804424286
480.0,0.035433318465948105
512.0,0.03427160531282425
576.0,0.03192829713225365
640.0,0.03175186365842819
704.0,0.03149569407105446
768.0,0.03031959757208824
832.0,0.02951423078775406
896.0,0.028072325512766838
960.0,0.024892190471291542
1024.0,0.022337837144732475
1152.0,0.014315633103251457
1280.0,0.005824068561196327
1408.0,0.00021567181102000177
1536.0,-0.0005277214804664254
1664.0,-0.0027318871580064297
1792.0,-0.002659094985574484
1920.0,-0.0007403394556604326
2048.0,-0.00321214459836483
2304.0,-0.006317940540611744
2560.0,-0.007154941093176603
2816.0,-0.004183194600045681
3072.0,-0.0010493950685486197
3328.0,-0.0014703435590490699
3584.0,-0.008251513354480267
3840.0,-0.009948205202817917
4096.0,-0.007507246918976307
4608.0,-0.017066624015569687
5120.0,-0.01588001288473606
5632.0,-0.013755417428910732
6144.0,-0.016044359654188156
6656.0,-0.018576202914118767
7168.0,-0.009532900527119637
7680.0,0.002821768866851926
8192.0,0.014058512635529041
9216.0,0.02255834825336933
10240.0,-0.011881482787430286
11264.0,-0.018608732149004936
12288.0,-0.005729071795940399
13312.0,-0.005442331079393625
14336.0,-0.015180681832134724
end
