version,3.0
numOfCh,1
type,point
parent_name,0-cuts
ch_type,1_1
kcount,1
numberNandB,1
brightnessNandB,1
carpet pos,0
pc,0
Time (ms),CH1 Auto-Correlation
1.0,0.05267713591456413
2.0,0.05225921794772148
3.0,0.05184629186987877
4.0,0.05142839998006821
5.0,0.051007796078920364
6.0,0.0505966879427433
7.0,0.05018589645624161
8.0,0.049780819565057755
9.0,0.04937701299786568
10.0,0.04898259416222572
11.0,0.048584647476673126
12.0,0.048188719898462296
13.0,0.04779946058988571
14.0,0.04740595445036888
15.0,0.047027330845594406
16.0,0.04664131999015808
18.0,0.04586689546704292
20.0,0.04508979246020317
22.0,0.04430639371275902
24.0,0.04350893944501877
26.0,0.04270648956298828
28.0,0.04192456603050232
30.0,0.04116670414805412
32.0,0.04041624814271927
36.0,0.03897897154092789
40.0,0.037596870213747025
44.0,0.036243680864572525
48.0,0.03496692702174187
52.0,0.03375427797436714
56.0,0.032608550041913986
60.0,0.03156490623950958
64.0,0.030582869425415993
72.0,0.02887588180601597
80.0,0.02728595957159996
88.0,0.025743192061781883
96.0,0.024346088990569115
104.0,0.023115022107958794
112.0,0.022166652604937553
120.0,0.021425599232316017
128.0,0.020965514704585075
144.0,0.020210379734635353
160.0,0.01956930011510849
176.0,0.019139768555760384
192.0,0.01836954429745674
208.0,0.017698442563414574
224.0,0.01729833334684372
240.0,0.016904141753911972
256.0,0.016442354768514633
288.0,0.015538644976913929
320.0,0.015188115648925304
352.0,0.014112524688243866
384.0,0.012472715228796005
416.0,0.01112133078277111
448.0,0.010373770259320736
480.0,0.009322131983935833
512.0,0.008524538949131966
576.0,0.0052045006304979324
640.0,0.0027450185734778643
704.0,0.0018667964031919837
768.0,0.0007801530882716179
832.0,0.0004315261321607977
896.0,0.0009041243465617299
960.0,0.0012214775197207928
1024.0,0.0009021919686347246
1152.0,0.0012259630020707846
1280.0,0.0003980277106165886
1408.0,-0.000825670431368053
1536.0,-0.0008613407844677567
1664.0,7.689678750466555e-05
1792.0,-0.0005256403819657862
1920.0,0.0020086118020117283
2048.0,0.0040138899348676205
2304.0,0.0012545028002932668
2560.0,-0.0014025024138391018
2816.0,-0.0024047784972935915
3072.0,0.0007730634533800185
3328.0,0.002813688712194562
3584.0,0.0011134925298392773
3840.0,0.0020786013919860125
4096.0,-0.000302723899949342
4608.0,-0.007818901911377907
5120.0,-0.007204628549516201
5632.0,-0.004651176277548075
6144.0,-0.008644836954772472
6656.0,-0.0078648142516613
7168.0,-0.002149580977857113
7680.0,-0.0010739840799942613
8192.0,-0.005758324638009071
9216.0,-0.002459002425894141
10240.0,-0.0020367486868053675
11264.0,0.010460780933499336
12288.0,0.006031427998095751
13312.0,-0.006328443996608257
14336.0,-0.0008341374341398478
end
