version,3.0
numOfCh,1
type,point
parent_name,0-cuts
ch_type,1_1
kcount,1
numberNandB,1
brightnessNandB,1
carpet pos,0
pc,0
Time (ms),CH1 Auto-Correlation
1.0,0.1271873116493225
2.0,0.12660107016563416
3.0,0.12601540982723236
4.0,0.12543603777885437
5.0,0.12486446648836136
6.0,0.1242983490228653
7.0,0.12372161448001862
8.0,0.12313299626111984
9.0,0.12255388498306274
10.0,0.1219857782125473
11.0,0.12142587453126907
12.0,0.12087003141641617
13.0,0.12029619514942169
14.0,0.11972889304161072
15.0,0.11914706230163574
16.0,0.11856278777122498
18.0,0.11740967631340027
20.0,0.11627763509750366
22.0,0.11517151445150375
24.0,0.11408556252717972
26.0,0.11298495531082153
28.0,0.11187966167926788
30.0,0.1108209416270256
32.0,0.10977914184331894
36.0,0.10783044248819351
40.0,0.1059512346982956
44.0,0.10413091629743576
48.0,0.10235743224620819
52.0,0.10071782767772675
56.0,0.09918228536844254
60.0,0.09780381619930267
64.0,0.09642407298088074
72.0,0.0937952995300293
80.0,0.09148743003606796
88.0,0.08924630284309387
96.0,0.08694218844175339
104.0,0.08464063704013824
112.0,0.08260001242160797
120.0,0.0807938277721405
128.0,0.07916822284460068
144.0,0.07640393078327179
160.0,0.0738353282213211
176.0,0.07155923545360565
192.0,0.06983445584774017
208.0,0.06781689077615738
224.0,0.06505366414785385
240.0,0.06226252391934395
256.0,0.05958382040262222
288.0,0.055725499987602234
320.0,0.052218321710824966
352.0,0.04976104572415352
384.0,0.04821692407131195
416.0,0.046693798154592514
448.0,0.04661830514669418
480.0,0.04507741704583168
512.0,0.0430055595934391
576.0,0.03454398363828659
640.0,0.026760997250676155
704.0,0.0235898457467556
768.0,0.0226729903370142
832.0,0.025080373510718346
896.0,0.030504988506436348
960.0,0.034929413348436356
1024.0,0.04112374410033226
1152.0,0.04965220391750336
1280.0,0.05048396438360214
1408.0,0.04392101243138313
1536.0,0.036253608763217926
1664.0,0.028263013809919357
1792.0,0.017057152464985847
1920.0,0.011076657101511955
2048.0,0.014726811088621616
2304.0,0.01749073900282383
2560.0,0.019648484885692596
2816.0,0.004554735962301493
3072.0,-0.0067809587344527245
3328.0,-0.00685517443343997
3584.0,-0.0066861859522759914
3840.0,-0.00474519282579422
4096.0,-0.0173350740224123
4608.0,-0.02052145078778267
5120.0,-0.022495651617646217
5632.0,-0.04333379119634628
6144.0,-0.03980580344796181
6656.0,-0.026991749182343483
7168.0,-0.038416147232055664
7680.0,-0.03189787268638611
8192.0,-0.0339035801589489
9216.0,-0.004109877627342939
10240.0,0.02245650626718998
11264.0,0.028689343482255936
12288.0,-0.022556956857442856
13312.0,-0.014326690696179867
14336.0,-0.0017439421499148011
end
