version,3.0
numOfCh,1
type,point
parent_name,0-cuts
ch_type,1_1
kcount,1
numberNandB,1
brightnessNandB,1
carpet pos,0
pc,0
Time (ms),CH1 Auto-Correlation
1.0,0.04040602222084999
2.0,0.04020858183503151
3.0,0.04001516103744507
4.0,0.03981833532452583
5.0,0.0396270789206028
6.0,0.039436981081962585
7.0,0.039247654378414154
8.0,0.039065588265657425
9.0,0.03888764977455139
10.0,0.03871652111411095
11.0,0.03854377195239067
12.0,0.03836929425597191
13.0,0.0382019504904747
14.0,0.03803475946187973
15.0,0.03786878287792206
16.0,0.037708576768636703
18.0,0.03739244490861893
20.0,0.03708302602171898
22.0,0.036784835159778595
24.0,0.03649092838168144
26.0,0.03619549795985222
28.0,0.0359097421169281
30.0,0.03562745451927185
32.0,0.03535263612866402
36.0,0.034820038825273514
40.0,0.03427935764193535
44.0,0.03377566859126091
48.0,0.03332841768860817
52.0,0.03290843218564987
56.0,0.0324980802834034
60.0,0.03207779303193092
64.0,0.031660567969083786
72.0,0.03093368001282215
80.0,0.030383305624127388
88.0,0.0299055315554142
96.0,0.029378876090049744
104.0,0.028793377801775932
112.0,0.028241856023669243
120.0,0.027669107541441917
128.0,0.027126841247081757
144.0,0.026224913075566292
160.0,0.025309575721621513
176.0,0.0244450643658638
192.0,0.023804064840078354
208.0,0.023267636075615883
224.0,0.0227954164147377
240.0,0.022221092134714127
256.0,0.02158557064831257
288.0,0.020540796220302582
320.0,0.01934056729078293
352.0,0.01791231520473957
384.0,0.016850754618644714
416.0,0.01556561142206192
448.0,0.014739050529897213
480.0,0.014059419743716717
512.0,0.013299699872732162
576.0,0.012261106632649899
640.0,0.010979577898979187
704.0,0.009696131572127342
768.0,0.009128371253609657
832.0,0.007442893926054239
896.0,0.006782678887248039
960.0,0.007232643663883209
1024.0,0.007205911912024021
1152.0,0.0051368046551942825
1280.0,0.004806742072105408
1408.0,0.003947693854570389
1536.0,0.002275866689160466
1664.0,0.0014922191621735692
1792.0,0.0025085764937102795
1920.0,0.00421484000980854
2048.0,0.005867659579962492
2304.0,0.0061616310849785805
2560.0,0.006823820061981678
2816.0,0.004274568986147642
3072.0,-0.0005451334873214364
3328.0,-0.0024314764887094498
3584.0,-0.0036366807762533426
3840.0,-0.004258842673152685
4096.0,-0.0034847925417125225
4608.0,-0.005037659779191017
5120.0,-0.004247621167451143
5632.0,-0.011824254877865314
6144.0,-0.017362501472234726
6656.0,-0.013177884742617607
7168.0,-0.009580133482813835
7680.0,-0.0059478371404111385
8192.0,-0.006100052036345005
9216.0,-0.0011861425591632724
10240.0,0.0001267005573026836
11264.0,0.0019794749096035957
12288.0,0.007885337807238102
13312.0,0.003580941818654537
14336.0,0.0068590654991567135
end
