version,3.0
numOfCh,1
type,point
parent_name,0-cuts
ch_type,1_1
kcount,1
numberNandB,1
brightnessNandB,1
carpet pos,0
pc,0
Time (ms),CH1 Auto-Correlation
1.0,0.10033876448869705
2.0,0.09975975006818771
3.0,0.09920655936002731
4.0,0.09866487234830856
5.0,0.09813041985034943
6.0,0.0976075679063797
7.0,0.09708140790462494
8.0,0.09656976908445358
9.0,0.09605397284030914
10.0,0.09553074091672897
11.0,0.09503421187400818
12.0,0.09455038607120514
13.0,0.0940854474902153
14.0,0.09361883997917175
15.0,0.09316564351320267
16.0,0.09271857887506485
18.0,0.09182124584913254
20.0,0.09092698991298676
22.0,0.09006274491548538
24.0,0.08921167254447937
26.0,0.08840014040470123
28.0,0.0876101478934288
30.0,0.08683884143829346
32.0,0.086065374314785
36.0,0.08445263653993607
40.0,0.08291308581829071
44.0,0.08140691369771957
48.0,0.07982958853244781
52.0,0.07812349498271942
56.0,0.0764303207397461
60.0,0.07480158656835556
64.0,0.07327955216169357
72.0,0.07057777047157288
80.0,0.06812615692615509
88.0,0.06597018986940384
96.0,0.06406765431165695
104.0,0.06219315901398659
112.0,0.06037333235144615
120.0,0.05860215052962303
128.0,0.05688319355249405
144.0,0.05367926135659218
160.0,0.051301825791597366
176.0,0.04969854652881622
192.0,0.0484095923602581
208.0,0.04751630872488022
224.0,0.04628237709403038
240.0,0.045306507498025894
256.0,0.04353303462266922
288.0,0.039307188242673874
320.0,0.03575699403882027
352.0,0.0333130806684494
384.0,0.031212491914629936
416.0,0.02879471890628338
448.0,0.027184192091226578
480.0,0.02490277774631977
512.0,0.021946799010038376
576.0,0.017909102141857147
640.0,0.014948458410799503
704.0,0.012014905922114849
768.0,0.00858223531395197
832.0,0.007149099837988615
896.0,0.004776342306286097
960.0,0.0023135687224566936
1024.0,-0.0007759329746477306
1152.0,-0.0035559041425585747
1280.0,-0.000784888572525233
1408.0,-0.003244921565055847
1536.0,-0.0015119389863684773
1664.0,-0.006294724065810442
1792.0,-0.008357713930308819
1920.0,-0.00713301869109273
2048.0,-0.006887319963425398
2304.0,-0.009997122921049595
2560.0,-0.004314955789595842
2816.0,-0.004246354103088379
3072.0,-0.0022259370889514685
3328.0,0.00010348033538321033
3584.0,0.0032188743352890015
3840.0,0.011177053675055504
4096.0,0.02054470404982567
4608.0,0.016126282513141632
5120.0,0.011589709669351578
5632.0,-0.007597082294523716
6144.0,-0.029134171083569527
6656.0,-0.020671414211392403
7168.0,-0.00824691541492939
7680.0,-0.018327994272112846
8192.0,-0.02112126164138317
9216.0,0.009458503685891628
10240.0,-0.0013960492797195911
11264.0,-0.028782501816749573
12288.0,0.008149098604917526
13312.0,-0.015493632294237614
14336.0,0.03258853778243065
end
