version,3.0
numOfCh,1
type,point
parent_name,dirty_0dot4-0dot01
ch_type,1_1
kcount,1
numberNandB,1
brightnessNandB,1
carpet pos,0
pc,0
Time (ms),CH1 Auto-Correlation
1.0,0.3848531246185303
2.0,0.3835219144821167
3.0,0.3822639584541321
4.0,0.3810286223888397
5.0,0.37986627221107483
6.0,0.37872329354286194
7.0,0.3775974214076996
8.0,0.37650278210639954
9.0,0.37538135051727295
10.0,0.3742550313472748
11.0,0.37318989634513855
12.0,0.372135192155838
13.0,0.371092826128006
14.0,0.37005239725112915
15.0,0.36900925636291504
16.0,0.367995023727417
18.0,0.3659990131855011
20.0,0.3640575706958771
22.0,0.36215904355049133
24.0,0.3602822721004486
26.0,0.35845521092414856
28.0,0.3567068576812744
30.0,0.3550598919391632
32.0,0.3534587621688843
36.0,0.35037511587142944
40.0,0.3473964333534241
44.0,0.3444247841835022
48.0,0.34153518080711365
52.0,0.3386765122413635
56.0,0.33592867851257324
60.0,0.3333129286766052
64.0,0.3309308886528015
72.0,0.3258914053440094
80.0,0.32105767726898193
88.0,0.3163474500179291
96.0,0.3112923204898834
104.0,0.30615121126174927
112.0,0.300836443901062
120.0,0.2956748306751251
128.0,0.29075121879577637
144.0,0.2809947431087494
160.0,0.2714654803276062
176.0,0.2630332112312317
192.0,0.2550678253173828
208.0,0.24719050526618958
224.0,0.23927028477191925
240.0,0.23244653642177582
256.0,0.22556158900260925
288.0,0.215599924325943
320.0,0.21270807087421417
352.0,0.2090776413679123
384.0,0.2075749784708023
416.0,0.20463018119335175
448.0,0.2017737478017807
480.0,0.200006902217865
512.0,0.1957314908504486
576.0,0.18167027831077576
640.0,0.15687136352062225
704.0,0.1320362687110901
768.0,0.11643560975790024
832.0,0.10474506765604019
896.0,0.10443069785833359
960.0,0.11151368170976639
1024.0,0.11370084434747696
1152.0,0.08198630064725876
1280.0,0.05688108131289482
1408.0,0.04781324416399002
1536.0,0.03683920577168465
1664.0,0.02920665591955185
1792.0,0.026137135922908783
1920.0,0.03458888456225395
2048.0,0.037312865257263184
2304.0,0.055160265415906906
2560.0,0.07143288850784302
2816.0,0.09823278337717056
3072.0,0.10983236879110336
3328.0,0.08412028104066849
3584.0,0.04226754605770111
3840.0,0.01476061437278986
4096.0,0.03389113396406174
4608.0,-0.018392451107501984
5120.0,-0.039127521216869354
5632.0,-0.04350607469677925
6144.0,-0.06605753302574158
6656.0,-0.07340709865093231
7168.0,-0.06793603301048279
7680.0,-0.07979214191436768
8192.0,-0.0890132486820221
9216.0,-0.0983712300658226
10240.0,-0.09885311126708984
11264.0,-0.07447610795497894
12288.0,-0.15068107843399048
13312.0,-0.1037866547703743
14336.0,0.05711117014288902
end
