version,3.0
numOfCh,1
type,point
parent_name,dirty_0dot4-0dot01
ch_type,1_1
kcount,1
numberNandB,1
brightnessNandB,1
carpet pos,0
pc,0
Time (ms),CH1 Auto-Correlation
1.0,0.5771448612213135
2.0,0.5760151147842407
3.0,0.5748829245567322
4.0,0.5738117694854736
5.0,0.5727651119232178
6.0,0.5717232823371887
7.0,0.5707032084465027
8.0,0.5697037577629089
9.0,0.5687176585197449
10.0,0.5677446722984314
11.0,0.5668250918388367
12.0,0.5659056305885315
13.0,0.5649716854095459
14.0,0.564032256603241
15.0,0.5630822777748108
16.0,0.5621358156204224
18.0,0.5601293444633484
20.0,0.5581957697868347
22.0,0.5563027858734131
24.0,0.5544967651367188
26.0,0.5526374578475952
28.0,0.5507264733314514
30.0,0.5487817525863647
32.0,0.5468457341194153
36.0,0.5429387092590332
40.0,0.538955807685852
44.0,0.5349597930908203
48.0,0.5311158895492554
52.0,0.5273289084434509
56.0,0.5235357880592346
60.0,0.5197568535804749
64.0,0.5161072015762329
72.0,0.5088053941726685
80.0,0.5014322400093079
88.0,0.4936649203300476
96.0,0.4854586124420166
104.0,0.47731560468673706
112.0,0.46888962388038635
120.0,0.460415780544281
128.0,0.45207011699676514
144.0,0.435213565826416
160.0,0.41971907019615173
176.0,0.4077649712562561
192.0,0.3996058404445648
208.0,0.3927423357963562
224.0,0.3864149749279022
240.0,0.3804486095905304
256.0,0.3746601343154907
288.0,0.3639739751815796
320.0,0.3581942915916443
352.0,0.3538822829723358
384.0,0.34648025035858154
416.0,0.3396410644054413
448.0,0.33329522609710693
480.0,0.32698020339012146
512.0,0.3175496757030487
576.0,0.3087039887905121
640.0,0.30641594529151917
704.0,0.30201268196105957
768.0,0.2872861921787262
832.0,0.2651982307434082
896.0,0.23297947645187378
960.0,0.20007845759391785
1024.0,0.18258041143417358
1152.0,0.170823335647583
1280.0,0.13194140791893005
1408.0,0.12273211032152176
1536.0,0.1442033052444458
1664.0,0.11946570128202438
1792.0,0.10359841585159302
1920.0,0.1032593846321106
2048.0,0.08970199525356293
2304.0,0.11433997750282288
2560.0,0.13572274148464203
2816.0,0.18063868582248688
3072.0,0.2264828383922577
3328.0,0.1555296927690506
3584.0,0.15929900109767914
3840.0,0.1648753583431244
4096.0,0.11204749345779419
4608.0,0.08895039558410645
5120.0,-0.0605766624212265
5632.0,-0.08021703362464905
6144.0,-0.07546209543943405
6656.0,-0.09025836735963821
7168.0,-0.0996539369225502
7680.0,-0.12364828586578369
8192.0,-0.15668420493602753
9216.0,-0.1752556562423706
10240.0,-0.21768689155578613
11264.0,-0.32400673627853394
12288.0,-0.3120701014995575
13312.0,-0.3311098515987396
14336.0,-0.5250570178031921
end
