version,3.0
numOfCh,1
type,point
parent_name,dirty_0dot4-0dot01
ch_type,1_1
kcount,1
numberNandB,1
brightnessNandB,1
carpet pos,0
pc,0
Time (ms),CH1 Auto-Correlation
1.0,0.9301474690437317
2.0,0.9290046095848083
3.0,0.9279469847679138
4.0,0.9269404411315918
5.0,0.9259580969810486
6.0,0.9250062704086304
7.0,0.9240558743476868
8.0,0.9231355786323547
9.0,0.9222680926322937
10.0,0.9214791655540466
11.0,0.920715868473053
12.0,0.9199051856994629
13.0,0.919151782989502
14.0,0.9184231758117676
15.0,0.9177423715591431
16.0,0.9170309901237488
18.0,0.9155845642089844
20.0,0.914210855960846
22.0,0.912841796875
24.0,0.9114567041397095
26.0,0.9102020263671875
28.0,0.9089873433113098
30.0,0.9076547026634216
32.0,0.906294047832489
36.0,0.9038306474685669
40.0,0.9014490842819214
44.0,0.8993678689002991
48.0,0.8975638747215271
52.0,0.8958257436752319
56.0,0.8942830562591553
60.0,0.8927289843559265
64.0,0.8909435868263245
72.0,0.8869572281837463
80.0,0.8831486701965332
88.0,0.8791424632072449
96.0,0.8757346868515015
104.0,0.8719812631607056
112.0,0.8683938980102539
120.0,0.8650310039520264
128.0,0.8617753982543945
144.0,0.8551823496818542
160.0,0.8505947589874268
176.0,0.8486830592155457
192.0,0.8476197123527527
208.0,0.8459993004798889
224.0,0.8436317443847656
240.0,0.840968906879425
256.0,0.8366937041282654
288.0,0.8184206485748291
320.0,0.7979140877723694
352.0,0.7756643295288086
384.0,0.750674307346344
416.0,0.7265539169311523
448.0,0.7117149829864502
480.0,0.6972962617874146
512.0,0.6814757585525513
576.0,0.6425834894180298
640.0,0.5898297429084778
704.0,0.5405706763267517
768.0,0.4949502646923065
832.0,0.45015648007392883
896.0,0.39712104201316833
960.0,0.3526604473590851
1024.0,0.30750522017478943
1152.0,0.22497622668743134
1280.0,0.15484891831874847
1408.0,0.0898648202419281
1536.0,0.04329385980963707
1664.0,0.004838918801397085
1792.0,-0.009925764985382557
1920.0,-0.010564463213086128
2048.0,-0.008128703571856022
2304.0,-0.0013274368830025196
2560.0,-0.0005151244113221765
2816.0,-0.007114516105502844
3072.0,-0.013215906918048859
3328.0,-0.023722050711512566
3584.0,-0.02846870757639408
3840.0,-0.026338962838053703
4096.0,-0.029653474688529968
4608.0,-0.03014601580798626
5120.0,-0.039094503968954086
5632.0,-0.05700076371431351
6144.0,-0.05955405533313751
6656.0,-0.06502383947372437
7168.0,-0.07093240320682526
7680.0,-0.0917225182056427
8192.0,-0.10465718060731888
9216.0,-0.13461758196353912
10240.0,-0.18397049605846405
11264.0,-0.25650179386138916
12288.0,-0.32765206694602966
13312.0,-0.4197225272655487
14336.0,-0.7392625212669373
end
