version,3.0
numOfCh,1
type,point
parent_name,dirty_0dot4-0dot01
ch_type,1_1
kcount,1
numberNandB,1
brightnessNandB,1
carpet pos,0
pc,0
Time (ms),CH1 Auto-Correlation
1.0,0.21285410225391388
2.0,0.211728036403656
3.0,0.21062961220741272
4.0,0.20961453020572662
5.0,0.20861245691776276
6.0,0.20763815939426422
7.0,0.2067026048898697
8.0,0.20579750835895538
9.0,0.20496147871017456
10.0,0.20410484075546265
11.0,0.20325566828250885
12.0,0.20243065059185028
13.0,0.20163752138614655
14.0,0.2008628398180008
15.0,0.20009663701057434
16.0,0.19934654235839844
18.0,0.19796054065227509
20.0,0.19665159285068512
22.0,0.19539453089237213
24.0,0.1942182332277298
26.0,0.19321513175964355
28.0,0.1923234909772873
30.0,0.19147762656211853
32.0,0.1906571388244629
36.0,0.18907207250595093
40.0,0.18776388466358185
44.0,0.18654826283454895
48.0,0.1855311095714569
52.0,0.18469567596912384
56.0,0.18379509449005127
60.0,0.18278084695339203
64.0,0.18151803314685822
72.0,0.17884579300880432
80.0,0.17633689939975739
88.0,0.1742580384016037
96.0,0.17270168662071228
104.0,0.17156068980693817
112.0,0.1700957715511322
120.0,0.1685672551393509
128.0,0.16716453433036804
144.0,0.16360138356685638
160.0,0.16067473590373993
176.0,0.15797379612922668
192.0,0.1548955738544464
208.0,0.15206336975097656
224.0,0.14879931509494781
240.0,0.14538678526878357
256.0,0.14213846623897552
288.0,0.13490623235702515
320.0,0.1273643523454666
352.0,0.11928500235080719
384.0,0.11203839629888535
416.0,0.10238324105739594
448.0,0.0912240520119667
480.0,0.0793909877538681
512.0,0.0695289820432663
576.0,0.05343936011195183
640.0,0.04088759049773216
704.0,0.03255489096045494
768.0,0.02349737286567688
832.0,0.015116171911358833
896.0,0.008748287335038185
960.0,0.005183877423405647
1024.0,0.002186674391850829
1152.0,-0.005587082356214523
1280.0,-0.007663744501769543
1408.0,-0.00838734395802021
1536.0,-0.007468320429325104
1664.0,-0.003984865732491016
1792.0,-0.0022097378969192505
1920.0,-0.001720739295706153
2048.0,-0.0009269663714803755
2304.0,-0.004476167261600494
2560.0,-0.008625434711575508
2816.0,-0.013855480588972569
3072.0,-0.01778622344136238
3328.0,-0.013924057595431805
3584.0,-0.006918994709849358
3840.0,-0.0007268489571288228
4096.0,0.004952927120029926
4608.0,0.010887233540415764
5120.0,0.004752900451421738
5632.0,0.0034226789139211178
6144.0,0.0008584919851273298
6656.0,-0.02460184320807457
7168.0,-0.03767518699169159
7680.0,-0.004948536399751902
8192.0,0.017317065969109535
9216.0,0.0016307402402162552
10240.0,-0.009396647103130817
11264.0,-0.02106356993317604
12288.0,-0.05725053325295448
13312.0,-0.08143916726112366
14336.0,-0.1102917492389679
end
