version,3.0
numOfCh,1
type,point
parent_name,dirty_0dot4-0dot01
ch_type,1_1
kcount,1
numberNandB,1
brightnessNandB,1
carpet pos,0
pc,0
Time (ms),CH1 Auto-Correlation
1.0,0.35258564352989197
2.0,0.3519388437271118
3.0,0.35130712389945984
4.0,0.3506861627101898
5.0,0.35007989406585693
6.0,0.3494971990585327
7.0,0.34892797470092773
8.0,0.34836873412132263
9.0,0.3478239178657532
10.0,0.34727564454078674
11.0,0.34673768281936646
12.0,0.3461889326572418
13.0,0.3456483781337738
14.0,0.34511908888816833
15.0,0.34458625316619873
16.0,0.34407854080200195
18.0,0.3430362045764923
20.0,0.3419688940048218
22.0,0.3408918082714081
24.0,0.33978188037872314
26.0,0.33869755268096924
28.0,0.3376310169696808
30.0,0.3365779221057892
32.0,0.3355388641357422
36.0,0.33349961042404175
40.0,0.33143162727355957
44.0,0.3292955458164215
48.0,0.32717469334602356
52.0,0.3250572383403778
56.0,0.3229147493839264
60.0,0.32082119584083557
64.0,0.31873735785484314
72.0,0.31470298767089844
80.0,0.31079643964767456
88.0,0.3069238066673279
96.0,0.3029773533344269
104.0,0.2989048659801483
112.0,0.2946985960006714
120.0,0.29036274552345276
128.0,0.28620585799217224
144.0,0.2780117392539978
160.0,0.26988640427589417
176.0,0.2624996304512024
192.0,0.2555006444454193
208.0,0.24909014999866486
224.0,0.24291680753231049
240.0,0.23680086433887482
256.0,0.23082004487514496
288.0,0.21901042759418488
320.0,0.20851504802703857
352.0,0.19970618188381195
384.0,0.1914241760969162
416.0,0.1834590584039688
448.0,0.17705152928829193
480.0,0.171611949801445
512.0,0.16603833436965942
576.0,0.1584549993276596
640.0,0.1542903184890747
704.0,0.14572161436080933
768.0,0.13227222859859467
832.0,0.1190999373793602
896.0,0.10682674497365952
960.0,0.09657891094684601
1024.0,0.08356080204248428
1152.0,0.061378173530101776
1280.0,0.04535679146647453
1408.0,0.03750104829668999
1536.0,0.03842255473136902
1664.0,0.031966015696525574
1792.0,0.018842704594135284
1920.0,0.00047287074266932905
2048.0,-0.020869556814432144
2304.0,-0.018776359036564827
2560.0,-0.01472096424549818
2816.0,-0.021089499816298485
3072.0,-0.005827812943607569
3328.0,4.0214981709141284e-05
3584.0,-0.018155626952648163
3840.0,-0.025429531931877136
4096.0,-0.027239786460995674
4608.0,-0.08553873747587204
5120.0,-0.11162488162517548
5632.0,-0.11802441626787186
6144.0,-0.1039574146270752
6656.0,-0.07105452567338943
7168.0,-0.026331739500164986
7680.0,0.01810157485306263
8192.0,-0.0380171500146389
9216.0,-0.07330811023712158
10240.0,-0.055014338344335556
11264.0,-0.00861231330782175
12288.0,0.06483761221170425
13312.0,0.06191636249423027
14336.0,0.17474885284900665
end
