version,3.0
numOfCh,1
type,point
parent_name,dirty_0dot4-0dot01
ch_type,1_1
kcount,1
numberNandB,1
brightnessNandB,1
carpet pos,0
pc,0
Time (ms),CH1 Auto-Correlation
1.0,0.5331127643585205
2.0,0.5321139097213745
3.0,0.531172513961792
4.0,0.5302468538284302
5.0,0.5293333530426025
6.0,0.5284624099731445
7.0,0.5276346802711487
8.0,0.5268039703369141
9.0,0.526024341583252
10.0,0.5252625942230225
11.0,0.5245294570922852
12.0,0.5238041877746582
13.0,0.5231208205223083
14.0,0.5224390029907227
15.0,0.521813690662384
16.0,0.5211955308914185
18.0,0.520037829875946
20.0,0.5188928246498108
22.0,0.5177968740463257
24.0,0.5167198181152344
26.0,0.5155764818191528
28.0,0.514430046081543
30.0,0.513271152973175
32.0,0.5121419429779053
36.0,0.5101086497306824
40.0,0.5081637501716614
44.0,0.5061773061752319
48.0,0.5041959881782532
52.0,0.5020726919174194
56.0,0.4998955726623535
60.0,0.49769917130470276
64.0,0.49558332562446594
72.0,0.49145185947418213
80.0,0.4875801205635071
88.0,0.4838023781776428
96.0,0.4798332154750824
104.0,0.47597527503967285
112.0,0.47201818227767944
120.0,0.4683394730091095
128.0,0.4651316702365875
144.0,0.4600793421268463
160.0,0.4552416205406189
176.0,0.45029589533805847
192.0,0.4430769085884094
208.0,0.4347926080226898
224.0,0.4257713854312897
240.0,0.41653257608413696
256.0,0.4068426489830017
288.0,0.38564610481262207
320.0,0.36478614807128906
352.0,0.343534916639328
384.0,0.32200291752815247
416.0,0.3015989363193512
448.0,0.28094732761383057
480.0,0.26087185740470886
512.0,0.24106255173683167
576.0,0.19965074956417084
640.0,0.16912512481212616
704.0,0.1435871571302414
768.0,0.12317022681236267
832.0,0.11641427874565125
896.0,0.1164669319987297
960.0,0.1259005069732666
1024.0,0.14266270399093628
1152.0,0.17613989114761353
1280.0,0.21213553845882416
1408.0,0.22972941398620605
1536.0,0.23334598541259766
1664.0,0.21479877829551697
1792.0,0.1739712953567505
1920.0,0.12534049153327942
2048.0,0.08445712178945541
2304.0,0.02200687862932682
2560.0,-0.007338983938097954
2816.0,-0.02238762378692627
3072.0,-0.03977488726377487
3328.0,-0.049913641065359116
3584.0,-0.04672861844301224
3840.0,-0.03691353648900986
4096.0,-0.03225257247686386
4608.0,-0.03532988205552101
5120.0,-0.03150702267885208
5632.0,-0.05023486912250519
6144.0,-0.06366384774446487
6656.0,-0.0638580471277237
7168.0,-0.08008794486522675
7680.0,-0.08861242979764938
8192.0,-0.08360840380191803
9216.0,-0.10241156816482544
10240.0,-0.12398610264062881
11264.0,-0.15949545800685883
12288.0,-0.23476649820804596
13312.0,-0.17201678454875946
14336.0,-0.06646983325481415
end
