version,3.0
numOfCh,1
type,point
parent_name,dirty_0dot4-0dot01
ch_type,1_1
kcount,1
numberNandB,1
brightnessNandB,1
carpet pos,0
pc,0
Time (ms),CH1 Auto-Correlation
1.0,0.21967822313308716
2.0,0.21873076260089874
3.0,0.21782080829143524
4.0,0.21692875027656555
5.0,0.216061532497406
6.0,0.21520599722862244
7.0,0.2143581658601761
8.0,0.213544562458992
9.0,0.21274824440479279
10.0,0.21199694275856018
11.0,0.21124015748500824
12.0,0.2104930579662323
13.0,0.20977039635181427
14.0,0.20905247330665588
15.0,0.20837317407131195
16.0,0.20773020386695862
18.0,0.20650820434093475
20.0,0.20527760684490204
22.0,0.20403018593788147
24.0,0.2028408795595169
26.0,0.20174311101436615
28.0,0.200717031955719
30.0,0.19979318976402283
32.0,0.1988774687051773
36.0,0.1970197558403015
40.0,0.19513574242591858
44.0,0.1933535933494568
48.0,0.19173170626163483
52.0,0.19025273621082306
56.0,0.1887085884809494
60.0,0.1871248036623001
64.0,0.18546970188617706
72.0,0.18232478201389313
80.0,0.1791999340057373
88.0,0.1760912388563156
96.0,0.17321395874023438
104.0,0.1707066297531128
112.0,0.1682867705821991
120.0,0.16579054296016693
128.0,0.16338223218917847
144.0,0.15968258678913116
160.0,0.15491656959056854
176.0,0.15025591850280762
192.0,0.14596644043922424
208.0,0.14209987223148346
224.0,0.1383204609155655
240.0,0.13412612676620483
256.0,0.13022087514400482
288.0,0.12403112649917603
320.0,0.11721974611282349
352.0,0.11157432198524475
384.0,0.10620194673538208
416.0,0.10216571390628815
448.0,0.09812105447053909
480.0,0.0940541923046112
512.0,0.09101420640945435
576.0,0.08425724506378174
640.0,0.0782666727900505
704.0,0.0684693306684494
768.0,0.060311611741781235
832.0,0.059105150401592255
896.0,0.05620380491018295
960.0,0.05325803905725479
1024.0,0.04782155901193619
1152.0,0.04953210800886154
1280.0,0.05644611641764641
1408.0,0.06238185614347458
1536.0,0.061866823583841324
1664.0,0.04952610284090042
1792.0,0.0283365435898304
1920.0,0.01093212142586708
2048.0,0.005508584436029196
2304.0,-0.005499774124473333
2560.0,-0.00527213653549552
2816.0,0.013269520364701748
3072.0,0.024544835090637207
3328.0,0.019788486883044243
3584.0,0.02007513865828514
3840.0,0.012779000215232372
4096.0,-0.007602491416037083
4608.0,-0.045136816799640656
5120.0,-0.07199370115995407
5632.0,-0.08737943321466446
6144.0,-0.11569059640169144
6656.0,-0.06726688146591187
7168.0,-0.01870104856789112
7680.0,-0.050460781902074814
8192.0,-0.042764972895383835
9216.0,-0.061614420264959335
10240.0,-0.01728300377726555
11264.0,0.02110636793076992
12288.0,0.020534159615635872
13312.0,0.022668177261948586
14336.0,0.12162884324789047
end
