version,3.0
numOfCh,1
type,point
parent_name,dirty_0dot4-0dot01
ch_type,1_1
kcount,1
numberNandB,1
brightnessNandB,1
carpet pos,0
pc,0
Time (ms),CH1 Auto-Correlation
1.0,0.0696939080953598
2.0,0.06857262551784515
3.0,0.0675036832690239
4.0,0.06650163978338242
5.0,0.0655590146780014
6.0,0.06466876715421677
7.0,0.06385176628828049
8.0,0.0630773976445198
9.0,0.062337178736925125
10.0,0.061645183712244034
11.0,0.06099487841129303
12.0,0.06039169803261757
13.0,0.05980242043733597
14.0,0.0592622309923172
15.0,0.058745916932821274
16.0,0.05822214111685753
18.0,0.05720878019928932
20.0,0.056193023920059204
22.0,0.05521538108587265
24.0,0.05434013158082962
26.0,0.05358371511101723
28.0,0.05291716754436493
30.0,0.052263084799051285
32.0,0.05167684331536293
36.0,0.05064092203974724
40.0,0.049717795103788376
44.0,0.04880928248167038
48.0,0.04781029745936394
52.0,0.04681330546736717
56.0,0.04583771154284477
60.0,0.044909846037626266
64.0,0.04402048513293266
72.0,0.04226145148277283
80.0,0.04072954133152962
88.0,0.03958849236369133
96.0,0.038212865591049194
104.0,0.03684384375810623
112.0,0.03537439927458763
120.0,0.033917516469955444
128.0,0.032587647438049316
144.0,0.03035658970475197
160.0,0.0284624844789505
176.0,0.026270313188433647
192.0,0.024524597451090813
208.0,0.023706331849098206
224.0,0.022778311744332314
240.0,0.02213616482913494
256.0,0.021995916962623596
288.0,0.020033136010169983
320.0,0.018621595576405525
352.0,0.01699211075901985
384.0,0.014722772873938084
416.0,0.01287625078111887
448.0,0.011475559324026108
480.0,0.009816124103963375
512.0,0.008917475119233131
576.0,0.010479998774826527
640.0,0.013276061043143272
704.0,0.013263034634292126
768.0,0.01309235580265522
832.0,0.012353681959211826
896.0,0.01405362505465746
960.0,0.015056450851261616
1024.0,0.014929157681763172
1152.0,0.005929587408900261
1280.0,0.0031910657417029142
1408.0,-0.0009118806337937713
1536.0,-0.002648597350344062
1664.0,0.0010425407672300935
1792.0,0.0027012440841645002
1920.0,0.0053362539038062096
2048.0,0.007105300202965736
2304.0,0.001918275374919176
2560.0,0.0011819374049082398
2816.0,0.0003279547963757068
3072.0,0.00012516870629042387
3328.0,-0.0024063512682914734
3584.0,-0.0006206508842296898
3840.0,0.0018841439159587026
4096.0,0.003758094273507595
4608.0,0.0007618169765919447
5120.0,0.0004408912791404873
5632.0,-0.0071973190642893314
6144.0,-0.007010928820818663
6656.0,0.0011712184641510248
7168.0,-0.006429846864193678
7680.0,0.006866075564175844
8192.0,-0.003554799361154437
9216.0,-0.008813862688839436
10240.0,-0.014361677691340446
11264.0,-0.01114222127944231
12288.0,-0.007522021885961294
13312.0,-0.013116059824824333
14336.0,-0.027155999094247818
end
