version,3.0
numOfCh,1
type,point
parent_name,dirty_0dot4-0dot01
ch_type,1_1
kcount,1
numberNandB,1
brightnessNandB,1
carpet pos,0
pc,0
Time (ms),CH1 Auto-Correlation
1.0,0.33197125792503357
2.0,0.3307328522205353
3.0,0.3295360803604126
4.0,0.32834190130233765
5.0,0.32716459035873413
6.0,0.3259984254837036
7.0,0.3248405158519745
8.0,0.32375019788742065
9.0,0.32268497347831726
10.0,0.32164934277534485
11.0,0.32062482833862305
12.0,0.31962642073631287
13.0,0.318631112575531
14.0,0.3176988661289215
15.0,0.316792756319046
16.0,0.3158529996871948
18.0,0.31405138969421387
20.0,0.31228575110435486
22.0,0.3105824589729309
24.0,0.30889758467674255
26.0,0.30729904770851135
28.0,0.3057553470134735
30.0,0.30414512753486633
32.0,0.30246907472610474
36.0,0.298957884311676
40.0,0.2956080138683319
44.0,0.2923241853713989
48.0,0.28907454013824463
52.0,0.28587618470191956
56.0,0.28271806240081787
60.0,0.2798232436180115
64.0,0.2769595980644226
72.0,0.2712211310863495
80.0,0.26577073335647583
88.0,0.26060521602630615
96.0,0.25583913922309875
104.0,0.25064727663993835
112.0,0.2447492927312851
120.0,0.23917362093925476
128.0,0.23366180062294006
144.0,0.220975860953331
160.0,0.2084834724664688
176.0,0.19733567535877228
192.0,0.1891493797302246
208.0,0.18168357014656067
224.0,0.17451059818267822
240.0,0.1676439642906189
256.0,0.16089780628681183
288.0,0.14839673042297363
320.0,0.14026962220668793
352.0,0.13502638041973114
384.0,0.12768898904323578
416.0,0.12169400602579117
448.0,0.120877206325531
480.0,0.12002185732126236
512.0,0.11834168434143066
576.0,0.11652693897485733
640.0,0.1181187704205513
704.0,0.12205380946397781
768.0,0.11889387667179108
832.0,0.11309318244457245
896.0,0.10612493753433228
960.0,0.09962404519319534
1024.0,0.08953700959682465
1152.0,0.08427917212247849
1280.0,0.08117406070232391
1408.0,0.1044745221734047
1536.0,0.11590027809143066
1664.0,0.0831090584397316
1792.0,0.05154650658369064
1920.0,0.040833212435245514
2048.0,0.035496439784765244
2304.0,0.050261225551366806
2560.0,0.03520674630999565
2816.0,0.08335911482572556
3072.0,0.11924096941947937
3328.0,0.054379839450120926
3584.0,0.04812011122703552
3840.0,0.0741817057132721
4096.0,0.048007939010858536
4608.0,0.02791750617325306
5120.0,-0.036063581705093384
5632.0,-0.04042766988277435
6144.0,-0.05971541255712509
6656.0,-0.05779360607266426
7168.0,-0.05531948432326317
7680.0,-0.06066526472568512
8192.0,-0.051610250025987625
9216.0,-0.0952325314283371
10240.0,-0.13110697269439697
11264.0,-0.12310563772916794
12288.0,-0.12655512988567352
13312.0,-0.15262947976589203
14336.0,-0.1571062058210373
end
