version,3.0
numOfCh,1
type,point
parent_name,dirty_0dot4-0dot01
ch_type,1_1
kcount,1
numberNandB,1
brightnessNandB,1
carpet pos,0
pc,0
Time (ms),CH1 Auto-Correlation
1.0,0.31385907530784607
2.0,0.3129846453666687
3.0,0.31209442019462585
4.0,0.31122636795043945
5.0,0.31040263175964355
6.0,0.3095987141132355
7.0,0.30878815054893494
8.0,0.3080139458179474
9.0,0.3072687089443207
10.0,0.3065444529056549
11.0,0.3058378994464874
12.0,0.3051322102546692
13.0,0.3044503927230835
14.0,0.30374380946159363
15.0,0.3030461072921753
16.0,0.30232155323028564
18.0,0.300853431224823
20.0,0.29936906695365906
22.0,0.2979861795902252
24.0,0.29665231704711914
26.0,0.29537397623062134
28.0,0.2941611409187317
30.0,0.29297444224357605
32.0,0.29183781147003174
36.0,0.2896340787410736
40.0,0.28759506344795227
44.0,0.2856917679309845
48.0,0.2838803827762604
52.0,0.28219714760780334
56.0,0.2807105481624603
60.0,0.27925750613212585
64.0,0.27776023745536804
72.0,0.27481165528297424
80.0,0.27176031470298767
88.0,0.2688283920288086
96.0,0.26616591215133667
104.0,0.2634475827217102
112.0,0.26081618666648865
120.0,0.2584945857524872
128.0,0.2563810348510742
144.0,0.2519899010658264
160.0,0.24820318818092346
176.0,0.24511252343654633
192.0,0.241827592253685
208.0,0.23851388692855835
224.0,0.23607607185840607
240.0,0.23336637020111084
256.0,0.23057058453559875
288.0,0.2230154275894165
320.0,0.21441370248794556
352.0,0.20625892281532288
384.0,0.19544877111911774
416.0,0.18532881140708923
448.0,0.17525680363178253
480.0,0.1654609888792038
512.0,0.15496452152729034
576.0,0.1374906450510025
640.0,0.12468792498111725
704.0,0.11350599676370621
768.0,0.10274333506822586
832.0,0.09394852072000504
896.0,0.08532602339982986
960.0,0.07395213097333908
1024.0,0.065806545317173
1152.0,0.052703723311424255
1280.0,0.03107181377708912
1408.0,0.005448333919048309
1536.0,-0.00866767019033432
1664.0,-0.024019615724682808
1792.0,-0.032398391515016556
1920.0,-0.02787203900516033
2048.0,-0.021048298105597496
2304.0,0.023068122565746307
2560.0,0.06437139958143234
2816.0,0.09022928029298782
3072.0,0.0940539613366127
3328.0,0.08367326855659485
3584.0,0.07201658189296722
3840.0,0.0534801185131073
4096.0,0.028141623362898827
4608.0,-0.01830042339861393
5120.0,-0.02914130687713623
5632.0,-0.009510044008493423
6144.0,0.0016608384903520346
6656.0,-0.04454973712563515
7168.0,-0.09297508001327515
7680.0,-0.15692557394504547
8192.0,-0.15441210567951202
9216.0,-0.10044997930526733
10240.0,-0.059260644018650055
11264.0,-0.05753380432724953
12288.0,-0.0832294151186943
13312.0,-0.11828215420246124
14336.0,-0.020756930112838745
end
