version,3.0
numOfCh,1
type,point
parent_name,dirty_0dot4-0dot01
ch_type,1_1
kcount,1
numberNandB,1
brightnessNandB,1
carpet pos,0
pc,0
Time (ms),CH1 Auto-Correlation
1.0,0.3465750515460968
2.0,0.345648854970932
3.0,0.3447507619857788
4.0,0.34386909008026123
5.0,0.3429865837097168
6.0,0.34213995933532715
7.0,0.341289222240448
8.0,0.3404260277748108
9.0,0.3395816683769226
10.0,0.33875471353530884
11.0,0.3379412889480591
12.0,0.33714714646339417
13.0,0.3364036977291107
14.0,0.33567601442337036
15.0,0.3349563479423523
16.0,0.3342355787754059
18.0,0.3328026235103607
20.0,0.3314295709133148
22.0,0.33012089133262634
24.0,0.3288993537425995
26.0,0.32769402861595154
28.0,0.32647162675857544
30.0,0.32522904872894287
32.0,0.3239796459674835
36.0,0.32165154814720154
40.0,0.3193132281303406
44.0,0.31674858927726746
48.0,0.3140203356742859
52.0,0.31117236614227295
56.0,0.30823084712028503
60.0,0.3051949739456177
64.0,0.3022436201572418
72.0,0.29680362343788147
80.0,0.2919994294643402
88.0,0.28733280301094055
96.0,0.28312063217163086
104.0,0.2787047028541565
112.0,0.2743048667907715
120.0,0.27035120129585266
128.0,0.2666672170162201
144.0,0.25997722148895264
160.0,0.25308239459991455
176.0,0.24712428450584412
192.0,0.24197803437709808
208.0,0.23649358749389648
224.0,0.23189088702201843
240.0,0.22783032059669495
256.0,0.22266875207424164
288.0,0.2124238759279251
320.0,0.20135709643363953
352.0,0.1899195909500122
384.0,0.17771781980991364
416.0,0.16426031291484833
448.0,0.15272288024425507
480.0,0.1422206461429596
512.0,0.13055935502052307
576.0,0.10260545462369919
640.0,0.07712625712156296
704.0,0.05621669068932533
768.0,0.044234514236450195
832.0,0.036567479372024536
896.0,0.03333581984043121
960.0,0.027778858318924904
1024.0,0.01509764138609171
1152.0,0.007617393508553505
1280.0,0.002353245159611106
1408.0,-0.01261125411838293
1536.0,-0.022176604717969894
1664.0,-0.034088585525751114
1792.0,-0.04800078272819519
1920.0,-0.07219428569078445
2048.0,-0.08352601528167725
2304.0,-0.09329856187105179
2560.0,-0.10133431106805801
2816.0,-0.08598605543375015
3072.0,-0.061609186232089996
3328.0,-0.03533332049846649
3584.0,-0.027033731341362
3840.0,-0.04715188592672348
4096.0,-0.06061519309878349
4608.0,-0.06929825991392136
5120.0,-0.019491562619805336
5632.0,0.04836173355579376
6144.0,0.04179240018129349
6656.0,0.032238371670246124
7168.0,0.03624502569437027
7680.0,0.030944105237722397
8192.0,0.04083685204386711
9216.0,0.12571574747562408
10240.0,-0.11320655047893524
11264.0,-0.2164725512266159
12288.0,-0.002848738804459572
13312.0,0.11014164984226227
14336.0,0.03255471959710121
end
