version,3.0
numOfCh,1
type,point
parent_name,dirty_0dot4-0dot01
ch_type,1_1
kcount,1
numberNandB,1
brightnessNandB,1
carpet pos,0
pc,0
Time (ms),CH1 Auto-Correlation
1.0,0.05752084031701088
2.0,0.05641315504908562
3.0,0.05533041059970856
4.0,0.05430106073617935
5.0,0.053342536091804504
6.0,0.0524442084133625
7.0,0.05160561949014664
8.0,0.05079976096749306
9.0,0.050043001770973206
10.0,0.0493367575109005
11.0,0.04864354431629181
12.0,0.048014458268880844
13.0,0.04743964970111847
14.0,0.046845413744449615
15.0,0.04629067704081535
16.0,0.04577294737100601
18.0,0.044729430228471756
20.0,0.043777476996183395
22.0,0.04292762652039528
24.0,0.04210736230015755
26.0,0.04132922738790512
28.0,0.04060757905244827
30.0,0.03993198275566101
32.0,0.039305511862039566
36.0,0.03818809241056442
40.0,0.037133634090423584
44.0,0.035923782736063004
48.0,0.034737374633550644
52.0,0.03374475613236427
56.0,0.0330158956348896
60.0,0.0323791541159153
64.0,0.03168342262506485
72.0,0.03040829673409462
80.0,0.029425375163555145
88.0,0.028812138363718987
96.0,0.028230614960193634
104.0,0.027372097596526146
112.0,0.026776589453220367
120.0,0.026238122954964638
128.0,0.025473814457654953
144.0,0.024699194356799126
160.0,0.024902647361159325
176.0,0.02545163594186306
192.0,0.02483457699418068
208.0,0.024172170087695122
224.0,0.023511983454227448
240.0,0.02264794148504734
256.0,0.021301863715052605
288.0,0.019609782844781876
320.0,0.01910310797393322
352.0,0.017753543332219124
384.0,0.017254672944545746
416.0,0.018686568364501
448.0,0.01896052248775959
480.0,0.018920741975307465
512.0,0.01922648213803768
576.0,0.01977800391614437
640.0,0.019777914509177208
704.0,0.01853330060839653
768.0,0.018800964578986168
832.0,0.016594497486948967
896.0,0.014094253070652485
960.0,0.01379046868532896
1024.0,0.013399871066212654
1152.0,0.01588955521583557
1280.0,0.01745457574725151
1408.0,0.016956867650151253
1536.0,0.01435024943202734
1664.0,0.014324314892292023
1792.0,0.01665933057665825
1920.0,0.01939070224761963
2048.0,0.018983755260705948
2304.0,0.010342015884816647
2560.0,0.007301590405404568
2816.0,0.003283717902377248
3072.0,0.002786071505397558
3328.0,0.004697983153164387
3584.0,0.002159202005714178
3840.0,0.0037464832421392202
4096.0,0.0011244005290791392
4608.0,-0.002974843140691519
5120.0,-0.004760000389069319
5632.0,0.001196627039462328
6144.0,-0.0031349612399935722
6656.0,-0.004238164983689785
7168.0,-0.008688144385814667
7680.0,-0.0024071026127785444
8192.0,-0.006403112318366766
9216.0,-0.01194203831255436
10240.0,-0.019297020509839058
11264.0,-0.0218312107026577
12288.0,-0.029127752408385277
13312.0,-0.0271157193928957
14336.0,-0.016651161015033722
end
