version,3.0
numOfCh,1
type,point
parent_name,dirty_0dot4-0dot01
ch_type,1_1
kcount,1
numberNandB,1
brightnessNandB,1
carpet pos,0
pc,0
Time (ms),CH1 Auto-Correlation
1.0,0.0812470018863678
2.0,0.08011345565319061
3.0,0.07905369251966476
4.0,0.07802990078926086
5.0,0.07707123458385468
6.0,0.07614158093929291
7.0,0.07525605708360672
8.0,0.07441413402557373
9.0,0.07359915226697922
10.0,0.07283923029899597
11.0,0.0721038281917572
12.0,0.07142642140388489
13.0,0.07075762003660202
14.0,0.07007063180208206
15.0,0.06940413266420364
16.0,0.06875509023666382
18.0,0.06755582988262177
20.0,0.06640536338090897
22.0,0.0652737244963646
24.0,0.06422018259763718
26.0,0.06328297406435013
28.0,0.062485408037900925
30.0,0.061700209975242615
32.0,0.06104488670825958
36.0,0.05979738011956215
40.0,0.05868346989154816
44.0,0.05757630988955498
48.0,0.056456342339515686
52.0,0.055325355380773544
56.0,0.054273203015327454
60.0,0.05328730121254921
64.0,0.05225766822695732
72.0,0.050043318420648575
80.0,0.04793792963027954
88.0,0.04560835659503937
96.0,0.04330666363239288
104.0,0.041569359600543976
112.0,0.04016819968819618
120.0,0.03886299580335617
128.0,0.03704710304737091
144.0,0.033964019268751144
160.0,0.03212907910346985
176.0,0.030559739097952843
192.0,0.029287071898579597
208.0,0.0278550423681736
224.0,0.02715710923075676
240.0,0.026350349187850952
256.0,0.024896087124943733
288.0,0.021363424137234688
320.0,0.017194336280226707
352.0,0.014755413867533207
384.0,0.013235659338533878
416.0,0.01141429878771305
448.0,0.009926398284733295
480.0,0.0088183069601655
512.0,0.00738920085132122
576.0,0.005779712460935116
640.0,0.005832406226545572
704.0,0.002825841773301363
768.0,-0.0032791653648018837
832.0,-0.0070184883661568165
896.0,-0.006274028215557337
960.0,-0.003482905915006995
1024.0,-0.0038492970634251833
1152.0,-0.003786469344049692
1280.0,0.0004203679854981601
1408.0,0.002901016967371106
1536.0,0.0001849120162660256
1664.0,0.004574942868202925
1792.0,0.0038629279006272554
1920.0,0.002985582919791341
2048.0,-0.0011092154309153557
2304.0,-0.00033358580549247563
2560.0,-0.005993598606437445
2816.0,-0.009157986380159855
3072.0,-0.00386031367816031
3328.0,0.0011623749742284417
3584.0,0.006248378660529852
3840.0,0.0027188200037926435
4096.0,0.002738357987254858
4608.0,-0.0036336493212729692
5120.0,-0.009296408854424953
5632.0,-0.007929266430437565
6144.0,-0.002058933721855283
6656.0,-0.007340339478105307
7168.0,0.0008937175734899938
7680.0,-0.0021529041696339846
8192.0,-0.0063863457180559635
9216.0,-0.004047466907650232
10240.0,-0.0061759380623698235
11264.0,0.0021479115821421146
12288.0,0.004206335172057152
13312.0,0.00419059069827199
14336.0,0.005311632063239813
end
