version,3.0
numOfCh,1
type,point
parent_name,dirty_0dot4-0dot01
ch_type,1_1
kcount,1
numberNandB,1
brightnessNandB,1
carpet pos,0
pc,0
Time (ms),CH1 Auto-Correlation
1.0,0.24886366724967957
2.0,0.2480047047138214
3.0,0.2471293807029724
4.0,0.2462834268808365
5.0,0.24543574452400208
6.0,0.2446177750825882
7.0,0.2437855750322342
8.0,0.24296484887599945
9.0,0.24214468896389008
10.0,0.24135835468769073
11.0,0.24063275754451752
12.0,0.2399137169122696
13.0,0.23922930657863617
14.0,0.23854579031467438
15.0,0.23783324658870697
16.0,0.23714905977249146
18.0,0.23589466512203217
20.0,0.2347056269645691
22.0,0.23352353274822235
24.0,0.2323780506849289
26.0,0.23126573860645294
28.0,0.23024016618728638
30.0,0.22918911278247833
32.0,0.22810858488082886
36.0,0.22604435682296753
40.0,0.22405000030994415
44.0,0.22203536331653595
48.0,0.21992306411266327
52.0,0.21786925196647644
56.0,0.2159176915884018
60.0,0.21395181119441986
64.0,0.21184518933296204
72.0,0.20776963233947754
80.0,0.2036518007516861
88.0,0.1994432508945465
96.0,0.195635586977005
104.0,0.19255250692367554
112.0,0.1894049346446991
120.0,0.18593449890613556
128.0,0.18251650035381317
144.0,0.17670398950576782
160.0,0.17184536159038544
176.0,0.16787487268447876
192.0,0.16370506584644318
208.0,0.15891510248184204
224.0,0.1545855849981308
240.0,0.15072134137153625
256.0,0.14654505252838135
288.0,0.1385696679353714
320.0,0.13040538132190704
352.0,0.12229310721158981
384.0,0.11400400102138519
416.0,0.10605183988809586
448.0,0.09984854608774185
480.0,0.0951036587357521
512.0,0.0942625179886818
576.0,0.09851717203855515
640.0,0.09751327335834503
704.0,0.09216748923063278
768.0,0.08916757255792618
832.0,0.08738763630390167
896.0,0.08675723522901535
960.0,0.07824763655662537
1024.0,0.06018587946891785
1152.0,0.048697877675294876
1280.0,0.034599728882312775
1408.0,0.014429009519517422
1536.0,-0.0018613380379974842
1664.0,-0.013366872444748878
1792.0,-0.013547524809837341
1920.0,-0.023319989442825317
2048.0,-0.03283980116248131
2304.0,-0.048051588237285614
2560.0,-0.023260874673724174
2816.0,0.0034466702491045
3072.0,-0.008360720239579678
3328.0,0.010381861589848995
3584.0,0.050792988389730453
3840.0,0.047838322818279266
4096.0,0.03517737612128258
4608.0,0.01231247279793024
5120.0,-0.052414122968912125
5632.0,-0.07520747929811478
6144.0,-0.10112857073545456
6656.0,-0.09763795137405396
7168.0,-0.0752333551645279
7680.0,-0.06134866550564766
8192.0,-0.05643326789140701
9216.0,-0.06029549986124039
10240.0,-0.024439644068479538
11264.0,0.025254538282752037
12288.0,0.06873667985200882
13312.0,0.07821530848741531
14336.0,0.08858319371938705
end
