version,3.0
numOfCh,1
type,point
parent_name,dirty_0dot4-0dot01
ch_type,1_1
kcount,1
numberNandB,1
brightnessNandB,1
carpet pos,0
pc,0
Time (ms),CH1 Auto-Correlation
1.0,0.04225192219018936
2.0,0.04109105467796326
3.0,0.040014274418354034
4.0,0.03898368030786514
5.0,0.03802356496453285
6.0,0.037122130393981934
7.0,0.03626179322600365
8.0,0.03544832766056061
9.0,0.034672316163778305
10.0,0.03390328958630562
11.0,0.0331646129488945
12.0,0.03247654438018799
13.0,0.031819526106119156
14.0,0.03119104541838169
15.0,0.030598536133766174
16.0,0.030026517808437347
18.0,0.028987815603613853
20.0,0.02801157347857952
22.0,0.027086617425084114
24.0,0.026223521679639816
26.0,0.02535308711230755
28.0,0.02448122948408127
30.0,0.023697180673480034
32.0,0.0229664109647274
36.0,0.02156633697450161
40.0,0.020342664793133736
44.0,0.019219353795051575
48.0,0.018395977094769478
52.0,0.017597410827875137
56.0,0.0169491209089756
60.0,0.016331428661942482
64.0,0.015822118148207664
72.0,0.015002220869064331
80.0,0.014530749060213566
88.0,0.014084545895457268
96.0,0.013690058141946793
104.0,0.013182970695197582
112.0,0.012929552234709263
120.0,0.01237735990434885
128.0,0.01126981433480978
144.0,0.009579694829881191
160.0,0.00864650122821331
176.0,0.007259440142661333
192.0,0.006300212815403938
208.0,0.005951365921646357
224.0,0.005636622663587332
240.0,0.005709650926291943
256.0,0.006309655494987965
288.0,0.007082141004502773
320.0,0.007505970075726509
352.0,0.005866187624633312
384.0,0.004143380094319582
416.0,0.0020524540450423956
448.0,0.0025339860003441572
480.0,0.0020981484558433294
512.0,0.0017683121841400862
576.0,0.0016138204373419285
640.0,0.0018045860342681408
704.0,-0.0007965171243995428
768.0,-0.001979734282940626
832.0,-0.0004613271448761225
896.0,0.00023301767942029983
960.0,-0.0002767195401247591
1024.0,-0.0012304781703278422
1152.0,-0.003516522003337741
1280.0,-0.0050695473328232765
1408.0,-0.0044161491096019745
1536.0,-0.0027632529381662607
1664.0,-0.00200986722484231
1792.0,-0.0039318217895925045
1920.0,-0.00524936756119132
2048.0,-0.00436229957267642
2304.0,-0.0007062209770083427
2560.0,0.0020373750012367964
2816.0,0.002189631573855877
3072.0,-0.00033198713208548725
3328.0,0.002623730804771185
3584.0,0.002427153754979372
3840.0,-0.0015920228324830532
4096.0,-0.0020034704357385635
4608.0,-0.0016181356040760875
5120.0,-0.001555474940687418
5632.0,-0.001367242424748838
6144.0,0.0020604270976036787
6656.0,0.0013703732984140515
7168.0,0.001567049534060061
7680.0,3.330703839310445e-05
8192.0,-0.003572435351088643
9216.0,0.0041664945892989635
10240.0,-0.003367847763001919
11264.0,-0.0031614669132977724
12288.0,-0.0008756438037380576
13312.0,0.00011471809557406232
14336.0,0.0006807553581893444
end
