version,3.0
numOfCh,1
type,point
parent_name,fe81d_10dot0-0dot1
ch_type,1_1
kcount,1
numberNandB,1
brightnessNandB,1
carpet pos,0
pc,0
Time (ms),CH1 Auto-Correlation
1.0,0.02445363812148571
2.0,0.01709909178316593
3.0,0.013146073557436466
4.0,0.010108967311680317
5.0,0.008269887417554855
6.0,0.006893515586853027
7.0,0.005837628152221441
8.0,0.0047206212766468525
9.0,0.004406210966408253
10.0,0.0041474029421806335
11.0,0.004290520679205656
12.0,0.00410943478345871
13.0,0.003822857281193137
14.0,0.003545713610947132
15.0,0.0035960290115326643
16.0,0.0031442868057638407
18.0,0.002577093429863453
20.0,0.0024745140690356493
22.0,0.0021015999373048544
24.0,0.0014593724627047777
26.0,0.0011493214406073093
28.0,0.0010042069479823112
30.0,0.0011331698624417186
32.0,0.0011686960933730006
36.0,0.0008870974997989833
40.0,0.0006960752070881426
44.0,0.0008505310979671776
48.0,0.0011751126730814576
52.0,0.001523530692793429
56.0,0.0009189876727759838
60.0,0.0007482707733288407
64.0,0.0008855851483531296
72.0,0.0003572996356524527
80.0,0.0005631254753097892
88.0,-8.931359479902312e-05
96.0,0.00021678626944776624
104.0,0.0003674352774396539
112.0,-0.0001910643622977659
120.0,0.0001050392456818372
128.0,-0.0005342558724805713
144.0,-0.0002778363414108753
160.0,0.00031786205363459885
176.0,0.00028320812270976603
192.0,-3.285639832029119e-05
208.0,0.00014228405780158937
224.0,0.0003500357852317393
240.0,-0.00015789353346917778
256.0,0.0003123742062598467
288.0,0.0005448919837363064
320.0,0.0005143141024746001
352.0,0.0006794796790927649
384.0,0.0006274918559938669
416.0,-0.00022123062808532268
448.0,-0.0001731240190565586
480.0,-0.0002966939646285027
512.0,-0.0004672803624998778
576.0,0.00023341165797319263
640.0,0.0003328427264932543
704.0,0.00010612563346512616
768.0,-0.0005336765316314995
832.0,-0.0006114607094787061
896.0,-0.0004295210528653115
960.0,-0.00026967874146066606
1024.0,0.00022905028890818357
1152.0,-0.00037013512337580323
1280.0,-8.687839726917446e-05
1408.0,1.2628128388314508e-05
1536.0,-7.246749009937048e-05
1664.0,-0.00010083210509037599
1792.0,0.0001923709933180362
1920.0,0.0004772509855683893
2048.0,7.577203359687701e-05
2304.0,-0.0002013589401030913
2560.0,-5.601350039796671e-06
2816.0,-0.00014217765419743955
3072.0,-0.000125696838949807
3328.0,-0.00015883505693636835
3584.0,0.00030260332277975976
3840.0,8.605883340351284e-05
4096.0,3.61802194674965e-05
4608.0,0.00014065417053643614
5120.0,-0.0002214964770246297
5632.0,1.2917218555230647e-05
6144.0,0.0002521153655834496
6656.0,-0.00011303120845695958
7168.0,-0.00015961637836880982
7680.0,-9.486197086516768e-05
8192.0,0.00023912530741654336
end
