version,3.0
numOfCh,1
type,point
parent_name,4-cuts
ch_type,1_1
kcount,1
numberNandB,1
brightnessNandB,1
carpet pos,0
pc,0
Time (ms),CH1 Auto-Correlation
1.0,0.09469971805810928
2.0,0.08793970197439194
3.0,0.0821731835603714
4.0,0.0772169977426529
5.0,0.07283519953489304
6.0,0.06901395320892334
7.0,0.06566683202981949
8.0,0.06263820081949234
9.0,0.059875842183828354
10.0,0.05733060836791992
11.0,0.054905232042074203
12.0,0.05250748619437218
13.0,0.050193991512060165
14.0,0.04818711802363396
15.0,0.04617994278669357
16.0,0.04437509924173355
18.0,0.0416128896176815
20.0,0.039299674332141876
22.0,0.03747524321079254
24.0,0.035960037261247635
26.0,0.034299273043870926
28.0,0.03241485357284546
30.0,0.03074699640274048
32.0,0.029124442487955093
36.0,0.02617652341723442
40.0,0.02391967549920082
44.0,0.021961338818073273
48.0,0.020789096131920815
52.0,0.019780322909355164
56.0,0.01833253726363182
60.0,0.016424812376499176
64.0,0.015111351385712624
72.0,0.012680848129093647
80.0,0.010767295956611633
88.0,0.008889265358448029
96.0,0.008497250266373158
104.0,0.00813275296241045
112.0,0.008149451576173306
120.0,0.008459865115582943
128.0,0.007221587467938662
144.0,0.00874731782823801
160.0,0.011122358031570911
176.0,0.01142208743840456
192.0,0.012742077000439167
208.0,0.013910159468650818
224.0,0.011194956488907337
240.0,0.01050108764320612
256.0,0.010244251228868961
288.0,0.005279960576444864
320.0,0.004320701118558645
352.0,0.0023023791145533323
384.0,0.002315928228199482
416.0,0.003543442115187645
448.0,0.0026107490994036198
480.0,0.0011230045929551125
512.0,0.0006205599056556821
576.0,0.0023790362756699324
640.0,-1.1951410670008045e-05
704.0,-0.0031370024662464857
768.0,-0.0031005123164504766
832.0,-0.00471111387014389
896.0,-0.004202847369015217
960.0,-0.0067743705585598946
1024.0,-0.006741869263350964
1152.0,-0.004343465901911259
1280.0,-0.00574200414121151
1408.0,-0.005734593141824007
1536.0,-0.002851446159183979
1664.0,-0.0009546022047288716
1792.0,-0.0018946994096040726
1920.0,-0.0010985822882503271
2048.0,-0.0016129345167428255
2304.0,0.0028776174876838923
2560.0,0.0023617895785719156
2816.0,0.0010635916842147708
3072.0,0.001714053563773632
3328.0,-0.0016557849012315273
3584.0,-0.004761113785207272
3840.0,-0.0028217702638357878
4096.0,-0.002901708008721471
4608.0,-0.0002509720507077873
5120.0,-0.0020721405744552612
5632.0,-0.004049220588058233
6144.0,0.001070716418325901
6656.0,0.005112642887979746
7168.0,0.002742151264101267
7680.0,-0.0009794487850740552
8192.0,-0.0035074870102107525
9216.0,0.006799466907978058
10240.0,-0.0016635562060400844
11264.0,0.000583731394726783
12288.0,-0.004195838235318661
13312.0,-0.0016912230057641864
14336.0,-0.002153742592781782
end
