version,3.0
numOfCh,1
type,point
parent_name,4-cuts
ch_type,1_1
kcount,1
numberNandB,1
brightnessNandB,1
carpet pos,0
pc,0
Time (ms),CH1 Auto-Correlation
1.0,0.08480078727006912
2.0,0.07800444215536118
3.0,0.07220470160245895
4.0,0.06723179668188095
5.0,0.06304243206977844
6.0,0.05969108268618584
7.0,0.056860607117414474
8.0,0.05416829511523247
9.0,0.051568374037742615
10.0,0.04926262050867081
11.0,0.0471796840429306
12.0,0.04536284878849983
13.0,0.04364313557744026
14.0,0.04184775799512863
15.0,0.04017290472984314
16.0,0.038664404302835464
18.0,0.03645602986216545
20.0,0.03418034315109253
22.0,0.03219735622406006
24.0,0.030677033588290215
26.0,0.02895432710647583
28.0,0.027148257941007614
30.0,0.02570854313671589
32.0,0.02449055388569832
36.0,0.021499531343579292
40.0,0.01894756220281124
44.0,0.01730186492204666
48.0,0.016197584569454193
52.0,0.015265404246747494
56.0,0.014024241827428341
60.0,0.01268143579363823
64.0,0.010798344388604164
72.0,0.0095665343105793
80.0,0.009075713343918324
88.0,0.009110504761338234
96.0,0.009850728325545788
104.0,0.009089849889278412
112.0,0.007936464622616768
120.0,0.007223956286907196
128.0,0.006175838876515627
144.0,0.005079013295471668
160.0,0.004568628966808319
176.0,0.004018015693873167
192.0,0.0009477954590693116
208.0,-0.001865303609520197
224.0,-0.001826892956160009
240.0,0.0006459642900153995
256.0,0.0004836559237446636
288.0,0.0003725808346644044
320.0,-0.0014163998421281576
352.0,-0.0023012561723589897
384.0,-0.0027868743054568768
416.0,-0.0014323706272989511
448.0,-0.00255985208787024
480.0,-0.002799056004732847
512.0,-0.00229053245857358
576.0,-0.0007024168153293431
640.0,-0.005792559590190649
704.0,-0.005795470904558897
768.0,-0.0008717516902834177
832.0,-0.0006996506126597524
896.0,0.0028395792469382286
960.0,0.0006038028514012694
1024.0,0.0015677589690312743
1152.0,-0.004748601466417313
1280.0,-0.004177638795226812
1408.0,0.002646628301590681
1536.0,0.004309153649955988
1664.0,-0.0002943543659057468
1792.0,-0.0011962557910010219
1920.0,0.0007872901624068618
2048.0,-0.0031459254678338766
2304.0,0.0005128731136210263
2560.0,-0.0010606636060401797
2816.0,-0.0007105710101313889
3072.0,0.00020239304285496473
3328.0,-0.0003349001344759017
3584.0,0.0025952914729714394
3840.0,0.0028050297405570745
4096.0,-0.00034518056781962514
4608.0,-0.0022170336451381445
5120.0,-0.0009115120046772063
5632.0,-0.003229050897061825
6144.0,-0.0006345168221741915
6656.0,0.002751487772911787
7168.0,0.0012779937824234366
7680.0,-0.0013644880382344127
8192.0,-0.0012902992311865091
9216.0,-0.0010607914300635457
10240.0,0.004698233213275671
11264.0,-0.0012417975813150406
12288.0,-0.0009763671550899744
13312.0,0.0014619010034948587
14336.0,-0.003547763219103217
end
