version,3.0
numOfCh,1
type,point
parent_name,4-cuts
ch_type,1_1
kcount,1
numberNandB,1
brightnessNandB,1
carpet pos,0
pc,0
Time (ms),CH1 Auto-Correlation
1.0,0.04316026344895363
2.0,0.03992641344666481
3.0,0.03723207861185074
4.0,0.034843459725379944
5.0,0.03272050991654396
6.0,0.03080197609961033
7.0,0.02897975593805313
8.0,0.02738957852125168
9.0,0.02591012977063656
10.0,0.024609742686152458
11.0,0.023414209485054016
12.0,0.022435491904616356
13.0,0.021505462005734444
14.0,0.020564213395118713
15.0,0.019687872380018234
16.0,0.018918903544545174
18.0,0.017599595710635185
20.0,0.01634359359741211
22.0,0.015250513330101967
24.0,0.014246270060539246
26.0,0.01348770409822464
28.0,0.012711169198155403
30.0,0.012116343714296818
32.0,0.011686098761856556
36.0,0.011008087545633316
40.0,0.010258764959871769
44.0,0.009843197651207447
48.0,0.009770674630999565
52.0,0.009482457302510738
56.0,0.008848503232002258
60.0,0.008248550817370415
64.0,0.007418334484100342
72.0,0.006500073708593845
80.0,0.005689793266355991
88.0,0.004935141187161207
96.0,0.004475733265280724
104.0,0.0036082968581467867
112.0,0.0028357880655676126
120.0,0.0017511217156425118
128.0,0.0018368948949500918
144.0,0.002019071253016591
160.0,0.0023484728299081326
176.0,0.0035454793833196163
192.0,0.004499522037804127
208.0,0.0038204307202249765
224.0,0.0033178371377289295
240.0,0.0035125641152262688
256.0,0.004196401219815016
288.0,0.003981673624366522
320.0,0.001449671108275652
352.0,-0.0001910743158077821
384.0,-0.002223860239610076
416.0,-0.003140716115012765
448.0,-0.0016171308234333992
480.0,-0.0021363496780395508
512.0,-0.001252509537152946
576.0,-0.001100394525565207
640.0,-0.0005975552485324442
704.0,-0.0006436826661229134
768.0,-0.001807807362638414
832.0,-0.0014138330006971955
896.0,-1.1356953109498136e-05
960.0,-0.0011873209150508046
1024.0,-0.0015726482961326838
1152.0,0.0003241991507820785
1280.0,-0.00012034337851218879
1408.0,0.001122735207900405
1536.0,0.0017793243750929832
1664.0,0.00037884904304519296
1792.0,0.00026894136681221426
1920.0,0.0017677072901278734
2048.0,0.0013187151635065675
2304.0,-0.001442351727746427
2560.0,-0.0030727616976946592
2816.0,-0.001839686301536858
3072.0,0.0012911937665194273
3328.0,0.00209293095394969
3584.0,0.001647273893468082
3840.0,0.0011669878149405122
4096.0,-0.0002469583705533296
4608.0,0.0004588757874444127
5120.0,0.0011520616244524717
5632.0,-0.002126005245372653
6144.0,-0.001672891085036099
6656.0,0.0015760391252115369
7168.0,-0.00035246473271399736
7680.0,-0.0013451521517708898
8192.0,0.0016459618927910924
9216.0,-0.0008593093953095376
10240.0,-0.0006486239726655185
11264.0,-0.001029994455166161
12288.0,-0.0008683871710672975
13312.0,-0.0010060789063572884
14336.0,-0.00048040738329291344
end
