version,3.0
numOfCh,1
type,point
parent_name,4-cuts
ch_type,1_1
kcount,1
numberNandB,1
brightnessNandB,1
carpet pos,0
pc,0
Time (ms),CH1 Auto-Correlation
1.0,0.09113419055938721
2.0,0.0844370499253273
3.0,0.07887789607048035
4.0,0.07397159188985825
5.0,0.06978373974561691
6.0,0.066158227622509
7.0,0.06280151754617691
8.0,0.05992208048701286
9.0,0.057350125163793564
10.0,0.054747264832258224
11.0,0.052294906228780746
12.0,0.04993843659758568
13.0,0.04789000377058983
14.0,0.046211063861846924
15.0,0.04444596916437149
16.0,0.0428176186978817
18.0,0.039922311902046204
20.0,0.0376218780875206
22.0,0.0355352908372879
24.0,0.03352333977818489
26.0,0.03125736489892006
28.0,0.029261652380228043
30.0,0.028331536799669266
32.0,0.027791010215878487
36.0,0.025638582184910774
40.0,0.023015256971120834
44.0,0.02166234888136387
48.0,0.020227214321494102
52.0,0.018977809697389603
56.0,0.018234271556138992
60.0,0.017335442826151848
64.0,0.016354963183403015
72.0,0.013998327776789665
80.0,0.01150287501513958
88.0,0.009076183661818504
96.0,0.008295937441289425
104.0,0.009156811982393265
112.0,0.009621592238545418
120.0,0.008032838813960552
128.0,0.006726635619997978
144.0,0.006939338985830545
160.0,0.008069247007369995
176.0,0.0067074536345899105
192.0,0.005426130257546902
208.0,0.004812100902199745
224.0,0.0044445861130952835
240.0,0.0027079281862825155
256.0,0.0028101089410483837
288.0,0.004387665074318647
320.0,0.004490183666348457
352.0,0.00688130734488368
384.0,0.006959026213735342
416.0,0.004244965501129627
448.0,0.0008693250711075962
480.0,0.0030337341595441103
512.0,0.0013372000539675355
576.0,-0.0010249661281704903
640.0,-0.0009193338337354362
704.0,0.003352781990543008
768.0,0.00633615255355835
832.0,0.0026445742696523666
896.0,0.0006628686678595841
960.0,-0.0015216371975839138
1024.0,0.0011897626100108027
1152.0,0.0012690689181908965
1280.0,0.001092646038159728
1408.0,0.0017536144005134702
1536.0,0.0049256510101258755
1664.0,0.0009432038641534746
1792.0,0.001797693083062768
1920.0,0.0007595798233523965
2048.0,0.002540954854339361
2304.0,0.0015621586935594678
2560.0,-0.0034983186051249504
2816.0,-0.003659050213173032
3072.0,-0.0027786630671471357
3328.0,-0.0011817438062280416
3584.0,0.00141452148091048
3840.0,-0.001978798769414425
4096.0,-0.002237338572740555
4608.0,-0.0021581812761723995
5120.0,-0.0019301988650113344
5632.0,0.0009760685497894883
6144.0,-0.0031278079841285944
6656.0,-0.0018224373925477266
7168.0,-0.0031852663960307837
7680.0,-0.005441443063318729
8192.0,-0.004614559467881918
9216.0,0.0008805273682810366
10240.0,0.000736243324354291
11264.0,0.0019993314053863287
12288.0,0.0029525733552873135
13312.0,0.0011422587558627129
14336.0,-0.0028514154255390167
end
