version,3.0
numOfCh,1
type,point
parent_name,4-cuts
ch_type,1_1
kcount,1
numberNandB,1
brightnessNandB,1
carpet pos,0
pc,0
Time (ms),CH1 Auto-Correlation
1.0,0.0994245633482933
2.0,0.09210365265607834
3.0,0.0855906754732132
4.0,0.0800764262676239
5.0,0.07548131793737411
6.0,0.07146023958921432
7.0,0.067631796002388
8.0,0.06407856196165085
9.0,0.06096677482128143
10.0,0.058338604867458344
11.0,0.05589524284005165
12.0,0.05381874367594719
13.0,0.0515485554933548
14.0,0.049307242035865784
15.0,0.04718061909079552
16.0,0.0452430360019207
18.0,0.04217556491494179
20.0,0.039683133363723755
22.0,0.03731951862573624
24.0,0.03541530668735504
26.0,0.03418164700269699
28.0,0.03304104879498482
30.0,0.032395314425230026
32.0,0.031974419951438904
36.0,0.031027164310216904
40.0,0.029861098155379295
44.0,0.028608372434973717
48.0,0.027248721569776535
52.0,0.02668376825749874
56.0,0.027566272765398026
60.0,0.02771642804145813
64.0,0.026583148166537285
72.0,0.02421748638153076
80.0,0.021878758445382118
88.0,0.01867757923901081
96.0,0.01743372716009617
104.0,0.016932029277086258
112.0,0.01672670617699623
120.0,0.016334114596247673
128.0,0.01526713091880083
144.0,0.011196168139576912
160.0,0.00666431151330471
176.0,0.007068165112286806
192.0,0.006208634003996849
208.0,0.003138382686302066
224.0,0.002025910187512636
240.0,0.00023680790036451072
256.0,0.0010142929386347532
288.0,-0.0013147901045158505
320.0,-0.0014320971677079797
352.0,-0.004958967212587595
384.0,-0.005166178103536367
416.0,-0.004413822200149298
448.0,-0.005986296106129885
480.0,-0.008439487777650356
512.0,-0.005973173305392265
576.0,-0.003603454912081361
640.0,0.00018014019588008523
704.0,0.005071546416729689
768.0,0.004400875419378281
832.0,0.0026830893475562334
896.0,0.004078468307852745
960.0,0.004484016913920641
1024.0,0.0043805488385260105
1152.0,0.0035702786408364773
1280.0,-0.002613118151202798
1408.0,-0.010172277688980103
1536.0,-0.0038097721990197897
1664.0,0.004743610974401236
1792.0,0.00927048921585083
1920.0,0.00865324679762125
2048.0,0.0012318959925323725
2304.0,-0.0015179587062448263
2560.0,-0.0004711259389296174
2816.0,0.0053560384549200535
3072.0,0.0031067593954503536
3328.0,-0.004146364983171225
3584.0,0.000409953820053488
3840.0,0.00677351001650095
4096.0,0.006488110404461622
4608.0,-0.0025533142033964396
5120.0,0.0008569046622142196
5632.0,0.0013839046005159616
6144.0,0.001749427174217999
6656.0,-0.003410359611734748
7168.0,0.000820046872831881
7680.0,-0.001071659498848021
8192.0,-0.006842933129519224
9216.0,-0.0019426090875640512
10240.0,-0.0021240664646029472
11264.0,-0.006057261023670435
12288.0,9.710263111628592e-05
13312.0,-0.004543389659374952
14336.0,-0.010362561792135239
end
