version,3.0
numOfCh,1
type,point
parent_name,4-cuts
ch_type,1_1
kcount,1
numberNandB,1
brightnessNandB,1
carpet pos,0
pc,0
Time (ms),CH1 Auto-Correlation
1.0,0.09436242282390594
2.0,0.0871381089091301
3.0,0.0808495581150055
4.0,0.07534457743167877
5.0,0.07037735730409622
6.0,0.06617014110088348
7.0,0.06243903189897537
8.0,0.05889957770705223
9.0,0.055699799209833145
10.0,0.052932776510715485
11.0,0.05034491792321205
12.0,0.04804882034659386
13.0,0.04610397666692734
14.0,0.043981943279504776
15.0,0.04201092943549156
16.0,0.040440164506435394
18.0,0.037720952183008194
20.0,0.0350443497300148
22.0,0.03273015469312668
24.0,0.030574629083275795
26.0,0.028337936848402023
28.0,0.025777846574783325
30.0,0.023507464677095413
32.0,0.022053731605410576
36.0,0.019916020333766937
40.0,0.018572263419628143
44.0,0.01732753776013851
48.0,0.015457641333341599
52.0,0.013295005075633526
56.0,0.011608341708779335
60.0,0.01055025402456522
64.0,0.009441043250262737
72.0,0.008726070635020733
80.0,0.006902466993778944
88.0,0.006757034454494715
96.0,0.005373424384742975
104.0,0.006102168001234531
112.0,0.006349343340843916
120.0,0.00535837234929204
128.0,0.0041408478282392025
144.0,0.006540113594383001
160.0,0.008767710067331791
176.0,0.009431942366063595
192.0,0.004094797186553478
208.0,0.0003355669614393264
224.0,0.0019852241966873407
240.0,-4.1085808334173635e-05
256.0,-0.0010278965346515179
288.0,0.002650273498147726
320.0,0.0044402447529137135
352.0,0.0043130978010594845
384.0,0.004375356715172529
416.0,0.0002675767464097589
448.0,-0.0009415187523700297
480.0,-0.0019388580694794655
512.0,0.00022749003255739808
576.0,0.0039955549873411655
640.0,0.00223125284537673
704.0,0.004064939916133881
768.0,0.003517714561894536
832.0,0.006782259792089462
896.0,0.004601696506142616
960.0,0.0007381715113297105
1024.0,-5.348918057279661e-05
1152.0,-0.003302879398688674
1280.0,-0.0013647526502609253
1408.0,-0.001361737260594964
1536.0,-0.0004228482430335134
1664.0,-0.0008866059361025691
1792.0,0.00326407328248024
1920.0,-0.00030089676147326827
2048.0,-0.0004094576870556921
2304.0,-0.00022250499750953168
2560.0,-0.001124188187532127
2816.0,-0.0024946797639131546
3072.0,-0.002344326814636588
3328.0,-0.005883207079023123
3584.0,-0.002495386404916644
3840.0,-0.0016725953901186585
4096.0,-0.0015416194219142199
4608.0,-0.001337940338999033
5120.0,-0.0016636884538456798
5632.0,0.0014572101645171642
6144.0,0.0040780361741781235
6656.0,0.0031024364288896322
7168.0,-8.360890205949545e-05
7680.0,0.00026300514582544565
8192.0,0.0008209511288441718
9216.0,-0.004812763538211584
10240.0,-0.002745510544627905
11264.0,-0.001640208764001727
12288.0,0.00495303375646472
13312.0,0.00503647793084383
14336.0,-0.0031641595996916294
end
