version,3.0
numOfCh,1
type,point
parent_name,4-cuts
ch_type,1_1
kcount,1
numberNandB,1
brightnessNandB,1
carpet pos,0
pc,0
Time (ms),CH1 Auto-Correlation
1.0,0.0410795733332634
2.0,0.037908539175987244
3.0,0.03516082838177681
4.0,0.03274640440940857
5.0,0.0306855496019125
6.0,0.0289334487169981
7.0,0.027363434433937073
8.0,0.025970008224248886
9.0,0.02472352236509323
10.0,0.023512672632932663
11.0,0.02237337827682495
12.0,0.021262062713503838
13.0,0.02033751644194126
14.0,0.01949499547481537
15.0,0.018623070791363716
16.0,0.01783842220902443
18.0,0.016486579552292824
20.0,0.015339259058237076
22.0,0.014191165566444397
24.0,0.01303736213594675
26.0,0.01197715662419796
28.0,0.011093320325016975
30.0,0.010426223278045654
32.0,0.009828113950788975
36.0,0.008767605759203434
40.0,0.007633237633854151
44.0,0.006665396969765425
48.0,0.006184715311974287
52.0,0.006114767398685217
56.0,0.005978784523904324
60.0,0.005570595618337393
64.0,0.005351164378225803
72.0,0.004656953737139702
80.0,0.004005424212664366
88.0,0.003129754913970828
96.0,0.0023264021147042513
104.0,0.0018926127813756466
112.0,0.0023426671978086233
120.0,0.003258089069277048
128.0,0.00344396336004138
144.0,0.0027550950180739164
160.0,0.0021914110984653234
176.0,0.0024361414834856987
192.0,0.0021723590325564146
208.0,0.002226448617875576
224.0,0.0017721857875585556
240.0,0.0012104184133931994
256.0,0.0006108266534283757
288.0,0.00016059364133980125
320.0,0.00016428546223323792
352.0,0.0006207015831023455
384.0,-0.0013092972803860903
416.0,-0.0021078146528452635
448.0,-0.0012429254129529
480.0,-0.0003093073610216379
512.0,-0.0007207836606539786
576.0,-0.0013224395224824548
640.0,-0.001039986265823245
704.0,-0.0007324031321331859
768.0,-0.0022891985718160868
832.0,-0.001785920700058341
896.0,-0.00030002251151017845
960.0,0.0002921496343333274
1024.0,-0.0024253949522972107
1152.0,0.0001075931140803732
1280.0,0.0001500407379353419
1408.0,0.00042856286745518446
1536.0,0.001430294825695455
1664.0,0.0012706615962088108
1792.0,-0.00018354551866650581
1920.0,-0.0007053845911286771
2048.0,-0.00048178783617913723
2304.0,-0.0005377708585001528
2560.0,-0.0017999480478465557
2816.0,-0.0016430437099188566
3072.0,-0.0001614617503946647
3328.0,3.541166370268911e-05
3584.0,0.0005299465847201645
3840.0,0.0008590697543695569
4096.0,-0.00034650988527573645
4608.0,-0.0002571443619672209
5120.0,0.0012865717289969325
5632.0,0.00041301155579276383
6144.0,-0.0004392884729895741
6656.0,-0.001014702138490975
7168.0,-0.0001750416267896071
7680.0,-0.00010671414929674938
8192.0,-0.00032295030541718006
9216.0,0.0003150051343254745
10240.0,-0.0009087969665415585
11264.0,0.0010237960377708077
12288.0,-0.00019654020434245467
13312.0,-0.0006405648309737444
14336.0,0.00117325852625072
end
