version,3.0
numOfCh,1
type,point
parent_name,4-cuts
ch_type,1_1
kcount,1
numberNandB,1
brightnessNandB,1
carpet pos,0
pc,0
Time (ms),CH1 Auto-Correlation
1.0,0.0842042788863182
2.0,0.07724199444055557
3.0,0.07152964174747467
4.0,0.06666094809770584
5.0,0.06235886365175247
6.0,0.05856505036354065
7.0,0.05522824451327324
8.0,0.05235821381211281
9.0,0.05000483989715576
10.0,0.04775887355208397
11.0,0.04550660774111748
12.0,0.043244827538728714
13.0,0.04115564376115799
14.0,0.03917461633682251
15.0,0.037521906197071075
16.0,0.03600054234266281
18.0,0.03392423316836357
20.0,0.032054703682661057
22.0,0.03005240298807621
24.0,0.0287067499011755
26.0,0.02741807885468006
28.0,0.026495829224586487
30.0,0.025581447407603264
32.0,0.024769926443696022
36.0,0.022807205095887184
40.0,0.02051977999508381
44.0,0.018698839470744133
48.0,0.01705671101808548
52.0,0.015389075502753258
56.0,0.01433844119310379
60.0,0.013716569170355797
64.0,0.013491311110556126
72.0,0.012146190740168095
80.0,0.010867081582546234
88.0,0.01038889680057764
96.0,0.010741442441940308
104.0,0.010087462142109871
112.0,0.007892467081546783
120.0,0.007282125297933817
128.0,0.0066514695063233376
144.0,0.006485115271061659
160.0,0.004411068744957447
176.0,0.004146022256463766
192.0,0.002846615621820092
208.0,0.0011841290397569537
224.0,0.001443564658984542
240.0,0.0017025787383317947
256.0,0.002623386913910508
288.0,0.0035574098583310843
320.0,0.004801855888217688
352.0,0.0023782330099493265
384.0,0.0013591821771115065
416.0,0.004301188047975302
448.0,0.00415843166410923
480.0,0.004747059661895037
512.0,0.005211326759308577
576.0,0.0016212704358622432
640.0,-4.111203088541515e-05
704.0,0.00196415395475924
768.0,-0.0015889568021520972
832.0,-0.002785279881209135
896.0,-0.003887222846969962
960.0,-0.0006485345656983554
1024.0,0.00031040748581290245
1152.0,-0.0040993657894432545
1280.0,-0.0009444882161915302
1408.0,-0.001954235602170229
1536.0,0.0013794911792501807
1664.0,-0.001012881170026958
1792.0,-0.003690230194479227
1920.0,-0.0029028665740042925
2048.0,-0.0008595043909735978
2304.0,-0.002528948476538062
2560.0,0.002030152827501297
2816.0,0.000611129857134074
3072.0,0.002337424550205469
3328.0,0.000876670004799962
3584.0,-0.0009750956087373197
3840.0,-0.002577987965196371
4096.0,-0.004135162103921175
4608.0,-0.004909314680844545
5120.0,-0.00020918041991535574
5632.0,0.0059329853393137455
6144.0,0.0031177611090242863
6656.0,0.0022939122281968594
7168.0,-0.0019073020666837692
7680.0,-0.0035530724562704563
8192.0,0.0013436592416837811
9216.0,-0.0011403214884921908
10240.0,-0.004213328473269939
11264.0,-0.0006701091770082712
12288.0,0.0020044557750225067
13312.0,-0.0023563806898891926
14336.0,0.0019903061911463737
end
