version,3.0
numOfCh,1
type,point
parent_name,4-cuts
ch_type,1_1
kcount,1
numberNandB,1
brightnessNandB,1
carpet pos,0
pc,0
Time (ms),CH1 Auto-Correlation
1.0,0.09092481434345245
2.0,0.08394805341959
3.0,0.07825952768325806
4.0,0.07326071709394455
5.0,0.06874996423721313
6.0,0.06486925482749939
7.0,0.061426106840372086
8.0,0.058279626071453094
9.0,0.055482544004917145
10.0,0.052868884056806564
11.0,0.05039979889988899
12.0,0.04828919097781181
13.0,0.04644389823079109
14.0,0.04468933865427971
15.0,0.042897097766399384
16.0,0.041452765464782715
18.0,0.03933436796069145
20.0,0.03724396973848343
22.0,0.03562312573194504
24.0,0.03416235372424126
26.0,0.03274019435048103
28.0,0.031229978427290916
30.0,0.03012804687023163
32.0,0.02970104292035103
36.0,0.029037022963166237
40.0,0.028889691457152367
44.0,0.027386775240302086
48.0,0.025076642632484436
52.0,0.023425014689564705
56.0,0.02211928181350231
60.0,0.021032972261309624
64.0,0.02010175958275795
72.0,0.018490079790353775
80.0,0.016499850898981094
88.0,0.015261567197740078
96.0,0.015195682644844055
104.0,0.01545707881450653
112.0,0.01445154007524252
120.0,0.012757549062371254
128.0,0.010135368444025517
144.0,0.007883381098508835
160.0,0.008854695595800877
176.0,0.007432231213897467
192.0,0.005559905897825956
208.0,0.004295577295124531
224.0,0.004692954942584038
240.0,0.005270092282444239
256.0,0.0057607791386544704
288.0,0.002580946544185281
320.0,0.0032060074154287577
352.0,0.00043068069498986006
384.0,-0.0010404287604615092
416.0,8.511572377756238e-05
448.0,0.0004389027308207005
480.0,-0.002478103619068861
512.0,-0.0023458125069737434
576.0,-0.003667843993753195
640.0,-0.006085336208343506
704.0,-0.006543227005749941
768.0,-0.006119706202298403
832.0,-0.0032526615541428328
896.0,0.0014283702475950122
960.0,0.003604978322982788
1024.0,0.0013324733590707183
1152.0,0.0010189753957092762
1280.0,-0.0008163491147570312
1408.0,0.0017621786100789905
1536.0,0.0020491378381848335
1664.0,0.003175287740305066
1792.0,0.0023535541258752346
1920.0,0.004272666294127703
2048.0,0.0032237141858786345
2304.0,-0.001519676181487739
2560.0,-0.0002306930982740596
2816.0,-0.0028603840619325638
3072.0,-0.006717919372022152
3328.0,-0.006613461766391993
3584.0,0.003324700053781271
3840.0,0.004574229009449482
4096.0,-0.0031939733307808638
4608.0,-0.005959725473076105
5120.0,0.0013549751602113247
5632.0,-0.0007758885622024536
6144.0,0.001818726770579815
6656.0,-0.0018304216209799051
7168.0,0.002558475825935602
7680.0,0.004963286686688662
8192.0,-0.004629704635590315
9216.0,0.0035488447174429893
10240.0,-0.00488465279340744
11264.0,0.0022624030243605375
12288.0,-0.0019200649112462997
13312.0,-0.0022279948461800814
14336.0,0.005343355238437653
end
