version,3.0
numOfCh,1
type,point
parent_name,4-cuts
ch_type,1_1
kcount,1
numberNandB,1
brightnessNandB,1
carpet pos,0
pc,0
Time (ms),CH1 Auto-Correlation
1.0,0.09621370583772659
2.0,0.08928776532411575
3.0,0.083164744079113
4.0,0.0778404250741005
5.0,0.07331692427396774
6.0,0.0691513791680336
7.0,0.06535869836807251
8.0,0.06203524395823479
9.0,0.0591161847114563
10.0,0.05636117607355118
11.0,0.053981464356184006
12.0,0.05180007964372635
13.0,0.04970734193921089
14.0,0.04780817776918411
15.0,0.04596705362200737
16.0,0.04430096596479416
18.0,0.041505616158246994
20.0,0.038683149963617325
22.0,0.03590324521064758
24.0,0.0336783304810524
26.0,0.03186687082052231
28.0,0.030069168657064438
30.0,0.028441989794373512
32.0,0.0267257671803236
36.0,0.023470105603337288
40.0,0.02096446231007576
44.0,0.019020242616534233
48.0,0.0174575075507164
52.0,0.015426580794155598
56.0,0.013911467045545578
60.0,0.0127530163154006
64.0,0.010485643520951271
72.0,0.007159417495131493
80.0,0.0044921222142875195
88.0,0.002077709883451462
96.0,0.0004482460208237171
104.0,-0.001211788272485137
112.0,-0.002314984332770109
120.0,-0.0029061760287731886
128.0,-0.004187761340290308
144.0,-0.0045799314975738525
160.0,-0.0017869322327896953
176.0,0.0001263853773707524
192.0,-1.9386465282877907e-05
208.0,0.0010149155277758837
224.0,0.0019436952425166965
240.0,0.0015658123884350061
256.0,0.0020312643609941006
288.0,-0.0013969017891213298
320.0,6.282758113229647e-05
352.0,0.0019675602670758963
384.0,0.0034890903625637293
416.0,0.003581308526918292
448.0,0.0038372266571968794
480.0,0.002412817906588316
512.0,0.000838647538330406
576.0,0.004413760732859373
640.0,0.004915949888527393
704.0,0.0013155251508578658
768.0,-0.0005464123096317053
832.0,-0.003461579093709588
896.0,0.0034563045483082533
960.0,0.005811604671180248
1024.0,0.001260163146071136
1152.0,0.0002229912206530571
1280.0,-0.0010434102732688189
1408.0,0.000524934206623584
1536.0,-0.0049389381892979145
1664.0,-0.0031659353990107775
1792.0,-0.0041827792301774025
1920.0,0.0002391960733802989
2048.0,-0.000476920569781214
2304.0,-0.0010880143381655216
2560.0,-0.004825932905077934
2816.0,-0.0010361443273723125
3072.0,-0.0021994642447680235
3328.0,0.0013213935308158398
3584.0,-0.0007913968875072896
3840.0,-0.002473533619195223
4096.0,0.0005846258136443794
4608.0,0.0007695007370784879
5120.0,0.0012921580346301198
5632.0,0.0029864488169550896
6144.0,-0.0005212597316130996
6656.0,-0.0003399383567739278
7168.0,0.00035414396552369
7680.0,0.0014191034715622663
8192.0,0.0007667159661650658
9216.0,-0.0035505881533026695
10240.0,-7.302637095563114e-05
11264.0,0.00091887719463557
12288.0,0.002677433891221881
13312.0,0.0008433256880380213
14336.0,-0.011604567058384418
end
