version,3.0
numOfCh,1
type,point
parent_name,4-cuts
ch_type,1_1
kcount,1
numberNandB,1
brightnessNandB,1
carpet pos,0
pc,0
Time (ms),CH1 Auto-Correlation
1.0,0.02642684429883957
2.0,0.02432243898510933
3.0,0.022493472322821617
4.0,0.020878873765468597
5.0,0.01947827637195587
6.0,0.018211834132671356
7.0,0.017079681158065796
8.0,0.016099296510219574
9.0,0.015262050554156303
10.0,0.014491141773760319
11.0,0.01380561850965023
12.0,0.013192128390073776
13.0,0.012620996683835983
14.0,0.012111260555684566
15.0,0.011649704538285732
16.0,0.011166105978190899
18.0,0.010337892919778824
20.0,0.009545708075165749
22.0,0.008875112049281597
24.0,0.008279522880911827
26.0,0.007778125815093517
28.0,0.007406449876725674
30.0,0.007114709820598364
32.0,0.006899630650877953
36.0,0.006628842558711767
40.0,0.006166139151901007
44.0,0.005280848126858473
48.0,0.004404938779771328
52.0,0.0038332624826580286
56.0,0.0032715857960283756
60.0,0.0028661563992500305
64.0,0.0025589270517230034
72.0,0.0019980354700237513
80.0,0.001661868765950203
88.0,0.001332161482423544
96.0,0.0011675978312268853
104.0,0.0011798606719821692
112.0,0.001465427689254284
120.0,0.001686952426098287
128.0,0.0020891092717647552
144.0,0.0023340783081948757
160.0,0.0020665121264755726
176.0,0.0015061530284583569
192.0,0.001920664100907743
208.0,0.002046784618869424
224.0,0.0014088955940678716
240.0,0.0011896264040842652
256.0,0.000731871637981385
288.0,0.00027693272568285465
320.0,0.0005390506121329963
352.0,0.0004441685741767287
384.0,-0.00026732872356660664
416.0,-0.0009392063366249204
448.0,-0.000680633878801018
480.0,-0.00037932334817014635
512.0,-0.00016706102178432047
576.0,-0.00016338418936356902
640.0,0.0005811029695905745
704.0,0.00033496381365694106
768.0,-7.129724690457806e-05
832.0,0.0005727731622755527
896.0,-0.0005581832374446094
960.0,-6.744355778209865e-05
1024.0,-0.0018121255561709404
1152.0,-0.0010236407397314906
1280.0,-0.0003966461808886379
1408.0,-0.0004849443503189832
1536.0,-0.0015209242701530457
1664.0,-0.0008361904183402658
1792.0,-0.0013708120677620173
1920.0,0.0003172918513882905
2048.0,-0.00018381577683612704
2304.0,0.00022389112564269453
2560.0,0.0008202064200304449
2816.0,0.0008599877473898232
3072.0,0.0003670671139843762
3328.0,0.00023416036856360734
3584.0,0.0007143001421354711
3840.0,-0.00036545394686982036
4096.0,-0.002989493077620864
4608.0,-0.0007019061013124883
5120.0,0.0007805800996720791
5632.0,0.0011834119213744998
6144.0,-3.6316687328508124e-05
6656.0,-0.0010492849396541715
7168.0,-0.001288091647438705
7680.0,-0.00018362901755608618
8192.0,0.0005704840295948088
9216.0,0.0002772970183286816
10240.0,-0.001076012966223061
11264.0,0.0006848257035017014
12288.0,-0.0008918718667700887
13312.0,-0.00030209709075279534
14336.0,0.0033509936183691025
end
