version,3.0
numOfCh,1
type,point
parent_name,4-cuts
ch_type,1_1
kcount,1
numberNandB,1
brightnessNandB,1
carpet pos,0
pc,0
Time (ms),CH1 Auto-Correlation
1.0,0.03836383298039436
2.0,0.03505813330411911
3.0,0.03226965293288231
4.0,0.02979796938598156
5.0,0.027597561478614807
6.0,0.02567470073699951
7.0,0.02391655556857586
8.0,0.02229100838303566
9.0,0.020838961005210876
10.0,0.019539056345820427
11.0,0.018412495031952858
12.0,0.017448311671614647
13.0,0.016505680978298187
14.0,0.01576918736100197
15.0,0.015019486658275127
16.0,0.014468728564679623
18.0,0.013471566140651703
20.0,0.012509065680205822
22.0,0.011692013591527939
24.0,0.011100901290774345
26.0,0.010395742021501064
28.0,0.00986211746931076
30.0,0.00927769299596548
32.0,0.00872118677943945
36.0,0.007789025083184242
40.0,0.006224414333701134
44.0,0.0050101326778531075
48.0,0.0044203707948327065
52.0,0.004109215922653675
56.0,0.00380466366186738
60.0,0.0035286606289446354
64.0,0.0032664716709405184
72.0,0.003007459221407771
80.0,0.003000766271725297
88.0,0.002745065838098526
96.0,0.002643787767738104
104.0,0.0024525190237909555
112.0,0.002077906159684062
120.0,0.0015658466145396233
128.0,0.0011407152051106095
144.0,0.0009548455709591508
160.0,-5.2416991820791736e-05
176.0,0.0003305494610685855
192.0,-0.0007500646752305329
208.0,-0.0012471664231270552
224.0,-0.00021008020848967135
240.0,-9.469849828747101e-06
256.0,-9.423505252925679e-05
288.0,-0.0002441541291773319
320.0,0.0005005386774428189
352.0,-0.00036928275949321687
384.0,-0.0003305629070382565
416.0,-0.001233484479598701
448.0,-0.00046742125414311886
480.0,-0.0019156348425894976
512.0,-0.001423159148544073
576.0,-0.0006469388608820736
640.0,-0.0013420704053714871
704.0,-0.0014164753956720233
768.0,0.0007464854861609638
832.0,0.0013345220359042287
896.0,0.0008198456489481032
960.0,-0.0011247185757383704
1024.0,-0.0028071796987205744
1152.0,0.00024300524091813713
1280.0,0.0007177444640547037
1408.0,0.00013455083535518497
1536.0,0.0013042277423664927
1664.0,0.0017045364947989583
1792.0,-0.0003331439511384815
1920.0,-0.0005752461729571223
2048.0,0.00015532647375948727
2304.0,-0.00041723050526343286
2560.0,-0.0003071055980399251
2816.0,-0.0013226898154243827
3072.0,-0.0007474119192920625
3328.0,0.0008817018824629486
3584.0,-0.0009872643277049065
3840.0,-0.00048312448780052364
4096.0,-0.0010754457907751203
4608.0,0.00026185507886111736
5120.0,0.0005171387456357479
5632.0,-0.0001942409435287118
6144.0,0.00021546341304201633
6656.0,2.984887032653205e-05
7168.0,0.0006862732116132975
7680.0,0.00023129803594201803
8192.0,-0.0017025305423885584
9216.0,0.00023437458730768412
10240.0,-0.0011149861384183168
11264.0,0.0007895359885878861
12288.0,0.0005154611426405609
13312.0,-0.0001787040673661977
14336.0,0.002182690193876624
end
