version,3.0
numOfCh,1
type,point
parent_name,4-cuts
ch_type,1_1
kcount,1
numberNandB,1
brightnessNandB,1
carpet pos,0
pc,0
Time (ms),CH1 Auto-Correlation
1.0,0.02597757801413536
2.0,0.023905126377940178
3.0,0.02213597670197487
4.0,0.0205835048109293
5.0,0.019187651574611664
6.0,0.017962025478482246
7.0,0.016851073130965233
8.0,0.015839656814932823
9.0,0.01495980005711317
10.0,0.014148246496915817
11.0,0.013405868783593178
12.0,0.01267269067466259
13.0,0.011983009055256844
14.0,0.01136074773967266
15.0,0.010809993371367455
16.0,0.010336041450500488
18.0,0.009578258730471134
20.0,0.00891229510307312
22.0,0.00820949487388134
24.0,0.00754974689334631
26.0,0.006966978311538696
28.0,0.006380897480994463
30.0,0.005992606282234192
32.0,0.005555563140660524
36.0,0.00494731217622757
40.0,0.004260851535946131
44.0,0.003733493387699127
48.0,0.0034059917088598013
52.0,0.0034092089626938105
56.0,0.00351473200134933
60.0,0.00354568543843925
64.0,0.0033307764679193497
72.0,0.003350034588947892
80.0,0.002682453254237771
88.0,0.002040959894657135
96.0,0.001862516743130982
104.0,0.0014116341480985284
112.0,0.0009253393509425223
120.0,0.0008439747616648674
128.0,0.0009393945802003145
144.0,0.0013605892891064286
160.0,0.0010975813493132591
176.0,0.0007271074573509395
192.0,0.0007204888388514519
208.0,0.0009034156100824475
224.0,0.00042134057730436325
240.0,0.00044166503357701004
256.0,-0.0008381492807529867
288.0,-0.0011418190551921725
320.0,-0.00048066844465211034
352.0,4.954778341925703e-05
384.0,0.001375737483613193
416.0,0.00045249893446452916
448.0,0.0004351473180577159
480.0,0.0001815121795516461
512.0,-0.0005589415086433291
576.0,-0.0007639452815055847
640.0,-0.0004781658062711358
704.0,-0.0006478449795395136
768.0,0.00028832058887928724
832.0,0.0007671493804082274
896.0,0.00019207765581086278
960.0,0.000704235746525228
1024.0,-9.203019726555794e-05
1152.0,-0.0002321659994777292
1280.0,-0.0008507278980687261
1408.0,0.00030938535928726196
1536.0,-1.7599802959011868e-05
1664.0,-0.0005054664216004312
1792.0,0.00036480254493653774
1920.0,0.0005354732857085764
2048.0,-0.0007014715811237693
2304.0,-0.0007278570556081831
2560.0,-0.0002857638755813241
2816.0,0.00030738397617824376
3072.0,0.000267944298684597
3328.0,0.000220312547753565
3584.0,6.885889160912484e-05
3840.0,-0.000607477908488363
4096.0,-0.0007463974761776626
4608.0,-9.647946717450395e-05
5120.0,0.0003114131395705044
5632.0,-4.244184310664423e-05
6144.0,0.0004976154887117445
6656.0,2.547554345255776e-08
7168.0,-0.0004948125570081174
7680.0,-7.391022791125579e-06
8192.0,0.0005917986272834241
9216.0,-0.00012700531806331128
10240.0,-0.00010906911484198645
11264.0,-0.00012118752783862874
12288.0,-0.0014731346163898706
13312.0,-0.0006855682004243135
14336.0,0.001589758088812232
end
