version,3.0
numOfCh,1
type,point
parent_name,4-cuts
ch_type,1_1
kcount,1
numberNandB,1
brightnessNandB,1
carpet pos,0
pc,0
Time (ms),CH1 Auto-Correlation
1.0,0.026102198287844658
2.0,0.023975377902388573
3.0,0.022127997130155563
4.0,0.020494727417826653
5.0,0.01910494640469551
6.0,0.0178519356995821
7.0,0.01675463281571865
8.0,0.01576821878552437
9.0,0.014889806509017944
10.0,0.014153709635138512
11.0,0.013436551205813885
12.0,0.012757619842886925
13.0,0.01215639989823103
14.0,0.01160554401576519
15.0,0.011082195676863194
16.0,0.010617204941809177
18.0,0.009793695993721485
20.0,0.009126448072493076
22.0,0.00852424930781126
24.0,0.008006078191101551
26.0,0.007562030106782913
28.0,0.007288171909749508
30.0,0.007058287505060434
32.0,0.0067596109583973885
36.0,0.006280168890953064
40.0,0.005976404063403606
44.0,0.005742612760514021
48.0,0.005549302790313959
52.0,0.005273767281323671
56.0,0.005036656279116869
60.0,0.0048042042180895805
64.0,0.0045713745057582855
72.0,0.003999648150056601
80.0,0.00384217849932611
88.0,0.0038090043235570192
96.0,0.0037793689407408237
104.0,0.0033319215290248394
112.0,0.003187578869983554
120.0,0.003063677344471216
128.0,0.003066919045522809
144.0,0.002478456823155284
160.0,0.001722414861433208
176.0,0.0013004415668547153
192.0,0.0016433148412033916
208.0,0.0012240499490872025
224.0,0.0015719173243269324
240.0,0.001989317825064063
256.0,0.0016954923048615456
288.0,0.0009769430616870522
320.0,0.0005195920239202678
352.0,0.0010417402954772115
384.0,0.0008205923950299621
416.0,0.00035504705738276243
448.0,0.00014461937826126814
480.0,0.0006344341672956944
512.0,0.0009396494715474546
576.0,0.0011426744749769568
640.0,1.4153273696138058e-05
704.0,-0.0009603446233086288
768.0,-0.0005493046483024955
832.0,-2.9662332963198423e-05
896.0,-0.0007049391861073673
960.0,0.0012819624971598387
1024.0,0.0005758596234954894
1152.0,0.0009238873026333749
1280.0,-0.0005983189330436289
1408.0,-0.001362260663881898
1536.0,-0.0003513364936225116
1664.0,-0.0009048545034602284
1792.0,-0.001503116451203823
1920.0,-0.001124015194363892
2048.0,-0.0004232094797771424
2304.0,0.00023854023311287165
2560.0,0.0003082405310124159
2816.0,0.0002794501488097012
3072.0,0.0015139004681259394
3328.0,0.0013356860727071762
3584.0,-0.0014307851670309901
3840.0,-0.001667482778429985
4096.0,-0.0013318669516593218
4608.0,-0.001637633889913559
5120.0,-0.000854463258292526
5632.0,0.0015019421698525548
6144.0,0.0012197104515507817
6656.0,0.0003156863967888057
7168.0,6.321332330117002e-05
7680.0,-0.0008070290787145495
8192.0,0.000653184368275106
9216.0,0.0011083162389695644
10240.0,-0.000613372540101409
11264.0,-0.0006691131857223809
12288.0,-0.00019083845836576074
13312.0,-0.001864472753368318
14336.0,-0.001735849305987358
end
