version,3.0
numOfCh,1
type,point
parent_name,4-cuts
ch_type,1_1
kcount,1
numberNandB,1
brightnessNandB,1
carpet pos,0
pc,0
Time (ms),CH1 Auto-Correlation
1.0,0.02848447859287262
2.0,0.026373352855443954
3.0,0.024534953758120537
4.0,0.022856570780277252
5.0,0.021395143121480942
6.0,0.02016335539519787
7.0,0.019069012254476547
8.0,0.018102573230862617
9.0,0.01714787259697914
10.0,0.01624181680381298
11.0,0.01542149018496275
12.0,0.014672456309199333
13.0,0.01406478974968195
14.0,0.013453604653477669
15.0,0.012887333519756794
16.0,0.012413394637405872
18.0,0.011612837202847004
20.0,0.010957472026348114
22.0,0.010377679951488972
24.0,0.00982956774532795
26.0,0.009171064011752605
28.0,0.008568392135202885
30.0,0.008003223687410355
32.0,0.007541843689978123
36.0,0.006818435620516539
40.0,0.006509417202323675
44.0,0.006206007208675146
48.0,0.0058134677819907665
52.0,0.00538951950147748
56.0,0.005105513613671064
60.0,0.004851484205573797
64.0,0.004620787687599659
72.0,0.004314013756811619
80.0,0.003661155002191663
88.0,0.0025197621434926987
96.0,0.0019166965503245592
104.0,0.0018539869925007224
112.0,0.0019944629166275263
120.0,0.002207160461694002
128.0,0.002022553700953722
144.0,0.0015024029416963458
160.0,0.0006292553734965622
176.0,0.0006198140326887369
192.0,0.0006208424456417561
208.0,-0.00031629487057216465
224.0,-0.0005823046085424721
240.0,-0.0010866617085412145
256.0,-0.0009888677159324288
288.0,-0.0013301741564646363
320.0,-0.0019205020507797599
352.0,-0.0015920696314424276
384.0,-0.00318559049628675
416.0,-0.0022378861904144287
448.0,-0.0015696071786805987
480.0,-0.00011608403292484581
512.0,0.0013821845641359687
576.0,0.00019554641039576381
640.0,0.0013261387357488275
704.0,0.0026045984122902155
768.0,0.0015002749860286713
832.0,0.0008766165701672435
896.0,0.0007372848922386765
960.0,0.0012513359542936087
1024.0,0.00022128844284452498
1152.0,-0.0006117773009464145
1280.0,-2.0637053239624947e-06
1408.0,0.0006096763536334038
1536.0,0.000346082029864192
1664.0,0.00011032118345610797
1792.0,0.0006859276327304542
1920.0,0.00022210797760635614
2048.0,-0.0004948756541125476
2304.0,3.3678184081509244e-06
2560.0,-3.1624556868337095e-05
2816.0,-0.0009410547208972275
3072.0,0.000318224512739107
3328.0,-0.0005262078484520316
3584.0,-0.0007228644681163132
3840.0,-0.0005398416542448103
4096.0,-0.0005855061463080347
4608.0,-0.00042217227746732533
5120.0,0.00011676293070195243
5632.0,-0.0005144415772520006
6144.0,-0.00033038799301721156
6656.0,9.504267836746294e-06
7168.0,0.00021207964164204895
7680.0,-0.0003680984955281019
8192.0,0.0002159491996280849
9216.0,-0.00022522456129081547
10240.0,0.0004369822854641825
11264.0,0.0006985709769651294
12288.0,-0.0005239264573901892
13312.0,-0.0002760077186394483
14336.0,0.000745372730307281
end
