version,3.0
numOfCh,1
type,point
parent_name,4-cuts
ch_type,1_1
kcount,1
numberNandB,1
brightnessNandB,1
carpet pos,0
pc,0
Time (ms),CH1 Auto-Correlation
1.0,0.040445953607559204
2.0,0.03724703565239906
3.0,0.03451155498623848
4.0,0.03204575926065445
5.0,0.02991732396185398
6.0,0.028048193082213402
7.0,0.026371413841843605
8.0,0.02493854984641075
9.0,0.02360122837126255
10.0,0.0223705917596817
11.0,0.02119022235274315
12.0,0.020093824714422226
13.0,0.019036291167140007
14.0,0.017984483391046524
15.0,0.017112143337726593
16.0,0.01637852005660534
18.0,0.01494092121720314
20.0,0.01361382007598877
22.0,0.012537222355604172
24.0,0.011592152528464794
26.0,0.01092973630875349
28.0,0.010238287970423698
30.0,0.00971327442675829
32.0,0.009279071353375912
36.0,0.00854490790516138
40.0,0.00770147331058979
44.0,0.007214231416583061
48.0,0.006825051736086607
52.0,0.006260744296014309
56.0,0.005681061185896397
60.0,0.005046752747148275
64.0,0.004601303953677416
72.0,0.0038818679749965668
80.0,0.0036401257384568453
88.0,0.003333690343424678
96.0,0.0033574479166418314
104.0,0.003575157141312957
112.0,0.002886665053665638
120.0,0.002410551765933633
128.0,0.0019448598613962531
144.0,0.002692854031920433
160.0,0.0023957008961588144
176.0,0.0008626405033282936
192.0,0.0002212726976722479
208.0,-8.380832150578499e-05
224.0,0.0006208845879882574
240.0,2.377638520556502e-05
256.0,0.0007787951617501676
288.0,0.001953204395249486
320.0,0.0002838994550984353
352.0,0.00044500798685476184
384.0,4.086394255864434e-05
416.0,0.00019992649322375655
448.0,-0.001027589780278504
480.0,-0.0008374480530619621
512.0,-0.00045098771806806326
576.0,-0.0016811791574582458
640.0,-0.00011820244253613055
704.0,0.00020691681129392236
768.0,0.00030496722320094705
832.0,-0.0014443150721490383
896.0,-0.0015705812256783247
960.0,-0.001795365591533482
1024.0,-0.00036164463381282985
1152.0,0.0005215662531554699
1280.0,-0.0005635006236843765
1408.0,0.0005730658303946257
1536.0,-0.0006391998031176627
1664.0,-0.0008512852946296334
1792.0,0.0005969707272015512
1920.0,0.00010689134069252759
2048.0,-0.0005671794060617685
2304.0,-0.0009210186544805765
2560.0,0.0008403456886298954
2816.0,1.740116931614466e-05
3072.0,0.0010898936307057738
3328.0,0.00034254754427820444
3584.0,0.0006175507442094386
3840.0,0.0006879997672513127
4096.0,-0.0008253809646703303
4608.0,-5.027930819778703e-05
5120.0,-0.0011986630270257592
5632.0,-0.00019556803454179317
6144.0,-0.0010405386565253139
6656.0,0.001304978970438242
7168.0,-0.0004821195325348526
7680.0,-0.0009345581638626754
8192.0,-0.0011245929636061192
9216.0,1.537329808343202e-05
10240.0,0.0005061235860921443
11264.0,-0.0011658146977424622
12288.0,-1.03874863270903e-05
13312.0,0.0008037296938709915
14336.0,-0.00046234828187152743
end
