version,3.0
numOfCh,1
type,point
parent_name,4-cuts
ch_type,1_1
kcount,1
numberNandB,1
brightnessNandB,1
carpet pos,0
pc,0
Time (ms),CH1 Auto-Correlation
1.0,0.08790767937898636
2.0,0.08087163418531418
3.0,0.074913389980793
4.0,0.0696071907877922
5.0,0.06493990123271942
6.0,0.0608346089720726
7.0,0.05726803094148636
8.0,0.05407840386033058
9.0,0.05126265808939934
10.0,0.04874313995242119
11.0,0.0465729683637619
12.0,0.044504035264253616
13.0,0.04273220896720886
14.0,0.04088514298200607
15.0,0.0392366424202919
16.0,0.03764715790748596
18.0,0.034801363945007324
20.0,0.03232019022107124
22.0,0.02978011965751648
24.0,0.027362611144781113
26.0,0.025457466021180153
28.0,0.023807480931282043
30.0,0.022652698680758476
32.0,0.021626682952046394
36.0,0.01930997706949711
40.0,0.01707850769162178
44.0,0.014981391839683056
48.0,0.01269286684691906
52.0,0.011215251870453358
56.0,0.010661780834197998
60.0,0.010480551049113274
64.0,0.01033977884799242
72.0,0.008596429601311684
80.0,0.007419181987643242
88.0,0.0078016105107963085
96.0,0.008108158595860004
104.0,0.007331778760999441
112.0,0.007745272945612669
120.0,0.007293518166989088
128.0,0.005884823389351368
144.0,0.003362799296155572
160.0,0.000815962499473244
176.0,0.0013037191238254309
192.0,0.0020979472901672125
208.0,0.0022277962416410446
224.0,0.0010176080977544188
240.0,0.0015389652689918876
256.0,0.0018280379008501768
288.0,0.0019098796183243394
320.0,5.749781848862767e-05
352.0,-0.0017558203544467688
384.0,-0.0015163497300818563
416.0,-0.0009689992293715477
448.0,-0.0027232251595705748
480.0,-0.005689697340130806
512.0,-0.006635867990553379
576.0,-0.002630200469866395
640.0,0.0029449202120304108
704.0,-0.0009155866573564708
768.0,-0.000408186053391546
832.0,0.0043386900797486305
896.0,0.003787736175581813
960.0,0.003548729931935668
1024.0,0.0035351545084267855
1152.0,0.001225388958118856
1280.0,-0.0014946757582947612
1408.0,-0.001176176592707634
1536.0,0.001013377564959228
1664.0,0.0006402403814718127
1792.0,0.003305374179035425
1920.0,-0.0005225393688306212
2048.0,-0.00336433295160532
2304.0,-0.003836778923869133
2560.0,-0.0034418185241520405
2816.0,-0.003896621987223625
3072.0,0.00028774404199793935
3328.0,-0.001495951903052628
3584.0,-0.00029009132413193583
3840.0,-0.0003018353891093284
4096.0,0.0004465497622732073
4608.0,0.0022581724915653467
5120.0,-0.0006402743165381253
5632.0,0.0031986096873879433
6144.0,-0.0021756812930107117
6656.0,-0.002410554327070713
7168.0,-0.0006350624607875943
7680.0,-0.003297871444374323
8192.0,-0.0008663024636916816
9216.0,-0.0005842280224896967
10240.0,0.0012664786772802472
11264.0,0.0034041348844766617
12288.0,-0.0018438850529491901
13312.0,-0.0008407910354435444
14336.0,-0.0006527388468384743
end
