version,3.0
numOfCh,1
type,point
parent_name,4-cuts
ch_type,1_1
kcount,1
numberNandB,1
brightnessNandB,1
carpet pos,0
pc,0
Time (ms),CH1 Auto-Correlation
1.0,0.04228074476122856
2.0,0.039117131382226944
3.0,0.03648126870393753
4.0,0.03416160121560097
5.0,0.03207870200276375
6.0,0.030157051980495453
7.0,0.02848317101597786
8.0,0.026921536773443222
9.0,0.02556857280433178
10.0,0.024292727932333946
11.0,0.023231200873851776
12.0,0.022278785705566406
13.0,0.0214249137789011
14.0,0.02064010500907898
15.0,0.019881602376699448
16.0,0.01913255825638771
18.0,0.017923414707183838
20.0,0.016829265281558037
22.0,0.01597045361995697
24.0,0.015227156691253185
26.0,0.01449747197329998
28.0,0.013759833760559559
30.0,0.01303490437567234
32.0,0.012405523099005222
36.0,0.011281576007604599
40.0,0.010036692023277283
44.0,0.009073344059288502
48.0,0.008277485147118568
52.0,0.007661262061446905
56.0,0.006871919147670269
60.0,0.0063116406090557575
64.0,0.00593018252402544
72.0,0.005398285109549761
80.0,0.00514640798792243
88.0,0.00428765919059515
96.0,0.0031302091665565968
104.0,0.0025733059737831354
112.0,0.0023523708805441856
120.0,0.0016257911920547485
128.0,0.0008249915554188192
144.0,-0.0007115775370039046
160.0,-0.0010245853336527944
176.0,-0.0006186506361700594
192.0,-0.0004054121964145452
208.0,-0.00035373170976527035
224.0,-0.00023857792257331312
240.0,0.00029821365023963153
256.0,0.00028051953995600343
288.0,-0.0010858546011149883
320.0,-0.0010660942643880844
352.0,-0.0016130186850205064
384.0,-0.0020830417051911354
416.0,-0.0021912415977567434
448.0,-0.001712248777039349
480.0,-0.0010513892630115151
512.0,-0.0019440819742158055
576.0,-0.00128526845946908
640.0,-0.0009193571167998016
704.0,-0.0018844637088477612
768.0,-0.0014068812597543001
832.0,-0.001251747366040945
896.0,-0.0023571623023599386
960.0,-0.0013783747563138604
1024.0,-0.0012587254168465734
1152.0,0.0004874749865848571
1280.0,0.0013088437262922525
1408.0,-0.0007182008703239262
1536.0,-0.0013351042289286852
1664.0,0.0002679471508599818
1792.0,0.0004427064850460738
1920.0,-5.6607335864100605e-05
2048.0,0.00010375987039878964
2304.0,0.0012973860139027238
2560.0,-0.0024175704456865788
2816.0,0.001062883879058063
3072.0,-0.00027802487602457404
3328.0,0.0006173894507810473
3584.0,0.0004556323983706534
3840.0,-0.0010712645016610622
4096.0,0.0012976008001714945
4608.0,-0.001088823308236897
5120.0,0.000612493313383311
5632.0,-8.413782779825851e-05
6144.0,0.0017555031226947904
6656.0,-0.001935771550051868
7168.0,-8.568394696339965e-05
7680.0,0.0004903249791823328
8192.0,-0.00016406620852649212
9216.0,-0.0007306589977815747
10240.0,-0.0002990973007399589
11264.0,0.00026921890093944967
12288.0,0.0006476190173998475
13312.0,0.0003073200932703912
14336.0,0.00074859953019768
end
