version,3.0
numOfCh,1
type,point
parent_name,4-cuts
ch_type,1_1
kcount,1
numberNandB,1
brightnessNandB,1
carpet pos,0
pc,0
Time (ms),CH1 Auto-Correlation
1.0,0.08814243972301483
2.0,0.08134635537862778
3.0,0.07527141273021698
4.0,0.07018806040287018
5.0,0.0660027340054512
6.0,0.06230244040489197
7.0,0.05899433419108391
8.0,0.056033775210380554
9.0,0.05342872440814972
10.0,0.05105745792388916
11.0,0.048928115516901016
12.0,0.04687746241688728
13.0,0.04481985419988632
14.0,0.04282316192984581
15.0,0.04105577617883682
16.0,0.0393914170563221
18.0,0.03657285124063492
20.0,0.03420430049300194
22.0,0.032295823097229004
24.0,0.030597995966672897
26.0,0.029170898720622063
28.0,0.027976883575320244
30.0,0.026903361082077026
32.0,0.026137255132198334
36.0,0.025022370740771294
40.0,0.023763060569763184
44.0,0.022640345618128777
48.0,0.021449115127325058
52.0,0.01987764798104763
56.0,0.018537607043981552
60.0,0.01747198775410652
64.0,0.016488872468471527
72.0,0.015020359307527542
80.0,0.014107497408986092
88.0,0.011764923110604286
96.0,0.008518459275364876
104.0,0.006338499952107668
112.0,0.006090447772294283
120.0,0.0063908714801073074
128.0,0.00544877490028739
144.0,0.0041917460039258
160.0,0.003549899673089385
176.0,0.0041862549260258675
192.0,0.003906320780515671
208.0,0.0013144334079697728
224.0,0.0006008006166666746
240.0,-0.0001593038614373654
256.0,-0.0019401516765356064
288.0,0.0007399165187962353
320.0,0.0003641918010544032
352.0,0.000572725257370621
384.0,8.732007700018585e-05
416.0,-0.0009867059998214245
448.0,-0.0014636859996244311
480.0,-0.0013208520831540227
512.0,-0.0021016704849898815
576.0,-0.0009480158914811909
640.0,-0.0018805298022925854
704.0,-0.0032022539526224136
768.0,-0.0016833891859278083
832.0,-0.0013318030396476388
896.0,-0.002543448004871607
960.0,0.0004945898544974625
1024.0,-0.0015735725173726678
1152.0,-0.0019537461921572685
1280.0,-0.0013622490223497152
1408.0,0.001754247467033565
1536.0,0.001742793247103691
1664.0,-0.0013606196735054255
1792.0,-0.0005739812040701509
1920.0,-4.353467738837935e-05
2048.0,-0.002568780444562435
2304.0,-0.003309854306280613
2560.0,0.0005577813717536628
2816.0,-0.001635656924918294
3072.0,-0.001200400060042739
3328.0,0.0027433782815933228
3584.0,0.0002605204645078629
3840.0,-0.003921171184629202
4096.0,-0.003121218178421259
4608.0,0.002909319242462516
5120.0,-0.0026310645043849945
5632.0,-0.001573406858369708
6144.0,0.001683668582700193
6656.0,-0.0009355632355436683
7168.0,-0.00023319758474826813
7680.0,0.00217049871571362
8192.0,0.005228118039667606
9216.0,0.0004584060807246715
10240.0,-0.0018686107359826565
11264.0,-0.000601736712269485
12288.0,0.001979118213057518
13312.0,-0.005498148966580629
14336.0,0.0030595429707318544
end
