version,3.0
numOfCh,1
type,point
parent_name,4-cuts
ch_type,1_1
kcount,1
numberNandB,1
brightnessNandB,1
carpet pos,0
pc,0
Time (ms),CH1 Auto-Correlation
1.0,0.09188292920589447
2.0,0.08448860794305801
3.0,0.07815168052911758
4.0,0.07250789552927017
5.0,0.06775631755590439
6.0,0.0637504905462265
7.0,0.06007853150367737
8.0,0.05685318633913994
9.0,0.054090455174446106
10.0,0.05148451030254364
11.0,0.04926792532205582
12.0,0.04716827720403671
13.0,0.04524011164903641
14.0,0.04340392351150513
15.0,0.041933946311473846
16.0,0.04064814746379852
18.0,0.03842909261584282
20.0,0.03666399046778679
22.0,0.03477613255381584
24.0,0.032960303127765656
26.0,0.03177745267748833
28.0,0.030695408582687378
30.0,0.029434356838464737
32.0,0.027733437716960907
36.0,0.023192232474684715
40.0,0.02022266946732998
44.0,0.018121525645256042
48.0,0.01658143848180771
52.0,0.01550146285444498
56.0,0.015046962536871433
60.0,0.014457739889621735
64.0,0.01321952324360609
72.0,0.00988820381462574
80.0,0.008131378330290318
88.0,0.007352169137448072
96.0,0.00578555790707469
104.0,0.003746297210454941
112.0,0.002777321729809046
120.0,0.0021073739044368267
128.0,0.0014720128383487463
144.0,0.0029271873645484447
160.0,0.0024624550715088844
176.0,0.0010107356356456876
192.0,-0.000509078789036721
208.0,-0.0019385298946872354
224.0,-0.0021413040813058615
240.0,-0.0008925385191105306
256.0,-0.0013453081483021379
288.0,-0.0028122151270508766
320.0,-0.0033131996169686317
352.0,-0.0009447627235203981
384.0,-0.0029522760305553675
416.0,-0.001859847572632134
448.0,-0.004236253909766674
480.0,-0.0034954743459820747
512.0,-0.0034731451887637377
576.0,-0.004003449808806181
640.0,-0.001786628388799727
704.0,-0.0005793242598883808
768.0,-0.004995927680283785
832.0,-0.005484547466039658
896.0,-0.005766761023551226
960.0,-0.00512758968397975
1024.0,-0.00023477077775169164
1152.0,-0.0027754376642405987
1280.0,0.00376142468303442
1408.0,0.006313452497124672
1536.0,0.00016359364963136613
1664.0,0.0012095723068341613
1792.0,-0.0022519868798553944
1920.0,-0.003421649569645524
2048.0,0.0009597440948709846
2304.0,-0.000503618735820055
2560.0,-0.001978640677407384
2816.0,-0.0005197855643928051
3072.0,0.0008575188694521785
3328.0,-0.00027185791986994445
3584.0,0.002519081812351942
3840.0,0.00013076765753794461
4096.0,0.0016083121299743652
4608.0,-0.0015329451998695731
5120.0,0.001287416205741465
5632.0,0.001238000812008977
6144.0,-0.0023622263688594103
6656.0,-0.0013894605217501521
7168.0,0.0009390756022185087
7680.0,-0.001525922561995685
8192.0,0.001091874553821981
9216.0,0.0011794078163802624
10240.0,-0.0022470566909760237
11264.0,0.0005831183516420424
12288.0,-0.0005933912470936775
13312.0,0.0016986888367682695
14336.0,-0.0007252076175063848
end
