version,3.0
numOfCh,1
type,point
parent_name,4-cuts
ch_type,1_1
kcount,1
numberNandB,1
brightnessNandB,1
carpet pos,0
pc,0
Time (ms),CH1 Auto-Correlation
1.0,0.04070812091231346
2.0,0.03761221840977669
3.0,0.03491102531552315
4.0,0.03253285586833954
5.0,0.030284322798252106
6.0,0.028376871719956398
7.0,0.02666630409657955
8.0,0.025206271559000015
9.0,0.02383747324347496
10.0,0.022644763812422752
11.0,0.021575767546892166
12.0,0.020583625882864
13.0,0.019631994888186455
14.0,0.018786843866109848
15.0,0.017988888546824455
16.0,0.017243817448616028
18.0,0.015805570408701897
20.0,0.01447033416479826
22.0,0.01334117166697979
24.0,0.012402137741446495
26.0,0.011550928466022015
28.0,0.010882638394832611
30.0,0.010286616161465645
32.0,0.009850728325545788
36.0,0.009206862188875675
40.0,0.008354870602488518
44.0,0.007300547789782286
48.0,0.0063365609385073185
52.0,0.005672205705195665
56.0,0.005193173885345459
60.0,0.004783693701028824
64.0,0.003989752847701311
72.0,0.0023020366206765175
80.0,0.0013604889390990138
88.0,0.0013818927109241486
96.0,0.0018435382517054677
104.0,0.0015445965109393
112.0,0.0006761712720617652
120.0,2.8184967959532514e-05
128.0,0.00033900889684446156
144.0,0.00024986459175124764
160.0,0.0007083748350851238
176.0,0.00018604313663672656
192.0,-0.0015168240061029792
208.0,-0.002485141856595874
224.0,-0.002907410031184554
240.0,-0.002775556407868862
256.0,-0.0036038083489984274
288.0,-0.0029535151552408934
320.0,-0.0024725226685404778
352.0,-0.001482781139202416
384.0,-0.00029949090094305575
416.0,0.0006630091811530292
448.0,0.0006205901736393571
480.0,0.0005754990852437913
512.0,0.0003642682859208435
576.0,0.0007741410518065095
640.0,0.000896348909009248
704.0,-9.919037984218448e-05
768.0,0.0007390775135718286
832.0,0.0008573405793868005
896.0,-0.00038302328903228045
960.0,-0.000565400579944253
1024.0,-0.001277058501727879
1152.0,-0.0011490338947623968
1280.0,0.000608848175033927
1408.0,0.0009695112239569426
1536.0,2.1885640308028087e-05
1664.0,-0.0013520583743229508
1792.0,0.0005982769653201103
1920.0,0.0019128271378576756
2048.0,0.0004442164790816605
2304.0,-0.00045484252041205764
2560.0,0.0008402490057051182
2816.0,-0.0003253389149904251
3072.0,-0.0016002411721274257
3328.0,0.0006203289958648384
3584.0,-0.0006997749442234635
3840.0,-0.00018149097741115838
4096.0,0.0010838106973096728
4608.0,-7.336778071476147e-05
5120.0,-0.0008870039600878954
5632.0,-0.00030579898157157004
6144.0,-0.0003433402453083545
6656.0,0.0005532588111236691
7168.0,-0.00016867507656570524
7680.0,-0.0003340392140671611
8192.0,-0.0011904427083209157
9216.0,0.00036620505852624774
10240.0,-0.0001859871845226735
11264.0,-0.00030909912311472
12288.0,0.00034527358366176486
13312.0,0.0005230054957792163
14336.0,-0.0008449426968581975
end
