version,3.0
numOfCh,1
type,point
parent_name,4-cuts
ch_type,1_1
kcount,1
numberNandB,1
brightnessNandB,1
carpet pos,0
pc,0
Time (ms),CH1 Auto-Correlation
1.0,0.04049994423985481
2.0,0.037448566406965256
3.0,0.03479193523526192
4.0,0.03241749480366707
5.0,0.030412785708904266
6.0,0.028671374544501305
7.0,0.027054233476519585
8.0,0.025514008477330208
9.0,0.0240236297249794
10.0,0.02276032790541649
11.0,0.021620985120534897
12.0,0.02065384015440941
13.0,0.019733592867851257
14.0,0.018801946192979813
15.0,0.017968198284506798
16.0,0.017102770507335663
18.0,0.01557388436049223
20.0,0.014260150492191315
22.0,0.012948657386004925
24.0,0.011550553143024445
26.0,0.010373564437031746
28.0,0.009197997860610485
30.0,0.008240999653935432
32.0,0.00743492366746068
36.0,0.006044317502528429
40.0,0.005263462197035551
44.0,0.004541392903774977
48.0,0.003949264995753765
52.0,0.0037874914705753326
56.0,0.0037574712187051773
60.0,0.0035899116192013025
64.0,0.003395691281184554
72.0,0.0029535347130149603
80.0,0.00289122830145061
88.0,0.0021097268909215927
96.0,0.0013304260792210698
104.0,0.0014373656595125794
112.0,0.0017180016729980707
120.0,0.001894123270176351
128.0,0.0017953041242435575
144.0,0.0013552248710766435
160.0,0.0009905321057885885
176.0,0.0013137414352968335
192.0,0.0011735877487808466
208.0,0.00037125524249859154
224.0,-0.00027527284692041576
240.0,-0.00024527686764486134
256.0,0.00021799544629175216
288.0,-0.0009654375026002526
320.0,-0.0011867948342114687
352.0,-0.0014153573429211974
384.0,-0.0002744289522524923
416.0,-0.0020232286769896746
448.0,-0.0013846370857208967
480.0,-0.0011233186814934015
512.0,-0.0022084671072661877
576.0,-0.0014850037405267358
640.0,-0.0011225664056837559
704.0,-0.0011052810586988926
768.0,-0.0004972902243025601
832.0,2.2396901840693317e-05
896.0,0.0002623317705001682
960.0,-0.0003081739414483309
1024.0,-0.0010511307045817375
1152.0,-0.00044507160782814026
1280.0,-0.0010491397697478533
1408.0,-7.735127292107791e-05
1536.0,0.001640148926526308
1664.0,0.0009608051041141152
1792.0,-0.0005787752452306449
1920.0,-0.0024172053672373295
2048.0,-0.00074521399801597
2304.0,0.0018219660269096494
2560.0,0.0007465179078280926
2816.0,-0.00184441392775625
3072.0,-0.0002633023541420698
3328.0,0.0010830435203388333
3584.0,0.0009512904216535389
3840.0,0.0001432691642548889
4096.0,0.00010927415860351175
4608.0,-0.0004577770014293492
5120.0,0.0003321114054415375
5632.0,-0.0006180402706377208
6144.0,-0.0003996656450908631
6656.0,-2.0930780010530725e-05
7168.0,0.00047393981367349625
7680.0,0.0007669965852983296
8192.0,-0.0008942717686295509
9216.0,0.0005399989313445985
10240.0,-0.00048442240222357213
11264.0,0.0005869257147423923
12288.0,-0.00018613931024447083
13312.0,-0.0011611190857365727
14336.0,0.0012600721092894673
end
