version,3.0
numOfCh,1
type,point
parent_name,4-cuts
ch_type,1_1
kcount,1
numberNandB,1
brightnessNandB,1
carpet pos,0
pc,0
Time (ms),CH1 Auto-Correlation
1.0,0.027034325525164604
2.0,0.024898432195186615
3.0,0.023009909316897392
4.0,0.021318020299077034
5.0,0.019808413460850716
6.0,0.018481027334928513
7.0,0.017277490347623825
8.0,0.016162637621164322
9.0,0.015181446447968483
10.0,0.014306171797215939
11.0,0.013490300625562668
12.0,0.012733491137623787
13.0,0.012072385288774967
14.0,0.011397414840757847
15.0,0.010791534557938576
16.0,0.010301093570888042
18.0,0.009535559453070164
20.0,0.008835459128022194
22.0,0.008232827298343182
24.0,0.007635096088051796
26.0,0.00702603068202734
28.0,0.006618963088840246
30.0,0.006301460787653923
32.0,0.005909869913011789
36.0,0.005284050013870001
40.0,0.0047788373194634914
44.0,0.004351301118731499
48.0,0.004219315014779568
52.0,0.004132902715355158
56.0,0.004037968348711729
60.0,0.003804671112447977
64.0,0.00354520115070045
72.0,0.003277002600952983
80.0,0.002229250967502594
88.0,0.0014933685306459665
96.0,0.0008332147845067084
104.0,0.0010573900071904063
112.0,0.001336834509856999
120.0,0.0013356423005461693
128.0,0.0009767209412530065
144.0,0.0009070803644135594
160.0,0.0008050812175497413
176.0,0.00044315538252703846
192.0,0.0007101656519807875
208.0,0.0014874846674501896
224.0,0.0016834319103509188
240.0,0.0019056200981140137
256.0,0.002021027496084571
288.0,0.0022770005743950605
320.0,0.0008508550236001611
352.0,0.00057837029453367
384.0,3.006738370459061e-05
416.0,0.00032519266824238
448.0,-0.00016125812544487417
480.0,-0.0010267902398481965
512.0,-0.001026932499371469
576.0,-0.0005106064490973949
640.0,-0.00032062389072962105
704.0,0.0006525408243760467
768.0,-2.1365545762819238e-05
832.0,-2.571269760665018e-05
896.0,-0.00013290198694448918
960.0,0.0006607899558730423
1024.0,0.0003748965682461858
1152.0,-7.095495675457641e-05
1280.0,0.0001975549675989896
1408.0,5.722981586586684e-05
1536.0,-8.8285501988139e-05
1664.0,-0.0009745715651661158
1792.0,0.00014449626905843616
1920.0,-0.0009167395764961839
2048.0,-0.0013186082942411304
2304.0,0.0002861631801351905
2560.0,-0.0006491740932688117
2816.0,-0.0011843177489936352
3072.0,0.00031924733775667846
3328.0,0.00013122650852892548
3584.0,-0.0004788729129359126
3840.0,-0.0005106682074256241
4096.0,-0.0005392157472670078
4608.0,0.0020822726655751467
5120.0,-0.0005707209347747266
5632.0,0.00022793099924456328
6144.0,-0.0009586423402652144
6656.0,-0.0004128896980546415
7168.0,-0.002126240637153387
7680.0,0.0008239378803409636
8192.0,0.00024581054458394647
9216.0,0.0005251538823358715
10240.0,0.0006215556641109288
11264.0,-0.0003790441551245749
12288.0,9.407815377926454e-05
13312.0,-0.00046292509068734944
14336.0,-0.0006401278078556061
end
