version,3.0
numOfCh,1
type,point
parent_name,4-cuts
ch_type,1_1
kcount,1
numberNandB,1
brightnessNandB,1
carpet pos,0
pc,0
Time (ms),CH1 Auto-Correlation
1.0,0.09438475966453552
2.0,0.08735381811857224
3.0,0.08142145723104477
4.0,0.07655685395002365
5.0,0.07201769202947617
6.0,0.0681350901722908
7.0,0.06440546363592148
8.0,0.06123887374997139
9.0,0.05832183361053467
10.0,0.0558813102543354
11.0,0.05365972965955734
12.0,0.05161644518375397
13.0,0.04973359778523445
14.0,0.047863077372312546
15.0,0.046105705201625824
16.0,0.04439116269350052
18.0,0.04161430150270462
20.0,0.03925692290067673
22.0,0.037208981812000275
24.0,0.03531143441796303
26.0,0.033594727516174316
28.0,0.031592465937137604
30.0,0.02932358719408512
32.0,0.027735594660043716
36.0,0.025097500532865524
40.0,0.023722102865576744
44.0,0.022756950929760933
48.0,0.022038018330931664
52.0,0.02108997479081154
56.0,0.020709026604890823
60.0,0.01991529017686844
64.0,0.018460815772414207
72.0,0.0163760706782341
80.0,0.012789667584002018
88.0,0.009858123026788235
96.0,0.0074512409046292305
104.0,0.005986840929836035
112.0,0.00513237901031971
120.0,0.004621256608515978
128.0,0.004993780516088009
144.0,0.005190035793930292
160.0,0.004740653093904257
176.0,0.0020927847363054752
192.0,0.002273512538522482
208.0,0.005527229513972998
224.0,0.0056757028214633465
240.0,0.0053635877557098866
256.0,0.0027280482463538647
288.0,0.004987422376871109
320.0,0.0018894756212830544
352.0,0.000823018082883209
384.0,-0.0009478292777203023
416.0,-0.00264516263268888
448.0,-0.0015809201868250966
480.0,0.0009998142486438155
512.0,0.004804175812751055
576.0,0.00517941452562809
640.0,0.002926446497440338
704.0,0.0030399758834391832
768.0,0.0011796443723142147
832.0,-0.001027006539516151
896.0,-0.001635854714550078
960.0,-0.0003669929865282029
1024.0,0.001537739997729659
1152.0,5.534711817745119e-05
1280.0,0.002461401978507638
1408.0,0.0007507341215386987
1536.0,-0.002003666013479233
1664.0,-0.0038797566667199135
1792.0,-0.0023852200247347355
1920.0,-0.0009689363068901002
2048.0,0.00014436156197916716
2304.0,-0.0008129620109684765
2560.0,0.00019874353893101215
2816.0,-0.0007859596516937017
3072.0,0.0008396196062676609
3328.0,-0.000550098717212677
3584.0,-0.00031992679578252137
3840.0,-0.004674961790442467
4096.0,-0.002071397379040718
4608.0,0.0030117735732346773
5120.0,-0.0024418444372713566
5632.0,-0.003715166822075844
6144.0,-0.00486566498875618
6656.0,-0.0044045643880963326
7168.0,0.0011804067762568593
7680.0,0.0037490881513804197
8192.0,0.002237727167084813
9216.0,0.0008924370631575584
10240.0,-0.0011785728856921196
11264.0,-0.0007484593661502004
12288.0,-0.0006431420333683491
13312.0,-0.0008494077483192086
14336.0,-0.0004333149117883295
end
