version,3.0
numOfCh,1
type,point
parent_name,4-cuts
ch_type,1_1
kcount,1
numberNandB,1
brightnessNandB,1
carpet pos,0
pc,0
Time (ms),CH1 Auto-Correlation
1.0,0.08799855411052704
2.0,0.08129584789276123
3.0,0.07538916915655136
4.0,0.07009654492139816
5.0,0.06562265008687973
6.0,0.061628274619579315
7.0,0.05809386074542999
8.0,0.05485333874821663
9.0,0.051992472261190414
10.0,0.04929041862487793
11.0,0.0468205101788044
12.0,0.044548097997903824
13.0,0.04250112920999527
14.0,0.0406966507434845
15.0,0.039011795073747635
16.0,0.03733139485120773
18.0,0.03433287516236305
20.0,0.03186970576643944
22.0,0.03005642630159855
24.0,0.028390193358063698
26.0,0.026481803506612778
28.0,0.02460181899368763
30.0,0.022739285603165627
32.0,0.02094869501888752
36.0,0.018267393112182617
40.0,0.016699157655239105
44.0,0.014691620133817196
48.0,0.012560502626001835
52.0,0.011392433196306229
56.0,0.009822440333664417
60.0,0.008173922076821327
64.0,0.007547792978584766
72.0,0.006653298158198595
80.0,0.005020645447075367
88.0,0.0035009318962693214
96.0,0.002223568968474865
104.0,0.0008440465899184346
112.0,-0.0007015683804638684
120.0,-0.0024625491350889206
128.0,-0.0026892737951129675
144.0,-0.0030908233020454645
160.0,-0.002511268947273493
176.0,-0.0014746709493920207
192.0,-0.0023989800829440355
208.0,-0.0017922609113156796
224.0,-0.0006129181711003184
240.0,-0.000792409002315253
256.0,-0.0009526167414151132
288.0,-0.002277668099850416
320.0,-0.004551535472273827
352.0,-0.003810660680755973
384.0,-0.0010916641913354397
416.0,0.0013948844280093908
448.0,0.0016486606327816844
480.0,-0.0005117740947753191
512.0,-0.002680168254300952
576.0,0.0032681243028491735
640.0,0.002409998094663024
704.0,-0.004444083198904991
768.0,-0.003984464798122644
832.0,0.0027484032325446606
896.0,0.00037252510082907975
960.0,-0.0044679194688797
1024.0,-0.003594209672883153
1152.0,0.0004822133341804147
1280.0,0.0014139277627691627
1408.0,-0.0006390310009010136
1536.0,0.001583693316206336
1664.0,0.0026344892103224993
1792.0,0.0014167269691824913
1920.0,-0.003846145235002041
2048.0,-0.0019501898204907775
2304.0,-0.0004685700696427375
2560.0,-0.0022641655523329973
2816.0,0.0018540068995207548
3072.0,0.0022843838669359684
3328.0,0.001996175618842244
3584.0,-0.0007072070147842169
3840.0,-0.0019999309442937374
4096.0,-0.003714938648045063
4608.0,-0.00021757242211606354
5120.0,0.00023243385658133775
5632.0,0.0014087838353589177
6144.0,0.0029286942444741726
6656.0,-0.0022239035461097956
7168.0,-0.004202700685709715
7680.0,0.0016831018729135394
8192.0,-0.0015298472717404366
9216.0,0.0009050640510395169
10240.0,-0.0010315906256437302
11264.0,0.0011458242079243064
12288.0,-0.001689757569693029
13312.0,-0.005156481172889471
14336.0,0.002554612932726741
end
