version,3.0
numOfCh,1
type,point
parent_name,4-cuts
ch_type,1_1
kcount,1
numberNandB,1
brightnessNandB,1
carpet pos,0
pc,0
Time (ms),CH1 Auto-Correlation
1.0,0.02752356044948101
2.0,0.02535521425306797
3.0,0.02352149412035942
4.0,0.02194310538470745
5.0,0.020499015226960182
6.0,0.019199619069695473
7.0,0.01805606298148632
8.0,0.01702253147959709
9.0,0.016147635877132416
10.0,0.015364403836429119
11.0,0.014614088460803032
12.0,0.013890405185520649
13.0,0.013181868940591812
14.0,0.012538484297692776
15.0,0.012001624330878258
16.0,0.011525892652571201
18.0,0.010685000568628311
20.0,0.00994462426751852
22.0,0.009310795925557613
24.0,0.008730048313736916
26.0,0.008178009651601315
28.0,0.007630784995853901
30.0,0.0072006951086223125
32.0,0.006852099671959877
36.0,0.006147637963294983
40.0,0.005449831020087004
44.0,0.004983384627848864
48.0,0.00451918737962842
52.0,0.0042631602846086025
56.0,0.00405777245759964
60.0,0.0036578283179551363
64.0,0.0032001009676605463
72.0,0.002468837657943368
80.0,0.002180987037718296
88.0,0.0018416793318465352
96.0,0.002081198850646615
104.0,0.002379555255174637
112.0,0.001869243336841464
120.0,0.0013784425100311637
128.0,0.0015904789324849844
144.0,0.0014378909254446626
160.0,0.0004763958277180791
176.0,-0.0002742573560681194
192.0,-0.0014786613173782825
208.0,-0.00213387212716043
224.0,-0.001984767382964492
240.0,-0.0014999393606558442
256.0,-0.001648154342547059
288.0,-0.0013782132882624865
320.0,-0.0014811655273661017
352.0,-0.0012912582606077194
384.0,-0.0013829699018970132
416.0,-0.0010017305612564087
448.0,-6.051771197235212e-05
480.0,0.0003291869070380926
512.0,0.0003163699875585735
576.0,7.370991806965321e-05
640.0,-1.4333968465507496e-05
704.0,-0.0012270802399143577
768.0,-0.0013554379111155868
832.0,-0.0008391393348574638
896.0,-0.0010916978353634477
960.0,-0.0009009272325783968
1024.0,-0.0005228043301030993
1152.0,0.0006159155745990574
1280.0,0.0019097517943009734
1408.0,0.0005222843610681593
1536.0,-0.0013917970936745405
1664.0,-0.0009344658465124667
1792.0,0.0012958780862390995
1920.0,0.0012482355814427137
2048.0,-0.0007186974980868399
2304.0,0.00014300165639724582
2560.0,0.0011511624325066805
2816.0,-0.0008445931016467512
3072.0,-4.261541471350938e-05
3328.0,5.77646387682762e-05
3584.0,-0.0005394202889874578
3840.0,-0.0004245821328368038
4096.0,-0.0013444172218441963
4608.0,0.0006053512915968895
5120.0,-2.4844233848853037e-05
5632.0,-0.0001942475646501407
6144.0,-0.00037592335138469934
6656.0,-0.00035651386133395135
7168.0,0.00028986274264752865
7680.0,0.0008019339293241501
8192.0,-0.0009392077336087823
9216.0,-5.514729127753526e-05
10240.0,0.0009513176628388464
11264.0,-0.000736668414901942
12288.0,0.0005312745925039053
13312.0,0.0001801482867449522
14336.0,-0.001630646176636219
end
