version,3.0
numOfCh,1
type,point
parent_name,4-cuts
ch_type,1_1
kcount,1
numberNandB,1
brightnessNandB,1
carpet pos,0
pc,0
Time (ms),CH1 Auto-Correlation
1.0,0.027009345591068268
2.0,0.02491980604827404
3.0,0.023123199120163918
4.0,0.02159365452826023
5.0,0.020253831520676613
6.0,0.01908545382320881
7.0,0.018062833696603775
8.0,0.01713361032307148
9.0,0.016332507133483887
10.0,0.015561330132186413
11.0,0.014815481379628181
12.0,0.014113364741206169
13.0,0.01345609687268734
14.0,0.012875339947640896
15.0,0.012329879216849804
16.0,0.01184514444321394
18.0,0.010997962206602097
20.0,0.010200470685958862
22.0,0.00951474905014038
24.0,0.008914261125028133
26.0,0.008374029770493507
28.0,0.007902279496192932
30.0,0.007466995622962713
32.0,0.007000329904258251
36.0,0.006223962642252445
40.0,0.005861853249371052
44.0,0.005490535404533148
48.0,0.005238777957856655
52.0,0.004926994442939758
56.0,0.004549098201096058
60.0,0.004373398143798113
64.0,0.004129100125283003
72.0,0.0037092058919370174
80.0,0.0035630075726658106
88.0,0.0031926275696605444
96.0,0.003127588890492916
104.0,0.002491392195224762
112.0,0.001680169254541397
120.0,0.0016598060028627515
128.0,0.0022380894515663385
144.0,0.0011569550260901451
160.0,0.0005897178198210895
176.0,-0.00016653766215313226
192.0,-0.0006387742469087243
208.0,-0.00032973135239444673
224.0,0.00022531970171257854
240.0,-0.00011266425281064585
256.0,-0.0006095754215493798
288.0,-0.00018336658831685781
320.0,-0.000611836789175868
352.0,-0.0010252823121845722
384.0,-0.0006811759667471051
416.0,-0.0004021725326310843
448.0,-0.0002774830791167915
480.0,-0.00044249091297388077
512.0,-0.0009548377129249275
576.0,-0.0007198014645837247
640.0,-0.0007518694619648159
704.0,-0.0001935230102390051
768.0,0.0004981868551112711
832.0,0.0002655876742210239
896.0,0.0007200433756224811
960.0,-0.000281484448350966
1024.0,-0.0013271542266011238
1152.0,-0.0015469897771254182
1280.0,-0.0009317845106124878
1408.0,-0.00041468124254606664
1536.0,0.0008523616124875844
1664.0,0.0006047965143807232
1792.0,-9.962886542780325e-05
1920.0,0.0003414058592170477
2048.0,-0.00014507744344882667
2304.0,0.0003382836002856493
2560.0,0.0006483001634478569
2816.0,-0.0006662161904387176
3072.0,8.027294825296849e-05
3328.0,-0.0006252786261029541
3584.0,-0.0013091193977743387
3840.0,-0.0004537500790320337
4096.0,0.0016459496691823006
4608.0,8.72716773301363e-05
5120.0,-0.0009723789407871664
5632.0,-0.00014024374831933528
6144.0,-0.0001464226661482826
6656.0,0.0005575816030614078
7168.0,0.0006762684788554907
7680.0,-0.00030315163894556463
8192.0,-0.0008218036382459104
9216.0,-0.0005396907217800617
10240.0,0.0004151228058617562
11264.0,-4.2092751755262725e-06
12288.0,-0.000381756603019312
13312.0,0.0004536090127658099
14336.0,0.0015474238898605108
end
