version,3.0
numOfCh,1
type,point
parent_name,4-cuts
ch_type,1_1
kcount,1
numberNandB,1
brightnessNandB,1
carpet pos,0
pc,0
Time (ms),CH1 Auto-Correlation
1.0,0.09196604043245316
2.0,0.08521953225135803
3.0,0.07945188879966736
4.0,0.07427399605512619
5.0,0.06967714428901672
6.0,0.06570892035961151
7.0,0.06211259216070175
8.0,0.05880693718791008
9.0,0.05564417690038681
10.0,0.05274151265621185
11.0,0.05025549978017807
12.0,0.04781296104192734
13.0,0.04573146626353264
14.0,0.04377191513776779
15.0,0.04202503710985184
16.0,0.04042347893118858
18.0,0.03753334656357765
20.0,0.03484973683953285
22.0,0.032240211963653564
24.0,0.029838386923074722
26.0,0.027655165642499924
28.0,0.025929231196641922
30.0,0.02461809664964676
32.0,0.023252813145518303
36.0,0.020272046327590942
40.0,0.018627623096108437
44.0,0.01787438802421093
48.0,0.016904719173908234
52.0,0.015889303758740425
56.0,0.015524628572165966
60.0,0.015279434621334076
64.0,0.015415553003549576
72.0,0.015825511887669563
80.0,0.015286988578736782
88.0,0.013468541204929352
96.0,0.01065781433135271
104.0,0.009564577601850033
112.0,0.008047137409448624
120.0,0.006210677325725555
128.0,0.006144221872091293
144.0,0.007052651606500149
160.0,0.005665465723723173
176.0,0.0018152185948565602
192.0,0.002728966763243079
208.0,0.0019489803817123175
224.0,0.00201347260735929
240.0,0.0024414444342255592
256.0,0.0020820919889956713
288.0,0.0013336576521396637
320.0,0.0008938045357353985
352.0,-0.0011413382599130273
384.0,-0.00020020017109345645
416.0,-0.0008548842160962522
448.0,-0.0013379422016441822
480.0,-0.0035578834358602762
512.0,-0.003835163079202175
576.0,-0.0021060637664049864
640.0,-0.0008003526600077748
704.0,0.0014150462811812758
768.0,0.002353230956941843
832.0,0.0014445815468207002
896.0,-0.0025046824011951685
960.0,0.000377783173462376
1024.0,0.0014423133106902242
1152.0,0.003552905982360244
1280.0,-0.0013244469882920384
1408.0,0.0019265329465270042
1536.0,-0.004340264946222305
1664.0,-0.0028864049818366766
1792.0,0.0025403639301657677
1920.0,0.0014665916096419096
2048.0,0.0010412541450932622
2304.0,-0.0017935580108314753
2560.0,-0.0009941279422491789
2816.0,0.00010917952022282407
3072.0,-0.0008105444721877575
3328.0,-0.007340028416365385
3584.0,0.001089382218196988
3840.0,0.0009275582851842046
4096.0,0.0024533148389309645
4608.0,0.00026366824749857187
5120.0,0.0012354269856587052
5632.0,-0.0038718932773917913
6144.0,0.0035774055868387222
6656.0,0.0018548229709267616
7168.0,-0.002602191874757409
7680.0,-0.0028683904092758894
8192.0,-0.0023586838506162167
9216.0,-0.0024059468414634466
10240.0,0.0005081892013549805
11264.0,-0.000920895196031779
12288.0,-0.0005776260513812304
13312.0,0.0019231275655329227
14336.0,-0.0007353441324084997
end
