version,3.0
numOfCh,1
type,point
parent_name,4-cuts
ch_type,1_1
kcount,1
numberNandB,1
brightnessNandB,1
carpet pos,0
pc,0
Time (ms),CH1 Auto-Correlation
1.0,0.08105643093585968
2.0,0.07419778406620026
3.0,0.06828557699918747
4.0,0.0631219744682312
5.0,0.05861632898449898
6.0,0.05475069582462311
7.0,0.05109890177845955
8.0,0.04764695465564728
9.0,0.044845715165138245
10.0,0.04229367524385452
11.0,0.03999589383602142
12.0,0.03767907992005348
13.0,0.035770975053310394
14.0,0.03423566743731499
15.0,0.03297491371631622
16.0,0.031818024814128876
18.0,0.02957749366760254
20.0,0.027871914207935333
22.0,0.026673171669244766
24.0,0.025220464915037155
26.0,0.023575671017169952
28.0,0.02202899381518364
30.0,0.02089064195752144
32.0,0.019826261326670647
36.0,0.018443232402205467
40.0,0.01715288683772087
44.0,0.01584598608314991
48.0,0.014283984899520874
52.0,0.013158719055354595
56.0,0.0118276197463274
60.0,0.011052001267671585
64.0,0.010881384834647179
72.0,0.00974258128553629
80.0,0.00781494565308094
88.0,0.005790290422737598
96.0,0.005688248667865992
104.0,0.006323290057480335
112.0,0.006755854934453964
120.0,0.007137665990740061
128.0,0.007797972299158573
144.0,0.008231469430029392
160.0,0.0084038395434618
176.0,0.008313841186463833
192.0,0.004825581330806017
208.0,0.00339657929725945
224.0,0.0031610906589776278
240.0,0.0026633129455149174
256.0,0.0031059563625603914
288.0,0.0038349402602761984
320.0,0.003745109774172306
352.0,0.004567730240523815
384.0,0.00495294900611043
416.0,0.0018497983692213893
448.0,0.002188317710533738
480.0,0.001880592666566372
512.0,0.0033589766826480627
576.0,-2.0644029063987546e-05
640.0,0.0006006929907016456
704.0,0.00047858490142971277
768.0,0.0009570628171786666
832.0,0.004376146011054516
896.0,0.0030192523263394833
960.0,0.002579738851636648
1024.0,0.00020586846221704036
1152.0,-0.0013662425335496664
1280.0,-0.002030174946412444
1408.0,0.0014372310834005475
1536.0,0.0003309161984361708
1664.0,-0.001711833057925105
1792.0,0.001210519578307867
1920.0,0.0003899341099895537
2048.0,-2.462814336468e-05
2304.0,0.00020773491996806115
2560.0,-0.0011494127102196217
2816.0,0.0005022730911150575
3072.0,0.0017277671722695231
3328.0,0.0010039183543995023
3584.0,0.00016943355149123818
3840.0,0.0026759901084005833
4096.0,0.0015932063106447458
4608.0,-0.0005377904162742198
5120.0,-0.0026488141156733036
5632.0,-0.0010479618795216084
6144.0,0.0007902920478954911
6656.0,0.00039638247108086944
7168.0,-0.0010570130543783307
7680.0,-0.0018384931609034538
8192.0,-0.0005280015175230801
9216.0,-0.004751816391944885
10240.0,0.003818293334916234
11264.0,-0.002155497670173645
12288.0,-0.005293240305036306
13312.0,-0.0056603336706757545
14336.0,0.004063597414642572
end
