version,3.0
numOfCh,1
type,point
parent_name,4-cuts
ch_type,1_1
kcount,1
numberNandB,1
brightnessNandB,1
carpet pos,0
pc,0
Time (ms),CH1 Auto-Correlation
1.0,0.02905777283012867
2.0,0.026882898062467575
3.0,0.025027094408869743
4.0,0.02353464625775814
5.0,0.022198574617505074
6.0,0.02098199911415577
7.0,0.019920891150832176
8.0,0.018975459039211273
9.0,0.018066681921482086
10.0,0.01718771457672119
11.0,0.016455771401524544
12.0,0.015711646527051926
13.0,0.015025104396045208
14.0,0.014386618509888649
15.0,0.013847170397639275
16.0,0.013298673555254936
18.0,0.012392801232635975
20.0,0.011689629405736923
22.0,0.010901500470936298
24.0,0.010236185044050217
26.0,0.009641110897064209
28.0,0.009172610007226467
30.0,0.008734025061130524
32.0,0.008246045559644699
36.0,0.007465319242328405
40.0,0.006968135014176369
44.0,0.006685406435281038
48.0,0.006227359641343355
52.0,0.005829295143485069
56.0,0.005459348205476999
60.0,0.005315427668392658
64.0,0.005286058876663446
72.0,0.004748546984046698
80.0,0.004585428163409233
88.0,0.005257660988718271
96.0,0.005113932304084301
104.0,0.0049692485481500626
112.0,0.004832393955439329
120.0,0.004623099230229855
128.0,0.004291964694857597
144.0,0.004052904900163412
160.0,0.003110794583335519
176.0,0.0023498337250202894
192.0,0.002285597613081336
208.0,0.0023320128675550222
224.0,0.0019752082880586386
240.0,0.0017325641820207238
256.0,0.0013512164587154984
288.0,0.00027363700792193413
320.0,-0.0005558147677220404
352.0,-0.00017958474927581847
384.0,0.0004961938830092549
416.0,0.00023355413577519357
448.0,0.0001364369090879336
480.0,-0.000858939893078059
512.0,-0.0003392878279555589
576.0,-0.00020609321654774249
640.0,-0.00072251952951774
704.0,-0.0010341189336031675
768.0,-0.00024852732894942164
832.0,-0.0007425912190228701
896.0,-0.0007538818172179163
960.0,-0.001277618808671832
1024.0,-0.00011998281115666032
1152.0,-0.0014438083162531257
1280.0,-0.000545872375369072
1408.0,0.0006053336546756327
1536.0,-0.0002485961595084518
1664.0,-0.0016523117665201426
1792.0,-0.0009012422524392605
1920.0,-0.0002919923572335392
2048.0,-0.0003000750148203224
2304.0,-0.00016465486260131001
2560.0,-0.0011088537285104394
2816.0,-0.0011795879108831286
3072.0,-0.0014918294036760926
3328.0,-1.4550363630405627e-05
3584.0,0.0010110223665833473
3840.0,0.0022943452931940556
4096.0,0.0014102313434705138
4608.0,0.0003024237521458417
5120.0,-4.493926098803058e-05
5632.0,-0.000428924075094983
6144.0,-0.0005942116840742528
6656.0,-0.0009653022862039506
7168.0,-0.0011422823881730437
7680.0,0.0012646777322515845
8192.0,-0.00043987383833155036
9216.0,0.0013151350431144238
10240.0,-0.00041232488001696765
11264.0,-0.0007953835884109139
12288.0,-0.0007464090595021844
13312.0,5.7770685089053586e-05
14336.0,0.001065727905370295
end
