version,3.0
numOfCh,1
type,point
parent_name,4-cuts
ch_type,1_1
kcount,1
numberNandB,1
brightnessNandB,1
carpet pos,0
pc,0
Time (ms),CH1 Auto-Correlation
1.0,0.028757749125361443
2.0,0.02659384161233902
3.0,0.024715088307857513
4.0,0.0230562686920166
5.0,0.021601594984531403
6.0,0.020347818732261658
7.0,0.01923951879143715
8.0,0.01827205903828144
9.0,0.017395364120602608
10.0,0.01658528670668602
11.0,0.015795743092894554
12.0,0.015063578262925148
13.0,0.014347964897751808
14.0,0.013642258942127228
15.0,0.012949931435286999
16.0,0.0123169319704175
18.0,0.011207615956664085
20.0,0.010341960936784744
22.0,0.009620290249586105
24.0,0.008991294540464878
26.0,0.008466366678476334
28.0,0.007969861850142479
30.0,0.007484821602702141
32.0,0.007038550917059183
36.0,0.006128974724560976
40.0,0.0054466198198497295
44.0,0.004837450105696917
48.0,0.00439541507512331
52.0,0.0039190566167235374
56.0,0.0033558011054992676
60.0,0.002951184054836631
64.0,0.002473194617778063
72.0,0.0017886994173750281
80.0,0.0017625890905037522
88.0,0.001597222755663097
96.0,0.001167511916719377
104.0,0.0006614192388951778
112.0,0.0003422494628466666
120.0,0.0005638803704641759
128.0,0.0010326611809432507
144.0,0.0014186798362061381
160.0,0.0014037670334801078
176.0,0.0008030374883674085
192.0,0.0006714530172757804
208.0,0.0005536833195947111
224.0,0.0006271521560847759
240.0,0.0009049798245541751
256.0,0.001525700674392283
288.0,0.0019258488900959492
320.0,0.0009277525241486728
352.0,0.0009876152034848928
384.0,-0.00042525347089394927
416.0,-0.00021271329023875296
448.0,4.569939846987836e-06
480.0,-0.000416522758314386
512.0,-0.00024068851780612022
576.0,0.00027678071637637913
640.0,0.0002372881572227925
704.0,0.0007444297079928219
768.0,-1.8086376485371147e-06
832.0,-0.0004569512384478003
896.0,-0.0014640026492998004
960.0,-0.0004736218834295869
1024.0,-0.0010469286935403943
1152.0,-0.0009319320088252425
1280.0,-0.0008928801398724318
1408.0,-0.0003792986390180886
1536.0,-0.00044239303679205477
1664.0,-0.00010129759175470099
1792.0,0.0009966815123334527
1920.0,0.0007928700069896877
2048.0,0.0005557840340770781
2304.0,0.00035558780655264854
2560.0,-0.00010295788524672389
2816.0,0.0003549927787389606
3072.0,-0.00014301414194051176
3328.0,0.0005741516361013055
3584.0,0.0006454563117586076
3840.0,8.265289943665266e-05
4096.0,-7.541340892203152e-05
4608.0,-0.0009879500139504671
5120.0,-0.0003543159400578588
5632.0,-0.00022691440244670957
6144.0,-0.00016324923490174115
6656.0,-0.001088381977751851
7168.0,0.00023168542247731239
7680.0,0.000522177666425705
8192.0,-0.0007109047146514058
9216.0,-0.0006192912696860731
10240.0,0.0003738820378202945
11264.0,0.0005465047433972359
12288.0,0.0003872656379826367
13312.0,3.144774382235482e-05
14336.0,-2.6608135158312507e-05
end
