version,3.0
numOfCh,1
type,point
parent_name,4-cuts
ch_type,1_1
kcount,1
numberNandB,1
brightnessNandB,1
carpet pos,0
pc,0
Time (ms),CH1 Auto-Correlation
1.0,0.0947670042514801
2.0,0.08789492398500443
3.0,0.0820363312959671
4.0,0.07665277272462845
5.0,0.07179637253284454
6.0,0.06762011349201202
7.0,0.06390148401260376
8.0,0.0605706125497818
9.0,0.05762312188744545
10.0,0.054868780076503754
11.0,0.05229094624519348
12.0,0.04991425573825836
13.0,0.04755764827132225
14.0,0.04553663730621338
15.0,0.043592419475317
16.0,0.04170732572674751
18.0,0.0380600206553936
20.0,0.034437838941812515
22.0,0.03137530758976936
24.0,0.02867921255528927
26.0,0.026274068281054497
28.0,0.024080127477645874
30.0,0.02210777997970581
32.0,0.02072812244296074
36.0,0.019788846373558044
40.0,0.018239369615912437
44.0,0.016283417120575905
48.0,0.014517300762236118
52.0,0.013156848959624767
56.0,0.012691132724285126
60.0,0.011942076496779919
64.0,0.010996445082128048
72.0,0.009627839550375938
80.0,0.008421062491834164
88.0,0.00806808564811945
96.0,0.008227761834859848
104.0,0.007197733502835035
112.0,0.00621184054762125
120.0,0.005342490039765835
128.0,0.005156766157597303
144.0,0.00616533774882555
160.0,0.0031086071394383907
176.0,0.0012997174635529518
192.0,0.0023867739364504814
208.0,0.004997545853257179
224.0,0.004615151323378086
240.0,0.0033224227372556925
256.0,0.002034562174230814
288.0,0.0027460462879389524
320.0,0.004161829594522715
352.0,0.00292308465577662
384.0,-0.0009172221180051565
416.0,-0.0013552452437579632
448.0,-0.0031387878116220236
480.0,-0.002475634217262268
512.0,-0.003529264824464917
576.0,-0.00048118230188265443
640.0,0.001410657074302435
704.0,-0.0011759804328903556
768.0,-0.0026104594580829144
832.0,-0.005241646897047758
896.0,-0.0019795564003288746
960.0,0.006476663984358311
1024.0,0.005427897907793522
1152.0,-0.00012725456326734275
1280.0,-0.00030217086896300316
1408.0,-0.0008277168381027877
1536.0,0.0001428744290024042
1664.0,0.0001089205252355896
1792.0,0.0024425031151622534
1920.0,-0.0010093144373968244
2048.0,0.0011605836916714907
2304.0,0.0008523230790160596
2560.0,-0.0018810208421200514
2816.0,0.00034890841925516725
3072.0,0.001784282154403627
3328.0,0.0011273646960034966
3584.0,0.00010221986303804442
3840.0,-0.00430962024256587
4096.0,-0.0015362132107838988
4608.0,-0.0009157410240732133
5120.0,-0.0010372248943895102
5632.0,-0.003303562058135867
6144.0,-0.0026228129863739014
6656.0,-0.003238205099478364
7168.0,-0.0017686671344563365
7680.0,0.003087012330070138
8192.0,-0.0004423718200996518
9216.0,-0.00013062289508525282
10240.0,0.0026554581709206104
11264.0,0.0008781999349594116
12288.0,-0.0012211442226544023
13312.0,-0.00039866939187049866
14336.0,-0.0018778071971610188
end
