version,3.0
numOfCh,1
type,point
parent_name,4-cuts
ch_type,1_1
kcount,1
numberNandB,1
brightnessNandB,1
carpet pos,0
pc,0
Time (ms),CH1 Auto-Correlation
1.0,0.03877204656600952
2.0,0.03552262485027313
3.0,0.032727181911468506
4.0,0.03025362826883793
5.0,0.028114942833781242
6.0,0.02622314728796482
7.0,0.024506673216819763
8.0,0.02298033982515335
9.0,0.02160513773560524
10.0,0.02046511135995388
11.0,0.01936485804617405
12.0,0.018442120403051376
13.0,0.01762493886053562
14.0,0.01689314655959606
15.0,0.016179971396923065
16.0,0.015483091585338116
18.0,0.014164850115776062
20.0,0.013056309893727303
22.0,0.012159187346696854
24.0,0.01142098754644394
26.0,0.01082522515207529
28.0,0.010363201610744
30.0,0.010036502964794636
32.0,0.009698768146336079
36.0,0.00910298153758049
40.0,0.008732801303267479
44.0,0.008272538892924786
48.0,0.007834247313439846
52.0,0.007393065840005875
56.0,0.007140315603464842
60.0,0.0065682800486683846
64.0,0.005888224579393864
72.0,0.005085640121251345
80.0,0.004250353202223778
88.0,0.0034343546722084284
96.0,0.002464312594383955
104.0,0.0019745517056435347
112.0,0.0021788524463772774
120.0,0.0027749177534133196
128.0,0.0031288007739931345
144.0,0.0023716974537819624
160.0,0.001961252186447382
176.0,0.0017364417435601354
192.0,0.0020123242866247892
208.0,0.0012028247583657503
224.0,-0.00016687854076735675
240.0,-0.0005221519386395812
256.0,-0.0008759647025726736
288.0,-0.00016746656910981983
320.0,0.0003472701064310968
352.0,0.0007344017503783107
384.0,-0.0002125997852999717
416.0,-0.0013897611061111093
448.0,-0.0004935362958349288
480.0,-0.0012948844814673066
512.0,-0.0009498732979409397
576.0,-0.00029259355505928397
640.0,-0.0005017078947275877
704.0,-0.0005873303744010627
768.0,-0.0009666492114774883
832.0,-0.000509051897097379
896.0,0.0012033897219225764
960.0,0.0005562688456848264
1024.0,0.00032223950256593525
1152.0,0.0004819357709493488
1280.0,-0.0010796576971188188
1408.0,-0.0003695047926157713
1536.0,0.0014574495144188404
1664.0,-0.00022439083841163665
1792.0,5.986496398691088e-05
1920.0,0.0015223559457808733
2048.0,0.0011459082597866654
2304.0,-0.000613289070315659
2560.0,0.00029308785451576114
2816.0,-0.0016400667373090982
3072.0,0.00034018722362816334
3328.0,0.0006153819849714637
3584.0,0.0006080169114284217
3840.0,9.636387403588742e-05
4096.0,0.00018095647101290524
4608.0,4.080083454027772e-05
5120.0,5.197475911700167e-05
5632.0,-0.002040682127699256
6144.0,-0.0008905103313736618
6656.0,0.0008465381106361747
7168.0,-0.0005595406400971115
7680.0,-0.0014662430621683598
8192.0,0.0002824903349392116
9216.0,-0.00034326990135014057
10240.0,-0.00017130064952652901
11264.0,0.0004904991947114468
12288.0,0.0003982288180850446
13312.0,0.00034381361911073327
14336.0,-0.00011157528206240386
end
