version,3.0
numOfCh,1
type,point
parent_name,4-cuts
ch_type,1_1
kcount,1
numberNandB,1
brightnessNandB,1
carpet pos,0
pc,0
Time (ms),CH1 Auto-Correlation
1.0,0.044167716056108475
2.0,0.04098902642726898
3.0,0.03830067813396454
4.0,0.03592871502041817
5.0,0.03382450342178345
6.0,0.03196117281913757
7.0,0.03027942404150963
8.0,0.02873299829661846
9.0,0.027382366359233856
10.0,0.02614743635058403
11.0,0.025135722011327744
12.0,0.02423478662967682
13.0,0.023357639089226723
14.0,0.02254565618932247
15.0,0.021675212308764458
16.0,0.020823366940021515
18.0,0.019478844478726387
20.0,0.01828567497432232
22.0,0.017218660563230515
24.0,0.016304753720760345
26.0,0.015455995686352253
28.0,0.014866300858557224
30.0,0.014341144822537899
32.0,0.013884003274142742
36.0,0.013179144822061062
40.0,0.012542545795440674
44.0,0.011675583198666573
48.0,0.010731009766459465
52.0,0.009971211664378643
56.0,0.009603487327694893
60.0,0.00909097958356142
64.0,0.008708812296390533
72.0,0.0073630185797810555
80.0,0.006398307159543037
88.0,0.005770878866314888
96.0,0.005145357921719551
104.0,0.0047185649164021015
112.0,0.003702093381434679
120.0,0.0029504476115107536
128.0,0.0023082687985152006
144.0,0.0012277839705348015
160.0,0.0013199596432968974
176.0,0.0015393237117677927
192.0,0.0007482981309294701
208.0,0.0017588207265362144
224.0,0.0019280508859083056
240.0,0.0013421622570604086
256.0,0.0012811487540602684
288.0,0.001972549594938755
320.0,0.002409177366644144
352.0,0.003428758354857564
384.0,0.0035536685027182102
416.0,0.0041115484200417995
448.0,0.0033587643411010504
480.0,0.003161376342177391
512.0,0.0033443090505898
576.0,0.003552813781425357
640.0,0.0023273059632629156
704.0,0.0013257438549771905
768.0,-0.00013830384705215693
832.0,-0.0007675325614400208
896.0,-0.0003007488849107176
960.0,-0.0003405872848816216
1024.0,0.0011436038184911013
1152.0,0.002198370173573494
1280.0,-0.0011047060834243894
1408.0,-0.0018766337307170033
1536.0,-0.0012573247076943517
1664.0,0.00026476330822333694
1792.0,-0.0018646691460162401
1920.0,-0.0004179946263320744
2048.0,-0.002003652974963188
2304.0,-0.0003067833895329386
2560.0,-5.2119856263743713e-05
2816.0,0.0015766118885949254
3072.0,0.0020085936412215233
3328.0,0.0023164774756878614
3584.0,0.002157948212698102
3840.0,-0.0005561863072216511
4096.0,0.0004862035857513547
4608.0,-0.0007570997113361955
5120.0,-0.00030006453744135797
5632.0,0.0004911013529635966
6144.0,0.0011742206988856196
6656.0,0.00042250732076354325
7168.0,-0.002358481753617525
7680.0,-0.002827578457072377
8192.0,-0.0018010807689279318
9216.0,-0.0007754632970318198
10240.0,-0.0013394512934610248
11264.0,-0.00038205497548915446
12288.0,-0.0012120469473302364
13312.0,-0.0042774793691933155
14336.0,0.00028080795891582966
end
