version,3.0
numOfCh,1
type,point
parent_name,4-cuts
ch_type,1_1
kcount,1
numberNandB,1
brightnessNandB,1
carpet pos,0
pc,0
Time (ms),CH1 Auto-Correlation
1.0,0.040211696177721024
2.0,0.03711686283349991
3.0,0.03451574593782425
4.0,0.03230613097548485
5.0,0.030452603474259377
6.0,0.02878696843981743
7.0,0.027300849556922913
8.0,0.02589407190680504
9.0,0.02464766800403595
10.0,0.023490268737077713
11.0,0.02240212820470333
12.0,0.021480167284607887
13.0,0.02069997414946556
14.0,0.01994529739022255
15.0,0.019205214455723763
16.0,0.018516335636377335
18.0,0.01741824857890606
20.0,0.016549091786146164
22.0,0.015689965337514877
24.0,0.014950400218367577
26.0,0.014253624714910984
28.0,0.013456935063004494
30.0,0.012676812708377838
32.0,0.012065350078046322
36.0,0.01111567486077547
40.0,0.01042209193110466
44.0,0.00962150190025568
48.0,0.00857061892747879
52.0,0.00752212293446064
56.0,0.007029621861875057
60.0,0.006621454376727343
64.0,0.0064390734769403934
72.0,0.006093858741223812
80.0,0.005493399687111378
88.0,0.005110939033329487
96.0,0.004585319198668003
104.0,0.004436826333403587
112.0,0.0037452210672199726
120.0,0.0030895064119249582
128.0,0.0022774324752390385
144.0,0.00198961328715086
160.0,0.002227586228400469
176.0,0.002619079314172268
192.0,0.0026961490511894226
208.0,0.002132218098267913
224.0,0.0019101961515843868
240.0,0.0016213252674788237
256.0,0.000928091409150511
288.0,0.00034989535924978554
320.0,-0.001550546265207231
352.0,-0.0010635198559612036
384.0,0.0005410351441241801
416.0,0.0007351231179200113
448.0,0.0004760108713526279
480.0,0.00019772899395320565
512.0,-0.0005304140504449606
576.0,-0.0004325685149524361
640.0,-0.00020601501455530524
704.0,-6.819773989263922e-05
768.0,0.00036491864011622965
832.0,0.0018002470023930073
896.0,-0.0007387391524389386
960.0,-0.0005110130878165364
1024.0,-0.0003344156430102885
1152.0,-0.0009824838489294052
1280.0,-0.00044672994408756495
1408.0,7.724607712589204e-05
1536.0,0.0004784304474014789
1664.0,0.001495018252171576
1792.0,0.0008537778630852699
1920.0,-0.00013724253221880645
2048.0,-0.00011223588808206841
2304.0,0.00012250564759597182
2560.0,-0.0006564439390785992
2816.0,0.00027169150416739285
3072.0,0.0027685293462127447
3328.0,0.0009570017573423684
3584.0,-0.0007125947158783674
3840.0,1.4143170119496062e-05
4096.0,-0.0006336456281132996
4608.0,0.0005170481745153666
5120.0,-0.00038575398502871394
5632.0,-0.0028553346637636423
6144.0,-0.0013299392303451896
6656.0,-0.0005920114926993847
7168.0,-0.00018451630603522062
7680.0,0.0012401039712131023
8192.0,-0.000886479567270726
9216.0,-0.0017150348285213113
10240.0,0.0005348743870854378
11264.0,-0.0004016669117845595
12288.0,0.0009106062352657318
13312.0,-0.0004724070895463228
14336.0,0.0035366558004170656
end
