version,3.0
numOfCh,1
type,point
parent_name,4-cuts
ch_type,1_1
kcount,1
numberNandB,1
brightnessNandB,1
carpet pos,0
pc,0
Time (ms),CH1 Auto-Correlation
1.0,0.046627793461084366
2.0,0.04343009367585182
3.0,0.040612030774354935
4.0,0.038252316415309906
5.0,0.036119814962148666
6.0,0.03425772488117218
7.0,0.03267211839556694
8.0,0.031176364049315453
9.0,0.02974644862115383
10.0,0.02843671292066574
11.0,0.02723383717238903
12.0,0.026224756613373756
13.0,0.025321148335933685
14.0,0.024483608081936836
15.0,0.023692451417446136
16.0,0.02292417548596859
18.0,0.021585587412118912
20.0,0.02039680816233158
22.0,0.01923169381916523
24.0,0.018265392631292343
26.0,0.017445864155888557
28.0,0.016682665795087814
30.0,0.01595481112599373
32.0,0.015317634679377079
36.0,0.014174802228808403
40.0,0.013333640992641449
44.0,0.012718230485916138
48.0,0.01215545553714037
52.0,0.011627420783042908
56.0,0.011508759111166
60.0,0.011487928219139576
64.0,0.011320306919515133
72.0,0.010714021511375904
80.0,0.009680643677711487
88.0,0.00909692607820034
96.0,0.008245582692325115
104.0,0.008419951424002647
112.0,0.008066686801612377
120.0,0.007566102314740419
128.0,0.007370390463620424
144.0,0.006814716383814812
160.0,0.0065501416102051735
176.0,0.005315759219229221
192.0,0.004220856353640556
208.0,0.004851913545280695
224.0,0.0037742226850241423
240.0,0.0026144315488636494
256.0,0.002202379982918501
288.0,0.002155914204195142
320.0,0.0002562660665716976
352.0,0.0007802448235452175
384.0,-0.0007645983714610338
416.0,-0.001239657518453896
448.0,-0.0005252103437669575
480.0,0.00041072501335293055
512.0,0.00048687722301110625
576.0,-0.00023102638078853488
640.0,0.0006380691775120795
704.0,-0.000703571189660579
768.0,-0.0005204593180678785
832.0,0.0024716074112802744
896.0,0.001477937214076519
960.0,-0.00034793815575540066
1024.0,-0.0007480276399292052
1152.0,-0.0012303796829655766
1280.0,-0.0011679192539304495
1408.0,-0.0005385908298194408
1536.0,-0.0006360434927046299
1664.0,-0.0009470389341004193
1792.0,-0.002027544192969799
1920.0,-0.003245976287871599
2048.0,1.6043984942371026e-05
2304.0,0.0017566648311913013
2560.0,-2.2218435333343223e-05
2816.0,-0.0012232750887051225
3072.0,0.0016562544042244554
3328.0,-0.0012385243317112327
3584.0,-0.0009964897762984037
3840.0,0.00042356475023552775
4096.0,0.0013227713061496615
4608.0,0.0016409531235694885
5120.0,0.0007945398101583123
5632.0,-0.0007964098476804793
6144.0,-0.0015370366163551807
6656.0,-0.004464858211576939
7168.0,-0.0033575785346329212
7680.0,0.0013545008841902018
8192.0,-0.00018315219494979829
9216.0,0.0004346985078882426
10240.0,-0.0009919226868078113
11264.0,-0.0022844106424599886
12288.0,-0.00014707495574839413
13312.0,0.0036945047322660685
14336.0,0.00238327425904572
end
