version,3.0
numOfCh,1
type,point
parent_name,4-cuts
ch_type,1_1
kcount,1
numberNandB,1
brightnessNandB,1
carpet pos,0
pc,0
Time (ms),CH1 Auto-Correlation
1.0,0.0869876816868782
2.0,0.0800824761390686
3.0,0.07412158697843552
4.0,0.0689910277724266
5.0,0.06447099149227142
6.0,0.060540322214365005
7.0,0.057045310735702515
8.0,0.05400742590427399
9.0,0.05118910223245621
10.0,0.048772022128105164
11.0,0.046741191297769547
12.0,0.04523160308599472
13.0,0.04372686147689819
14.0,0.04236479848623276
15.0,0.04080585017800331
16.0,0.039364565163850784
18.0,0.03691810369491577
20.0,0.034955982118844986
22.0,0.03319324180483818
24.0,0.03174139931797981
26.0,0.03023812733590603
28.0,0.028904767706990242
30.0,0.027699140831828117
32.0,0.026650473475456238
36.0,0.023928815498948097
40.0,0.022392820566892624
44.0,0.020289018750190735
48.0,0.019207503646612167
52.0,0.017842916771769524
56.0,0.01586451567709446
60.0,0.01391137856990099
64.0,0.012738834135234356
72.0,0.010876551270484924
80.0,0.008734844624996185
88.0,0.00794586818665266
96.0,0.007668985985219479
104.0,0.007210227660834789
112.0,0.0040520173497498035
120.0,0.003720722859725356
128.0,0.004223712719976902
144.0,0.002651435090228915
160.0,0.0020054897759109735
176.0,0.0031556489411741495
192.0,0.0036745306570082903
208.0,0.004321657586842775
224.0,0.0032738158479332924
240.0,0.002481890143826604
256.0,0.0016198743833228946
288.0,0.0026578011456876993
320.0,0.0037439900916069746
352.0,0.002086921129375696
384.0,0.0036086842883378267
416.0,0.00538991205394268
448.0,0.002079569734632969
480.0,0.000779074034653604
512.0,0.004124883096665144
576.0,0.003499136306345463
640.0,0.0017806829418987036
704.0,0.0035632133949548006
768.0,0.0017762286588549614
832.0,0.00244734575971961
896.0,0.0020604541059583426
960.0,0.0022001408506184816
1024.0,-0.0033530795481055975
1152.0,0.0011020463425666094
1280.0,0.0032132661435753107
1408.0,0.0008888485608622432
1536.0,-0.00027749425498768687
1664.0,-0.0010001027258113027
1792.0,-0.002865143120288849
1920.0,-0.001701732282526791
2048.0,-0.0014462604885920882
2304.0,-0.0044059851206839085
2560.0,-0.001434793695807457
2816.0,-6.276390922721475e-05
3072.0,-0.0023046531714498997
3328.0,-0.0008140517165884376
3584.0,-0.0025767236948013306
3840.0,-0.006670091301202774
4096.0,-0.004149871878325939
4608.0,-0.002250200603157282
5120.0,-0.0012944793561473489
5632.0,0.00098039663862437
6144.0,0.005076507572084665
6656.0,0.0024893879890441895
7168.0,-0.00016791881353128701
7680.0,0.0005611898959614336
8192.0,0.0008049196912907064
9216.0,0.0026710866950452328
10240.0,-0.0029208336491137743
11264.0,-0.0006081163301132619
12288.0,0.0004712421796284616
13312.0,-0.004055606666952372
14336.0,-0.004955098498612642
end
