version,3.0
numOfCh,1
type,point
parent_name,4-cuts
ch_type,1_1
kcount,1
numberNandB,1
brightnessNandB,1
carpet pos,0
pc,0
Time (ms),CH1 Auto-Correlation
1.0,0.026457028463482857
2.0,0.02436506748199463
3.0,0.02252875082194805
4.0,0.020969826728105545
5.0,0.01963908225297928
6.0,0.01842924766242504
7.0,0.01737523265182972
8.0,0.0164599921554327
9.0,0.01565389148890972
10.0,0.014901621267199516
11.0,0.01420576497912407
12.0,0.013553873635828495
13.0,0.013015205971896648
14.0,0.012490959838032722
15.0,0.011936464346945286
16.0,0.011437877081334591
18.0,0.01056909840553999
20.0,0.009735462255775928
22.0,0.009008437395095825
24.0,0.00829219538718462
26.0,0.007609437219798565
28.0,0.007076689507812262
30.0,0.0066256229765713215
32.0,0.006261883303523064
36.0,0.005638482980430126
40.0,0.005039018578827381
44.0,0.004702706355601549
48.0,0.004460804630070925
52.0,0.004104661755263805
56.0,0.0037601767107844353
60.0,0.0034966396633535624
64.0,0.00344340899027884
72.0,0.0033885121811181307
80.0,0.003285299753770232
88.0,0.003059277543798089
96.0,0.0027546356432139874
104.0,0.002507444005459547
112.0,0.0022997434716671705
120.0,0.0018495897529646754
128.0,0.001411243574693799
144.0,0.0009816973470151424
160.0,0.0014615625841543078
176.0,0.0018214817391708493
192.0,0.0018516343552619219
208.0,0.00046552307321690023
224.0,-0.0005050800973549485
240.0,-0.0009328899323008955
256.0,-0.0010409066453576088
288.0,-0.000646831700578332
320.0,-0.0005179260624572635
352.0,-0.0006588590331375599
384.0,-0.0005859136581420898
416.0,0.0005620924639515579
448.0,0.00019374761905055493
480.0,0.00012395912199281156
512.0,-0.0007520712679252028
576.0,0.00011999513662885875
640.0,0.0009073578403331339
704.0,0.0005658367881551385
768.0,0.0007470623240806162
832.0,-0.0006550754187628627
896.0,-0.0009397812536917627
960.0,-0.002476170426234603
1024.0,-0.002082015620544553
1152.0,-0.0007531133596785367
1280.0,0.0005062249256297946
1408.0,0.0005158958956599236
1536.0,7.086412369972095e-05
1664.0,-0.0004065027751494199
1792.0,-0.0005704990471713245
1920.0,0.00013058067997917533
2048.0,-0.00039834558265283704
2304.0,-0.00013561706873588264
2560.0,-0.000615667668171227
2816.0,-0.0003282017132733017
3072.0,0.00027256805333308876
3328.0,0.0002873062912840396
3584.0,0.0010809929808601737
3840.0,9.824331937124953e-05
4096.0,0.0004400077450554818
4608.0,-0.000269333686446771
5120.0,-0.0007194752106443048
5632.0,-0.00019898731261491776
6144.0,-0.00022377808636520058
6656.0,4.030453055747785e-05
7168.0,0.001141170971095562
7680.0,0.0008318325853906572
8192.0,-0.00016863970085978508
9216.0,-0.00036362616810947657
10240.0,0.00028603352257050574
11264.0,-0.0005140625289641321
12288.0,0.00037389335921034217
13312.0,-0.0006138485623523593
14336.0,0.0007327779894694686
end
