version,3.0
numOfCh,1
type,point
parent_name,4-cuts
ch_type,1_1
kcount,1
numberNandB,1
brightnessNandB,1
carpet pos,0
pc,0
Time (ms),CH1 Auto-Correlation
1.0,0.09385699778795242
2.0,0.08692976832389832
3.0,0.08093984425067902
4.0,0.0756068006157875
5.0,0.07110371440649033
6.0,0.06713322550058365
7.0,0.06363607197999954
8.0,0.06048807501792908
9.0,0.05753723159432411
10.0,0.054983366280794144
11.0,0.05252443253993988
12.0,0.05034580081701279
13.0,0.048373740166425705
14.0,0.046362072229385376
15.0,0.04441624879837036
16.0,0.042664866894483566
18.0,0.039095424115657806
20.0,0.03589911013841629
22.0,0.033476345241069794
24.0,0.03148325905203819
26.0,0.029797034338116646
28.0,0.02805471234023571
30.0,0.026472872123122215
32.0,0.02542559988796711
36.0,0.023503322154283524
40.0,0.021148446947336197
44.0,0.019477317109704018
48.0,0.018837232142686844
52.0,0.016996823251247406
56.0,0.015144573524594307
60.0,0.013635026291012764
64.0,0.012480524368584156
72.0,0.01095732394605875
80.0,0.009526505134999752
88.0,0.008022596128284931
96.0,0.008705145679414272
104.0,0.007706672418862581
112.0,0.007043912541121244
120.0,0.00746374623849988
128.0,0.007915857248008251
144.0,0.006959495600312948
160.0,0.0032397154718637466
176.0,0.0025398372672498226
192.0,0.0021847959142178297
208.0,0.002756799105554819
224.0,0.004484861623495817
240.0,0.006179601885378361
256.0,0.005319944582879543
288.0,0.004862315487116575
320.0,0.005851742345839739
352.0,0.005168295465409756
384.0,0.0034599213395267725
416.0,0.0005899066454730928
448.0,-0.0009784952271729708
480.0,0.0006485548801720142
512.0,0.0007831809343770146
576.0,-0.0007417868473567069
640.0,3.1590418075211346e-05
704.0,-0.0004894860903732479
768.0,-0.004012377001345158
832.0,-0.002428717678412795
896.0,-0.002484661526978016
960.0,-0.0030334258917719126
1024.0,-0.0009375970694236457
1152.0,-0.002463060896843672
1280.0,-0.0021312099415808916
1408.0,-0.005206299480050802
1536.0,-0.0010262018768116832
1664.0,-0.002158602699637413
1792.0,0.005392149090766907
1920.0,0.0033409520983695984
2048.0,0.0014617227716371417
2304.0,0.0027810067404061556
2560.0,0.0001681437570368871
2816.0,-0.0018044697353616357
3072.0,-0.0004055075696669519
3328.0,-0.0012350112665444613
3584.0,0.0037052121479064226
3840.0,0.004799987189471722
4096.0,0.002534286817535758
4608.0,-0.003622400341555476
5120.0,-0.004772536922246218
5632.0,-0.001357130124233663
6144.0,0.00014879103400744498
6656.0,-0.0021586886141449213
7168.0,-0.000448995124315843
7680.0,0.0016855205176398158
8192.0,-0.000847780960611999
9216.0,-0.0035573411732912064
10240.0,0.0009656628826633096
11264.0,0.002325153909623623
12288.0,-0.0018335279310122132
13312.0,0.001665826071985066
14336.0,0.0024630839470773935
end
