version,3.0
numOfCh,1
type,point
parent_name,4-cuts
ch_type,1_1
kcount,1
numberNandB,1
brightnessNandB,1
carpet pos,0
pc,0
Time (ms),CH1 Auto-Correlation
1.0,0.08379673212766647
2.0,0.07738246768712997
3.0,0.0719607025384903
4.0,0.06725437939167023
5.0,0.06294944137334824
6.0,0.05914368852972984
7.0,0.05572149157524109
8.0,0.052586376667022705
9.0,0.04968985915184021
10.0,0.046933967620134354
11.0,0.044475339353084564
12.0,0.042304977774620056
13.0,0.040483929216861725
14.0,0.03883817046880722
15.0,0.03736584261059761
16.0,0.03600728139281273
18.0,0.03274175897240639
20.0,0.029541082680225372
22.0,0.026634838432073593
24.0,0.02418140135705471
26.0,0.02203560620546341
28.0,0.020275413990020752
30.0,0.018884290009737015
32.0,0.017812339588999748
36.0,0.016211528331041336
40.0,0.015527001582086086
44.0,0.015405834652483463
48.0,0.015411588363349438
52.0,0.015205715782940388
56.0,0.014479968696832657
60.0,0.014265443198382854
64.0,0.013969536870718002
72.0,0.012318132445216179
80.0,0.011410280130803585
88.0,0.010071503929793835
96.0,0.007792881689965725
104.0,0.006246230099350214
112.0,0.0042848968878388405
120.0,0.0019908337853848934
128.0,0.0006939265877008438
144.0,0.000437687587691471
160.0,0.002763354452326894
176.0,0.0027062068693339825
192.0,0.0007096410263329744
208.0,0.00044300209265202284
224.0,0.0021561472676694393
240.0,0.002417090581730008
256.0,-3.123090209555812e-05
288.0,-0.0012072306126356125
320.0,-0.0016366400523111224
352.0,-0.0014091678895056248
384.0,0.00027431975468061864
416.0,-0.0007243820000439882
448.0,0.0036283673252910376
480.0,0.0032875945325940847
512.0,0.001183176296763122
576.0,-0.0031632219906896353
640.0,-0.004620468709617853
704.0,-0.000778185436502099
768.0,-0.001304088975302875
832.0,-0.0006477672723121941
896.0,0.0005196622223593295
960.0,0.0008973379153758287
1024.0,0.00040694649214856327
1152.0,0.0002936167293228209
1280.0,-0.0009429988567717373
1408.0,-0.000447991827968508
1536.0,-0.0011731666745617986
1664.0,-0.004234582185745239
1792.0,-0.002984662540256977
1920.0,0.00021265707619022578
2048.0,-0.0032796282321214676
2304.0,-0.0004359029699116945
2560.0,0.00030530846561305225
2816.0,0.003473217599093914
3072.0,-0.001565369195304811
3328.0,-0.0032486177515238523
3584.0,0.00022379464644473046
3840.0,0.003740699030458927
4096.0,-0.0015883351443335414
4608.0,-0.001348104327917099
5120.0,0.0027541080489754677
5632.0,0.0008104522712528706
6144.0,0.00011073714267695323
6656.0,-0.0005194617551751435
7168.0,-0.0037047171499580145
7680.0,-0.0033046125900000334
8192.0,-0.0015005694003775716
9216.0,0.0002101832942571491
10240.0,-0.0006394406664185226
11264.0,0.00129980337806046
12288.0,-0.000963532249443233
13312.0,-0.0010900499764829874
14336.0,0.0020471655298024416
end
