version,3.0
numOfCh,1
type,point
parent_name,4-cuts
ch_type,1_1
kcount,1
numberNandB,1
brightnessNandB,1
carpet pos,0
pc,0
Time (ms),CH1 Auto-Correlation
1.0,0.0401514396071434
2.0,0.036973677575588226
3.0,0.03423624113202095
4.0,0.031830448657274246
5.0,0.02972297929227352
6.0,0.027876658365130424
7.0,0.026292456313967705
8.0,0.024875760078430176
9.0,0.02350573241710663
10.0,0.02225024625658989
11.0,0.02112782932817936
12.0,0.020199613645672798
13.0,0.01938854157924652
14.0,0.018668565899133682
15.0,0.018007401376962662
16.0,0.01742791198194027
18.0,0.01656247116625309
20.0,0.015813780948519707
22.0,0.01508499588817358
24.0,0.014127860777080059
26.0,0.013080189004540443
28.0,0.012131418101489544
30.0,0.011293093673884869
32.0,0.01066556479781866
36.0,0.009832710027694702
40.0,0.009158485569059849
44.0,0.008374126628041267
48.0,0.007618656847625971
52.0,0.007022390607744455
56.0,0.006404819432646036
60.0,0.005899069365113974
64.0,0.0053083812817931175
72.0,0.00428083585575223
80.0,0.0032816219609230757
88.0,0.0026286758948117495
96.0,0.002429390326142311
104.0,0.0018894363893195987
112.0,0.0019011772237718105
120.0,0.0019494156586006284
128.0,0.0028389908839017153
144.0,0.0030270484276115894
160.0,0.002789322519674897
176.0,0.002023661509156227
192.0,0.0004362002946436405
208.0,-0.0006246264092624187
224.0,-0.0010317015694454312
240.0,-0.0006734580965712667
256.0,0.0002737361064646393
288.0,-0.0007812917465344071
320.0,-0.0005155950202606618
352.0,0.0009813089855015278
384.0,0.001068669487722218
416.0,0.0014103028224781156
448.0,0.0004735139955300838
480.0,0.000280803011264652
512.0,0.0003877398557960987
576.0,0.00016460777260363102
640.0,0.0011372240260243416
704.0,0.0014706996735185385
768.0,0.0007132014725357294
832.0,0.0010335056576877832
896.0,0.0018121293978765607
960.0,-0.0003695166378747672
1024.0,0.0020219688303768635
1152.0,0.0004319380677770823
1280.0,-0.0002299424959346652
1408.0,0.0005515717202797532
1536.0,0.0007530950824730098
1664.0,0.00015572633128613234
1792.0,0.0006714641931466758
1920.0,0.00037002514000050724
2048.0,-0.001571150147356093
2304.0,-0.0017598599661141634
2560.0,-0.0006478634313680232
2816.0,-0.0014882987597957253
3072.0,-0.00020313994900789112
3328.0,-0.002276216633617878
3584.0,-0.0005734746227972209
3840.0,-0.0011563595617190003
4096.0,-0.0014298716560006142
4608.0,-0.0007072929292917252
5120.0,0.0016634386265650392
5632.0,-0.0001891162828542292
6144.0,0.0013308211928233504
6656.0,0.0004963946412317455
7168.0,0.0011653474066406488
7680.0,-0.0006649487186223269
8192.0,0.0006184866069816053
9216.0,-0.0010967289563268423
10240.0,-0.0011151322396472096
11264.0,0.0001452410506317392
12288.0,0.0005196543061174452
13312.0,5.1473140047164634e-05
14336.0,-0.00020213174866512418
end
