version,3.0
numOfCh,1
type,point
parent_name,4-cuts
ch_type,1_1
kcount,1
numberNandB,1
brightnessNandB,1
carpet pos,0
pc,0
Time (ms),CH1 Auto-Correlation
1.0,0.02731904201209545
2.0,0.02518283762037754
3.0,0.0232795849442482
4.0,0.021588247269392014
5.0,0.0201564971357584
6.0,0.018887894228100777
7.0,0.017732631415128708
8.0,0.016700545325875282
9.0,0.015799058601260185
10.0,0.014946334064006805
11.0,0.01431160606443882
12.0,0.013718096539378166
13.0,0.013139798305928707
14.0,0.01262621209025383
15.0,0.012115776538848877
16.0,0.011633561924099922
18.0,0.010858139023184776
20.0,0.010158761404454708
22.0,0.009534315206110477
24.0,0.009000021032989025
26.0,0.00847789365798235
28.0,0.007875002920627594
30.0,0.0074348547495901585
32.0,0.00706415856257081
36.0,0.0062598115764558315
40.0,0.0057056681253015995
44.0,0.005303658545017242
48.0,0.0048787253908813
52.0,0.00454843370243907
56.0,0.00424504978582263
60.0,0.004008010029792786
64.0,0.003709258046001196
72.0,0.0028595528565347195
80.0,0.0022262390702962875
88.0,0.0019651090260595083
96.0,0.0017899846425279975
104.0,0.0016228207387030125
112.0,0.0014922466361895204
120.0,0.0010556826600804925
128.0,0.0007864747894927859
144.0,0.0010479739867150784
160.0,0.0010934323072433472
176.0,0.0004855808219872415
192.0,0.00021932025265414268
208.0,-0.00035482662497088313
224.0,0.0006302896654233336
240.0,0.0010893811704590917
256.0,0.0004198507231194526
288.0,0.0012078088475391269
320.0,0.002089878311380744
352.0,0.0019796849228441715
384.0,0.0017634315881878138
416.0,0.0018566001672297716
448.0,0.0008191193919628859
480.0,0.0014397731283679605
512.0,0.0013115612091496587
576.0,0.001730055664665997
640.0,0.0014408930437639356
704.0,0.001804922940209508
768.0,0.0012079807929694653
832.0,0.0016503985971212387
896.0,0.002031472744420171
960.0,0.0021930064540356398
1024.0,0.0024704276584088802
1152.0,0.0014727141242474318
1280.0,0.0004775071865878999
1408.0,0.0010613417252898216
1536.0,0.001201783656142652
1664.0,0.00023255450651049614
1792.0,0.0007491112919524312
1920.0,0.0009027460473589599
2048.0,-0.0009441116126254201
2304.0,-0.0004158910014666617
2560.0,0.0007354760309681296
2816.0,-0.000835640006698668
3072.0,-0.0005922767450101674
3328.0,-0.00037314617657102644
3584.0,3.1698211387265474e-05
3840.0,-0.0007122201495803893
4096.0,0.0008338649058714509
4608.0,0.00018868809274863452
5120.0,0.0011855107732117176
5632.0,0.00020060052338521928
6144.0,0.0011201553279533982
6656.0,-0.000556690152734518
7168.0,-0.0005420179222710431
7680.0,-0.0013933777809143066
8192.0,-0.0018437814433127642
9216.0,-0.0018786232685670257
10240.0,6.52904636808671e-05
11264.0,0.0012645898386836052
12288.0,-0.00037483155028894544
13312.0,-0.0030161975882947445
14336.0,-0.004221165087074041
end
