version,3.0
numOfCh,1
type,point
parent_name,4-cuts
ch_type,1_1
kcount,1
numberNandB,1
brightnessNandB,1
carpet pos,0
pc,0
Time (ms),CH1 Auto-Correlation
1.0,0.028592398390173912
2.0,0.026452528312802315
3.0,0.024586865678429604
4.0,0.022938350215554237
5.0,0.021440988406538963
6.0,0.020153114572167397
7.0,0.01899193786084652
8.0,0.017924150452017784
9.0,0.016968239098787308
10.0,0.01608259789645672
11.0,0.01529237162321806
12.0,0.014524318277835846
13.0,0.013837240636348724
14.0,0.013217002153396606
15.0,0.012630630284547806
16.0,0.012062043882906437
18.0,0.011009962297976017
20.0,0.010064390487968922
22.0,0.009187556803226471
24.0,0.008388277143239975
26.0,0.0076876175589859486
28.0,0.007190022151917219
30.0,0.006906460504978895
32.0,0.0067018731497228146
36.0,0.006303203757852316
40.0,0.005586435552686453
44.0,0.005038648843765259
48.0,0.0046287705190479755
52.0,0.004205548670142889
56.0,0.0037809384521096945
60.0,0.0031827217899262905
64.0,0.0028531569987535477
72.0,0.002729950472712517
80.0,0.0025241710245609283
88.0,0.002811432583257556
96.0,0.0026308391243219376
104.0,0.0021039985585957766
112.0,0.00191919703502208
120.0,0.0016364764887839556
128.0,0.0017009659204632044
144.0,0.0011074569774791598
160.0,0.0016727717593312263
176.0,0.001497498364187777
192.0,0.0004539083456620574
208.0,-0.0001275156973861158
224.0,-0.00035420290078036487
240.0,-0.0004163030826020986
256.0,0.0003604674420785159
288.0,-0.00011239165905863047
320.0,9.43141058087349e-05
352.0,-0.000203284653252922
384.0,6.686027336400002e-05
416.0,0.0002877539664041251
448.0,-0.00024855195078998804
480.0,0.0009411266655661166
512.0,0.00023374932061415166
576.0,-0.0003557942691259086
640.0,-0.0011917052324861288
704.0,-0.0013188458979129791
768.0,-0.0023040995001792908
832.0,-0.002020810963585973
896.0,-0.0005871987668797374
960.0,-0.0014311072882264853
1024.0,-0.0013511312426999211
1152.0,-0.0008076080703176558
1280.0,0.0003045354096684605
1408.0,0.00016998499631881714
1536.0,-0.00020716626022476703
1664.0,-3.738611485459842e-05
1792.0,0.0001560957753099501
1920.0,5.0201259000459686e-05
2048.0,0.0006100384634919465
2304.0,0.0007433047285303473
2560.0,-0.0008208547369576991
2816.0,-0.0006249090656638145
3072.0,-0.0008117962861433625
3328.0,-0.0009036275441758335
3584.0,0.00028257817029953003
3840.0,-0.0010043969377875328
4096.0,0.0005350917926989496
4608.0,0.0006609404808841646
5120.0,-0.0005996559048071504
5632.0,-0.00022594863548874855
6144.0,0.0003550901892594993
6656.0,-0.00025365647161379457
7168.0,-0.00014031883620191365
7680.0,-0.0007861252524890006
8192.0,9.468384087085724e-05
9216.0,-0.00028211885364726186
10240.0,0.0009626655955798924
11264.0,-0.0006097014411352575
12288.0,0.0006500159506686032
13312.0,-0.0011671663960441947
14336.0,0.0012274753535166383
end
