version,3.0
numOfCh,1
type,point
parent_name,4-cuts
ch_type,1_1
kcount,1
numberNandB,1
brightnessNandB,1
carpet pos,0
pc,0
Time (ms),CH1 Auto-Correlation
1.0,0.026598626747727394
2.0,0.024447040632367134
3.0,0.02256106398999691
4.0,0.020934294909238815
5.0,0.019497055560350418
6.0,0.018205640837550163
7.0,0.0170644149184227
8.0,0.016047103330492973
9.0,0.015147246420383453
10.0,0.014401908032596111
11.0,0.013724103569984436
12.0,0.013034289702773094
13.0,0.01248430460691452
14.0,0.011962205171585083
15.0,0.011430134996771812
16.0,0.010894729755818844
18.0,0.009862960316240788
20.0,0.008872849866747856
22.0,0.008055123500525951
24.0,0.007414437830448151
26.0,0.006813794374465942
28.0,0.006221996154636145
30.0,0.005701686721295118
32.0,0.005266290623694658
36.0,0.00466173654422164
40.0,0.00415277574211359
44.0,0.0036215779837220907
48.0,0.00322579313069582
52.0,0.0029958398081362247
56.0,0.0028320318087935448
60.0,0.0027356836944818497
64.0,0.0024043256416916847
72.0,0.0023517990484833717
80.0,0.0022373595274984837
88.0,0.001575143658556044
96.0,0.0011513653444126248
104.0,0.0009228507406078279
112.0,0.0005862874095328152
120.0,0.0007380990427918732
128.0,0.0006690961308777332
144.0,0.0001612927735550329
160.0,0.00012183348007965833
176.0,3.876283153658733e-05
192.0,0.0005115685635246336
208.0,0.0005869624437764287
224.0,0.00041685038013383746
240.0,0.0008729267283342779
256.0,0.0008700941107235849
288.0,0.0004825803334824741
320.0,0.0010035729501396418
352.0,0.0018082567257806659
384.0,0.000786675896961242
416.0,0.0013782477471977472
448.0,0.0019924018997699022
480.0,0.001638841349631548
512.0,0.0005556933465413749
576.0,0.00010355401173001155
640.0,0.00024871580535545945
704.0,0.0008624892216175795
768.0,0.0017690685344859958
832.0,0.001247228472493589
896.0,0.0014862208627164364
960.0,0.0010492936708033085
1024.0,0.00042906589806079865
1152.0,-0.000620720034930855
1280.0,6.212124571902677e-05
1408.0,0.0001238660333910957
1536.0,-0.0013385452330112457
1664.0,-0.00035443928209133446
1792.0,-0.0009206110844388604
1920.0,-0.001479715807363391
2048.0,-0.0008785414393059909
2304.0,-0.0005772945587523282
2560.0,0.00013447151286527514
2816.0,-0.00011318476754240692
3072.0,-0.0005269147222861648
3328.0,-0.00016820225573610514
3584.0,-0.00018947607895825058
3840.0,-0.0003383006842341274
4096.0,-0.0005356264300644398
4608.0,-0.0005321014323271811
5120.0,-0.0001026275785989128
5632.0,0.0005665133940055966
6144.0,0.0005631679086945951
6656.0,0.0001828044914873317
7168.0,-0.0003400785499252379
7680.0,-0.0006279996014200151
8192.0,-0.00029750994872301817
9216.0,0.0004354988632258028
10240.0,0.000538425229024142
11264.0,0.0006721537793055177
12288.0,-0.000727418577298522
13312.0,-0.003003012156113982
14336.0,2.313120239705313e-05
end
