version,3.0
numOfCh,1
type,point
parent_name,4-cuts
ch_type,1_1
kcount,1
numberNandB,1
brightnessNandB,1
carpet pos,0
pc,0
Time (ms),CH1 Auto-Correlation
1.0,0.09125387668609619
2.0,0.08424748480319977
3.0,0.07851468771696091
4.0,0.07345720380544662
5.0,0.06908208876848221
6.0,0.06513457745313644
7.0,0.06139218807220459
8.0,0.05809808522462845
9.0,0.0551464669406414
10.0,0.052505649626255035
11.0,0.04991746321320534
12.0,0.04746371880173683
13.0,0.04504157975316048
14.0,0.042920585721731186
15.0,0.04088760167360306
16.0,0.039200395345687866
18.0,0.036032743752002716
20.0,0.03359203785657883
22.0,0.031627021729946136
24.0,0.029696257784962654
26.0,0.02785589173436165
28.0,0.026557117700576782
30.0,0.025768956169486046
32.0,0.025001676753163338
36.0,0.023043807595968246
40.0,0.021087901666760445
44.0,0.019870700314641
48.0,0.018633967265486717
52.0,0.01752404309809208
56.0,0.01694423146545887
60.0,0.01648208498954773
64.0,0.015346058644354343
72.0,0.013615090399980545
80.0,0.01366373524069786
88.0,0.013455181382596493
96.0,0.013274943456053734
104.0,0.013493872247636318
112.0,0.014035765081644058
120.0,0.014249080792069435
128.0,0.01185059454292059
144.0,0.008910546079277992
160.0,0.006785845384001732
176.0,0.0068615092895925045
192.0,0.008669024333357811
208.0,0.009542080573737621
224.0,0.005883387289941311
240.0,-0.00029235176043584943
256.0,-0.0010737610282376409
288.0,-0.005684765055775642
320.0,-0.005193165969103575
352.0,-0.009265107102692127
384.0,-0.007668902166187763
416.0,-0.0057544647715985775
448.0,-0.006273079663515091
480.0,-0.007827796041965485
512.0,-0.007625772152096033
576.0,-0.0007240927079692483
640.0,-8.063923451118171e-05
704.0,-0.0010847589001059532
768.0,0.0010490097338333726
832.0,0.00017125954036600888
896.0,-0.003854952519759536
960.0,-0.0039630793035030365
1024.0,-0.002689330605790019
1152.0,0.0037751137278974056
1280.0,0.0040649594739079475
1408.0,0.003216390497982502
1536.0,0.0014263251796364784
1664.0,-0.002108063315972686
1792.0,-0.001237071119248867
1920.0,-0.0023244000039994717
2048.0,-0.0024287370033562183
2304.0,-4.809988968190737e-05
2560.0,-0.0016481149941682816
2816.0,-0.0011212669778615236
3072.0,0.0015242107911035419
3328.0,0.0014004207914695144
3584.0,0.005132636055350304
3840.0,0.004136064555495977
4096.0,0.0002459731185808778
4608.0,-0.0007010805420577526
5120.0,0.0015621853526681662
5632.0,-0.002955847652629018
6144.0,-0.0008460796088911593
6656.0,-0.00027881006826646626
7168.0,0.0011627437779679894
7680.0,-0.00021549031953327358
8192.0,0.0015271466691046953
9216.0,-0.001371204387396574
10240.0,-0.0005009525339119136
11264.0,-0.0019242450362071395
12288.0,-0.002854384947568178
13312.0,0.0002491305931471288
14336.0,-0.0052812360227108
end
