version,3.0
numOfCh,1
type,point
parent_name,4-cuts
ch_type,1_1
kcount,1
numberNandB,1
brightnessNandB,1
carpet pos,0
pc,0
Time (ms),CH1 Auto-Correlation
1.0,0.09112156182527542
2.0,0.08428031951189041
3.0,0.07853534817695618
4.0,0.07346638292074203
5.0,0.06915675848722458
6.0,0.06509698182344437
7.0,0.06134380027651787
8.0,0.05797584354877472
9.0,0.0550532341003418
10.0,0.05229783430695534
11.0,0.04960918053984642
12.0,0.04731300100684166
13.0,0.044980116188526154
14.0,0.04284527525305748
15.0,0.04087802767753601
16.0,0.03911919519305229
18.0,0.03567706048488617
20.0,0.03256122022867203
22.0,0.029980964958667755
24.0,0.027982015162706375
26.0,0.026353957131505013
28.0,0.024946633726358414
30.0,0.023679565638303757
32.0,0.02271186374127865
36.0,0.021188147366046906
40.0,0.020062388852238655
44.0,0.018660245463252068
48.0,0.017416955903172493
52.0,0.01696171797811985
56.0,0.01691107638180256
60.0,0.016650555655360222
64.0,0.016484366729855537
72.0,0.015351234003901482
80.0,0.012864760123193264
88.0,0.010929543524980545
96.0,0.010481261648237705
104.0,0.011005999520421028
112.0,0.01125214621424675
120.0,0.011038089171051979
128.0,0.010800207033753395
144.0,0.008678356185555458
160.0,0.0057736788876354694
176.0,0.0048803347162902355
192.0,0.005371049977838993
208.0,0.002745493780821562
224.0,0.0017282490152865648
240.0,0.002335616387426853
256.0,0.0023222332820296288
288.0,0.002099598990753293
320.0,-0.0010430226102471352
352.0,-0.002517876448109746
384.0,-0.0027430930640548468
416.0,-0.001982581801712513
448.0,-0.004933847114443779
480.0,-0.008147932589054108
512.0,-0.0050016543827950954
576.0,-0.003113300772383809
640.0,-0.0067956275306642056
704.0,-0.0056700268760323524
768.0,-0.003980304580181837
832.0,-0.006045666988939047
896.0,-0.006908945273607969
960.0,-0.0028775434475392103
1024.0,-0.0016612426843494177
1152.0,-0.0004852055280935019
1280.0,0.003517762990668416
1408.0,0.004760305862873793
1536.0,0.002936379984021187
1664.0,-0.002451131818816066
1792.0,-0.0036170848179608583
1920.0,-0.0025033503770828247
2048.0,-0.0013027237728238106
2304.0,-0.0009294830961152911
2560.0,0.001500388840213418
2816.0,0.0005293153808452189
3072.0,0.0004067012923769653
3328.0,0.0005326081882230937
3584.0,0.0003260454104747623
3840.0,-0.00010621711408020929
4096.0,-0.005066212732344866
4608.0,0.0006462739547714591
5120.0,-0.00195994321256876
5632.0,-0.00023190466163214296
6144.0,0.0027008692268282175
6656.0,0.0005161878070794046
7168.0,0.0007889902335591614
7680.0,0.0011696143774315715
8192.0,-0.0034472711849957705
9216.0,0.0006290473393164575
10240.0,0.0023301991168409586
11264.0,-0.0032496254425495863
12288.0,0.0005517119425348938
13312.0,0.004169770050793886
14336.0,-0.0014123806031420827
end
