version,3.0
numOfCh,1
type,point
parent_name,4-cuts
ch_type,1_1
kcount,1
numberNandB,1
brightnessNandB,1
carpet pos,0
pc,0
Time (ms),CH1 Auto-Correlation
1.0,0.09090685099363327
2.0,0.08422920107841492
3.0,0.07849927991628647
4.0,0.07351792603731155
5.0,0.06917095184326172
6.0,0.0654236376285553
7.0,0.06205699220299721
8.0,0.05929658189415932
9.0,0.056860800832509995
10.0,0.054426562041044235
11.0,0.05212395638227463
12.0,0.05001159757375717
13.0,0.04807595536112785
14.0,0.046475887298583984
15.0,0.04481852427124977
16.0,0.04325209558010101
18.0,0.04007859528064728
20.0,0.037196964025497437
22.0,0.03505881875753403
24.0,0.03344603627920151
26.0,0.032216522842645645
28.0,0.031132103875279427
30.0,0.029755091294646263
32.0,0.02824387326836586
36.0,0.026453116908669472
40.0,0.02476106397807598
44.0,0.02361774630844593
48.0,0.02233690395951271
52.0,0.02179269678890705
56.0,0.0212674830108881
60.0,0.020611628890037537
64.0,0.01937776245176792
72.0,0.017695676535367966
80.0,0.016639050096273422
88.0,0.014657370746135712
96.0,0.01327068917453289
104.0,0.012381454929709435
112.0,0.010830089449882507
120.0,0.010839290916919708
128.0,0.010309816338121891
144.0,0.009049504064023495
160.0,0.009237435646355152
176.0,0.008785226382315159
192.0,0.007524143438786268
208.0,0.005539084319025278
224.0,0.005086250137537718
240.0,0.0030981290619820356
256.0,0.004069657996296883
288.0,0.0033764378167688847
320.0,0.000847520015668124
352.0,0.0025395189877599478
384.0,0.0013539977371692657
416.0,0.0030029553454369307
448.0,0.0018374415813013911
480.0,0.003534432267770171
512.0,0.0039026562590152025
576.0,0.005834944546222687
640.0,0.005595117341727018
704.0,0.0020275271963328123
768.0,0.004064858425408602
832.0,0.0021484545432031155
896.0,0.001499665784649551
960.0,0.001611975021660328
1024.0,0.002878932049497962
1152.0,0.0003791801864281297
1280.0,-0.002291729673743248
1408.0,-0.008060164749622345
1536.0,-0.011802109889686108
1664.0,-0.00458999490365386
1792.0,-0.0004998810472898185
1920.0,-0.0022717940155416727
2048.0,-0.0032243477180600166
2304.0,-0.006131145171821117
2560.0,-0.001046416931785643
2816.0,0.004596729762852192
3072.0,0.003466611262410879
3328.0,-0.0005645993514917791
3584.0,0.001769914641045034
3840.0,0.0038332755211740732
4096.0,-0.0005642081378027797
4608.0,-0.0006955154240131378
5120.0,-0.002063320716843009
5632.0,0.002215092768892646
6144.0,0.0017924892017617822
6656.0,0.0012612197315320373
7168.0,-0.0020894946064800024
7680.0,-0.007152956444770098
8192.0,-0.006094783078879118
9216.0,0.005734321661293507
10240.0,-0.0010177833028137684
11264.0,-0.006505060940980911
12288.0,-8.212481770897284e-05
13312.0,-0.002012790646404028
14336.0,-0.0007677407702431083
end
