version,3.0
numOfCh,1
type,point
parent_name,4-cuts
ch_type,1_1
kcount,1
numberNandB,1
brightnessNandB,1
carpet pos,0
pc,0
Time (ms),CH1 Auto-Correlation
1.0,0.028254453092813492
2.0,0.026108812540769577
3.0,0.024274934083223343
4.0,0.02273271232843399
5.0,0.021391207352280617
6.0,0.020226648077368736
7.0,0.019178463146090508
8.0,0.018245816230773926
9.0,0.01744864508509636
10.0,0.016749847680330276
11.0,0.016144951805472374
12.0,0.01556045189499855
13.0,0.015029607340693474
14.0,0.014469902031123638
15.0,0.0139716612175107
16.0,0.013550136238336563
18.0,0.012786519713699818
20.0,0.01198788732290268
22.0,0.011244706809520721
24.0,0.010525084100663662
26.0,0.009946494363248348
28.0,0.00937692355364561
30.0,0.008838578127324581
32.0,0.00831583607941866
36.0,0.007273935247212648
40.0,0.006200721021741629
44.0,0.0054862601682543755
48.0,0.004789277911186218
52.0,0.00410118605941534
56.0,0.0033296316396445036
60.0,0.002693580463528633
64.0,0.002006394788622856
72.0,0.0007113157771527767
80.0,0.0003755023062694818
88.0,0.00015338283265009522
96.0,-0.00024367228616029024
104.0,-0.00040999590419232845
112.0,-0.0004277663247194141
120.0,-0.00044560115202330053
128.0,-0.00019981536024715751
144.0,0.0004676027165260166
160.0,0.0011552699143067002
176.0,0.0012405308661982417
192.0,0.0006627452676184475
208.0,0.00020266688079573214
224.0,-0.0004007642564829439
240.0,-0.00018604718206916004
256.0,0.000691488734446466
288.0,0.0022459207102656364
320.0,0.002233954379335046
352.0,0.002785031683743
384.0,0.001758855301886797
416.0,0.00041650899220258
448.0,-0.00021706665575038642
480.0,-0.0001413858262822032
512.0,-0.0005221081082709134
576.0,-0.0003912887186743319
640.0,-7.794739212840796e-05
704.0,0.00015855682431720197
768.0,0.00017742424097377807
832.0,-0.0007454692386090755
896.0,-0.0005911228363402188
960.0,4.262815855327062e-05
1024.0,0.00041066703852266073
1152.0,0.000815226580016315
1280.0,0.0001724514877423644
1408.0,-4.5850939045521955e-07
1536.0,-0.0010751152876764536
1664.0,-0.0006880927248857915
1792.0,0.00022613978944718838
1920.0,-0.0005926835583522916
2048.0,6.563466013176367e-05
2304.0,-0.0006822115974500775
2560.0,-0.00018062938761431724
2816.0,-0.0001359307352686301
3072.0,-5.837638309458271e-05
3328.0,-0.0003212669980712235
3584.0,0.0007132212049327791
3840.0,0.00039818475488573313
4096.0,-0.00041153706843033433
4608.0,0.0005007158615626395
5120.0,-0.00012719085498247296
5632.0,0.00028966719401068985
6144.0,-0.0002599310246296227
6656.0,0.0007036751485429704
7168.0,0.00012157188029959798
7680.0,-0.001044610165990889
8192.0,-0.0009399059927091002
9216.0,-7.879250188125297e-05
10240.0,7.333882967941463e-05
11264.0,0.0008191184024326503
12288.0,-0.0004062048392370343
13312.0,-0.00044438615441322327
14336.0,-0.0008525113807991147
end
