version,3.0
numOfCh,1
type,point
parent_name,4-cuts
ch_type,1_1
kcount,1
numberNandB,1
brightnessNandB,1
carpet pos,0
pc,0
Time (ms),CH1 Auto-Correlation
1.0,0.08808298408985138
2.0,0.08100574463605881
3.0,0.07514943927526474
4.0,0.07011134922504425
5.0,0.06565968692302704
6.0,0.06178445369005203
7.0,0.05820879340171814
8.0,0.055162157863378525
9.0,0.05253731459379196
10.0,0.05009560286998749
11.0,0.04794282838702202
12.0,0.04587424173951149
13.0,0.04385099187493324
14.0,0.04226992279291153
15.0,0.04080052673816681
16.0,0.03938235342502594
18.0,0.0364672876894474
20.0,0.03377174213528633
22.0,0.03148607909679413
24.0,0.029373325407505035
26.0,0.027553828433156013
28.0,0.02618781290948391
30.0,0.025088688358664513
32.0,0.02391667664051056
36.0,0.021098025143146515
40.0,0.018109606578946114
44.0,0.015085593797266483
48.0,0.01378585584461689
52.0,0.012898523360490799
56.0,0.012926035560667515
60.0,0.012472483329474926
64.0,0.011209632270038128
72.0,0.008519195020198822
80.0,0.006709452252835035
88.0,0.0037022801116108894
96.0,0.001910198014229536
104.0,0.0008265869691967964
112.0,0.001426231930963695
120.0,0.0021860713604837656
128.0,0.0014589943457394838
144.0,-0.001318153808824718
160.0,-0.002857696730643511
176.0,-0.0017969311447814107
192.0,-0.0004912327276542783
208.0,0.00031997161568142474
224.0,0.00199676351621747
240.0,0.004064555745571852
256.0,0.005292518530040979
288.0,0.0030392741318792105
320.0,0.0014866291312500834
352.0,0.0010219902032986283
384.0,0.005331307649612427
416.0,0.006962058134377003
448.0,0.004553955048322678
480.0,0.005218720994889736
512.0,0.00402870262041688
576.0,0.002983398735523224
640.0,0.003829590044915676
704.0,0.0036732773296535015
768.0,0.0022558500058948994
832.0,-0.0022992740850895643
896.0,-0.00183873251080513
960.0,-0.0031811038497835398
1024.0,-0.001025742618367076
1152.0,0.001521372701972723
1280.0,0.0003892645181622356
1408.0,0.0028660816606134176
1536.0,-0.0006490537780337036
1664.0,-0.0007409282843582332
1792.0,0.0026249445509165525
1920.0,0.001308016711845994
2048.0,-0.0018876524409279227
2304.0,0.0020590457133948803
2560.0,0.0018420395208522677
2816.0,0.0023725798819214106
3072.0,5.328774204826914e-05
3328.0,-0.0019872847478836775
3584.0,6.800770279369317e-06
3840.0,0.0005525004817172885
4096.0,0.001804974628612399
4608.0,0.0008109461632557213
5120.0,8.362941298400983e-05
5632.0,-0.0028097527101635933
6144.0,-0.0020058350637555122
6656.0,-0.0005679864552803338
7168.0,-0.001240842859260738
7680.0,-0.0027851853519678116
8192.0,-0.002203358104452491
9216.0,-0.0013084802776575089
10240.0,-0.0044693127274513245
11264.0,-0.0008360121282748878
12288.0,-0.0022270905319601297
13312.0,-0.000584809051360935
14336.0,-0.002359851496294141
end
