version,3.0
numOfCh,1
type,point
parent_name,4-cuts
ch_type,1_1
kcount,1
numberNandB,1
brightnessNandB,1
carpet pos,0
pc,0
Time (ms),CH1 Auto-Correlation
1.0,0.02998911216855049
2.0,0.02783259004354477
3.0,0.025990497320890427
4.0,0.024392735213041306
5.0,0.0228915736079216
6.0,0.02154921181499958
7.0,0.0203825905919075
8.0,0.0193486288189888
9.0,0.01840459741652012
10.0,0.017573395743966103
11.0,0.01683255471289158
12.0,0.01618463173508644
13.0,0.015630794689059258
14.0,0.015078735537827015
15.0,0.0145114716142416
16.0,0.013993917964398861
18.0,0.013100399635732174
20.0,0.012360934168100357
22.0,0.011756998486816883
24.0,0.01124692801386118
26.0,0.010811404325067997
28.0,0.010266274213790894
30.0,0.00973935890942812
32.0,0.009232877753674984
36.0,0.008433178998529911
40.0,0.008046293631196022
44.0,0.007645691744983196
48.0,0.007332864683121443
52.0,0.007072789128869772
56.0,0.006789007224142551
60.0,0.006406035274267197
64.0,0.005844763945788145
72.0,0.0050314851105213165
80.0,0.004250834695994854
88.0,0.003362430725246668
96.0,0.002878199564293027
104.0,0.002468616236001253
112.0,0.0023202768061310053
120.0,0.0026942642871290445
128.0,0.0027353232726454735
144.0,0.0022149852011352777
160.0,0.0018359030364081264
176.0,0.0008552818326279521
192.0,-0.0002537237014621496
208.0,-0.0004195996734779328
224.0,-0.0001611867337487638
240.0,-0.00017252829275093973
256.0,-5.756007885793224e-05
288.0,0.0009454521350562572
320.0,0.0008093130891211331
352.0,0.000123390753287822
384.0,0.00029511068714782596
416.0,0.0006309267482720315
448.0,-3.636770634329878e-05
480.0,-0.0008888085139915347
512.0,-0.0007980059017427266
576.0,-0.0006552771083079278
640.0,6.909698277013376e-05
704.0,0.0002177459973609075
768.0,2.090447560476605e-05
832.0,0.0014692932600155473
896.0,0.000982927274890244
960.0,0.0009203410008922219
1024.0,0.0012529733357951045
1152.0,0.00011500973050715402
1280.0,-6.162267527543008e-05
1408.0,0.0006962744519114494
1536.0,0.0019597215577960014
1664.0,0.00192648742813617
1792.0,0.0008395507466048002
1920.0,2.4600607503089122e-05
2048.0,-0.0010709203779697418
2304.0,-0.0001535092742415145
2560.0,3.795037264353596e-05
2816.0,0.000754103937651962
3072.0,-0.00010614757047733292
3328.0,-0.0006211248110048473
3584.0,-0.0004336055426392704
3840.0,-0.001781971426680684
4096.0,0.0007798209553584456
4608.0,0.00011056683433707803
5120.0,-0.00028828094946220517
5632.0,-0.0002677807933650911
6144.0,-0.0008815845940262079
6656.0,-0.0017715035937726498
7168.0,-0.0015784439165145159
7680.0,-0.0015318013029173017
8192.0,-0.0009754148777574301
9216.0,0.0002233703708043322
10240.0,0.0003632951120380312
11264.0,0.00023575563682243228
12288.0,-0.0005269601824693382
13312.0,0.001483470550738275
14336.0,0.002175768604502082
end
