version,3.0
numOfCh,1
type,point
parent_name,4-cuts
ch_type,1_1
kcount,1
numberNandB,1
brightnessNandB,1
carpet pos,0
pc,0
Time (ms),CH1 Auto-Correlation
1.0,0.027368729934096336
2.0,0.02517976239323616
3.0,0.023390164598822594
4.0,0.021844323724508286
5.0,0.02047002501785755
6.0,0.019232135266065598
7.0,0.018174709752202034
8.0,0.01723543368279934
9.0,0.016363361850380898
10.0,0.015560884028673172
11.0,0.01480895560234785
12.0,0.014129296876490116
13.0,0.01351459976285696
14.0,0.012987449765205383
15.0,0.012607773765921593
16.0,0.01217719353735447
18.0,0.011410663835704327
20.0,0.01062392070889473
22.0,0.009950945153832436
24.0,0.00938296876847744
26.0,0.008854172192513943
28.0,0.008343400433659554
30.0,0.007800165563821793
32.0,0.007268879096955061
36.0,0.006374008022248745
40.0,0.0056173005141317844
44.0,0.004878452979028225
48.0,0.0043267118744552135
52.0,0.0036857931409031153
56.0,0.0029949070885777473
60.0,0.0024073959793895483
64.0,0.002040690975263715
72.0,0.0015063926111906767
80.0,0.0007935150642879307
88.0,0.000684994098264724
96.0,0.0006004013121128082
104.0,0.0005443567642942071
112.0,0.0007525811088271439
120.0,0.001106719020754099
128.0,0.0013652486959472299
144.0,0.0012692033778876066
160.0,0.0006592120626010001
176.0,0.001493379706516862
192.0,0.0015472956001758575
208.0,0.0015734971966594458
224.0,0.0017235379200428724
240.0,0.0019639914389699697
256.0,0.0009997624438256025
288.0,5.8122714108321816e-05
320.0,-0.00054196483688429
352.0,-9.094996494241059e-05
384.0,0.0007009943365119398
416.0,0.00113032222725451
448.0,0.0009494671248830855
480.0,0.0004196967638563365
512.0,0.0004988047876395285
576.0,0.0014583076117560267
640.0,0.0011036026990041137
704.0,0.00019781553419306874
768.0,0.00030459955451078713
832.0,0.001703732181340456
896.0,0.0009772747289389372
960.0,0.00031493959249928594
1024.0,-1.822631384129636e-05
1152.0,3.615889363572933e-05
1280.0,-0.0003559895558282733
1408.0,0.0018915388500317931
1536.0,0.0001600838586455211
1664.0,0.0005890294560231268
1792.0,-0.0002673358249012381
1920.0,7.800337698427029e-06
2048.0,-0.0009916929993778467
2304.0,-1.3948455489298794e-05
2560.0,-0.0012065632035955787
2816.0,0.00030348217114806175
3072.0,-0.000289885385427624
3328.0,-0.0012233336456120014
3584.0,-0.0012658813502639532
3840.0,-9.16241915547289e-05
4096.0,-0.00014967452443670481
4608.0,4.3297437514411286e-05
5120.0,-0.00045829350710846484
5632.0,0.00013868490350432694
6144.0,-0.00010134845069842413
6656.0,-0.0005364649114198983
7168.0,-5.4272190027404577e-05
7680.0,-0.0006446248735301197
8192.0,-0.0011244774796068668
9216.0,-0.000863526132889092
10240.0,-0.0009626786923035979
11264.0,0.0005188189679756761
12288.0,0.0016933534061536193
13312.0,7.952561281854287e-05
14336.0,0.0014853022294119
end
