version,3.0
numOfCh,1
type,point
parent_name,4-cuts
ch_type,1_1
kcount,1
numberNandB,1
brightnessNandB,1
carpet pos,0
pc,0
Time (ms),CH1 Auto-Correlation
1.0,0.09566108137369156
2.0,0.0890190452337265
3.0,0.08321915566921234
4.0,0.07796726375818253
5.0,0.07335132360458374
6.0,0.06938005983829498
7.0,0.06588146835565567
8.0,0.06265097111463547
9.0,0.05988705903291702
10.0,0.057357896119356155
11.0,0.055014725774526596
12.0,0.05285928025841713
13.0,0.05089361593127251
14.0,0.04891327768564224
15.0,0.047196369618177414
16.0,0.04567113518714905
18.0,0.04285812005400658
20.0,0.04084717854857445
22.0,0.03922343999147415
24.0,0.03726477548480034
26.0,0.03483009338378906
28.0,0.032631415873765945
30.0,0.030953219160437584
32.0,0.02946382761001587
36.0,0.026974506676197052
40.0,0.024665411561727524
44.0,0.022855287417769432
48.0,0.021811477839946747
52.0,0.02060558646917343
56.0,0.01973186805844307
60.0,0.018615050241351128
64.0,0.017105724662542343
72.0,0.01516897976398468
80.0,0.01474136020988226
88.0,0.01235999446362257
96.0,0.0114001939073205
104.0,0.010142982937395573
112.0,0.009340343996882439
120.0,0.008454886265099049
128.0,0.0067155854776501656
144.0,0.007620261516422033
160.0,0.009256286546587944
176.0,0.005590721964836121
192.0,0.002568233758211136
208.0,0.0012337416410446167
224.0,0.0015081616584211588
240.0,0.0028246957808732986
256.0,0.0026990126352757215
288.0,0.004417979624122381
320.0,0.004766459576785564
352.0,0.003394927131012082
384.0,-0.002607428003102541
416.0,-0.0015105657512322068
448.0,0.0027900561690330505
480.0,0.0037207684945315123
512.0,0.006708681117743254
576.0,0.000989205320365727
640.0,0.00033394451020285487
704.0,-0.0005490198964253068
768.0,-0.0006289315642789006
832.0,-0.0001757658610586077
896.0,-0.004887426272034645
960.0,-0.0024769597221165895
1024.0,-0.0028682101983577013
1152.0,-0.00640252185985446
1280.0,-0.0014751377748325467
1408.0,-0.0023956389632076025
1536.0,-0.004730782937258482
1664.0,-0.007798048201948404
1792.0,-0.005357725545763969
1920.0,-0.005791825242340565
2048.0,-0.0026697958819568157
2304.0,0.002353132236748934
2560.0,0.002097106073051691
2816.0,0.0028152342420071363
3072.0,0.0013915953459218144
3328.0,0.004412031266838312
3584.0,0.0012318193912506104
3840.0,0.00028042332269251347
4096.0,0.0008807030390016735
4608.0,-0.0037108655087649822
5120.0,-0.004450442735105753
5632.0,0.0035098555963486433
6144.0,0.0031495296861976385
6656.0,0.00028380408184602857
7168.0,-0.0019605811685323715
7680.0,-0.008288435637950897
8192.0,0.001017507747747004
9216.0,0.004108849912881851
10240.0,-0.0025746573228389025
11264.0,-0.0021420393604785204
12288.0,0.002204983728006482
13312.0,-0.001146108377724886
14336.0,0.005528951529413462
end
