version,3.0
numOfCh,1
type,point
parent_name,4-cuts
ch_type,1_1
kcount,1
numberNandB,1
brightnessNandB,1
carpet pos,0
pc,0
Time (ms),CH1 Auto-Correlation
1.0,0.029152952134609222
2.0,0.027013028040528297
3.0,0.02514057792723179
4.0,0.0235420074313879
5.0,0.022140055894851685
6.0,0.020870650187134743
7.0,0.01977410726249218
8.0,0.01878419704735279
9.0,0.01784348301589489
10.0,0.016986239701509476
11.0,0.01615697704255581
12.0,0.015348232351243496
13.0,0.014619921334087849
14.0,0.013925431296229362
15.0,0.013363508507609367
16.0,0.012818224728107452
18.0,0.011807292699813843
20.0,0.010953828692436218
22.0,0.010192147456109524
24.0,0.009582567028701305
26.0,0.0090491259470582
28.0,0.008440891280770302
30.0,0.007869241759181023
32.0,0.0072888340801000595
36.0,0.006272329017519951
40.0,0.005652253516018391
44.0,0.0053309728391468525
48.0,0.00511630903929472
52.0,0.005003045313060284
56.0,0.004788917023688555
60.0,0.004566799383610487
64.0,0.004172539338469505
72.0,0.003501173807308078
80.0,0.0033158676233142614
88.0,0.0029369930271059275
96.0,0.002047255402430892
104.0,0.0014175578253343701
112.0,0.0014773928560316563
120.0,0.0010441699996590614
128.0,0.0008846839773468673
144.0,0.00045646820217370987
160.0,0.00035706700873561203
176.0,5.0222464778926224e-05
192.0,-0.00023601464636158198
208.0,-9.239440987585112e-05
224.0,0.0002584067697171122
240.0,0.0003638214839156717
256.0,-0.0003604031226132065
288.0,0.00026417250046506524
320.0,0.00024140368623193353
352.0,-0.00017752165149431676
384.0,-0.0005196079728193581
416.0,5.222468826104887e-05
448.0,0.00023027534189168364
480.0,0.0011055178474634886
512.0,0.0012839719420298934
576.0,0.001565373968333006
640.0,0.0004433568974491209
704.0,0.00019920713384635746
768.0,0.0005539418198168278
832.0,0.0009308179724030197
896.0,0.0006166209932416677
960.0,0.0011248158989474177
1024.0,0.000543427187949419
1152.0,-0.0007415213040076196
1280.0,-0.0006389718619175255
1408.0,-0.0007376965368166566
1536.0,0.0010834276909008622
1664.0,0.0004090630682185292
1792.0,-0.0007412026752717793
1920.0,-0.002488969126716256
2048.0,-6.340409890981391e-05
2304.0,-3.315299181849696e-05
2560.0,-0.0008351051947101951
2816.0,-0.0011017420329153538
3072.0,3.2854015898919897e-06
3328.0,0.00029880140209570527
3584.0,-0.000657014490570873
3840.0,0.0001900551578728482
4096.0,-0.0005998556152917445
4608.0,2.125383798556868e-05
5120.0,-0.00038131431210786104
5632.0,0.0001505085820099339
6144.0,0.0011367978295311332
6656.0,0.0008090351475402713
7168.0,-0.0004773260443471372
7680.0,-0.0004872419231105596
8192.0,-0.0014281055191531777
9216.0,-0.0009810338960960507
10240.0,-0.0006096276338212192
11264.0,0.0012930200900882483
12288.0,0.0014379923231899738
13312.0,-0.0006745712016709149
14336.0,-0.0007546078413724899
end
