version,3.0
numOfCh,1
type,point
parent_name,4-cuts
ch_type,1_1
kcount,1
numberNandB,1
brightnessNandB,1
carpet pos,0
pc,0
Time (ms),CH1 Auto-Correlation
1.0,0.0805300921201706
2.0,0.07361459732055664
3.0,0.06778116524219513
4.0,0.06296844035387039
5.0,0.05883033573627472
6.0,0.0553433783352375
7.0,0.0520520955324173
8.0,0.04873483255505562
9.0,0.04584376886487007
10.0,0.04327624663710594
11.0,0.04102050140500069
12.0,0.039026204496622086
13.0,0.03707107901573181
14.0,0.035443294793367386
15.0,0.033862628042697906
16.0,0.03215490281581879
18.0,0.029218707233667374
20.0,0.026984695345163345
22.0,0.02498367615044117
24.0,0.02346297912299633
26.0,0.022035177797079086
28.0,0.02093617618083954
30.0,0.02024887502193451
32.0,0.01910087838768959
36.0,0.01696809194982052
40.0,0.01469963975250721
44.0,0.012896578758955002
48.0,0.01168065145611763
52.0,0.011181628331542015
56.0,0.011472576297819614
60.0,0.012376907281577587
64.0,0.012207720428705215
72.0,0.010998493060469627
80.0,0.010456553660333157
88.0,0.010937407612800598
96.0,0.010041513480246067
104.0,0.008448479697108269
112.0,0.007119098212569952
120.0,0.007222951389849186
128.0,0.006391836330294609
144.0,0.0053771426901221275
160.0,0.00674830749630928
176.0,0.003959270194172859
192.0,0.0015329861780628562
208.0,0.0018252267036587
224.0,0.002648890484124422
240.0,0.003562392434105277
256.0,0.0014829204883426428
288.0,0.0018640265334397554
320.0,-0.001169617404229939
352.0,-0.001367528224363923
384.0,-0.0006595886661671102
416.0,-0.0012105043279007077
448.0,-0.0014419270446524024
480.0,0.0006193846929818392
512.0,-0.001400171546265483
576.0,-0.0032849779818207026
640.0,-0.0009120276663452387
704.0,-0.0013158050132915378
768.0,0.002300311578437686
832.0,0.0009395169327035546
896.0,0.003504836466163397
960.0,0.003176924539729953
1024.0,-0.00042546403710730374
1152.0,-0.0017098723910748959
1280.0,-0.0026236707344651222
1408.0,0.0005703982897102833
1536.0,-0.0004900242201983929
1664.0,0.0020846682600677013
1792.0,0.00136656709946692
1920.0,0.005506411660462618
2048.0,0.0012568527599796653
2304.0,-0.0027351302560418844
2560.0,1.329503174929414e-05
2816.0,0.003411715617403388
3072.0,-0.0009487408096902072
3328.0,0.0005910304607823491
3584.0,0.0012698147911578417
3840.0,1.5069365872477647e-05
4096.0,-0.001188129186630249
4608.0,0.0016015635337680578
5120.0,-0.0017392068402841687
5632.0,-0.0015894405078142881
6144.0,0.0004007152165286243
6656.0,-0.00030039751436561346
7168.0,-0.002036866033449769
7680.0,-0.003303857520222664
8192.0,-0.003088521072641015
9216.0,-0.0012246930273249745
10240.0,-0.0013655711663886905
11264.0,0.0017384164966642857
12288.0,-0.0014425729168578982
13312.0,0.0006971638067625463
14336.0,-0.0017170027131214738
end
