version,3.0
numOfCh,1
type,point
parent_name,4-cuts
ch_type,1_1
kcount,1
numberNandB,1
brightnessNandB,1
carpet pos,0
pc,0
Time (ms),CH1 Auto-Correlation
1.0,0.027335936203598976
2.0,0.025214847177267075
3.0,0.023427553474903107
4.0,0.021827954798936844
5.0,0.020426789298653603
6.0,0.01915798895061016
7.0,0.017954010516405106
8.0,0.01684725470840931
9.0,0.015910886228084564
10.0,0.015099872834980488
11.0,0.01439222227782011
12.0,0.013710047118365765
13.0,0.013035676442086697
14.0,0.012426482513546944
15.0,0.011909856460988522
16.0,0.011436075903475285
18.0,0.010537960566580296
20.0,0.00980466604232788
22.0,0.009265639819204807
24.0,0.0087417121976614
26.0,0.0083286352455616
28.0,0.007977795787155628
30.0,0.007572665810585022
32.0,0.00719812884926796
36.0,0.006227217614650726
40.0,0.005440033972263336
44.0,0.004752452950924635
48.0,0.004142106976360083
52.0,0.0035668951459228992
56.0,0.003012667875736952
60.0,0.0026912030298262835
64.0,0.0025815386325120926
72.0,0.0022842353209853172
80.0,0.0018835950177162886
88.0,0.0014525424921885133
96.0,0.0007712647202424705
104.0,0.0006157299503684044
112.0,0.0008445578860118985
120.0,0.0007136920467019081
128.0,0.0004431286652106792
144.0,0.00039946212200447917
160.0,0.0007528065470978618
176.0,0.0008748843683861196
192.0,0.00024091431987471879
208.0,3.134561484330334e-05
224.0,-0.00025816174456849694
240.0,-0.0008083037682808936
256.0,-0.0009738374501466751
288.0,0.0003789318725466728
320.0,0.00035352943814359605
352.0,0.0004468188853934407
384.0,0.0003365164448041469
416.0,-2.1378449673647992e-05
448.0,-0.000514540181029588
480.0,-0.00040520005859434605
512.0,-0.0004373380506876856
576.0,9.777634841157123e-05
640.0,-0.0006438154960051179
704.0,0.00010077688057208434
768.0,0.0008765552775003016
832.0,8.441017416771501e-05
896.0,0.0014473437331616879
960.0,0.000851269403938204
1024.0,5.331177089828998e-05
1152.0,-0.0013913314323872328
1280.0,0.0005391272134147584
1408.0,-0.0002470914914738387
1536.0,-0.0018167231464758515
1664.0,0.00020604211022146046
1792.0,0.0006582343485206366
1920.0,-0.0008119231788441539
2048.0,-0.001885617501102388
2304.0,6.278912769630551e-05
2560.0,-9.042680176207796e-05
2816.0,0.00021739804651588202
3072.0,-0.0004545293631963432
3328.0,-0.0004826560034416616
3584.0,0.0004288683703634888
3840.0,-0.000716058537364006
4096.0,-0.0004724194877780974
4608.0,-0.00046216047485359013
5120.0,-9.133706043940037e-05
5632.0,0.00043680245289579034
6144.0,0.0005405297270044684
6656.0,0.0005027184961363673
7168.0,0.0007660905830562115
7680.0,0.00047030660789459944
8192.0,-0.0002675953437574208
9216.0,-0.0002296250604558736
10240.0,-0.00046938014565967023
11264.0,-0.0009601161582395434
12288.0,0.0009365208679810166
13312.0,0.001736376667395234
14336.0,-0.001966587733477354
end
