version,3.0
numOfCh,1
type,point
parent_name,4-cuts
ch_type,1_1
kcount,1
numberNandB,1
brightnessNandB,1
carpet pos,0
pc,0
Time (ms),CH1 Auto-Correlation
1.0,0.04130784422159195
2.0,0.037975605577230453
3.0,0.03505883365869522
4.0,0.03250821307301521
5.0,0.030388405546545982
6.0,0.02846720442175865
7.0,0.026718631386756897
8.0,0.025134121999144554
9.0,0.023733926936984062
10.0,0.022391295060515404
11.0,0.021275507286190987
12.0,0.020264549180865288
13.0,0.019348740577697754
14.0,0.01844337210059166
15.0,0.017604002729058266
16.0,0.01687646098434925
18.0,0.015673229470849037
20.0,0.014699175022542477
22.0,0.013787426985800266
24.0,0.012929193675518036
26.0,0.012201545760035515
28.0,0.011444170027971268
30.0,0.010900595225393772
32.0,0.010455811396241188
36.0,0.009969818405807018
40.0,0.00974606815725565
44.0,0.009290491230785847
48.0,0.008844750933349133
52.0,0.008603116497397423
56.0,0.00827975757420063
60.0,0.007352080196142197
64.0,0.006444694008678198
72.0,0.004516799934208393
80.0,0.003119351342320442
88.0,0.002711438573896885
96.0,0.0029431991279125214
104.0,0.0034662995021790266
112.0,0.0038928843569010496
120.0,0.004249900113791227
128.0,0.0039898548275232315
144.0,0.004035689868032932
160.0,0.004218377638608217
176.0,0.004195250570774078
192.0,0.0024031708016991615
208.0,0.0015453349333256483
224.0,0.0015430122148245573
240.0,0.0016622155671939254
256.0,0.0010109557770192623
288.0,0.0022611210588365793
320.0,0.00233894819393754
352.0,0.0021150156389921904
384.0,0.0022840790916234255
416.0,0.0031750015914440155
448.0,0.0036887472961097956
480.0,0.0028949084226042032
512.0,0.0025224473793059587
576.0,0.0029714740812778473
640.0,0.0021800249814987183
704.0,0.001555189024657011
768.0,-0.0008122659637592733
832.0,-0.0020195075776427984
896.0,-0.0008838099893182516
960.0,-0.00027105692424811423
1024.0,0.0001202532512252219
1152.0,9.834038064582273e-05
1280.0,0.0011144493473693728
1408.0,-0.0007511566509492695
1536.0,-0.001692937919870019
1664.0,0.0004390429821796715
1792.0,-0.0007375312852673233
1920.0,-0.0011221078457310796
2048.0,-0.002962377853691578
2304.0,-0.0020624850876629353
2560.0,-0.002283382462337613
2816.0,-0.0009234099998138845
3072.0,-0.0005848548607900739
3328.0,0.0010927737457677722
3584.0,0.002054748358204961
3840.0,0.0020202514715492725
4096.0,0.002332493430003524
4608.0,0.0021894597448408604
5120.0,0.0016341228038072586
5632.0,-0.0015621689381077886
6144.0,-0.0025724582374095917
6656.0,-0.001228775130584836
7168.0,-0.002034584293141961
7680.0,-0.0011296671582385898
8192.0,0.001350854174233973
9216.0,-0.0002736915193963796
10240.0,-0.0012027488555759192
11264.0,-0.0012368705356493592
12288.0,0.0007296412950381637
13312.0,-0.000371259986422956
14336.0,-0.00038706170744262636
end
