version,3.0
numOfCh,1
type,point
parent_name,4-cuts
ch_type,1_1
kcount,1
numberNandB,1
brightnessNandB,1
carpet pos,0
pc,0
Time (ms),CH1 Auto-Correlation
1.0,0.040673550218343735
2.0,0.03734583780169487
3.0,0.03449719399213791
4.0,0.03208862617611885
5.0,0.029911061748862267
6.0,0.027991589158773422
7.0,0.026321064680814743
8.0,0.024853959679603577
9.0,0.023547273129224777
10.0,0.0223972387611866
11.0,0.02121797390282154
12.0,0.020182538777589798
13.0,0.019295357167720795
14.0,0.018562976270914078
15.0,0.017745092511177063
16.0,0.016825299710035324
18.0,0.015277078375220299
20.0,0.014012787491083145
22.0,0.013020521961152554
24.0,0.012161931954324245
26.0,0.011366000398993492
28.0,0.01069418340921402
30.0,0.010101832449436188
32.0,0.009472803212702274
36.0,0.008229191415011883
40.0,0.007291239220649004
44.0,0.0065387762151658535
48.0,0.005624523386359215
52.0,0.005027138628065586
56.0,0.004698650445789099
60.0,0.0042623113840818405
64.0,0.0039863851852715015
72.0,0.0036924832966178656
80.0,0.0037593436427414417
88.0,0.004526451695710421
96.0,0.0046542249619960785
104.0,0.00466990377753973
112.0,0.004636283963918686
120.0,0.004251526203006506
128.0,0.003896077862009406
144.0,0.002244871575385332
160.0,0.0006207114784047008
176.0,0.0004856350424233824
192.0,0.0004767256323248148
208.0,-0.0005913557833991945
224.0,-0.0018515047850087285
240.0,-0.0013378814328461885
256.0,-0.0012825927697122097
288.0,-0.0006829751655459404
320.0,-0.001365296309813857
352.0,-0.0029545912984758615
384.0,-0.0022634058259427547
416.0,-0.002511130180209875
448.0,-0.0023746106307953596
480.0,-0.001803467981517315
512.0,-0.0016158799408003688
576.0,-0.00040095593431033194
640.0,-0.0008510089246556163
704.0,-0.0006129355169832706
768.0,-0.00024321307137142867
832.0,0.0002881284453906119
896.0,-0.0011284486390650272
960.0,-0.0005710217519663274
1024.0,-0.0008979139383882284
1152.0,0.00018413687939755619
1280.0,0.0003880786243826151
1408.0,-0.0010945062385872006
1536.0,-0.0008907053852453828
1664.0,-0.0010700743878260255
1792.0,0.00033769995206966996
1920.0,0.0015814413782209158
2048.0,9.947295620804653e-05
2304.0,-0.0006201234646141529
2560.0,0.0007108540157787502
2816.0,-0.00111612887121737
3072.0,-6.569190009031445e-05
3328.0,0.0007300147553905845
3584.0,0.0008010293822735548
3840.0,0.00031129419221542776
4096.0,0.000569359224755317
4608.0,0.00043388584163039923
5120.0,-0.00026910664746537805
5632.0,-1.9383662220207043e-05
6144.0,9.773711644811556e-05
6656.0,-0.0012911690864712
7168.0,0.0015810527838766575
7680.0,-0.0007582154939882457
8192.0,0.0002032201737165451
9216.0,-0.0007118379580788314
10240.0,6.51798618491739e-05
11264.0,-0.00011279764294158667
12288.0,-0.0005822313250973821
13312.0,-0.0002308810071554035
14336.0,0.0003224366228096187
end
