version,3.0
numOfCh,1
type,point
parent_name,4-cuts
ch_type,1_1
kcount,1
numberNandB,1
brightnessNandB,1
carpet pos,0
pc,0
Time (ms),CH1 Auto-Correlation
1.0,0.02899346500635147
2.0,0.026904234662652016
3.0,0.02507222443819046
4.0,0.023464385420084
5.0,0.022045927122235298
6.0,0.02072286419570446
7.0,0.019550401717424393
8.0,0.018501512706279755
9.0,0.017558567225933075
10.0,0.016671856865286827
11.0,0.01589832454919815
12.0,0.015234660357236862
13.0,0.0146116828545928
14.0,0.01402138639241457
15.0,0.01342552900314331
16.0,0.012868919409811497
18.0,0.011893724091351032
20.0,0.011055946350097656
22.0,0.010328294709324837
24.0,0.009755407460033894
26.0,0.0092906029894948
28.0,0.008873654529452324
30.0,0.008515170775353909
32.0,0.00822034478187561
36.0,0.00775523018091917
40.0,0.00723204156383872
44.0,0.006616523023694754
48.0,0.00628942996263504
52.0,0.005941000301390886
56.0,0.0052835154347121716
60.0,0.004540493246167898
64.0,0.003940715920180082
72.0,0.0033002279233187437
80.0,0.002911842428147793
88.0,0.002946009859442711
96.0,0.002809844445437193
104.0,0.0028311056084930897
112.0,0.0027626960072666407
120.0,0.0023116888478398323
128.0,0.001861657714471221
144.0,0.0017823526868596673
160.0,0.0015451398212462664
176.0,0.001058791414834559
192.0,0.0011172615922987461
208.0,0.000524859584402293
224.0,0.0007749411161057651
240.0,0.001069068443030119
256.0,0.0013092177687212825
288.0,0.001187124173156917
320.0,0.0012972904369235039
352.0,0.0021508887875825167
384.0,0.0014743953943252563
416.0,0.001426260219886899
448.0,0.0020965682342648506
480.0,0.0013955803588032722
512.0,0.0006426608306355774
576.0,0.00041363350464962423
640.0,0.0006971925031393766
704.0,0.002052286174148321
768.0,0.002093900227919221
832.0,0.0015993899432942271
896.0,0.0017921564867720008
960.0,1.0832624866452534e-05
1024.0,0.0008076427620835602
1152.0,0.0003730911121238023
1280.0,-0.00017335441953036934
1408.0,-0.0003651946608442813
1536.0,0.001315274159424007
1664.0,0.0010286406613886356
1792.0,0.0007749154465273023
1920.0,0.0002881570835597813
2048.0,-0.00131180917378515
2304.0,0.0005615533445961773
2560.0,0.0002670991816557944
2816.0,-0.0012533331755548716
3072.0,-0.0011982962023466825
3328.0,0.0004390219401102513
3584.0,-0.0006909891380928457
3840.0,-0.00012765402789227664
4096.0,-0.0008347138646058738
4608.0,-0.0014821401564404368
5120.0,-0.00030512060038745403
5632.0,0.0001640255213715136
6144.0,-0.0009920548181980848
6656.0,-0.0014579574344679713
7168.0,-0.0005903822602704167
7680.0,-0.0012508640065789223
8192.0,-0.0003404105082154274
9216.0,-0.00023446016712114215
10240.0,-0.0014339969493448734
11264.0,0.003202164312824607
12288.0,0.0022008277010172606
13312.0,0.0014111020136624575
14336.0,-0.0023228852078318596
end
