version,3.0
numOfCh,1
type,point
parent_name,4-cuts
ch_type,1_1
kcount,1
numberNandB,1
brightnessNandB,1
carpet pos,0
pc,0
Time (ms),CH1 Auto-Correlation
1.0,0.02928473800420761
2.0,0.027132628485560417
3.0,0.025289682671427727
4.0,0.023673513904213905
5.0,0.02220219001173973
6.0,0.02091444656252861
7.0,0.01983833685517311
8.0,0.01892990618944168
9.0,0.018085645511746407
10.0,0.017326051369309425
11.0,0.01670420542359352
12.0,0.016122112050652504
13.0,0.015589005313813686
14.0,0.015083937905728817
15.0,0.014589528553187847
16.0,0.014092899858951569
18.0,0.013088523410260677
20.0,0.012140528298914433
22.0,0.01126400101929903
24.0,0.010528667829930782
26.0,0.009909273125231266
28.0,0.009365547448396683
30.0,0.008838375099003315
32.0,0.008374825119972229
36.0,0.007756290957331657
40.0,0.007322127930819988
44.0,0.006570118013769388
48.0,0.006034104153513908
52.0,0.005522260908037424
56.0,0.004865734837949276
60.0,0.004450703505426645
64.0,0.00415840744972229
72.0,0.0033857941161841154
80.0,0.002923493506386876
88.0,0.0027447703760117292
96.0,0.002531902864575386
104.0,0.0022413767874240875
112.0,0.001910482649691403
120.0,0.001633395324461162
128.0,0.0013034208677709103
144.0,0.0007422787020914257
160.0,0.0005681244074366987
176.0,0.0011423208052292466
192.0,0.0010983386309817433
208.0,0.0002068227477138862
224.0,-0.0003581825294531882
240.0,-0.0009672880987636745
256.0,-0.0010469851549714804
288.0,-0.0005303218495100737
320.0,-0.0009583701030351222
352.0,-0.000892316980753094
384.0,-0.0006048752111382782
416.0,-0.0006167393876239657
448.0,-0.00034206677810288966
480.0,-0.0002348541165702045
512.0,-0.00040496213478036225
576.0,-0.0016183329280465841
640.0,-0.001200182014144957
704.0,0.0012313908664509654
768.0,0.002802442293614149
832.0,0.0023397363256663084
896.0,0.0008843968971632421
960.0,0.00013579594087786973
1024.0,-0.0012676083715632558
1152.0,-0.0010784744517877698
1280.0,-0.00010879491310333833
1408.0,-0.0010004718787968159
1536.0,-0.00015132533735595644
1664.0,0.0008029190939851105
1792.0,-0.0004601011169143021
1920.0,0.0009594687726348639
2048.0,0.000438957562437281
2304.0,-0.0006284872652031481
2560.0,0.0005628588260151446
2816.0,0.0009707182762213051
3072.0,-0.001019015908241272
3328.0,-0.0006024294998496771
3584.0,-0.0012710917508229613
3840.0,-0.0012096784776076674
4096.0,-2.0270963432267308e-05
4608.0,-9.541528015688527e-06
5120.0,0.00020374471205286682
5632.0,0.0003616700414568186
6144.0,-0.0005548540502786636
6656.0,-0.0003705296549014747
7168.0,-0.0002133954840246588
7680.0,0.0006673605530522764
8192.0,0.0006877134437672794
9216.0,-0.0002448527084197849
10240.0,0.0004854564322158694
11264.0,-0.0012722584651783109
12288.0,-0.00034922375925816596
13312.0,-0.00015753452316857874
14336.0,0.0018187160603702068
end
