version,3.0
numOfCh,1
type,point
parent_name,4-cuts
ch_type,1_1
kcount,1
numberNandB,1
brightnessNandB,1
carpet pos,0
pc,0
Time (ms),CH1 Auto-Correlation
1.0,0.040133267641067505
2.0,0.03697787597775459
3.0,0.034198712557554245
4.0,0.03173384070396423
5.0,0.029606938362121582
6.0,0.02770298346877098
7.0,0.02606123313307762
8.0,0.024647802114486694
9.0,0.023399071767926216
10.0,0.02222122810781002
11.0,0.0211846511811018
12.0,0.020264144986867905
13.0,0.019431309774518013
14.0,0.01877753622829914
15.0,0.018087472766637802
16.0,0.017478540539741516
18.0,0.016360610723495483
20.0,0.015246952883899212
22.0,0.014283840544521809
24.0,0.013432401232421398
26.0,0.012561713345348835
28.0,0.011705190874636173
30.0,0.011021030135452747
32.0,0.01056434866040945
36.0,0.009851327165961266
40.0,0.008456955663859844
44.0,0.007527948822826147
48.0,0.007016900461167097
52.0,0.006405033636838198
56.0,0.005769906099885702
60.0,0.00524159986525774
64.0,0.0049686855636537075
72.0,0.003939942456781864
80.0,0.0036661988124251366
88.0,0.003294043242931366
96.0,0.0030999549198895693
104.0,0.0027065789327025414
112.0,0.0024263551458716393
120.0,0.0027267741970717907
128.0,0.003015519119799137
144.0,0.003534597810357809
160.0,0.0032983983401209116
176.0,0.002136921277269721
192.0,0.0014657411957159638
208.0,0.0012988627422600985
224.0,0.001926046796143055
240.0,0.0015341895632445812
256.0,0.0009007763583213091
288.0,0.0018753113690763712
320.0,0.0006817589164711535
352.0,-0.0009485547780059278
384.0,0.0002321992942597717
416.0,-0.00021651601127814502
448.0,-0.0009604344377294183
480.0,-0.002787685487419367
512.0,-0.003441945416852832
576.0,-0.002135283313691616
640.0,-0.0018037582049146295
704.0,-0.002575077349320054
768.0,-0.0022905466612428427
832.0,-0.0016127224080264568
896.0,-0.0007298013078980148
960.0,-0.0010486391838639975
1024.0,-0.0013116927584633231
1152.0,-0.0024841318372637033
1280.0,-0.0002378826611675322
1408.0,-1.7845432012109086e-05
1536.0,0.000925740459933877
1664.0,0.0017549725016579032
1792.0,0.0006663476815447211
1920.0,0.00025058415485545993
2048.0,-4.809827714780113e-06
2304.0,0.0004322753520682454
2560.0,-0.0011185919865965843
2816.0,-0.0005321546923369169
3072.0,0.00025188925792463124
3328.0,-0.00031927836243994534
3584.0,-0.0012151288101449609
3840.0,0.001897325157187879
4096.0,0.00041998032247647643
4608.0,-0.0014785872772336006
5120.0,-4.063371670781635e-05
5632.0,0.0006664750981144607
6144.0,0.00019257327949162573
6656.0,-0.0009544143103994429
7168.0,-0.00016591284656897187
7680.0,0.0006636795005761087
8192.0,0.0006785689038224518
9216.0,-0.000362914870493114
10240.0,4.2302570363972336e-05
11264.0,0.0006209455314092338
12288.0,-0.0005538853001780808
13312.0,0.0003207125118933618
14336.0,0.00013498737826012075
end
