version,3.0
numOfCh,1
type,point
parent_name,4-cuts
ch_type,1_1
kcount,1
numberNandB,1
brightnessNandB,1
carpet pos,0
pc,0
Time (ms),CH1 Auto-Correlation
1.0,0.08202707767486572
2.0,0.0750841498374939
3.0,0.0689547210931778
4.0,0.06388868391513824
5.0,0.05942701920866966
6.0,0.055639974772930145
7.0,0.05216901749372482
8.0,0.04913520812988281
9.0,0.04617975652217865
10.0,0.043370723724365234
11.0,0.04070576652884483
12.0,0.038327645510435104
13.0,0.03616047278046608
14.0,0.034307319670915604
15.0,0.03258086368441582
16.0,0.030940158292651176
18.0,0.028243426233530045
20.0,0.026140909641981125
22.0,0.024260077625513077
24.0,0.02245914377272129
26.0,0.02055240236222744
28.0,0.019036520272493362
30.0,0.01760454662144184
32.0,0.01665877178311348
36.0,0.015609603375196457
40.0,0.014793445356190205
44.0,0.014159740880131721
48.0,0.013860626146197319
52.0,0.013537357561290264
56.0,0.012534482404589653
60.0,0.011209562420845032
64.0,0.009910841472446918
72.0,0.0062278700061142445
80.0,0.0038857944309711456
88.0,0.0037900819443166256
96.0,0.0033279028721153736
104.0,0.001553032547235489
112.0,0.001591960433870554
120.0,0.0014878561487421393
128.0,0.000772150291595608
144.0,-0.0015806008595973253
160.0,-0.0018270943546667695
176.0,0.0005826014676131308
192.0,0.0024722397793084383
208.0,0.004324331413954496
224.0,0.0020828049164265394
240.0,0.0010772504610940814
256.0,0.0007770294905640185
288.0,-0.0016108419513329864
320.0,-0.0011136276880279183
352.0,-0.003964190371334553
384.0,-0.005914648529142141
416.0,-0.005325185135006905
448.0,-0.004824931733310223
480.0,-0.0038455072790384293
512.0,-0.0034542677458375692
576.0,-0.004664581269025803
640.0,-0.00329382112249732
704.0,0.00203350349329412
768.0,-0.0008922963752411306
832.0,0.0004607853770721704
896.0,0.002903958549723029
960.0,0.00395742105320096
1024.0,0.005054367706179619
1152.0,0.0014021900715306401
1280.0,-0.0021601079497486353
1408.0,-0.004255573730915785
1536.0,0.0007378780283033848
1664.0,0.001552182249724865
1792.0,-0.0008488026214763522
1920.0,0.0010889474069699645
2048.0,0.00030923570739105344
2304.0,-0.0007116380729712546
2560.0,0.0031194137409329414
2816.0,-0.0005866466672159731
3072.0,-0.002722665434703231
3328.0,-0.0004222672141622752
3584.0,-0.00046659057261422276
3840.0,0.0011693290434777737
4096.0,0.002110502915456891
4608.0,-0.0008771786233410239
5120.0,0.0001240588608197868
5632.0,-0.003202082123607397
6144.0,0.002602889435365796
6656.0,0.00010938743071164936
7168.0,-0.0008187266648747027
7680.0,0.00021241651847958565
8192.0,-0.0003407502081245184
9216.0,-0.0009398279944434762
10240.0,0.0013552037999033928
11264.0,-0.0013568128924816847
12288.0,-0.000760432390961796
13312.0,-0.0006543891504406929
14336.0,-0.00029245298355817795
end
