version,3.0
numOfCh,1
type,point
parent_name,4-cuts
ch_type,1_1
kcount,1
numberNandB,1
brightnessNandB,1
carpet pos,0
pc,0
Time (ms),CH1 Auto-Correlation
1.0,0.02848401851952076
2.0,0.02637774683535099
3.0,0.024567438289523125
4.0,0.023044193163514137
5.0,0.021653972566127777
6.0,0.02047574333846569
7.0,0.01946786418557167
8.0,0.018589701503515244
9.0,0.0178103968501091
10.0,0.01710253208875656
11.0,0.01649438962340355
12.0,0.01590057648718357
13.0,0.01536937803030014
14.0,0.014816844835877419
15.0,0.014281738549470901
16.0,0.013752619735896587
18.0,0.01270697545260191
20.0,0.011732012964785099
22.0,0.010748730972409248
24.0,0.00982605293393135
26.0,0.009163969196379185
28.0,0.008650469593703747
30.0,0.008174433372914791
32.0,0.007800376508384943
36.0,0.0072683291509747505
40.0,0.006812725681811571
44.0,0.006515757646411657
48.0,0.006156128831207752
52.0,0.005723478272557259
56.0,0.005221569444984198
60.0,0.004851588048040867
64.0,0.004488991107791662
72.0,0.0035751352552324533
80.0,0.0029495730996131897
88.0,0.002564929658547044
96.0,0.0022771789226680994
104.0,0.0017446845304220915
112.0,0.0015525195049121976
120.0,0.0014390971045941114
128.0,0.0014940889086574316
144.0,0.0010232352651655674
160.0,0.001011692569591105
176.0,0.0015864284941926599
192.0,0.000992692424915731
208.0,0.0005759895429946482
224.0,0.0005172659293748438
240.0,0.00020219040743540972
256.0,0.00029712801915593445
288.0,-0.0004501765070017427
320.0,-0.001383105292916298
352.0,-0.0012654532911255956
384.0,-0.0014238933799788356
416.0,-0.0009843839798122644
448.0,0.0004803282499779016
480.0,0.0006334697245620191
512.0,0.0006277801003307104
576.0,0.0011298805475234985
640.0,0.0004948196583427489
704.0,-4.1680599679239094e-05
768.0,-0.0003013583191204816
832.0,0.0017632952658459544
896.0,0.0017550186021253467
960.0,0.0010896060848608613
1024.0,-0.0004761821764986962
1152.0,-0.001671404461376369
1280.0,-0.0009499798179604113
1408.0,0.0003907355130650103
1536.0,4.2924959416268393e-05
1664.0,-0.001811934169381857
1792.0,-0.00011193293903488666
1920.0,0.00011068591265939176
2048.0,0.00013963623496238142
2304.0,-0.0005000272649340332
2560.0,-0.0003496040590107441
2816.0,0.00036793953040614724
3072.0,-0.0010546580888330936
3328.0,0.0005224849446676672
3584.0,-0.0008672686526551843
3840.0,-0.001024968340061605
4096.0,-0.0011344383237883449
4608.0,-0.0004163155099377036
5120.0,-0.00017590963398106396
5632.0,0.00023080279061105102
6144.0,0.0005213472177274525
6656.0,0.0002975989191327244
7168.0,0.0005841965321451426
7680.0,6.503918848466128e-05
8192.0,0.0007597458898089826
9216.0,-5.9823829360539094e-05
10240.0,-0.0004995787749066949
11264.0,-0.0003941236063838005
12288.0,-0.0006255126791074872
13312.0,0.0002211268583778292
14336.0,0.0010016682790592313
end
