version,3.0
numOfCh,1
type,point
parent_name,4-cuts
ch_type,1_1
kcount,1
numberNandB,1
brightnessNandB,1
carpet pos,0
pc,0
Time (ms),CH1 Auto-Correlation
1.0,0.08320287615060806
2.0,0.07675891369581223
3.0,0.07138925790786743
4.0,0.06689702719449997
5.0,0.06290639191865921
6.0,0.05937541276216507
7.0,0.056153569370508194
8.0,0.05342026799917221
9.0,0.05101863667368889
10.0,0.049031227827072144
11.0,0.0470116026699543
12.0,0.04527320712804794
13.0,0.04360389709472656
14.0,0.042139533907175064
15.0,0.04075486585497856
16.0,0.039356231689453125
18.0,0.03680386766791344
20.0,0.03431035205721855
22.0,0.03173370659351349
24.0,0.029648078605532646
26.0,0.027978073805570602
28.0,0.02648780681192875
30.0,0.02506861835718155
32.0,0.023641841486096382
36.0,0.020691974088549614
40.0,0.01760946772992611
44.0,0.014390792697668076
48.0,0.012240324169397354
52.0,0.010230532847344875
56.0,0.009392098523676395
60.0,0.00885571725666523
64.0,0.008149229921400547
72.0,0.006829946301877499
80.0,0.005045736208558083
88.0,0.004019912797957659
96.0,0.003651500679552555
104.0,0.0023710262030363083
112.0,0.0022982084192335606
120.0,0.0027014408260583878
128.0,0.0018283947138115764
144.0,0.0018009657505899668
160.0,0.002635507145896554
176.0,0.0017244282644242048
192.0,0.00045933533692732453
208.0,-0.0005878988886252046
224.0,-0.0024530456867069006
240.0,-0.0020408760756254196
256.0,-0.001141260494478047
288.0,-0.00030146498465910554
320.0,0.0014988192124292254
352.0,0.0013142097741365433
384.0,0.002314923098310828
416.0,-8.98817233974114e-05
448.0,-0.003482140600681305
480.0,-0.00186727789696306
512.0,8.555842941859737e-05
576.0,0.0015111066168174148
640.0,0.003725759219378233
704.0,0.0016316237160935998
768.0,-0.0023888135328888893
832.0,-0.0007919812342152
896.0,-0.0004308467614464462
960.0,-0.003425499889999628
1024.0,-0.005334747955203056
1152.0,0.0016527172410860658
1280.0,0.0012365763541311026
1408.0,9.647876868257299e-05
1536.0,0.00033463063300587237
1664.0,-0.0023043192923069
1792.0,0.0027109114453196526
1920.0,0.0035806435626000166
2048.0,0.0019351554801687598
2304.0,0.0003385262389201671
2560.0,0.0011978602269664407
2816.0,0.0006556345033459365
3072.0,-0.0024921451695263386
3328.0,-0.0018066592747345567
3584.0,0.00015061593148857355
3840.0,0.002004351932555437
4096.0,4.99071174999699e-05
4608.0,0.0013589682057499886
5120.0,-0.004429766908288002
5632.0,-0.0010965316323563457
6144.0,0.0004376940196380019
6656.0,0.00038215515087358654
7168.0,0.000841227825731039
7680.0,-0.0025181551463901997
8192.0,0.002113351598381996
9216.0,0.0006992295384407043
10240.0,0.000408985186368227
11264.0,0.0005949257174506783
12288.0,-0.002780060051009059
13312.0,-0.0041906945407390594
14336.0,-0.00556192034855485
end
