version,3.0
numOfCh,1
type,point
parent_name,4-cuts
ch_type,1_1
kcount,1
numberNandB,1
brightnessNandB,1
carpet pos,0
pc,0
Time (ms),CH1 Auto-Correlation
1.0,0.07657773792743683
2.0,0.07014777511358261
3.0,0.06458798795938492
4.0,0.059746429324150085
5.0,0.05546385794878006
6.0,0.05177352949976921
7.0,0.048464205116033554
8.0,0.04575581103563309
9.0,0.043321408331394196
10.0,0.041116777807474136
11.0,0.03901899978518486
12.0,0.0373699925839901
13.0,0.035830266773700714
14.0,0.03444993868470192
15.0,0.03313124179840088
16.0,0.0319175124168396
18.0,0.029801951721310616
20.0,0.027808772400021553
22.0,0.026272928342223167
24.0,0.024791818112134933
26.0,0.023473508656024933
28.0,0.022267870604991913
30.0,0.02104848250746727
32.0,0.01999579928815365
36.0,0.018069438636302948
40.0,0.016176391392946243
44.0,0.014732085168361664
48.0,0.013527951203286648
52.0,0.012308394536376
56.0,0.011397264897823334
60.0,0.011266766116023064
64.0,0.010717827826738358
72.0,0.008408108726143837
80.0,0.007626199629157782
88.0,0.006904531270265579
96.0,0.005252539180219173
104.0,0.003838525153696537
112.0,0.0036787455901503563
120.0,0.004247675649821758
128.0,0.005245984997600317
144.0,0.0038278920110315084
160.0,0.0049936650320887566
176.0,0.003497699275612831
192.0,0.0028252326883375645
208.0,0.0022901580668985844
224.0,0.0022870611865073442
240.0,0.0036644982174038887
256.0,0.0033491298090666533
288.0,0.0021121150348335505
320.0,-0.00015180489572230726
352.0,0.0012960516614839435
384.0,0.002883000997826457
416.0,0.004505101591348648
448.0,0.002102520549669862
480.0,0.0015963780460879207
512.0,0.0006731779430992901
576.0,0.0015093081165105104
640.0,-0.00025892723351716995
704.0,0.002490553306415677
768.0,0.002587284194305539
832.0,-0.0015752455219626427
896.0,-0.0012338262749835849
960.0,-0.00016061455244198442
1024.0,-0.00312180258333683
1152.0,-0.00198322138749063
1280.0,-0.002514901105314493
1408.0,-0.0014655401464551687
1536.0,-0.0004662827996071428
1664.0,0.00036570007796399295
1792.0,1.4872478459437843e-05
1920.0,0.0025583102833479643
2048.0,0.002524405252188444
2304.0,0.0021278318017721176
2560.0,0.0017978717805817723
2816.0,0.00015301596431527287
3072.0,0.002521322574466467
3328.0,-0.0013119438663125038
3584.0,0.0034906314685940742
3840.0,0.0008303622016683221
4096.0,0.0005151053192093968
4608.0,-0.002090675290673971
5120.0,2.903555468947161e-05
5632.0,0.0011379343923181295
6144.0,0.002147914841771126
6656.0,-0.0030462874565273523
7168.0,-0.002637025434523821
7680.0,0.0011815918842330575
8192.0,0.003888125531375408
9216.0,-0.002364239888265729
10240.0,-0.003035684349015355
11264.0,-0.0022371599916368723
12288.0,-0.0015745863784104586
13312.0,-0.006833384744822979
14336.0,-0.0027552347164601088
end
