version,3.0
numOfCh,1
type,point
parent_name,4-cuts
ch_type,1_1
kcount,1
numberNandB,1
brightnessNandB,1
carpet pos,0
pc,0
Time (ms),CH1 Auto-Correlation
1.0,0.04091767594218254
2.0,0.03774898871779442
3.0,0.03510076180100441
4.0,0.032776858657598495
5.0,0.030760344117879868
6.0,0.028980553150177002
7.0,0.02728450670838356
8.0,0.025687187910079956
9.0,0.02427123673260212
10.0,0.022990167140960693
11.0,0.021995093673467636
12.0,0.020996766164898872
13.0,0.020108729600906372
14.0,0.019269635900855064
15.0,0.01847168616950512
16.0,0.017703963443636894
18.0,0.01648845337331295
20.0,0.015373020432889462
22.0,0.01443280465900898
24.0,0.01338682509958744
26.0,0.012511763721704483
28.0,0.01185568980872631
30.0,0.011179708875715733
32.0,0.010540873743593693
36.0,0.008915560320019722
40.0,0.007916007190942764
44.0,0.007227881345897913
48.0,0.0068687209859490395
52.0,0.0068705445155501366
56.0,0.006368541624397039
60.0,0.005717226304113865
64.0,0.005029450636357069
72.0,0.003340462688356638
80.0,0.002492825035005808
88.0,0.001903985277749598
96.0,0.0015019143465906382
104.0,0.001231473870575428
112.0,0.0007532764575444162
120.0,0.0004035285674035549
128.0,-5.11613288836088e-05
144.0,-9.730856982059777e-05
160.0,-0.00016536757175344974
176.0,1.1477884982014075e-05
192.0,0.0012621220666915178
208.0,0.001108531723730266
224.0,0.002056826138868928
240.0,0.0024894168600440025
256.0,0.002245631767436862
288.0,0.0014139888808131218
320.0,0.0005019271047785878
352.0,-0.0010263773147016764
384.0,-0.0017161006107926369
416.0,-0.00150382611900568
448.0,-0.0004866958479396999
480.0,0.0005023839185014367
512.0,0.0007240853155963123
576.0,0.000664455583319068
640.0,-0.0011568928603082895
704.0,-0.0014805810060352087
768.0,0.00024253423907794058
832.0,0.0016217896481975913
896.0,0.0010621461551636457
960.0,0.0017861258238554
1024.0,0.0004371899412944913
1152.0,0.00013654059148393571
1280.0,-0.0007501033833250403
1408.0,0.0010694173397496343
1536.0,-0.0018832252826541662
1664.0,0.00018278916832059622
1792.0,0.0018361512338742614
1920.0,-0.0010346920462325215
2048.0,0.0007390230312012136
2304.0,-0.001095720799639821
2560.0,0.00036963573074899614
2816.0,-0.0017069056630134583
3072.0,-0.0009556750883348286
3328.0,0.0007057904149405658
3584.0,-0.00023983804567251354
3840.0,-0.00010744466999312863
4096.0,-0.0003200223727617413
4608.0,0.0010135724442079663
5120.0,0.00020124304865021259
5632.0,0.0006369575276039541
6144.0,-0.00020585645688697696
6656.0,-4.0016773709794506e-05
7168.0,0.0003446696209721267
7680.0,0.00017195596592500806
8192.0,-0.0004562590620480478
9216.0,-0.0006675915792584419
10240.0,0.0007910942658782005
11264.0,-0.00019613087351899594
12288.0,0.0013696984387934208
13312.0,-0.0026782266795635223
14336.0,-0.004424239508807659
end
