version,3.0
numOfCh,1
type,point
parent_name,4-cuts
ch_type,1_1
kcount,1
numberNandB,1
brightnessNandB,1
carpet pos,0
pc,0
Time (ms),CH1 Auto-Correlation
1.0,0.08865880966186523
2.0,0.08203469216823578
3.0,0.07610096782445908
4.0,0.07087600976228714
5.0,0.06639678031206131
6.0,0.06244966387748718
7.0,0.058941807597875595
8.0,0.055956143885850906
9.0,0.053252216428518295
10.0,0.05055682361125946
11.0,0.048029616475105286
12.0,0.04561851546168327
13.0,0.04363911226391792
14.0,0.0418018214404583
15.0,0.039933234453201294
16.0,0.03839779272675514
18.0,0.035832006484270096
20.0,0.033782958984375
22.0,0.03184948489069939
24.0,0.03031528741121292
26.0,0.028936002403497696
28.0,0.027205815538764
30.0,0.025624562054872513
32.0,0.024573875591158867
36.0,0.022763323038816452
40.0,0.02027706429362297
44.0,0.017750248312950134
48.0,0.015431600622832775
52.0,0.013430767692625523
56.0,0.011888382956385612
60.0,0.010876444168388844
64.0,0.010153702460229397
72.0,0.0077226110734045506
80.0,0.005535927601158619
88.0,0.006260655354708433
96.0,0.0069833779707551
104.0,0.006561263930052519
112.0,0.006542943883687258
120.0,0.007180274464190006
128.0,0.007746316026896238
144.0,0.004796410445123911
160.0,0.0022167451679706573
176.0,0.0012540784664452076
192.0,-0.00030689590494148433
208.0,0.002402710961177945
224.0,0.0020204780157655478
240.0,0.0009397225803695619
256.0,-0.0012241518124938011
288.0,0.00037631369195878506
320.0,0.0041330736130476
352.0,0.002319913124665618
384.0,0.0005951951607130468
416.0,0.004692038055509329
448.0,0.004851854871958494
480.0,0.003451455617323518
512.0,-0.0006126366788521409
576.0,-0.0007870299741625786
640.0,-0.0010711357463151217
704.0,0.0016981448279693723
768.0,-0.000758680107537657
832.0,0.00010544586257310584
896.0,0.0020445133559405804
960.0,0.0018685858231037855
1024.0,0.002153537003323436
1152.0,0.0009602722711861134
1280.0,-0.0012091377284377813
1408.0,0.0009714195039123297
1536.0,0.0003328773018438369
1664.0,-0.0008923877612687647
1792.0,-0.0012387924361974
1920.0,0.001842857338488102
2048.0,0.0010743890888988972
2304.0,0.0014852334279567003
2560.0,-0.0006392184877768159
2816.0,-0.006416113581508398
3072.0,-0.003884519450366497
3328.0,-0.0020958997774869204
3584.0,-0.000716409704182297
3840.0,-0.0023591932840645313
4096.0,-0.0011314147850498557
4608.0,-0.0017811065772548318
5120.0,-0.0034908719826489687
5632.0,-0.0004195183573756367
6144.0,9.273277828469872e-05
6656.0,-0.0002638610021676868
7168.0,0.002241985872387886
7680.0,0.002066617365926504
8192.0,0.004479148890823126
9216.0,0.000900222104974091
10240.0,-0.0031027973163872957
11264.0,-0.0016012991545721889
12288.0,0.002532453276216984
13312.0,0.0020864910911768675
14336.0,-0.004724895115941763
end
