version,3.0
numOfCh,1
type,point
parent_name,4-cuts
ch_type,1_1
kcount,1
numberNandB,1
brightnessNandB,1
carpet pos,0
pc,0
Time (ms),CH1 Auto-Correlation
1.0,0.04140356555581093
2.0,0.03816014155745506
3.0,0.035419899970293045
4.0,0.03303468972444534
5.0,0.030993573367595673
6.0,0.029226696118712425
7.0,0.027577413246035576
8.0,0.026129931211471558
9.0,0.024806978181004524
10.0,0.023657022044062614
11.0,0.0227180328220129
12.0,0.021746380254626274
13.0,0.0208051148802042
14.0,0.01991274021565914
15.0,0.01906605064868927
16.0,0.018222274258732796
18.0,0.016845298931002617
20.0,0.015654360875487328
22.0,0.01443746592849493
24.0,0.013265123590826988
26.0,0.012170018628239632
28.0,0.011308952234685421
30.0,0.01054454781115055
32.0,0.00973080936819315
36.0,0.008486932143568993
40.0,0.00785106886178255
44.0,0.007363355718553066
48.0,0.006415089126676321
52.0,0.005341959651559591
56.0,0.004529101308435202
60.0,0.004223617725074291
64.0,0.00408877432346344
72.0,0.003868940519168973
80.0,0.004095457494258881
88.0,0.003980651032179594
96.0,0.0035242217127233744
104.0,0.0025729963090270758
112.0,0.0022228159941732883
120.0,0.0021961512975394726
128.0,0.0020330464467406273
144.0,0.0018798628589138389
160.0,0.002035959856584668
176.0,0.002049956703558564
192.0,0.0020390665158629417
208.0,0.0020936543587595224
224.0,0.0022547643166035414
240.0,0.002820830326527357
256.0,0.001780435093678534
288.0,-0.0001767353678587824
320.0,-0.0007234493969008327
352.0,-0.0016020729672163725
384.0,-0.0004935705219395459
416.0,-0.0016399170272052288
448.0,-0.003028516424819827
480.0,-0.00128073466476053
512.0,-0.0011201418237760663
576.0,-0.0035224712919443846
640.0,-0.003188047092407942
704.0,-0.0024175981525331736
768.0,-0.0021253428421914577
832.0,-7.955320324981585e-05
896.0,0.000686352257616818
960.0,-0.0001190827097161673
1024.0,0.0005727554089389741
1152.0,0.0003633488086052239
1280.0,0.0012048693606629968
1408.0,0.0015091740060597658
1536.0,0.0011298295576125383
1664.0,0.00116305414121598
1792.0,0.001329502440057695
1920.0,-0.0003959470195695758
2048.0,-0.0009169908589683473
2304.0,-0.0018986619543284178
2560.0,-0.0005557186086662114
2816.0,0.0015020107384771109
3072.0,0.0024160887114703655
3328.0,-0.0012835684465244412
3584.0,-0.0023919858504086733
3840.0,-0.0011659838492050767
4096.0,5.4286156228045e-05
4608.0,0.00020050116290804
5120.0,-0.00020663076429627836
5632.0,-0.0008592535159550607
6144.0,0.00024800936807878315
6656.0,-0.0016187394503504038
7168.0,0.0001302242453675717
7680.0,0.00011220692977076396
8192.0,-0.0004305249312892556
9216.0,0.0010948186973109841
10240.0,0.00026779843028634787
11264.0,-0.0004390258982311934
12288.0,0.0007823658525012434
13312.0,-0.0002813097380567342
14336.0,-0.000530437333509326
end
