version,3.0
numOfCh,1
type,point
parent_name,4-cuts
ch_type,1_1
kcount,1
numberNandB,1
brightnessNandB,1
carpet pos,0
pc,0
Time (ms),CH1 Auto-Correlation
1.0,0.026012346148490906
2.0,0.023861009627580643
3.0,0.022075707092881203
4.0,0.02050931192934513
5.0,0.019151929765939713
6.0,0.01794242300093174
7.0,0.01687108352780342
8.0,0.015885626897215843
9.0,0.014990715309977531
10.0,0.014053476974368095
11.0,0.0132116274908185
12.0,0.012441283091902733
13.0,0.011674140579998493
14.0,0.011042308993637562
15.0,0.010476378723978996
16.0,0.009954220615327358
18.0,0.009125186130404472
20.0,0.008451808243989944
22.0,0.007792895659804344
24.0,0.007309944834560156
26.0,0.006831537466496229
28.0,0.006301878020167351
30.0,0.005749334115535021
32.0,0.005136650986969471
36.0,0.004374142736196518
40.0,0.0038705701008439064
44.0,0.003400996094569564
48.0,0.003059766022488475
52.0,0.0028328807093203068
56.0,0.0025429476518183947
60.0,0.0020524419378489256
64.0,0.0018387851305305958
72.0,0.001520484802313149
80.0,0.0015584974316880107
88.0,0.0015745945274829865
96.0,0.0017931764014065266
104.0,0.002050477545708418
112.0,0.001894591492600739
120.0,0.0014525160659104586
128.0,0.0008203875040635467
144.0,0.00020794919691979885
160.0,-0.00012211676221340895
176.0,-0.00022746992181055248
192.0,-0.0006288537406362593
208.0,-0.001380753587000072
224.0,-0.0010456789750605822
240.0,-0.00040857389103621244
256.0,-0.0003044404147658497
288.0,-0.00015425437595695257
320.0,0.0002365418040426448
352.0,0.0008664284250698984
384.0,-0.0005820843507535756
416.0,-0.0005750749842263758
448.0,-4.265905590727925e-05
480.0,-0.0003471066593192518
512.0,-0.0007371412357315421
576.0,-0.0005316995084285736
640.0,-0.0006313715712167323
704.0,-0.00026554439682513475
768.0,0.00017729094543028623
832.0,-9.976733053917997e-06
896.0,-0.001361423172056675
960.0,-0.002457297407090664
1024.0,-0.0013069589622318745
1152.0,0.0002636583521962166
1280.0,-2.2094533051131293e-05
1408.0,-0.0011717628221958876
1536.0,4.862569039687514e-05
1664.0,-0.0006204455276019871
1792.0,0.00020109632168896496
1920.0,0.0008348923875018954
2048.0,0.00041983049595728517
2304.0,-0.0004295393591746688
2560.0,0.0005755914025940001
2816.0,-0.00028812099481001496
3072.0,-0.0006025594775564969
3328.0,0.0010452260030433536
3584.0,0.0005640219314955175
3840.0,-0.0006366156158037484
4096.0,-0.0009651548461988568
4608.0,7.94461175246397e-06
5120.0,0.00040332082426175475
5632.0,-0.00012179585610283539
6144.0,2.2641237592324615e-05
6656.0,-0.0005747489631175995
7168.0,0.001378389191813767
7680.0,-0.001305361627601087
8192.0,0.0001769946829881519
9216.0,-0.0007187222363427281
10240.0,0.0009612213470973074
11264.0,-0.0005542012513615191
12288.0,4.939211066812277e-05
13312.0,0.0004891660064458847
14336.0,-0.0008978924597613513
end
