version,3.0
numOfCh,1
type,point
parent_name,4-cuts
ch_type,1_1
kcount,1
numberNandB,1
brightnessNandB,1
carpet pos,0
pc,0
Time (ms),CH1 Auto-Correlation
1.0,0.025451792404055595
2.0,0.023364534601569176
3.0,0.02161279320716858
4.0,0.020028509199619293
5.0,0.018584247678518295
6.0,0.017321763560175896
7.0,0.016194051131606102
8.0,0.015222715213894844
9.0,0.014336880296468735
10.0,0.013577095232903957
11.0,0.012858315370976925
12.0,0.012266322039067745
13.0,0.011651338078081608
14.0,0.011067274026572704
15.0,0.010470676235854626
16.0,0.009943099692463875
18.0,0.00898100808262825
20.0,0.008208614774048328
22.0,0.007523729465901852
24.0,0.006997504271566868
26.0,0.006426127161830664
28.0,0.005925507750362158
30.0,0.005492197349667549
32.0,0.0052594998851418495
36.0,0.004870469681918621
40.0,0.004202347714453936
44.0,0.003716119797900319
48.0,0.0034044508356601
52.0,0.0031861555762588978
56.0,0.0029847417026758194
60.0,0.002611159812659025
64.0,0.002378104254603386
72.0,0.0017056246288120747
80.0,0.0011606380576267838
88.0,0.000570956151932478
96.0,-0.00018505817570257932
104.0,-0.0007419622270390391
112.0,-0.0012005154276266694
120.0,-0.001523334882222116
128.0,-0.00161394861061126
144.0,-0.0015104245394468307
160.0,-0.0008816876215860248
176.0,-0.000937320408411324
192.0,-0.0007029089611023664
208.0,-0.0010953297605738044
224.0,-0.001344686490483582
240.0,-0.0009716705535538495
256.0,-0.001005049329251051
288.0,-0.00038969996967352927
320.0,-0.000341273145750165
352.0,-5.698384939023526e-06
384.0,6.830439087934792e-05
416.0,-0.00020494578348007053
448.0,-0.0003560773329809308
480.0,5.89900701015722e-05
512.0,0.0006596712046302855
576.0,0.0008469900931231678
640.0,-3.861036020680331e-05
704.0,0.00019904162036255002
768.0,0.0001663338771322742
832.0,0.0007618008530698717
896.0,0.0004661398706957698
960.0,0.000634889118373394
1024.0,0.0005318543990142643
1152.0,-0.001003789366222918
1280.0,-0.00046655815094709396
1408.0,0.0001367583026876673
1536.0,-9.878973651211709e-05
1664.0,-0.0003331908374093473
1792.0,-0.001266020000912249
1920.0,-0.0005582478479482234
2048.0,-0.00014424268738366663
2304.0,0.00028779584681615233
2560.0,-0.001073251711204648
2816.0,0.0001377709850203246
3072.0,0.0007710811914876103
3328.0,-0.00034586768015287817
3584.0,0.00025137406191788614
3840.0,0.00020518095698207617
4096.0,0.00010400784958619624
4608.0,0.00046101349289529026
5120.0,1.9086217434960417e-05
5632.0,-0.00020654191030189395
6144.0,2.311727985215839e-05
6656.0,-0.0005042055272497237
7168.0,-0.0005205799825489521
7680.0,0.0008885919232852757
8192.0,0.0002700018812902272
9216.0,-8.759529009694234e-05
10240.0,-0.0008411638555116951
11264.0,0.00016853281704243273
12288.0,-0.0002041436528088525
13312.0,0.00047714964603073895
14336.0,4.728989733848721e-05
end
