version,3.0
numOfCh,1
type,point
parent_name,4-cuts
ch_type,1_1
kcount,1
numberNandB,1
brightnessNandB,1
carpet pos,0
pc,0
Time (ms),CH1 Auto-Correlation
1.0,0.029173457995057106
2.0,0.027058348059654236
3.0,0.02525697834789753
4.0,0.0236961729824543
5.0,0.022349443286657333
6.0,0.02117842249572277
7.0,0.020055482164025307
8.0,0.01913086511194706
9.0,0.018215540796518326
10.0,0.01737155020236969
11.0,0.016649942845106125
12.0,0.015991581603884697
13.0,0.015438646078109741
14.0,0.014922360889613628
15.0,0.014407922513782978
16.0,0.014018179848790169
18.0,0.013350243680179119
20.0,0.012875828891992569
22.0,0.012448607012629509
24.0,0.01188567467033863
26.0,0.011363889090716839
28.0,0.010849855840206146
30.0,0.01029220037162304
32.0,0.009746160358190536
36.0,0.008564785122871399
40.0,0.007572876289486885
44.0,0.006943798623979092
48.0,0.006521758623421192
52.0,0.006030932068824768
56.0,0.005543763283640146
60.0,0.005165899638086557
64.0,0.004902721848338842
72.0,0.004498946946114302
80.0,0.004153413698077202
88.0,0.0034794278908520937
96.0,0.0032741217873990536
104.0,0.0034783026203513145
112.0,0.003050000872462988
120.0,0.0032750272657722235
128.0,0.003334288252517581
144.0,0.002367092063650489
160.0,0.0016973400488495827
176.0,0.0009815813973546028
192.0,0.0006347169983200729
208.0,0.0015243199886754155
224.0,0.0019274126971140504
240.0,0.001880781608633697
256.0,0.002186706755310297
288.0,0.0024125019554048777
320.0,0.0020401061046868563
352.0,0.0015606259694322944
384.0,0.0006454581744037569
416.0,2.4199902327382006e-05
448.0,-0.0005220973398536444
480.0,-0.0006341665284708142
512.0,-0.0003638677590060979
576.0,-0.0005851287860423326
640.0,0.0006792322965338826
704.0,0.0003057013382203877
768.0,-0.00021101663878653198
832.0,-0.0005050601321272552
896.0,-9.054382826434448e-05
960.0,-0.00013920363562647253
1024.0,-0.0005942618590779603
1152.0,-0.0012169773690402508
1280.0,-0.0011606010375544429
1408.0,0.0002708156534936279
1536.0,-0.00040027761133387685
1664.0,5.7754223234951496e-05
1792.0,-0.0006091940449550748
1920.0,-9.249264257960021e-05
2048.0,-0.00026144308503717184
2304.0,-7.15400665285415e-06
2560.0,-0.0010792682878673077
2816.0,-0.0008986410102806985
3072.0,9.144392242887989e-05
3328.0,0.00020439036597963423
3584.0,0.0005825368571095169
3840.0,0.00017320622282568365
4096.0,-0.0006804844015277922
4608.0,-0.0007631702465005219
5120.0,-8.626173803349957e-05
5632.0,-0.0003512593684718013
6144.0,0.0004886938841082156
6656.0,-0.0006572199054062366
7168.0,-0.0011294800788164139
7680.0,0.0005124806775711477
8192.0,-0.0009198322077281773
9216.0,0.001241210731677711
10240.0,0.0011321251513436437
11264.0,0.00012704348773695529
12288.0,-0.0010701451683416963
13312.0,-0.0013399793533608317
14336.0,0.0008918535313569009
end
